
Integration time [ms]:   0,040
Averaging Nr. [scans]: 11
Smoothing Nr. [pixels]: 0
Data measured with spectrometer [name]: 7318044SP
Wave   ;Sample   ;Dark     ;Reference
[nm]   ;[counts] ;[counts] ;[counts] 

186,757;   23,017;   31,551;    1,318
187,357;   68,648;   22,551;    0,955
187,958;   40,478;   15,460;   -1,591
188,558;   83,721;    8,915;   -1,227
189,159;   50,319;    6,733;   -4,500
189,759;   22,182;    7,278;   -3,591
190,360;   20,195;    2,824;   -2,136
190,960;   64,310;    2,915;   -4,136
191,560;   78,481;    3,189;   -6,591
192,161;  337,242;    4,372;   -3,500
192,761;  171,017;    4,010;   -3,227
193,361;  117,740;    1,556;   -3,773
193,962;  164,140;    2,010;   -2,682
194,562;   92,323;    1,189;   -3,955
195,162;  135,249;   -2,448;   -2,227
195,762;  301,694;   -3,176;   -0,045
196,362;  250,561;    1,370;   -2,500
196,963;  103,519;    2,006;   -0,864
197,563;  185,188;    1,551;   -0,955
198,163;  126,445;    0,096;   -0,682
198,763;  148,374;    1,733;   -0,500
199,363;  253,920;    3,096;   -0,500
199,963;  219,836;    0,369;    0,409
200,563;  187,112;    2,823;   -1,409
201,163;  164,786;    3,277;   -0,227
201,763;  268,546;    3,732;    0,318
202,363;  203,252;    1,459;    1,500
202,963;  327,415;    1,459;    1,045
203,563;  449,504;    0,277;    0,500
204,162;  271,459;    2,096;   -1,864
204,762;  265,321;    0,550;    0,591
205,362;  236,817;    3,004;    1,955
205,962;  340,229;    3,096;    1,955
206,562;  343,656;    1,823;    2,318
207,161;  305,051;   -0,087;    0,318
207,761;  475,963;    1,277;    2,409
208,361;  355,482;   -0,268;    1,409
208,960;  461,485;    0,459;    1,500
209,560;  545,265;    1,277;    1,591
210,160;  515,012;    0,550;    1,864
210,759;  478,657;    4,186;    1,227
211,359;  481,984;    1,459;    1,045
211,958;  775,047;    1,277;    2,045
212,558;  867,886;    1,732;    1,864
213,157;  695,855;    1,822;    1,500
213,757; 1168,508;    3,822;   -0,227
214,356;  852,175;    1,277;   -0,409
214,956; 1219,260;    3,095;    0,409
215,555;  818,203;    2,095;    2,136
216,154;  735,964;   -2,723;   -0,591
216,754;  753,668;    0,277;    0,773
217,353;  909,391;   -0,268;   -1,045
217,952;  752,866;   -0,178;    0,318
218,552; 1008,787;    1,368;   -0,773
219,151;  906,688;    0,277;    0,955
219,750;  902,522;    0,004;   -0,227
220,349; 1068,993;   -0,451;    1,045
220,948; 1120,428;   -1,360;    1,136
221,548; 1172,445;    0,913;    1,227
222,147; 1291,876;   -0,087;   -0,409
222,746; 1577,393;   -0,451;   -0,955
223,345; 1463,087;    0,731;    0,500
223,944; 1484,651;   -0,451;    0,773
224,543; 1689,591;    1,004;   -1,409
225,142; 1789,921;    0,094;    0,136
225,741; 1693,516;   -0,814;    1,045
226,340; 1728,790;   -0,451;   -0,955
226,939; 2207,943;   -0,996;   -0,136
227,538; 2206,516;   -0,360;   -0,773
228,137; 2362,998;   -0,814;    0,864
228,735; 2548,532;   -0,541;    1,227
229,334; 2268,600;   -0,905;   -0,227
229,933; 2646,873;    0,459;    0,591
230,532; 2767,825;    1,186;   -0,409
231,131; 2819,857;    1,732;    0,318
231,729; 3011,633;   -2,450;   -2,318
232,328; 3177,928;   -0,723;   -1,500
232,927; 3267,845;    1,004;   -0,500
233,525; 3442,093;    3,640;    0,045
234,124; 3651,336;    2,368;   -1,591
234,723; 3677,247;    0,913;   -1,045
235,321; 3843,853;    2,277;    0,136
235,920; 4121,736;    1,186;   -1,227
236,518; 4388,978;    3,459;    0,318
237,117; 4580,877;    0,004;   -0,227
237,715; 4765,305;    0,640;   -0,500
238,314; 4801,042;   -0,087;   -2,318
238,912; 4912,076;   -0,723;   -1,409
239,510; 4975,666;    0,459;   -1,227
240,109; 5145,059;    0,004;    3,773
240,707; 5206,355;   -0,996;    1,227
241,305; 5602,834;    0,550;    0,136
241,904; 5856,652;   -0,178;   -2,045
242,502; 5800,505;   -0,632;   -0,227
243,100; 5755,736;   -0,087;   -0,955
243,698; 6006,255;    0,732;    1,682
244,297; 6176,521;   -0,632;    0,682
244,895; 6016,375;   -0,269;   -2,318
245,493; 6385,912;    2,186;   -0,591
246,091; 6391,831;    1,368;   -1,318
246,689; 6387,819;    1,004;    0,591
247,287; 6593,501;    0,822;   -1,136
247,885; 6889,915;   -1,451;    1,227
248,483; 7001,273;    1,822;   -0,500
249,081; 7112,555;    0,185;    1,591
249,679; 7253,725;   -0,178;    1,682
250,277; 7557,924;   -1,723;    0,864
250,875; 7534,838;   -1,087;   -1,045
251,473; 7596,559;   -1,178;    0,500
252,071; 7783,273;    1,459;    1,045
252,669; 7945,015;   -1,814;    0,318
253,267; 8234,591;   -0,087;    0,773
253,864; 8195,956;   -0,360;    0,682
254,462; 8031,243;    1,640;    1,591
255,060; 8008,822;   -0,269;    1,318
255,658; 8351,015;    0,822;   -0,136
256,255; 8790,308;    0,186;   -2,045
256,853; 8659,006;   -0,269;    1,409
257,451; 8653,525;    0,822;    1,864
258,048; 8921,921;    1,822;    1,864
258,646; 8679,050;    1,731;   -1,045
259,243; 8876,369;   -0,087;    2,227
259,841; 8923,901;   -0,814;    0,318
260,438; 8815,710;   -0,087;    0,864
261,036; 9583,385;   -1,905;    1,409
261,633; 9455,583;   -0,087;    2,227
262,231; 9188,287;    2,731;   -0,045
262,828; 9242,485;   -0,905;    1,136
263,425; 9313,625;    0,913;   -0,591
264,023; 9623,913;    0,186;    0,045
264,620; 9120,572;   -0,360;   -0,318
265,217; 9510,026;   -2,087;    3,136
265,815; 9623,077;   -1,905;    2,136
266,412; 9380,322;    0,731;    0,136
267,009; 9445,422;   -1,451;    0,773
267,606; 9314,505;    0,822;   -0,955
268,203; 9335,374;   -0,269;   -0,591
268,801; 9660,128;    1,731;    0,591
269,398; 9942,893;   -0,360;    2,500
269,995; 9924,849;    0,277;    1,591
270,592; 9689,998;   -0,632;   -0,500
271,189; 9904,381;    0,186;    0,409
271,786;10045,580;   -0,632;    1,227
272,383; 9860,862;   -1,087;    0,227
272,980;10075,775;    0,277;    0,318
273,577;10543,586;    0,004;    1,227
274,174;10140,939;    0,822;    2,591
274,771;10142,742;   -0,814;   -0,773
275,367;10282,211;    2,277;    1,409
275,964;10219,600;    0,731;   -0,500
276,561;10352,959;    1,549;   -1,045
277,158;10592,725;    0,095;   -1,773
277,755;10727,737;    2,185;    0,409
278,351;10091,129;   -0,451;   -1,500
278,948;10447,600;   -0,815;    0,045
279,545;10466,950;   -1,360;    2,318
280,141;11073,206;   -1,723;   -2,045
280,738;11016,082;   -0,451;   -0,136
281,334;11284,802;   -1,633;    0,591
281,931;10620,241;   -0,087;   -1,318
282,528;10697,126;    0,822;   -0,500
283,124;11457,425;   -1,087;   -0,500
283,721;11373,013;   -0,451;    1,409
284,317;11176,775;    0,185;    2,500
284,913;11769,456;   -1,360;    0,591
285,510;11970,638;    0,640;   -0,318
286,106;11990,362;   -2,269;   -0,955
286,703;11590,713;   -0,360;    1,955
287,299;11799,628;   -1,451;   -0,591
287,895;12037,425;    0,822;   -1,045
288,491;12662,438;    0,186;    2,136
289,088;12401,054;   -2,360;    2,409
289,684;12459,378;   -1,723;    1,500
290,280;12438,080;    0,368;    0,682
290,876;12565,890;    1,822;    5,500
291,472;12428,214;    1,276;    2,227
292,068;12541,658;    1,367;    0,227
292,665;12256,083;    2,095;    0,773
293,261;11825,041;    0,276;    2,136
293,857;12245,875;    2,913;    2,136
294,453;12195,953;    3,550;    0,955
295,049;12067,202;   -0,268;    1,955
295,644;12095,037;    0,095;    0,136
296,240;12009,715;   -0,905;   -0,136
296,836;12064,188;   -0,995;    0,318
297,432;12378,922;    1,096;   -0,500
298,028;12429,809;    0,732;    0,773
298,624;12814,950;    1,459;    1,864
299,220;13075,448;    2,368;    0,591
299,815;12715,382;    1,005;   -0,409
300,411;12555,747;    0,914;    1,773
301,007;12579,501;    1,368;    0,227
301,602;12644,086;   -0,541;   -2,318
302,198;12805,658;    0,732;   -0,773
302,794;13201,470;    1,187;   -0,500
303,389;13342,868;   -1,177;    1,045
303,985;13382,414;    0,550;    1,409
304,580;13368,822;    1,459;    1,591
305,176;13326,804;   -3,086;    0,136
305,771;13274,488;   -1,268;   -1,227
306,367;13119,535;    4,095;    0,136
306,962;13471,631;    0,641;    1,500
307,558;13191,654;   -0,450;    0,136
308,153;13136,361;    1,095;   -1,136
308,748;13383,348;   -0,814;    1,682
309,344;13383,387;   -0,632;   -1,318
309,939;13483,226;   -1,905;   -1,318
310,534;13762,216;   -0,086;   -1,682
311,130;13719,064;    0,459;   -2,500
311,725;13446,157;    1,004;   -0,500
312,320;13767,348;    2,459;    0,045
312,915;13621,591;    1,459;   -1,045
313,510;13701,476;    1,550;   -0,500
314,105;14223,457;    1,096;    1,409
314,700;13603,822;   -3,086;   -1,045
315,295;13157,458;   -0,904;    0,045
315,890;12720,517;    1,277;    0,864
316,485;13056,908;   -0,359;   -0,318
317,080;13191,654;   -3,086;    1,591
317,675;13752,450;    2,005;   -0,682
318,270;13119,353;    5,550;    3,318
318,865;13122,432;    3,278;    3,045
319,460;12980,052;   -0,904;    0,591
320,055;13220,748;   -0,541;   -1,227
320,650;12907,747;   -1,995;   -0,591
321,244;12932,170;   -0,177;   -1,409
321,839;13957,675;   -1,541;   -0,227
322,434;13879,620;   -1,086;   -1,591
323,029;13443,899;    1,732;    1,591
323,623;13259,530;    1,550;    0,773
324,218;13020,454;    2,368;    1,409
324,812;12907,118;    1,096;    1,591
325,407;12706,961;   -0,814;    2,045
326,002;12648,950;    0,277;   -0,409
326,596;12960,424;    0,914;    1,318
327,191;13162,074;    0,823;   -1,045
327,785;12731,788;   -0,813;   -0,227
328,379;13005,108;    1,368;    0,136
328,974;12793,506;    0,914;   -3,955
329,568;12991,891;    0,186;   -2,409
330,163;12804,957;    2,096;    1,045
330,757;13187,454;    2,459;    1,591
331,351;12459,088;    0,459;    0,682
331,945;12816,185;    0,914;    1,409
332,540;12407,826;   -1,723;   -0,591
333,134;12561,261;   -1,086;    0,773
333,728;12828,065;    0,005;    0,318
334,322;13170,573;   -1,177;   -0,864
334,916;12407,263;    0,277;    0,955
335,510;12740,099;   -0,450;   -0,136
336,105;13008,165;   -1,086;    1,591
336,699;12736,770;   -1,086;    0,591
337,293;12686,388;   -1,723;    0,318
337,887;12860,473;   -2,723;    1,955
338,481;12936,940;    0,459;    0,591
339,074;13067,433;   -0,359;    2,682
339,668;12900,796;   -1,632;    1,227
340,262;13147,579;    1,732;    3,227
340,856;12648,163;    1,822;   -0,682
341,450;11992,324;    1,004;    1,864
342,044;12926,479;    1,459;    0,136
342,637;12701,150;    0,913;   -2,136
343,231;12579,139;   -2,360;    0,682
343,825;12539,395;   -1,086;   -0,591
344,419;12518,800;   -1,995;    0,500
345,012;12260,457;    2,459;    4,045
345,606;12241,445;    4,641;    1,591
346,199;12087,601;   -1,813;   -0,227
346,793;11590,963;    1,914;    2,045
347,386;11771,072;   -0,813;   -1,136
347,980;11784,677;   -0,268;   -0,045
348,573;11538,184;    2,278;    0,409
349,167;11172,396;    5,278;    4,773
349,760;11509,999;    2,914;    2,682
350,354;11506,307;   -0,813;    1,136
350,947;11222,584;    1,096;    1,682
351,540;10904,777;   -0,358;   -1,409
352,134;10861,215;    1,096;    1,136
352,727;10919,164;   -0,086;    1,136
353,320;10705,125;    0,005;    0,591
353,913;10536,683;   -1,995;    1,864
354,507;10728,832;    0,823;   -1,227
355,100;10719,490;    0,460;    0,864
355,693; 9906,970;    2,005;    2,409
356,286; 9941,658;    0,823;    2,773
356,879;10306,113;   -0,722;    1,227
357,472; 9894,182;   -0,904;    1,500
358,065;10119,417;   -0,722;    2,500
358,658;10010,283;   -0,540;    2,318
359,251; 9686,034;   -1,631;   -0,591
359,844; 9106,200;   -1,904;   -1,136
360,437; 9285,843;   -2,995;    0,045
361,030; 9560,909;    1,369;   -0,682
361,623; 9144,903;    2,824;    0,318
362,215; 9219,871;   -0,086;    2,045
362,808; 8996,577;   -2,358;   -1,682
363,401; 9219,139;   -2,449;    0,136
363,994; 8918,819;   -0,631;   -1,500
364,586; 8853,063;    0,824;   -1,500
365,179; 9100,070;   -0,449;   -1,136
365,772; 8540,188;   -1,995;    2,045
366,364; 8880,311;    1,915;   -3,227
366,957; 9037,142;    2,279;   -0,045
367,549; 9067,219;    2,188;   -0,864
368,142; 8711,656;    1,825;   -1,500
368,734; 8912,565;    0,734;   -2,136
369,327; 8874,345;    1,643;   -0,500
369,919; 8790,474;   -1,538;    0,409
370,512; 8543,497;   -1,083;   -0,500
371,104; 8308,376;   -0,901;    1,591
371,696; 8488,228;    1,191;   -0,955
372,289; 8578,827;    0,373;    1,136
372,881; 8737,665;   -2,080;    1,318
373,473; 8668,951;   -2,170;    1,136
374,066; 8471,571;   -0,169;    0,500
374,658; 8302,020;    0,378;    1,136
375,250; 8678,960;    0,653;   -1,409
375,842; 8525,291;    0,473;   -0,045
376,434; 8404,554;   -0,435;   -0,409
377,026; 9034,199;    0,204;   -2,500
377,618; 8900,915;   -0,158;   -0,682
378,210; 8704,693;   -0,338;   -1,955
378,802; 8571,726;    0,754;   -0,591
379,394; 8534,242;    1,846;    0,682
379,986; 9180,254;    1,393;   -0,955
380,578; 9291,622;   -0,153;    0,773
381,170; 8602,599;   -0,972;    0,045
381,762; 8555,821;    0,755;    1,409
382,354; 8795,930;   -0,065;   -1,318
382,945; 8902,017;   -2,976;    0,318
383,537; 9059,393;   -2,705;   -1,955
384,129; 9058,816;   -2,160;   -1,136
384,721; 9257,169;   -0,252;    0,955
385,312; 9183,655;   -0,161;   -0,955
385,904; 9274,455;   -2,706;    1,591
386,496; 8667,061;   -0,979;    1,045
387,087; 8773,445;    1,022;    2,500
387,679; 8829,291;   -1,160;    0,045
388,270; 8962,661;    2,840;    2,045
388,862; 9084,881;    1,295;   -0,318
389,453; 8977,674;   -0,887;    1,045
390,045; 9276,912;   -0,705;   -2,682
390,636; 9196,111;    0,204;   -0,591
391,227; 9066,596;   -0,523;   -0,045
391,819; 9142,156;    0,204;    0,773
392,410; 9227,128;    1,022;    0,045
393,001; 9154,530;   -0,979;   -1,591
393,593; 9479,011;    1,930;   -0,045
394,184; 9310,280;    1,385;   -0,409
394,775; 9275,599;    1,839;    2,136
395,366; 9443,148;    1,385;    0,773
395,957; 9491,821;    0,113;    0,136
396,548; 9830,123;   -0,342;    2,682
397,139;10134,386;   -2,433;    0,591
397,730; 9861,636;   -1,888;    0,955
398,321; 9926,277;   -1,252;    0,955
398,912; 9963,313;   -0,615;    0,136
399,503;10023,870;   -3,524;   -1,409
400,094; 9403,271;    0,294;    1,682
400,685; 9242,811;   -0,433;    0,045
401,276; 9355,991;    0,930;   -0,955
401,867; 9727,211;   -0,888;    0,773
402,458; 9795,751;   -2,251;   -2,318
403,048; 9794,474;    1,112;    0,591
403,639; 9365,751;    0,840;    0,864
404,230; 9601,258;    2,476;    0,318
404,821; 9511,688;   -0,615;    0,045
405,411; 9669,203;    1,203;   -2,591
406,002; 9239,622;   -1,252;   -1,136
406,592; 9068,548;    2,294;    0,045
407,183; 9414,783;    0,566;   -1,500
407,774; 9332,234;    3,475;   -0,136
408,364; 9679,278;    0,930;    0,409
408,954; 9253,462;    0,384;    1,227
409,545; 9291,882;    1,021;    1,045
410,135; 8808,934;    1,293;    0,500
410,726; 8989,183;    1,838;    0,318
411,316; 9402,459;    0,111;    0,773
411,906; 9044,749;   -0,253;   -0,409
412,497; 8493,354;   -1,070;   -0,045
413,087; 9155,264;   -1,980;   -0,227
413,677; 9557,672;   -0,707;    3,864
414,267; 9398,955;    0,656;    1,409
414,857; 9410,752;   -2,980;    4,227
415,448; 9715,538;    0,839;    0,500
416,038; 9376,539;    0,020;   -0,591
416,628; 9360,728;   -0,889;    0,409
417,218; 8747,038;    0,565;    3,318
417,808; 9041,290;    0,202;   -0,409
418,398; 9585,426;    0,020;    2,682
418,988; 9594,632;    2,020;    0,591
419,578; 9870,980;   -0,707;    1,409
420,168;10210,317;   -1,343;   -0,955
420,757; 9820,844;   -1,343;   -1,500
421,347; 9470,432;    0,111;   -0,227
421,937; 9647,432;    2,292;    1,409
422,527; 9592,400;    0,838;   -0,773
423,116; 9368,994;   -0,253;   -0,045
423,706; 9752,838;   -1,889;    0,318
424,296; 9751,724;    1,384;    0,682
424,885;10198,633;   -0,071;   -3,045
425,475;10498,170;    1,474;   -2,864
426,065;10408,545;   -0,980;   -0,318
426,654;10018,543;   -0,435;   -0,318
427,244;10132,342;    0,020;    1,409
427,833; 9553,443;    1,383;   -0,500
428,423;10078,927;   -0,526;    1,136
429,012;10899,967;   -0,344;   -1,136
429,601;10369,618;   -1,344;    0,136
430,191;10643,442;    1,292;    4,318
430,780;10237,643;   -0,344;   -0,409
431,369;10142,175;    0,746;   -0,045
431,959;10831,358;   -1,254;    0,500
432,548;10602,791;   -1,163;   -0,045
433,137;10759,566;   -1,254;   -1,318
433,726;11318,553;    0,292;    0,500
434,315;10616,986;   -0,526;    2,409
434,905;10683,666;   -1,254;    1,409
435,494;10568,377;    0,746;    0,955
436,083;11099,122;   -0,981;   -0,955
436,672;10972,625;    0,110;    0,500
437,261;10475,209;    0,292;   -1,955
437,850;10583,968;    1,383;    0,682
438,439;10615,817;    3,291;    1,955
439,027;10478,728;    3,655;    1,773
439,616;10818,721;    2,927;    1,227
440,205;10674,831;    0,200;   -2,136
440,794;10822,961;    2,109;   -0,045
441,383;11128,671;   -1,346;   -0,591
441,971;10944,079;   -2,436;    0,591
442,560;10788,573;    0,563;   -1,773
443,149;10548,966;    0,379;   -1,318
443,737;10675,307;   -0,074;   -2,318
444,326;10976,881;    0,018;    0,318
444,915;11057,312;   -1,982;    0,864
445,503;11503,912;   -2,891;   -0,318
446,092;10694,186;    0,382;    2,136
446,680;11235,814;    0,382;    0,318
447,269;11419,521;   -0,346;   -0,318
447,857;11164,662;    0,018;   -1,773
448,445;11303,232;    0,563;    1,318
449,034;11520,378;   -1,528;   -1,136
449,622;11684,117;   -1,073;    3,500
450,210;10857,070;    2,017;    2,227
450,799;11441,696;    0,290;   -0,591
451,387;11363,641;    1,381;   -0,591
451,975;10989,968;    2,654;    0,864
452,563;11062,544;    3,472;    2,318
453,151;11115,244;   -0,528;   -1,227
453,739;11064,775;   -1,347;    0,136
454,328;10862,591;    2,381;   -2,136
454,916;10538,356;    2,562;   -0,136
455,504;10761,307;    1,017;    1,227
456,092;10930,100;    0,017;   -1,591
456,679;10937,282;    1,472;    0,682
457,267;10828,241;    4,017;    1,045
457,855;11012,619;    1,017;    1,409
458,443;10813,351;   -0,165;    1,682
459,031;10910,541;    0,108;    2,409
459,619;11416,720;   -1,801;    2,864
460,206;11570,767;    0,835;    2,045
460,794;11655,964;   -2,983;   -0,227
461,382;11915,073;   -0,529;   -0,864
461,970;11470,096;    1,198;    1,864
462,557;11479,470;   -0,711;   -0,682
463,145;11674,945;   -3,165;   -1,682
463,732;11826,498;    2,016;   -1,045
464,320;11791,901;   -0,075;   -3,045
464,907;11444,944;    2,743;   -0,773
465,495;11302,557;    0,743;   -1,227
466,082;11446,536;   -1,984;   -0,045
466,670;11391,674;   -2,529;    1,227
467,257;11816,971;   -1,711;    2,045
467,844;11961,292;   -0,075;    0,045
468,432;11960,372;    0,834;    3,500
469,019;11451,844;    0,925;   -1,773
469,606;11943,261;    0,470;    3,682
470,193;11744,735;   -1,439;    0,227
470,780;11276,365;   -2,075;    0,864
471,368;11658,244;   -1,257;   -0,773
471,955;11422,776;    1,379;   -0,682
472,542;11045,475;    0,652;   -1,136
473,129;11304,175;   -0,166;    0,136
473,716;10988,332;    1,470;    0,591
474,303;11216,810;    0,652;   -0,864
474,890;11560,207;   -1,439;   -0,500
475,477;11561,324;   -1,621;    0,409
476,064;11466,660;    1,106;   -1,591
476,650;11459,631;    0,288;    0,318
477,237;11260,177;   -0,258;    0,955
477,824;11441,189;   -1,076;    0,864
478,411;11465,507;   -1,894;   -0,318
478,997;11667,955;    0,560;   -0,773
479,584;11744,178;    1,196;   -0,409
480,171;12468,948;   -0,440;   -0,773
480,757;12117,113;    2,651;    0,773
481,344;12481,482;    0,469;    0,409
481,931;11942,932;    1,105;    1,045
482,517;13075,538;   -1,258;    0,318
483,104;13796,416;    1,106;    2,864
483,690;14097,178;   -1,804;    0,045
484,276;14502,740;   -0,895;    0,227
484,863;14240,680;    2,469;    1,136
485,449;14932,949;   -0,077;    0,318
486,035;14898,756;   -1,986;   -0,136
486,622;15304,604;   -0,895;    0,045
487,208;15289,550;    1,378;    1,500
487,794;15116,350;    0,741;    0,318
488,380;15210,715;    0,105;   -1,409
488,967;15305,077;   -1,168;   -0,409
489,553;15347,380;   -1,895;   -1,409
490,139;15528,278;    1,559;    0,773
490,725;14907,245;    0,741;   -0,227
491,311;14403,426;    3,287;    3,045
491,897;13661,824;   -0,986;    1,500
492,483;13369,951;    0,105;    1,227
493,069;13155,291;    3,923;    0,864
493,655;13140,000;    1,650;    0,682
494,241;12995,817;    1,377;   -0,955
494,826;13450,277;    0,287;   -1,045
495,412;12917,402;    2,559;   -0,682
495,998;13064,993;   -0,805;   -0,318
496,584;13235,695;    0,377;    1,045
497,169;13228,970;    1,014;   -0,682
497,755;13187,262;    0,650;    1,227
498,341;13751,959;    0,559;    0,318
498,926;13330,201;    1,832;    1,955
499,512;13515,878;    1,286;    2,955
500,097;13703,120;    0,195;   -0,318
500,683;13649,890;   -0,350;    2,136
501,268;14024,584;   -0,169;   -0,955
501,854;13697,871;   -0,169;    1,227
502,439;13642,559;   -0,624;   -1,773
503,024;13870,111;    0,195;    0,500
503,610;13947,474;   -0,078;   -0,682
504,195;13936,636;    0,558;    1,955
504,780;14053,085;    2,922;    1,227
505,366;13894,652;    3,013;    2,864
505,951;13585,814;    0,740;    1,045
506,536;13593,052;   -3,260;   -3,682
507,121;13582,856;    0,285;   -0,318
507,706;14114,981;    2,376;    1,045
508,291;14575,008;    2,649;    1,136
508,876;13974,406;   -0,988;    2,591
509,461;13410,708;   -0,169;   -0,773
510,046;13870,514;    0,194;    0,318
510,631;14103,863;   -0,351;   -0,773
511,216;13742,082;    2,467;   -0,500
511,801;14151,870;   -0,442;    2,591
512,386;14489,740;    0,740;    0,500
512,971;14420,246;   -2,988;    0,955
513,555;13970,173;   -0,897;   -1,500
514,140;14783,834;   -0,442;   -3,136
514,725;14805,353;   -0,715;   -1,136
515,309;14884,647;   -0,533;    0,318
515,894;14338,783;   -0,624;   -2,227
516,479;14850,990;   -0,624;   -0,955
517,063;14673,067;    0,376;    1,227
517,648;14798,477;    1,012;   -1,136
518,232;14452,988;   -0,261;   -1,409
518,817;14769,250;   -0,079;    1,682
519,401;14999,783;    2,194;    0,591
519,985;14560,235;    1,103;    1,136
520,570;14420,296;    0,830;   -1,955
521,154;14696,606;    2,102;    0,591
521,738;14863,385;   -2,352;    2,409
522,323;15465,900;   -0,170;    1,682
522,907;15210,044;    0,466;   -0,136
523,491;14896,533;    0,557;    0,955
524,075;14879,340;    2,284;    0,591
524,659;14980,541;    1,466;    0,591
525,243;14423,349;    1,739;    0,409
525,827;14650,772;    0,648;   -0,045
526,411;15597,177;   -1,989;   -0,136
526,995;15851,350;   -0,352;    1,409
527,579;15372,415;   -0,443;   -1,045
528,163;15710,907;    0,375;   -1,500
528,747;15613,395;    2,466;   -0,773
529,331;15917,735;   -0,080;   -1,409
529,915;16164,874;    1,738;    0,955
530,499;16125,567;   -0,807;    1,227
531,082;15878,665;   -0,534;    1,591
531,666;15250,606;    1,374;    0,773
532,250;15987,475;    1,284;    2,682
532,833;16336,969;    0,920;    2,773
533,417;16162,299;   -1,807;    0,864
534,001;16138,099;    1,647;   -0,318
534,584;16886,922;    0,374;    0,500
535,168;16720,626;    0,465;    1,409
535,751;16769,016;    0,647;    0,045
536,334;16197,484;   -0,898;   -0,409
536,918;16831,756;    0,011;    1,591
537,501;16967,645;   -0,899;    1,318
538,085;16932,181;   -0,444;    1,045
538,668;17152,352;    0,829;    2,409
539,251;17499,704;    1,829;    3,773
539,834;17492,931;    0,101;    0,773
540,418;17459,471;   -1,990;    4,318
541,001;17571,799;   -0,990;    1,773
541,584;17528,764;    2,101;    2,227
542,167;17252,188;    1,374;    2,955
542,750;17432,054;    1,919;   -0,773
543,333;17023,584;    0,555;    2,136
543,916;17810,727;    0,192;    2,500
544,499;18478,081;   -1,354;    0,227
545,082;18474,991;    1,374;    3,591
545,665;18635,842;    1,919;    1,500
546,248;19014,766;    1,010;   -0,318
546,830;18653,401;   -0,445;    1,955
547,413;19067,633;    1,010;   -0,773
547,996;19626,659;    0,555;    0,500
548,579;19364,367;    0,919;    0,955
549,161;19199,095;    1,828;    2,682
549,744;19010,076;   -0,809;    0,409
550,326;19539,917;   -0,809;   -1,136
550,909;19308,136;    2,737;    0,591
551,492;19713,575;   -0,263;    0,227
552,074;19494,718;   -0,173;   -1,318
552,657;20057,423;    2,373;    0,045
553,239;19759,480;   -0,173;   -0,773
553,821;19655,885;   -1,082;    1,045
554,404;19178,013;    1,282;    1,136
554,986;19630,152;    0,464;    1,045
555,568;20217,665;    1,191;   -0,955
556,151;19397,745;    1,191;   -0,227
556,733;19586,912;   -0,264;   -0,864
557,315;20086,192;    0,100;    0,500
557,897;19928,203;    0,554;   -0,500
558,479;20038,533;   -1,991;    1,318
559,061;20218,153;   -0,719;   -0,864
559,643;20569,048;   -0,264;    0,045
560,225;20933,938;    1,645;    2,864
560,807;20948,684;    0,918;    0,318
561,389;20437,992;    0,554;    2,318
561,971;21235,160;    0,463;    2,136
562,553;21013,744;   -1,628;    1,591
563,135;21181,835;   -0,537;    1,136
563,717;20790,062;    3,372;    1,136
564,298;21561,212;    3,645;   -0,045
564,880;21296,585;    0,645;   -1,409
565,462;21434,494;    0,645;    1,318
566,043;22647,509;   -0,446;    2,318
566,625;22240,316;    1,918;    1,227
567,207;22093,434;    1,099;    1,682
567,788;23340,583;   -1,264;    1,500
568,370;24182,565;    1,917;   -0,500
568,951;24091,993;    0,190;    0,227
569,533;25049,455;   -0,628;   -0,500
570,114;25525,739;   -0,446;    0,682
570,695;26098,918;   -0,174;   -1,318
571,277;26675,148;   -0,265;   -1,682
571,858;27523,339;    2,008;   -1,136
572,439;28504,881;    1,554;   -1,045
573,021;28754,984;    2,099;   -2,773
573,602;29271,652;   -1,265;    0,318
574,183;30258,496;   -2,083;    2,227
574,764;30464,699;   -1,629;    0,409
575,345;31114,463;    0,917;   -0,136
575,926;31771,174;   -0,356;    0,136
576,507;31723,640;    1,099;   -0,227
577,088;32898,606;    3,099;    1,682
577,669;32943,974;    0,735;    1,955
578,250;33790,223;    0,644;   -1,045
578,831;34586,037;   -1,356;   -2,227
579,412;34852,690;   -0,810;    0,955
579,993;35767,509;    1,008;    0,227
580,573;36188,555;   -0,629;   -0,955
581,154;35101,111;    0,735;   -0,591
581,735;36013,837;    0,644;    0,773
582,315;35528,655;   -0,629;    2,136
582,896;35813,427;   -0,174;    1,227
583,477;35242,796;    0,189;    1,227
584,057;35398,202;    0,553;    0,955
584,638;35781,327;    2,553;    2,318
585,218;35691,724;   -0,538;    2,682
585,799;35901,120;    0,281;   -0,227
586,379;35833,152;    0,372;    1,591
586,959;34482,928;    0,735;    0,318
587,540;33658,446;   -0,629;    2,227
588,120;33130,441;    1,007;   -0,045
588,700;32060,935;    2,553;    2,136
589,281;32383,486;    0,462;   -0,955
589,861;32366,681;    0,099;   -1,682
590,441;32117,055;    2,371;   -2,682
591,021;30986,497;   -0,265;   -2,591
591,601;31249,286;   -0,537;    0,500
592,181;31227,729;   -0,719;   -0,773
592,761;30499,835;    0,007;    1,409
593,341;30379,609;   -0,901;    0,045
593,921;30396,117;   -0,265;    1,591
594,501;30212,507;   -0,538;    1,318
595,081;30083,674;    0,917;   -0,318
595,661;30451,131;   -1,447;    0,955
596,240;30993,775;   -0,537;    0,136
596,820;30634,135;    0,372;    1,955
597,400;30856,312;    2,008;    0,773
597,980;31095,989;    2,008;    1,045
598,559;31060,914;    2,735;   -0,227
599,139;30696,256;   -0,174;   -1,227
599,718;30563,801;   -0,174;   -0,409
600,298;30829,584;    0,735;    0,682
600,877;31146,206;    2,917;    1,409
601,457;31435,747;    2,281;    1,136
602,036;31332,548;    0,190;    2,045
602,616;31631,796;    0,644;    1,682
603,195;31911,372;   -0,355;    3,500
603,774;31425,407;   -0,901;    2,045
604,354;31311,124;    0,826;   -0,500
604,933;30766,615;    0,463;    1,864
605,512;30900,761;    3,554;    0,591
606,091;30896,711;   -0,537;    3,773
606,671;31722,906;    0,281;    0,773
607,250;30818,021;    1,644;    3,136
607,829;31042,754;    2,372;    3,227
608,408;30878,199;    1,190;    2,591
608,987;29876,476;    1,281;    3,409
609,566;30185,688;   -1,265;   -2,500
610,145;30302,398;   -1,082;    0,682
610,723;30760,206;    4,372;    6,864
611,302;29942,009;   -0,446;    1,682
611,881;29416,465;    5,008;   11,227
612,460;30333,375;    1,645;    3,955
613,039;30659,541;   -0,082;    2,045
613,617;29305,198;    1,736;    4,773
614,196;29557,591;    1,099;    1,227
614,775;29899,665;    1,009;    2,409
615,353;29830,776;    0,736;    0,864
615,932;29551,231;    0,100;    2,409
616,510;30113,108;    0,554;    0,591
617,089;29650,050;    7,100;   17,591
617,667;29333,152;    2,372;    6,136
618,246;29172,138;   -1,537;    1,318
618,824;29385,968;   -3,355;   -0,955
619,402;28916,889;   -2,900;   -1,773
619,981;29406,557;   -0,173;   -1,045
620,559;29235,691;    0,009;    1,682
621,137;28701,454;   -0,718;    1,864
621,715;28770,989;   -1,173;   -0,682
622,293;28663,044;   -0,537;   -0,773
622,871;29110,829;   -0,718;    0,500
623,450;28675,744;    0,373;   -0,864
624,028;28525,623;    0,191;   -0,955
624,606;28194,257;   -1,718;    1,682
625,183;28577,151;   -1,536;   -1,136
625,761;28152,321;    1,009;    1,136
626,339;28504,371;    1,373;    2,591
626,917;28907,442;   -0,172;   -0,045
627,495;28885,692;   -0,354;    1,318
628,073;28332,644;   -0,263;    2,864
628,650;28015,069;    0,100;    2,136
629,228;28427,005;    0,373;    4,409
629,806;27790,638;    2,282;    1,136
630,383;28099,043;    1,464;   -0,318
630,961;27889,399;    2,555;   -0,955
631,539;27588,258;    2,464;    0,227
632,116;26912,490;   11,373;   15,409
632,694;27484,430;    2,555;    6,500
633,271;27779,821;    0,828;    2,682
633,848;27720,074;    1,828;    2,045
634,426;27685,761;   -1,081;    1,773
635,003;26765,583;    1,101;   -0,409
635,580;27131,082;    1,192;    3,682
636,158;27755,099;    3,737;    1,227
636,735;27717,127;    0,555;   -0,500
637,312;27841,916;   -0,809;   -0,682
637,889;27952,124;   -4,354;   -0,682
638,466;27351,012;   -3,990;   -0,409
639,043;27418,983;    2,101;   -1,136
639,620;27789,301;   -2,262;   -0,955
640,197;28066,839;    1,100;    1,682
640,774;28219,641;   -0,172;    1,136
641,351;28645,442;    0,737;    1,136
641,928;28001,516;   -0,627;    1,409
642,505;27656,500;    0,828;   -0,500
643,082;27743,210;   -1,718;    1,227
643,658;26725,375;   -0,718;    1,500
644,235;27562,086;    1,191;    2,500
644,812;27914,615;    1,918;    0,773
645,388;27604,871;   -0,991;    1,409
645,965;27750,854;   -0,809;    1,682
646,542;27793,382;   -1,445;   -0,227
647,118;27748,457;    1,009;   -0,955
647,695;28098,258;   -0,263;    1,136
648,271;27986,787;   -0,536;    0,500
648,848;28362,316;    0,736;    2,227
649,424;28150,844;    0,827;    1,318
650,000;27921,373;   -0,354;   -1,045
650,577;27656,902;   -0,627;   -0,955
651,153;28220,612;   -1,809;    0,955
651,729;29278,686;    1,191;    0,864
652,305;29783,033;    0,645;    2,773
652,881;35067,926;   -0,082;    1,136
653,458;42694,636;    1,100;    0,227
654,034;46747,165;    0,282;    1,591
654,610;48296,966;    0,554;    0,773
655,186;49649,222;    0,645;    3,045
655,762;49321,933;   -0,991;    0,409
656,338;49373,916;    0,100;    0,136
656,913;50365,808;   -0,082;    0,409
657,489;49670,155;    0,827;   -0,318
658,065;49633,866;   -0,173;   -1,591
658,641;50299,031;   -0,900;   -0,864
659,217;49616,560;   -0,991;    0,409
659,792;49022,179;    0,645;   -0,409
660,368;49195,344;   -2,173;   -0,682
660,944;48555,600;   -2,082;    1,227
661,519;43027,038;   -0,628;    0,409
662,095;36244,112;   -1,719;    0,591
662,670;31372,368;    1,281;   -0,136
663,246;30193,261;    1,009;   -0,409
663,821;29516,608;    0,281;    1,682
664,396;29033,773;    0,009;    1,864
664,972;29319,483;    0,009;   -0,500
665,547;29593,375;    1,372;    0,136
666,122;29647,359;   -1,082;    0,318
666,698;30012,160;   -0,173;    0,318
667,273;29317,325;   -0,173;    0,136
667,848;30153,945;    2,372;    1,500
668,423;29935,837;    2,190;    2,318
668,998;30552,184;    2,827;   -0,682
669,573;31090,895;   -3,264;   -1,500
670,148;30908,878;   -1,446;   -0,682
670,723;30694,316;   -1,810;    0,318
671,298;31132,572;    2,372;    1,045
671,873;31260,100;   -0,082;   -0,136
672,448;31218,720;    0,645;    0,136
673,023;31593,431;   -1,992;   -0,227
673,597;31970,141;    0,827;    2,318
674,172;31669,033;   -0,355;    0,318
674,747;31134,289;    0,372;   -1,045
675,321;30940,273;   -0,628;    3,318
675,896;30460,256;    0,645;    1,045
676,471;31550,057;    2,645;    1,591
677,045;31298,313;   -1,264;    0,682
677,620;31379,206;    0,190;    1,136
678,194;31706,007;   -2,628;    1,136
678,769;31229,445;   -1,083;   -0,318
679,343;31511,519;   -0,628;    1,773
679,917;31411,139;   -1,446;    1,955
680,492;31490,395;    0,826;    3,227
681,066;31655,833;    3,372;    0,409
681,640;31702,998;    1,463;   -0,318
682,214;32531,799;    0,735;    0,500
682,788;32076,782;   -1,356;   -0,773
683,363;32031,675;   -1,810;    1,682
683,937;31688,112;   -1,719;   -0,318
684,511;32451,732;    0,463;   -0,591
685,085;32169,624;   -1,356;    0,318
685,659;31921,789;   -2,538;    0,864
686,232;32205,227;   -0,356;   -0,318
686,806;31915,847;   -0,901;    0,409
687,380;32582,830;   -0,174;    0,591
687,954;32774,268;   -1,174;    1,136
688,528;32500,888;   -0,719;    1,955
689,101;33280,144;   -3,992;    1,045
689,675;32791,581;   -0,356;   -0,136
690,249;32177,837;   -0,719;    0,409
690,822;32509,184;    0,280;    0,318
691,396;32657,804;   -0,265;    1,227
691,969;32089,969;    1,280;    0,136
692,543;32486,770;   -0,447;   -1,955
693,116;32123,754;   -0,265;   -1,409
693,690;32007,191;    0,099;    0,500
694,263;32616,811;   -1,083;    2,955
694,836;32658,431;    1,371;    3,591
695,410;31264,323;   -0,265;    1,773
695,983;31717,852;    0,189;    0,591
696,556;31679,926;   -0,447;   -1,045
697,129;32040,455;   -0,356;    1,409
697,703;31706,529;   -1,629;    1,955
698,276;31647,603;    1,462;   -0,773
698,849;31482,223;    1,280;    1,409
699,422;31844,297;   -1,083;    0,591
699,995;31536,735;    0,007;    0,136
700,568;32036,809;   -0,629;    3,045
701,140;32112,247;   -2,811;    1,682
701,713;31822,593;   -0,174;    2,409
702,286;31586,031;   -0,538;    0,864
702,859;31456,924;   -0,902;   -0,591
703,432;30576,361;    0,825;    0,682
704,004;31026,254;    0,462;    0,318
704,577;30941,782;   -0,629;    0,136
705,150;31543,311;    0,189;    2,500
705,722;31292,476;   -0,356;   -3,227
706,295;31012,005;   -0,175;   -0,591
706,867;30865,806;   -0,175;    1,955
707,440;31115,426;   -1,720;   -0,409
708,012;31381,591;    0,462;    0,591
708,584;31313,483;    2,462;    0,227
709,157;31604,649;    1,825;   -0,591
709,729;31264,632;    2,280;    2,045
710,301;32142,251;    0,734;    0,045
710,874;32079,416;   -1,447;   -0,227
711,446;31013,763;    0,371;    0,864
712,018;30908,838;    0,098;    0,500
712,590;30615,094;   -1,993;    1,682
713,162;31133,168;    0,825;    1,318
713,734;31371,606;    1,825;   -2,045
714,306;31264,407;   -1,902;   -0,409
714,878;29930,299;    0,825;    0,864
715,450;30752,101;    0,643;    0,864
716,022;31013,175;    1,552;    1,318
716,593;31162,249;    0,189;    0,591
717,165;31098,414;   -3,175;   -1,227
717,737;30786,397;    0,280;    0,409
718,309;30413,835;    0,280;   -0,045
718,880;30409,728;   -0,539;   -1,409
719,452;30646,438;   -0,175;   -1,591
720,024;30191,785;    0,734;   -0,591
720,595;30715,496;   -2,902;    0,955
721,167;30284,024;    0,370;   -2,045
721,738;29817,189;   -0,812;   -1,045
722,309;29809,082;   -0,993;   -1,227
722,881;29577,519;   -1,357;    0,773
723,452;30213,139;   -2,630;    2,864
724,023;30404,759;   -0,721;    2,682
724,595;30103,197;    0,007;    0,682
725,166;29827,180;    0,007;   -0,409
725,737;29465,163;    1,734;    0,227
726,308;29538,964;   -0,266;    0,318
726,879;29987,675;   -1,630;    1,227
727,450;29858,386;    0,552;   -0,045
728,021;29841,096;    3,097;    0,682
728,592;29581,261;    0,734;    0,500
729,163;29975,244;    0,643;   -0,136
729,734;30053,500;    0,188;   -0,227
730,305;30351,847;    1,734;    0,136
730,876;30741,467;    0,188;    2,955
731,447;30503,177;    2,188;    2,682
732,017;30578,252;    1,097;    1,864
732,588;29993,962;    0,734;    1,227
733,159;30231,764;    0,643;   -1,045
733,729;30049,110;    0,006;    0,409
734,300;29325,276;    0,915;    0,864
734,870;29787,895;    3,461;    0,591
735,441;30328,697;    0,370;   -0,591
736,011;30037,680;    0,643;   -1,591
736,582;29994,936;   -0,812;    0,045
737,152;29437,283;   -1,721;   -2,045
737,722;29920,084;   -0,267;   -0,682
738,293;29607,613;   -1,358;    1,318
738,863;29510,687;    2,461;    2,318
739,433;29258,125;    5,279;    0,318
740,003;29974,744;   -0,994;   -0,682
740,573;29274,000;    2,097;   -1,591
741,143;29227,166;   -1,085;    0,318
741,713;30059,967;    1,188;   -0,500
742,283;29745,223;    0,915;    1,591
742,853;29460,752;    1,915;    1,591
743,423;28930,371;    1,733;    0,045
743,993;29090,355;   -0,358;    1,500
744,563;28447,883;    0,097;   -0,864
745,133;28398,503;   -0,812;   -0,864
745,702;29077,395;   -0,267;    1,773
746,272;28303,288;   -0,176;    0,591
746,842;28005,180;   -1,358;   -0,591
747,411;28396,800;   -0,267;   -0,318
747,981;28637,510;    0,097;    0,500
748,551;28630,130;    2,278;   -1,045
749,120;28492,022;    0,642;   -0,227
749,690;28938,460;   -0,631;    2,409
750,259;29278,898;    1,369;    2,955
750,828;29185,790;    1,551;   -1,955
751,398;29446,410;    1,278;   -0,045
751,967;28961,120;    2,187;    0,409
752,536;29160,831;   -0,813;   -0,227
753,105;29640,814;    0,096;    0,227
753,675;29449,161;    0,096;    1,773
754,244;29436,326;   -0,904;    3,591
754,813;29437,946;    0,551;    1,227
755,382;28955,656;    0,460;    0,955
755,951;29613,276;    1,551;    3,682
756,520;29098,804;   -0,085;    1,864
757,089;29692,333;    0,278;    0,500
757,658;29887,225;    1,733;    1,227
758,227;29918,118;    1,096;    0,318
758,795;30226,465;    1,187;    1,136
759,364;30352,630;   -0,086;   -0,591
759,933;29361,704;   -1,176;   -0,045
760,501;28840,324;    0,733;   -1,318
761,070;29341,398;   -2,813;   -1,409
761,639;30051,290;   -1,904;    1,318
762,207;29422,637;    1,551;   -0,955
762,776;29315,984;    0,369;    0,864
763,344;29269,967;   -0,995;    0,591
763,913;28380,314;   -0,722;    1,409
764,481;29109,115;    1,005;   -0,136
765,049;28851,099;   -1,358;    1,409
765,618;28714,173;   -0,086;    0,318
766,186;28743,156;    0,278;    0,136
766,754;28973,958;    0,005;    1,864
767,322;27968,486;   -1,995;    0,409
767,890;28022,470;   -0,722;   -1,773
768,459;28386,180;   -2,177;   -0,318
769,027;28583,345;    1,641;    3,409
769,595;27488,510;    3,278;    2,591
770,163;27977,403;    3,823;    2,955
770,730;27689,386;    0,732;   -0,136
771,298;27509,551;    0,187;   -1,409
771,866;27579,807;   -1,541;    4,955
772,434;27897,336;   -0,631;   -1,864
773,002;28120,501;    0,005;    0,682
773,569;27741,484;    0,914;    1,682
774,137;27518,104;   -0,268;   -0,045
774,705;28364,269;    0,278;   -0,136
775,272;27810,706;    0,641;    0,682
775,840;27537,508;   -0,177;    2,682
776,407;27073,218;    0,277;    1,955
776,975;26682,474;   -0,632;    0,318
777,542;27750,094;   -1,086;   -0,045
778,110;27499,986;   -1,268;   -0,045
778,677;27223,242;   -2,359;   -0,864
779,244;26957,589;    2,186;    1,045
779,812;27101,482;    1,823;    0,864
780,379;26916,829;    0,005;    1,136
780,946;27134,630;    1,005;   -0,773
781,513;27439,250;   -1,450;    0,318
782,080;26835,778;   -0,086;    2,864
782,647;27582,943;   -0,268;    3,045
783,214;27169,290;   -0,177;    3,864
783,781;26800,092;   -0,723;   -0,682
784,348;26649,711;   -0,632;    1,500
784,915;27101,604;   -3,177;    0,318
785,482;26857,769;    1,368;    2,591
786,049;27286,752;    0,186;   -0,591
786,615;27408,190;    0,277;   -0,955
787,182;27147,809;    0,186;   -0,682
787,749;26837,156;   -2,814;    1,409
788,315;26147,412;   -1,632;   -0,409
788,882;26437,214;    1,550;   -1,227
789,448;27191,197;    1,732;   -0,955
790,015;27164,271;    1,095;    3,227
790,581;26741,164;    1,459;    0,227
791,148;26629,147;    0,641;    1,045
791,714;26918,221;   -0,541;    3,136
792,280;26513,568;    0,186;    1,591
792,847;26025,187;    0,550;    2,500
793,413;26603,262;   -0,269;   -0,318
793,979;26119,336;    3,459;   -1,318
794,545;26211,410;    4,459;    2,682
795,111;25573,666;    2,186;    1,318
795,678;25743,740;    0,731;   -1,682
796,244;25431,814;    3,368;    0,136
796,810;25975,252;    1,731;    0,773
797,375;25702,872;    0,549;   -2,136
797,941;25680,582;   -0,541;    0,591
798,507;25843,747;   -0,451;   -0,955
799,073;25322,549;   -0,360;    0,591
799,639;25407,078;   -2,632;    3,136
800,205;25460,152;    0,095;    2,682
800,770;24978,226;    0,640;    1,773
801,336;25074,755;    1,368;   -0,955
801,901;24762,920;    4,549;    3,136
802,467;25296,085;   -0,542;    2,045
803,033;24619,977;   -0,087;    0,864
803,598;24848,142;    1,913;   -1,045
804,163;24848,307;    1,095;   -0,318
804,729;24814,563;   -0,178;    1,136
805,294;25243,819;    0,822;    2,227
805,859;25015,075;    0,731;   -0,409
806,425;24444,513;    1,186;    2,682
806,990;24089,951;    2,186;    4,318
807,555;24639,207;   -1,451;    2,591
808,120;24506,008;    0,822;   -0,409
808,685;24564,355;    0,185;   -2,500
809,250;24092,066;    0,004;   -0,500
809,815;24337,049;    1,913;    0,682
810,380;24931,850;   -0,269;    1,591
810,945;25488,924;   -1,087;    2,045
811,510;24587,362;    2,094;    1,591
812,075;24282,436;   -0,633;   -1,409
812,640;24339,602;    2,003;    1,409
813,204;24401,130;    0,822;   -0,227
813,769;24868,932;    2,094;   -0,045
814,334;24238,915;    0,458;    0,864
814,898;24280,807;    0,367;    0,591
815,463;24172,518;    1,276;   -0,773
816,027;24128,319;   -0,724;   -2,318
816,592;24200,666;    0,640;   -2,045
817,156;23749,740;    2,094;    1,136
817,721;23627,451;    4,276;    2,318
818,285;23529,343;    2,912;    1,500
818,849;24215,326;   -1,451;    1,682
819,414;24080,582;   -0,269;    2,955
819,978;23638,838;   -1,269;    1,773
820,542;24225,731;    2,003;    0,500
821,106;23901,987;   -0,815;    0,682
821,670;24066,515;   -0,815;    2,591
822,234;23770,044;   -0,270;    1,409
822,798;23095,755;    0,003;    0,500
823,362;23044,920;   -0,633;    4,227
823,926;22303,630;    0,094;    1,136
824,490;22606,614;   -0,997;   -0,682
825,054;23023,142;   -0,088;   -1,136
825,618;22638,853;   -1,542;   -1,500
826,181;22555,109;    0,458;   -1,318
826,745;22470,728;    1,367;   -1,045
827,309;22856,984;    1,185;    1,318
827,872;22219,240;    1,367;    0,955
828,436;23210,769;    1,185;   -0,773
828,999;23262,480;   -0,997;    1,227
829,563;21970,645;   -0,179;    1,136
830,126;21829,173;   -0,179;   -0,591
830,690;21899,066;   -1,997;    2,864
831,253;21370,685;   -0,543;    2,227
831,816;21495,305;   -1,906;    0,500
832,380;21418,288;    0,185;    0,864
832,943;21685,272;   -1,361;   -0,500
833,506;21096,437;    2,639;   -1,227
834,069;21883,693;    3,912;   -0,955
834,632;21939,312;    1,730;    1,318
835,195;21886,114;    1,003;    0,955
835,758;20992,097;   -0,997;    1,955
836,321;20879,444;    0,730;   -1,045
836,884;20960,427;   -0,725;   -0,955
837,447;21025,410;   -2,816;    1,773
838,010;21270,848;    0,366;    3,227
838,573;21527,831;   -1,179;    0,773
839,135;21526,996;   -1,361;   -0,955
839,698;21018,707;    1,275;    0,409
840,261;20471,327;    1,003;   -0,227
840,823;20289,219;   -0,543;    0,864
841,386;20596,202;   -0,452;   -2,409
841,948;20425,276;   -1,361;    1,773
842,511;20201,714;    0,912;    1,682
843,073;20358,788;    1,912;    0,227
843,636;20098,317;   -0,361;   -0,227
844,198;20069,391;    0,911;    0,591
844,760;20193,193;    1,093;    1,955
845,322;19807,812;    0,548;    1,136
845,885;20302,341;    0,730;    0,591
846,447;20735,688;   -1,998;    0,227
847,009;20264,944;    1,911;   -0,682
847,571;20584,564;    0,820;   -2,045
848,133;20777,820;   -1,089;   -1,864
848,695;20568,985;   -0,543;    1,409
849,257;20037,241;   -1,089;   -1,682
849,819;20230,315;   -0,998;   -0,409
850,381;20302,480;   -0,725;   -0,864
850,942;20639,463;    1,093;   -0,591
851,504;20651,265;    1,184;    0,227
852,066;20681,793;    1,275;   -1,591
852,628;20159,595;   -0,180;    1,955
853,189;19721,578;    1,638;    2,682
853,751;19857,379;   -0,907;    1,409
854,312;19657,544;   -0,453;   -1,682
854,874;20174,800;   -2,089;   -0,773
855,435;20725,602;   -0,907;   -1,682
855,997;20886,312;   -1,816;   -0,136
856,558;20127,205;    0,366;    1,773
857,119;20268,006;    0,820;    2,864
857,681;19952,080;    0,002;    0,318
858,242;19970,791;    1,911;   -2,136
858,803;20407,683;    0,456;   -0,773
859,364;20990,121;    0,184;   -4,773
859,925;20273,741;   -2,453;   -0,955
860,486;20176,815;   -0,453;   -0,955
861,047;19891,798;   -0,544;   -1,227
861,608;19706,418;   -1,089;   -0,773
862,169;19798,674;    0,638;   -0,045
862,730;19573,112;    0,456;    1,409
863,291;19839,095;   -0,635;   -0,500
863,852;20224,987;   -0,635;    1,955
864,412;19663,152;   -0,271;   -0,864
864,973;18180,135;   -0,089;    0,500
865,534;18048,028;   -1,726;    0,227
866,094;19654,829;    1,820;    0,227
866,655;19267,813;    1,274;    3,318
867,215;19519,978;    0,274;    0,136
867,776;19360,961;    0,547;   -0,136
868,336;19481,399;   -1,453;    0,136
868,897;18928,109;    2,638;    1,682
869,457;18671,638;    1,365;    0,318
870,017;18856,803;    0,547;   -1,227
870,578;19430,604;   -0,817;    0,773
871,138;19109,497;   -2,089;   -0,955
871,698;18607,844;   -0,817;   -1,318
872,258;18475,554;   -0,453;   -2,864
872,818;18879,992;    2,729;    0,045
873,378;18846,884;    0,638;    1,045
873,938;18366,049;    0,547;    0,500
874,498;18750,578;    0,274;   -1,955
875,058;18622,743;    2,183;    1,773
875,618;18452,999;    1,910;   -2,682
876,177;18361,801;    1,274;    0,136
876,737;17951,966;   -0,090;    1,955
877,297;17966,403;    0,183;    1,955
877,856;17987,023;   -0,362;    0,318
878,416;17935,370;    1,183;   -0,136
878,976;18138,808;   -1,817;    0,409
879,535;18290,337;    0,092;    3,136
880,095;18021,320;   -0,544;    0,045
880,654;18174,303;   -1,090;    1,318
881,213;18316,559;    2,456;    1,500
881,773;17920,906;    2,637;    2,682
882,332;18281,162;    3,365;    5,136
882,891;18098,509;    3,092;    2,136
883,451;18587,674;   -1,272;    1,682
884,010;18009,112;   -2,908;   -0,409
884,569;18116,277;   -0,999;   -0,045
885,128;18224,533;    2,819;   -1,864
885,687;18343,425;    4,455;    0,682
886,246;18020,408;    1,455;    2,136
886,805;17788,210;    2,455;    2,045
887,364;18097,284;   -0,999;   -0,500
887,922;18459,813;   -1,181;    0,045
888,481;17972,796;   -1,545;    0,591
889,040;18316,779;    1,183;    2,136
889,599;18996,490;    2,455;    1,409
890,157;19034,928;    1,455;    2,409
890,716;18727,911;   -0,090;    0,227
891,274;18516,167;    0,092;   -1,136
891,833;18972,786;    1,546;    0,864
892,391;18825,588;   -0,454;    0,500
892,950;18881,207;    1,819;   -0,773
893,508;19284,373;    0,455;   -0,409
894,067;18623,538;    0,637;    0,136
894,625;18541,885;   -0,636;   -1,500
895,183;18776,868;   -0,363;   -0,682
895,741;18628,760;    1,728;   -1,773
896,299;18456,016;   -0,545;   -2,409
896,858;18656,090;    0,819;   -1,591
897,416;18792,528;    2,728;   -1,318
897,974;18478,875;    1,819;    0,318
898,532;18659,313;    6,091;    2,682
899,089;18553,841;    2,091;   -0,682
899,647;18570,370;   -1,454;    1,318
900,205;18268,263;    1,182;    1,045
900,763;18513,791;   -0,454;    0,227
901,321;18469,684;    2,364;   -1,409
901,878;17881,212;   -1,000;   -0,773
902,436;17764,468;   -1,363;    1,318
902,994;18110,724;    4,728;    3,682
903,551;17575,708;    0,728;    0,409
904,109;17986,418;    0,182;   -1,409
904,666;17550,674;    2,455;    1,045
905,224;17373,930;    0,182;   -0,409
905,781;17075,459;    0,727;   -0,318
906,338;17200,624;   -1,363;    1,045
906,895;17084,971;    0,637;    2,045
907,453;17012,318;    1,727;    1,136
908,010;17039,119;   -0,909;    0,409
908,567;16659,011;    1,273;    0,591
909,124;16181,995;    0,364;   -1,500
909,681;16247,614;   -2,909;    0,682
910,238;16339,961;    0,636;   -1,318
910,795;16681,581;   -0,273;   -1,136
911,352;16278,581;   -2,909;   -2,682
911,909;15680,672;   -1,364;   -0,864
912,466;16237,308;   -3,182;    1,500
913,022;15784,854;   -1,636;    0,500
913,579;16089,581;   -0,909;    2,045
914,136;15778,217;    1,636;    0,955
914,692;16157,490;    0,091;   -1,227
915,249;15741,854;    1,455;    0,409
915,806;15965,217;    0,182;    1,955
916,362;15684,308;    1,909;    1,864
916,918;15208,763;    2,000;    1,045
917,475;15187,217;   -1,182;    0,955
918,031;15247,035;    3,364;   -0,045
918,587;14674,581;   -0,909;   -0,318
919,144;14895,944;   -2,273;    0,227
919,700;15269,399;    1,727;    0,773
920,256;14818,672;    0,727;    0,045
920,812;14386,126;   -0,727;   -1,045
921,368;14407,581;   -1,727;   -1,045
921,924;14007,399;    0,182;   -0,136
922,480;13589,672;   -0,545;    1,227
923,036;14243,581;    1,273;    1,955
923,592;14159,217;    0,455;    0,318
924,148;14058,672;    0,455;   -0,955
924,704;13338,126;   -1,364;   -0,409
925,259;13589,399;   -0,273;    0,591
925,815;13379,944;    1,455;    0,500
926,371;12866,217;    2,909;    1,409
926,926;12722,763;    2,091;    0,591
927,482;12323,217;   -1,364;    0,773
928,037;12238,217;    0,909;    2,045
928,593;12520,126;    1,636;    1,045
929,148;12353,126;   -1,818;   -1,500
929,704;11814,217;   -1,455;   -0,500
930,259;12016,672;    0,091;   -0,136
930,814;11031,308;   -0,818;    1,955
931,369;10692,763;    1,091;   -0,773
931,925;10548,035;   -0,091;    0,136
932,480;10448,490;   -2,818;   -2,591
933,035;10318,399;    0,545;   -0,318
933,590;10080,854;    0,364;   -1,773
934,145; 9667,217;   -1,364;   -0,318
934,700;10035,944;    0,455;   -0,591
935,255; 9832,672;   -0,091;    0,045
935,809; 9067,126;    3,182;    0,864
936,364; 8143,217;   -0,455;   -0,136
936,919; 8113,854;    0,455;   -1,773
937,474; 7959,490;    1,455;    0,136
938,028; 7687,399;   -1,636;    1,136
938,583; 7124,854;    1,818;    4,682
939,138; 7397,035;    2,091;    2,136
939,692; 6807,490;    1,636;   -1,136
940,247; 6503,490;   -0,727;   -1,045
940,801; 5996,217;   -0,636;    0,227
941,355; 5863,035;   -0,364;    2,591
941,910; 5514,763;   -0,273;   -2,136
942,464; 5643,399;   -0,818;   -0,318
943,018; 5383,854;    1,000;   -0,227
943,572; 5348,672;    2,545;   -0,682
944,126; 4719,490;    0,091;   -0,409
944,681; 4607,035;    3,091;    0,227
945,235; 4590,490;    1,000;   -0,591
945,789; 4537,581;    0,364;   -1,864
946,342; 4605,035;    0,455;   -0,591
946,896; 4408,581;   -2,273;    0,955
947,450; 4143,490;    1,545;   -0,227
948,004; 4347,944;    1,727;   -0,045
948,558; 4361,944;    0,273;   -0,864
949,111; 4289,308;   -0,273;   -0,318
949,665; 4303,126;    1,636;   -0,682
950,219; 4164,763;   -0,091;   -1,045
950,772; 4253,581;   -1,909;    1,864
951,326; 4149,672;    0,545;   -0,955
951,879; 4251,763;    0,727;   -2,318
952,433; 4288,944;    0,000;    2,227
952,986; 4124,763;    2,909;    0,682
953,539; 4078,399;   -0,273;    0,591
954,093; 4002,490;    0,545;   -1,318
954,646; 4138,399;    0,909;    1,318
955,199; 3943,126;    0,000;   -0,500
955,752; 3816,672;   -0,455;    1,773
956,305; 3765,581;   -0,091;    2,955
956,858; 3945,490;    0,818;   -0,318
957,411; 4116,763;   -0,545;    2,136
957,964; 3940,672;    1,364;    2,136
958,517; 3943,217;   -1,545;    3,136
959,070; 3759,399;   -0,455;    1,955
959,623; 3811,308;    1,091;    1,500
960,176; 3566,763;    1,727;    2,045
960,728; 3545,944;   -2,727;    0,773
961,281; 3611,854;    0,545;    0,500
961,834; 3646,854;   -0,909;    0,864
962,386; 3573,490;    1,727;    1,045
962,939; 3523,126;    0,364;   -0,318
963,491; 3661,672;    0,455;    1,136
964,043; 3510,308;    1,182;    2,409
964,596; 3643,854;   -1,000;    2,227
965,148; 3478,944;   -1,000;    1,773
965,700; 3394,399;    1,091;   -0,227
966,253; 3544,763;   -0,636;    0,318
966,805; 3386,399;   -2,273;    0,773
967,357; 3443,035;    1,091;   -1,500
967,909; 3393,581;    0,455;   -1,227
968,461; 3529,944;    0,545;    3,136
969,013; 3466,763;   -0,182;   -0,864
969,565; 3531,308;   -0,455;   -1,136
970,117; 3524,672;   -0,364;    1,045
970,669; 3377,126;    0,182;   -0,136
971,220; 3262,490;   -0,455;   -1,500
971,772; 3196,763;   -0,636;   -0,318
972,324; 3292,399;    0,091;   -0,500
972,876; 3243,126;    0,818;   -0,045
973,427; 3395,217;    1,909;   -1,045
973,979; 3356,763;   -0,727;   -2,500
974,530; 3397,126;    1,818;    1,318
975,082; 3397,944;   -0,545;    1,682
975,633; 3290,217;    1,091;    1,682
976,184; 3431,035;    0,909;    0,773
976,736; 3213,308;    0,091;    0,227
977,287; 2990,672;   -0,909;   -0,500
977,838; 3189,944;    0,909;   -0,318
978,389; 3255,763;   -1,000;   -0,500
978,940; 3110,854;    0,545;   -0,409
979,491; 3147,763;    0,091;   -0,500
980,042; 3104,490;    0,182;    3,045
980,593; 3174,308;   -2,545;    0,227
981,144; 3199,308;    2,545;   -0,500
981,695; 3156,308;    1,455;    1,500
982,246; 3123,217;   -0,273;    1,045
982,797; 3316,035;   -1,727;    0,682
983,347; 3415,490;    0,364;    0,591
983,898; 3578,854;    3,091;    0,409
984,449; 3382,126;    2,182;    0,773
984,999; 3306,763;    1,455;   -1,136
985,550; 3079,035;    0,182;   -0,318
986,100; 3099,581;   -0,455;   -0,318
986,651; 3157,217;   -0,818;    0,045
987,201; 3137,035;   -1,000;   -0,591
987,751; 3208,672;    0,818;    2,864
988,302; 3188,308;    2,636;    1,500
988,852; 3209,854;    0,455;   -1,136
989,402; 3242,308;    0,091;    0,682
989,952; 3156,672;   -2,182;    0,864
990,502; 3271,308;   -0,091;    0,682
991,052; 3233,399;   -0,727;    0,045
991,602; 3091,126;   -2,909;    1,318
992,152; 3096,944;    0,455;    0,682
992,702; 3069,490;    1,364;   -0,045
993,252; 2995,490;   -3,000;   -0,500
993,802; 3102,672;   -0,273;    1,318
994,352; 3323,308;   -1,545;    1,136
994,901; 3423,944;   -0,182;    3,227
995,451; 3351,308;   -0,182;    0,318
996,000; 3427,308;    1,636;    0,318
996,550; 3144,854;    2,273;    0,227
997,100; 3130,490;    1,273;   -0,045
997,649; 3407,490;    2,182;    0,955
998,198; 3021,763;    1,727;   -1,500
998,748; 3229,217;    1,091;   -2,318
999,297; 3140,854;   -0,818;   -0,409
999,846; 3197,126;    1,000;   -0,773
1000,395; 3244,490;   -0,818;    0,500
1000,945; 3199,581;    1,818;   -0,773
1001,494; 3283,854;    2,364;    0,682
1002,043; 3283,944;    4,636;    0,864
1002,592; 3127,854;   -1,091;    1,955
1003,141; 3280,217;   -0,455;   -0,682
1003,690; 3121,672;    1,727;    0,500
1004,238; 3215,581;    1,455;   -0,045
1004,787; 2856,581;    1,364;    1,227
1005,336; 3068,763;    0,364;    0,682
1005,885; 3222,581;    1,364;   -2,773
1006,433; 3401,308;    0,545;    0,955
1006,982; 3426,944;    0,455;    1,682
1007,531; 3348,763;   -1,818;   -0,227
1008,079; 3306,035;   -2,273;    0,500
1008,627; 3438,672;   -1,455;    0,409
1009,176; 3150,854;    0,000;   -1,955
1009,724; 3209,944;    1,091;    0,864
1010,273; 3264,672;    1,273;    0,500
1010,821; 3392,035;    0,091;    1,409
1011,369; 3098,308;   -1,364;    1,318
1011,917; 3091,944;   -1,364;   -0,591
1012,465; 3368,763;    1,273;   -1,591
1013,013; 3481,308;    2,091;   -1,682
1013,561; 3357,854;    0,455;   -0,773
1014,109; 3408,581;   -1,909;    1,682
1014,657; 3284,672;    0,364;    0,591
1015,205; 3411,035;    1,636;   -0,955
1015,753; 3459,944;   -0,545;   -1,409
1016,301; 3502,854;   -2,636;    3,045
1016,848; 3485,944;   -1,273;    0,409
1017,396; 3540,944;    2,545;    0,045
1017,944; 3682,399;    1,182;    1,864
1018,491; 3436,126;    0,273;    1,409
1019,039; 3555,854;    0,455;    0,591
1019,586; 3478,581;   -1,364;    1,682
1020,134; 3614,581;    0,455;    1,500
1020,681; 3607,944;    0,182;   -1,136
1021,228; 3626,763;    2,909;   -2,227
1021,776; 3446,672;    1,182;   -1,136
1022,323; 3678,763;    0,455;    0,773
1022,870; 3600,399;   -1,000;   -0,045
1023,417; 3470,763;    2,636;    1,864
1023,964; 3648,399;    2,636;    1,227
1024,511; 3462,581;    1,000;    0,773
1025,058; 3256,399;    3,182;   -0,045
1025,605; 3318,126;   -2,273;    3,136
1026,152; 3550,854;    1,727;   -0,591
1026,699; 3260,581;    1,818;    1,318
1027,245; 3444,126;   -0,091;    0,318
1027,792; 3664,399;   -1,000;    1,409
1028,339; 3525,944;    2,364;   -0,045
1028,885; 3358,490;    1,000;   -0,227
1029,432; 3296,581;   -0,091;    0,227
1029,978; 3366,308;   -1,000;   -1,591
1030,525; 3265,490;    1,000;    0,409
1031,071; 3521,308;   -1,364;    1,136
1031,618; 3606,944;    0,364;    1,682
1032,164; 3401,035;   -0,091;    3,045
1032,710; 3464,944;    1,636;   -1,500
1033,256; 3373,035;   -0,636;   -0,136
1033,803; 3366,763;   -0,545;    1,500
1034,349; 3070,399;   -1,364;    0,136
1034,895; 3214,672;    0,000;   -0,318
1035,441; 3197,490;   -0,818;    0,318
1035,987; 3185,217;   -2,364;   -0,682
1036,533; 3175,672;   -1,455;   -0,955
1037,078; 3400,672;    1,455;    1,682
1037,624; 3218,854;    2,455;   -0,955
1038,170; 3248,763;    0,455;   -0,318
1038,716; 3139,490;    1,636;   -0,409
1039,261; 3068,126;   -2,273;   -0,773
1039,807; 3003,672;   -0,091;    3,409
1040,352; 3069,126;   -1,909;   -0,318
1040,898; 3108,126;   -1,545;   -0,682
1041,443; 3013,672;   -1,455;   -2,591
1041,989; 3010,490;    1,091;    1,591
1042,534; 2902,672;   -0,364;    2,591
1043,079; 3007,308;    2,909;    0,955
1043,625; 2795,308;    1,818;    0,500
1044,170; 2839,217;   -1,364;    1,045
1044,715; 3085,399;    2,455;    0,955
1045,260; 2896,581;    2,182;   -0,955
1045,805; 2954,581;    1,182;   -0,591
1046,350; 2894,763;    1,364;   -0,409
1046,895; 2844,126;    2,909;    1,591
1047,440; 2799,126;    5,364;    0,409
1047,985; 2700,308;    2,818;   -0,955
1048,530; 2621,035;    1,545;    1,227
1049,074; 2675,308;    0,000;    0,318
1049,619; 2663,126;   -1,364;    1,955
1050,164; 2452,581;    0,455;    0,227
1050,708; 2481,672;   -0,455;    0,045
1051,253; 2845,217;    1,273;   -2,227
1051,797; 2557,399;    0,818;   -1,318
1052,342; 2581,126;   -1,182;    1,045
1052,886; 2568,308;    0,364;   -1,409
1053,430; 2444,217;   -1,364;    0,136
1053,975; 2467,399;   -0,818;   -0,318
1054,519; 2432,763;   -0,727;    3,227
1055,063; 2442,490;    0,909;    1,318
1055,607; 2320,763;   -0,182;    0,227
1056,151; 2343,581;    2,909;    1,682
1056,695; 2277,035;    2,273;   -1,136
1057,239; 2346,035;   -1,727;   -0,682
1057,783; 2342,399;    0,818;   -1,500
1058,327; 2275,217;    0,000;    1,409
1058,871; 2512,126;   -0,545;    1,318
1059,415; 2202,763;   -0,818;   -0,045
1059,958; 2476,672;    1,455;    2,591
1060,502; 2192,126;   -1,000;   -0,773
1061,046; 2109,217;    0,364;   -0,955
1061,589; 2083,944;   -3,000;   -1,136
1062,133; 1959,490;   -1,273;    1,864
1062,676; 1886,399;    1,182;    0,864
1063,220; 1902,763;    1,091;    0,500
1063,763; 1915,490;    0,909;    1,136
1064,306; 2010,854;   -0,909;    1,864
1064,849; 1873,399;   -0,909;    0,591
1065,393; 1886,399;    2,000;   -1,500
1065,936; 2006,672;    0,182;   -0,409
1066,479; 1881,854;   -1,455;    1,318
1067,022; 1900,217;   -0,273;   -0,227
1067,565; 1802,672;   -0,091;   -1,318
1068,108; 1833,672;    0,727;   -0,591
1068,651; 1814,035;   -0,636;    1,409
1069,194; 1740,763;   -0,455;   -1,682
1069,736; 1746,944;   -1,273;    0,955
1070,279; 1708,944;   -1,364;   -0,500
1070,822; 1760,672;   -2,000;   -0,318
1071,364; 1844,217;   -0,364;    1,318
1071,907; 1669,308;   -0,727;    3,227
1072,450; 1571,308;    0,000;   -0,045
1072,992; 1561,581;   -0,273;    3,136
1073,535; 1711,217;    2,091;    2,136
1074,077; 1499,944;   -0,727;    2,045
1074,619; 1457,217;   -1,364;    0,591
1075,161; 1485,672;   -1,091;    1,500
1075,704; 1666,854;    1,545;    1,227
1076,246; 1463,217;   -0,182;    0,682
1076,788; 1397,763;   -0,364;    1,773
1077,330; 1466,490;    1,273;    2,136
1077,872; 1419,035;    0,909;    0,955
1078,414; 1658,854;    2,727;    0,773
1078,956; 1393,763;    1,273;   -0,227
1079,498; 1632,126;    1,636;    0,318
1080,040; 1342,035;    1,909;   -1,318
1080,581; 1284,490;    1,636;   -0,318
1081,123; 1212,672;    0,091;   -0,773
1081,665; 1263,581;   -1,182;   -0,955
1082,206; 1564,399;    1,364;   -0,500
1082,748; 1409,399;    0,727;    2,045
1083,289; 1289,672;   -2,000;    1,318
1083,831; 1190,399;   -0,545;    0,227
1084,372; 1229,581;    0,000;    0,591
1084,913; 1239,035;    1,091;    0,864
1085,455; 1205,490;   -1,909;   -2,045
1085,996; 1173,126;   -2,273;    0,136
1086,537; 1190,490;   -0,091;    0,864
1087,078; 1229,763;   -0,909;   -2,136
1087,619; 1271,854;   -1,273;    0,227
1088,160; 1180,217;    0,000;    1,318
1088,701; 1174,308;   -1,091;    0,682
1089,242; 1112,126;    1,364;   -2,227
1089,783; 1211,399;   -0,273;    1,409
1090,324; 1163,308;    0,455;    0,682
1090,865; 1044,763;    2,727;   -0,409
1091,405; 1011,035;    0,727;    2,227
1091,946; 1037,854;    0,182;   -0,955
1092,487;  965,490;    0,818;   -1,409
1093,027; 1135,581;   -1,364;   -1,500
1093,568;  989,308;   -0,364;    1,227
1094,108; 1083,490;    0,273;    1,773
1094,649; 1021,944;   -1,182;    0,136
1095,189;  954,581;   -0,636;   -0,682
1095,729;  914,672;   -0,091;    0,955
1096,269;  917,308;    0,727;   -0,955
1096,810; 1234,854;   -1,364;    0,500
1097,350; 1054,035;    1,364;   -0,773
1097,890;  957,126;    0,364;    1,227
1098,430; 1207,944;    2,364;    2,864
1098,970; 1077,308;    2,182;    1,682
1099,510;  937,217;    0,545;   -2,318
1100,050;  868,581;    1,000;   -1,591
1100,589;  835,672;   -0,727;   -0,318
1101,129;  963,490;    0,818;   -0,955
1101,669; 1122,763;    1,727;    2,136
1102,209;  926,490;   -0,091;    2,227
1102,748;  879,490;    0,000;    0,955
1103,288;  867,308;    1,273;   -1,227
1103,827;  898,035;    3,091;   -2,227
1104,367;  772,308;   -0,091;   -2,409
1104,906;  740,308;    1,364;   -1,136
1105,445;  808,035;    0,636;   -1,136
1105,985;  739,944;   -0,727;    1,500
1106,524;  794,217;   -1,727;   -0,682
1107,063;  778,035;   -2,727;    1,409
1107,602;  754,308;   -1,909;   -1,500
1108,141;  679,944;   -1,909;    1,500
1108,680;  777,217;   -3,455;   -0,591
1109,219;  705,763;   -0,909;   -0,500
1109,758;  713,763;    0,455;    0,682
1110,297;  682,581;    1,000;   -0,682
1110,836;  620,035;   -0,727;    0,955
1111,375;  799,217;   -2,545;    0,409
1111,913;  812,217;   -1,000;    0,773
1112,452;  748,854;   -0,273;    0,136
1112,991;  621,308;    1,091;    1,955
1113,529;  573,672;   -0,818;   -0,045
1114,068;  652,854;   -0,273;    2,955
1114,606;  553,490;   -0,364;   -0,955
1115,144;  716,308;   -1,273;    1,045
1115,683;  654,581;   -0,727;    0,318
1116,221;  701,126;   -0,455;   -0,864
1116,759;  607,217;    0,636;   -0,864
1117,297;  807,490;    0,000;    1,864
1117,836;  600,399;   -2,182;   -1,227
1118,374;  619,035;    0,182;   -0,682
1118,912;  556,763;    0,909;    2,682
1119,450;  548,490;    1,000;    0,864
1119,988;  598,308;    1,545;    2,136
1120,525; 1050,490;    5,091;    3,318
1121,063;  745,126;    1,182;    1,864
1121,601;  554,581;   -0,909;   -1,227
1122,139;  510,944;   -0,727;   -2,045
1122,676;  713,308;   -0,727;    2,773
1123,214;  635,308;   -1,182;    4,409
1123,751;  447,581;    1,727;    2,227
1124,289;  598,399;   -0,091;   -0,409
1124,826;  453,035;    1,727;    0,227
1125,364;  374,126;    1,727;   -0,955
1125,901;  568,126;    1,182;    1,227
1126,438;  684,854;    0,818;    0,955
1126,975;  401,308;   -0,727;   -0,773
1127,513;  472,854;    0,273;    2,136
1128,050;  378,854;    1,636;   -0,682
1128,587;  483,035;    2,000;   -0,227
1129,124;  522,581;    0,091;    1,318
1129,661;  382,035;    0,273;    0,227
1130,198;  557,490;    1,636;    0,773
1130,734;  502,217;    0,182;    1,409
1131,271;  348,854;   -0,909;    0,864
1131,808;  532,854;    2,909;    3,045
1132,345;  394,581;    1,545;    0,318
1132,881;  259,763;   -1,545;   -1,864
1133,418;  410,581;    0,727;   -1,136
1133,954;  336,944;    2,455;   -2,682
1134,491;  419,854;    1,364;   -0,773
1135,027;  308,581;    2,364;    0,864
1135,564;  411,308;    0,273;    2,955
1136,100;  399,217;    0,364;    2,136
1136,636;  276,672;   -1,273;   -1,045
1137,172;  384,399;    0,000;   -1,045
1137,708;  298,399;   -1,364;   -1,045
1138,245;  305,308;    1,273;   -1,227
1138,781;  250,763;    1,091;   -3,318
1139,317;  318,217;    1,273;   -1,409
1139,852;  305,035;    3,091;    0,136
1140,388;  431,854;   -1,182;   -0,409
1140,924;  315,581;   -1,091;   -2,227
1141,460;  251,035;   -1,636;    0,136
1141,996;  171,308;   -1,364;    2,682
1142,531;  220,035;    1,364;    3,318
1143,067;  448,944;    1,182;    1,045
1143,602;  509,217;   -0,091;   -0,318
1144,138;  346,490;   -2,636;    1,045
1144,673;  207,763;   -1,455;    1,409
1145,209;  282,308;   -1,909;   -0,318
1145,744;  200,944;   -0,727;    0,864
1146,279;  341,126;    1,818;   -0,136
1146,815;  240,217;    1,545;   -2,682
1147,350;  287,490;   -1,364;    0,045
1147,885;  202,763;   -0,818;   -1,318
1148,420;  193,308;   -2,273;    0,773
1148,955;  180,308;   -1,727;    1,864
1149,490;  206,672;   -0,909;   -1,591
1150,025;  189,944;    0,455;   -1,773
1150,560;  312,308;    1,091;   -0,955
1151,094;  283,581;    1,455;   -0,591
1151,629;  280,581;    1,636;    0,864
1152,164;  201,035;    1,364;    1,318
1152,698;  161,581;   -0,182;   -0,136
1153,233;  116,399;    0,091;   -0,682
1153,767;  168,944;   -3,000;   -2,318
1154,302;  214,944;   -1,455;    1,773
1154,836;  214,490;   -0,455;   -2,136
1155,371;  280,126;   -1,364;    3,682
1155,905;  227,763;   -0,636;    1,682
1156,439;  193,763;   -0,636;   -0,500
1156,973;  214,944;    0,364;    0,318
1157,507;  149,672;   -0,364;    0,682
1158,042;  184,399;   -0,727;    1,045
1158,576;  236,854;    0,182;    1,773
1159,110;  220,217;   -0,818;    2,409
1159,643;  190,490;    0,636;   -0,045
1160,177;  137,035;   -1,545;    1,500

