
Integration time [ms]:   0,040
Averaging Nr. [scans]: 11
Smoothing Nr. [pixels]: 0
Data measured with spectrometer [name]: 7318044SP
Wave   ;Sample   ;Dark     ;Reference
[nm]   ;[counts] ;[counts] ;[counts] 

186,757;   39,657;   31,551;    1,318
187,357;   41,982;   22,551;    0,955
187,958;   27,194;   15,460;   -1,591
188,558;   43,004;    8,915;   -1,227
189,159;   24,371;    6,733;   -4,500
189,759;   14,814;    7,278;   -3,591
190,360;    9,365;    2,824;   -2,136
190,960;   26,539;    2,915;   -4,136
191,560;   32,642;    3,189;   -6,591
192,161;  147,505;    4,372;   -3,500
192,761;   81,010;    4,010;   -3,227
193,361;   53,401;    1,556;   -3,773
193,962;   72,222;    2,010;   -2,682
194,562;   28,339;    1,189;   -3,955
195,162;   31,842;   -2,448;   -2,227
195,762;   99,969;   -3,176;   -0,045
196,362;   68,704;    1,370;   -2,500
196,963;   24,938;    2,006;   -0,864
197,563;   52,285;    1,551;   -0,955
198,163;   23,941;    0,096;   -0,682
198,763;   32,439;    1,733;   -0,500
199,363;   66,098;    3,096;   -0,500
199,963;   50,635;    0,369;    0,409
200,563;   37,290;    2,823;   -1,409
201,163;   27,243;    3,277;   -0,227
201,763;   53,293;    3,732;    0,318
202,363;   30,637;    1,459;    1,500
202,963;   56,502;    1,459;    1,045
203,563;  103,596;    0,277;    0,500
204,162;   53,265;    2,096;   -1,864
204,762;   45,257;    0,550;    0,591
205,362;   30,205;    3,004;    1,955
205,962;   60,326;    3,096;    1,955
206,562;   54,315;    1,823;    2,318
207,161;   40,981;   -0,087;    0,318
207,761;  124,681;    1,277;    2,409
208,361;   62,736;   -0,268;    1,409
208,960;   86,097;    0,459;    1,500
209,560;   85,191;    1,277;    1,591
210,160;   99,802;    0,550;    1,864
210,759;   76,177;    4,186;    1,227
211,359;   67,951;    1,459;    1,045
211,958;  196,009;    1,277;    2,045
212,558;  211,869;    1,732;    1,864
213,157;  130,067;    1,822;    1,500
213,757;  322,546;    3,822;   -0,227
214,356;  173,962;    1,277;   -0,409
214,956;  322,811;    3,095;    0,409
215,555;  150,678;    2,095;    2,136
216,154;  110,590;   -2,723;   -0,591
216,754;  110,937;    0,277;    0,773
217,353;  150,306;   -0,268;   -1,045
217,952;   63,213;   -0,178;    0,318
218,552;  189,494;    1,368;   -0,773
219,151;  127,505;    0,277;    0,955
219,750;  119,031;    0,004;   -0,227
220,349;  103,078;   -0,451;    1,045
220,948;  215,011;   -1,360;    1,136
221,548;  137,989;    0,913;    1,227
222,147;  185,042;   -0,087;   -0,409
222,746;  335,714;   -0,451;   -0,955
223,345;  224,573;    0,731;    0,500
223,944;  228,232;   -0,451;    0,773
224,543;  258,124;    1,004;   -1,409
225,142;  276,736;    0,094;    0,136
225,741;  263,560;   -0,814;    1,045
226,340;  241,695;   -0,451;   -0,955
226,939;  396,753;   -0,996;   -0,136
227,538;  240,174;   -0,360;   -0,773
228,137;  404,411;   -0,814;    0,864
228,735;  356,130;   -0,541;    1,227
229,334;  222,114;   -0,905;   -0,227
229,933;  447,681;    0,459;    0,591
230,532;  478,218;    1,186;   -0,409
231,131;  567,155;    1,732;    0,318
231,729;  432,640;   -2,450;   -2,318
232,328;  347,976;   -0,723;   -1,500
232,927;  361,921;    1,004;   -0,500
233,525;  344,452;    3,640;    0,045
234,124;  420,306;    2,368;   -1,591
234,723;  324,736;    0,913;   -1,045
235,321;  325,502;    2,277;    0,136
235,920;  392,648;    1,186;   -1,227
236,518;  594,141;    3,459;    0,318
237,117;  399,722;    0,004;   -0,227
237,715;  416,483;    0,640;   -0,500
238,314;  493,788;   -0,087;   -2,318
238,912;  665,155;   -0,723;   -1,409
239,510;  515,485;    0,459;   -1,227
240,109;  683,767;    0,004;    3,773
240,707;  626,623;   -0,996;    1,227
241,305;  455,229;    0,550;    0,136
241,904;  597,866;   -0,178;   -2,045
242,502;  710,800;   -0,632;   -0,227
243,100;  578,102;   -0,087;   -0,955
243,698;  524,045;    0,732;    1,682
244,297;  572,667;   -0,632;    0,682
244,895;  573,031;   -0,269;   -2,318
245,493;  800,292;    2,186;   -0,591
246,091;  777,984;    1,368;   -1,318
246,689;  715,158;    1,004;    0,591
247,287;  659,692;    0,822;   -1,136
247,885;  626,675;   -1,451;    1,227
248,483;  586,499;    1,822;   -0,500
249,081;  684,466;    0,185;    1,591
249,679;  749,254;   -0,178;    1,682
250,277;  590,254;   -1,723;    0,864
250,875;  766,111;   -1,087;   -1,045
251,473;  634,461;   -1,178;    0,500
252,071;  759,226;    1,459;    1,045
252,669;  659,959;   -1,814;    0,318
253,267;  592,058;   -0,087;    0,773
253,864;  645,510;   -0,360;    0,682
254,462;  855,287;    1,640;    1,591
255,060;  589,518;   -0,269;    1,318
255,658;  580,323;    0,822;   -0,136
256,255;  701,684;    0,186;   -2,045
256,853;  744,312;   -0,269;    1,409
257,451;  722,912;    0,822;    1,864
258,048; 1228,416;    1,822;    1,864
258,646;  849,824;    1,731;   -1,045
259,243;  979,494;   -0,087;    2,227
259,841;  840,419;   -0,814;    0,318
260,438;  661,044;   -0,087;    0,864
261,036;  818,496;   -1,905;    1,409
261,633;  715,885;   -0,087;    2,227
262,231;  648,937;    2,731;   -0,045
262,828;  673,530;   -0,905;    1,136
263,425;  735,400;    0,913;   -0,591
264,023;  744,609;    0,186;    0,045
264,620;  906,535;   -0,360;   -0,318
265,217; 1053,240;   -2,087;    3,136
265,815;  734,722;   -1,905;    2,136
266,412;  886,438;    0,731;    0,136
267,009;  931,359;   -1,451;    0,773
267,606; 1035,551;    0,822;   -0,955
268,203;  786,805;   -0,269;   -0,591
268,801;  854,863;    1,731;    0,591
269,398;  748,430;   -0,360;    2,500
269,995;  929,984;    0,277;    1,591
270,592;  823,298;   -0,632;   -0,500
271,189;  745,978;    0,186;    0,409
271,786;  725,866;   -0,632;    1,227
272,383; 1029,422;   -1,087;    0,227
272,980;  846,736;    0,277;    0,318
273,577;  803,381;    0,004;    1,227
274,174;  730,689;    0,822;    2,591
274,771;  887,595;   -0,814;   -0,773
275,367; 1351,373;    2,277;    1,409
275,964; 1143,295;    0,731;   -0,500
276,561;  915,348;    1,549;   -1,045
277,158;  825,436;    0,095;   -1,773
277,755; 1107,920;    2,185;    0,409
278,351;  918,179;   -0,451;   -1,500
278,948; 1019,091;   -0,815;    0,045
279,545;  922,813;   -1,360;    2,318
280,141; 1229,334;   -1,723;   -2,045
280,738; 1096,034;   -0,451;   -0,136
281,334;  873,885;   -1,633;    0,591
281,931;  888,791;   -0,087;   -1,318
282,528; 1001,934;    0,822;   -0,500
283,124; 1147,287;   -1,087;   -0,500
283,721; 1124,940;   -0,451;    1,409
284,317;  933,714;    0,185;    2,500
284,913; 1202,408;   -1,360;    0,591
285,510; 1528,044;    0,640;   -0,318
286,106; 1293,298;   -2,269;   -0,955
286,703;  954,791;   -0,360;    1,955
287,299;  912,965;   -1,451;   -0,591
287,895;  931,447;    0,822;   -1,045
288,491;  961,339;    0,186;    2,136
289,088; 1084,774;   -2,360;    2,409
289,684; 1116,141;   -1,723;    1,500
290,280; 1296,036;    0,368;    0,682
290,876; 1257,160;    1,822;    5,500
291,472; 1124,347;    1,276;    2,227
292,068; 1142,860;    1,367;    0,227
292,665;  967,146;    2,095;    0,773
293,261;  837,268;    0,276;    2,136
293,857; 1062,838;    2,913;    2,136
294,453;  972,945;    3,550;    0,955
295,049; 1207,133;   -0,268;    1,955
295,644;  997,362;    0,095;    0,136
296,240;  856,127;   -0,905;   -0,136
296,836; 1038,400;   -0,995;    0,318
297,432; 1206,709;    1,096;   -0,500
298,028; 1271,896;    0,732;    0,773
298,624; 1098,334;    1,459;    1,864
299,220; 1068,348;    2,368;    0,591
299,815; 1019,362;    1,005;   -0,409
300,411; 1145,042;    0,914;    1,773
301,007; 1300,144;    1,368;    0,227
301,602; 1103,050;   -0,541;   -2,318
302,198; 1226,153;    0,732;   -0,773
302,794; 1053,775;    1,187;   -0,500
303,389; 1029,891;   -1,177;    1,045
303,985; 1107,458;    0,550;    1,409
304,580; 1230,221;    1,459;    1,591
305,176; 1098,676;   -3,086;    0,136
305,771;  971,389;   -1,268;   -1,227
306,367; 1423,535;    4,095;    0,136
306,962; 1176,232;    0,641;    1,500
307,558; 1161,772;   -0,450;    0,136
308,153; 1277,775;    1,095;   -1,136
308,748; 1050,632;   -0,814;    1,682
309,344; 1484,083;   -0,632;   -1,318
309,939; 1520,012;   -1,905;   -1,318
310,534; 1161,775;   -0,086;   -1,682
311,130; 1082,555;    0,459;   -2,500
311,725;  993,439;    1,004;   -0,500
312,320; 1114,064;    2,459;    0,045
312,915; 1251,601;    1,459;   -1,045
313,510; 1486,450;    1,550;   -0,500
314,105; 1244,905;    1,096;    1,409
314,700;  990,971;   -3,086;   -1,045
315,295; 1064,767;   -0,904;    0,045
315,890;  963,943;    1,277;    0,864
316,485; 1094,001;   -0,359;   -0,318
317,080; 1034,522;   -3,086;    1,591
317,675; 1396,254;    2,005;   -0,682
318,270; 1592,830;    5,550;    3,318
318,865; 1506,640;    3,278;    3,045
319,460; 1272,048;   -0,904;    0,591
320,055; 1132,472;   -0,541;   -1,227
320,650; 1097,974;   -1,995;   -0,591
321,244; 1101,241;   -0,177;   -1,409
321,839; 1236,268;   -1,541;   -0,227
322,434; 1285,155;   -1,086;   -1,591
323,029; 1149,783;    1,732;    1,591
323,623; 1089,814;    1,550;    0,773
324,218; 1244,089;    2,368;    1,409
324,812; 1167,056;    1,096;    1,591
325,407; 1178,775;   -0,814;    2,045
326,002; 1292,152;    0,277;   -0,409
326,596; 1237,037;    0,914;    1,318
327,191; 1085,838;    0,823;   -1,045
327,785; 1013,219;   -0,813;   -0,227
328,379; 1113,750;    1,368;    0,136
328,974; 1121,389;    0,914;   -3,955
329,568; 1174,249;    0,186;   -2,409
330,163; 1243,803;    2,096;    1,045
330,757; 1104,932;    2,459;    1,591
331,351; 1021,844;    0,459;    0,682
331,945; 1026,494;    0,914;    1,409
332,540; 1173,670;   -1,723;   -0,591
333,134; 1141,855;   -1,086;    0,773
333,728; 1118,486;    0,005;    0,318
334,322; 1048,282;   -1,177;   -0,864
334,916;  960,943;    0,277;    0,955
335,510; 1184,648;   -0,450;   -0,136
336,105; 1212,020;   -1,086;    1,591
336,699; 1049,059;   -1,086;    0,591
337,293; 1074,560;   -1,723;    0,318
337,887; 1005,703;   -2,723;    1,955
338,481; 1194,210;    0,459;    0,591
339,074; 1347,571;   -0,359;    2,682
339,668; 1304,072;   -1,632;    1,227
340,262; 1980,866;    1,732;    3,227
340,856; 1483,750;    1,822;   -0,682
341,450; 1050,003;    1,004;    1,864
342,044; 1163,651;    1,459;    0,136
342,637; 1325,312;    0,913;   -2,136
343,231; 1353,009;   -2,360;    0,682
343,825; 1133,141;   -1,086;   -0,591
344,419; 1112,816;   -1,995;    0,500
345,012; 1742,654;    2,459;    4,045
345,606; 1523,602;    4,641;    1,591
346,199; 1145,951;   -1,813;   -0,227
346,793; 1285,635;    1,914;    2,045
347,386; 1065,500;   -0,813;   -1,136
347,980;  922,993;   -0,268;   -0,045
348,573; 1058,040;    2,278;    0,409
349,167; 1352,161;    5,278;    4,773
349,760; 1296,180;    2,914;    2,682
350,354; 1201,431;   -0,813;    1,136
350,947; 1259,062;    1,096;    1,682
351,540; 1037,685;   -0,358;   -1,409
352,134;  870,365;    1,096;    1,136
352,727;  942,770;   -0,086;    1,136
353,320;  979,773;    0,005;    0,591
353,913;  863,098;   -1,995;    1,864
354,507; 1117,684;    0,823;   -1,227
355,100;  997,271;    0,460;    0,864
355,693; 1436,057;    2,005;    2,409
356,286; 1136,811;    0,823;    2,773
356,879;  976,197;   -0,722;    1,227
357,472;  928,497;   -0,904;    1,500
358,065; 1022,271;   -0,722;    2,500
358,658;  857,916;   -0,540;    2,318
359,251;  765,841;   -1,631;   -0,591
359,844;  994,701;   -1,904;   -1,136
360,437; 1105,649;   -2,995;    0,045
361,030;  949,293;    1,369;   -0,682
361,623;  909,164;    2,824;    0,318
362,215; 1181,613;   -0,086;    2,045
362,808;  994,662;   -2,358;   -1,682
363,401;  921,277;   -2,449;    0,136
363,994; 1183,382;   -0,631;   -1,500
364,586;  912,327;    0,824;   -1,500
365,179;  847,181;   -0,449;   -1,136
365,772;  654,012;   -1,995;    2,045
366,364;  848,539;    1,915;   -3,227
366,957;  985,250;    2,279;   -0,045
367,549;  877,608;    2,188;   -0,864
368,142;  873,583;    1,825;   -1,500
368,734;  835,537;    0,734;   -2,136
369,327;  735,834;    1,643;   -0,500
369,919;  792,832;   -1,538;    0,409
370,512;  835,165;   -1,083;   -0,500
371,104; 1128,998;   -0,901;    1,591
371,696; 1189,067;    1,191;   -0,955
372,289; 1019,180;    0,373;    1,136
372,881;  943,790;   -2,080;    1,318
373,473;  790,385;   -2,170;    1,136
374,066;  928,130;   -0,169;    0,500
374,658;  888,065;    0,378;    1,136
375,250;  818,454;    0,653;   -1,409
375,842;  882,604;    0,473;   -0,045
376,434;  827,545;   -0,435;   -0,409
377,026;  862,984;    0,204;   -2,500
377,618;  900,790;   -0,158;   -0,682
378,210;  806,380;   -0,338;   -1,955
378,802;  756,337;    0,754;   -0,591
379,394; 1276,531;    1,846;    0,682
379,986; 1009,446;    1,393;   -0,955
380,578;  901,030;   -0,153;    0,773
381,170; 1167,743;   -0,972;    0,045
381,762; 1031,899;    0,755;    1,409
382,354;  977,039;   -0,065;   -1,318
382,945;  863,570;   -2,976;    0,318
383,537;  809,717;   -2,705;   -1,955
384,129;  821,328;   -2,160;   -1,136
384,721;  971,251;   -0,252;    0,955
385,312;  855,939;   -0,161;   -0,955
385,904; 1019,871;   -2,706;    1,591
386,496;  846,953;   -0,979;    1,045
387,087; 1041,086;    1,022;    2,500
387,679;  955,119;   -1,160;    0,045
388,270;  972,475;    2,840;    2,045
388,862;  907,519;    1,295;   -0,318
389,453;  839,981;   -0,887;    1,045
390,045;  895,070;   -0,705;   -2,682
390,636;  790,117;    0,204;   -0,591
391,227;  834,488;   -0,523;   -0,045
391,819;  852,811;    0,204;    0,773
392,410; 1155,461;    1,022;    0,045
393,001;  929,232;   -0,979;   -1,591
393,593; 1027,540;    1,930;   -0,045
394,184; 1089,339;    1,385;   -0,409
394,775;  881,623;    1,839;    2,136
395,366;  846,141;    1,385;    0,773
395,957; 1085,753;    0,113;    0,136
396,548;  959,058;   -0,342;    2,682
397,139; 1144,455;   -2,433;    0,591
397,730; 1000,031;   -1,888;    0,955
398,321;  997,047;   -1,252;    0,955
398,912;  937,480;   -0,615;    0,136
399,503;  968,102;   -3,524;   -1,409
400,094;  970,692;    0,294;    1,682
400,685;  965,017;   -0,433;    0,045
401,276;  866,314;    0,930;   -0,955
401,867;  871,744;   -0,888;    0,773
402,458;  839,477;   -2,251;   -2,318
403,048; 1046,347;    1,112;    0,591
403,639;  926,091;    0,840;    0,864
404,230; 1137,367;    2,476;    0,318
404,821; 1183,284;   -0,615;    0,045
405,411; 1055,981;    1,203;   -2,591
406,002;  912,457;   -1,252;   -1,136
406,592; 1216,300;    2,294;    0,045
407,183; 1026,576;    0,566;   -1,500
407,774;  973,647;    3,475;   -0,136
408,364;  952,388;    0,930;    0,409
408,954; 1104,113;    0,384;    1,227
409,545; 1102,906;    1,021;    1,045
410,135;  990,319;    1,293;    0,500
410,726;  949,099;    1,838;    0,318
411,316; 1208,071;    0,111;    0,773
411,906;  947,529;   -0,253;   -0,409
412,497;  946,044;   -1,070;   -0,045
413,087;  899,793;   -1,980;   -0,227
413,677;  870,283;   -0,707;    3,864
414,267;  851,066;    0,656;    1,409
414,857;  802,661;   -2,980;    4,227
415,448;  835,928;    0,839;    0,500
416,038;  848,881;    0,020;   -0,591
416,628;  906,713;   -0,889;    0,409
417,218; 1001,644;    0,565;    3,318
417,808; 1198,966;    0,202;   -0,409
418,398; 1023,068;    0,020;    2,682
418,988;  875,016;    2,020;    0,591
419,578;  988,694;   -0,707;    1,409
420,168;  998,727;   -1,343;   -0,955
420,757; 1177,476;   -1,343;   -1,500
421,347;  994,107;    0,111;   -0,227
421,937;  961,176;    2,292;    1,409
422,527; 1129,647;    0,838;   -0,773
423,116; 1295,154;   -0,253;   -0,045
423,706;  946,713;   -1,889;    0,318
424,296;  845,151;    1,384;    0,682
424,885; 1096,242;   -0,071;   -3,045
425,475; 1064,638;    1,474;   -2,864
426,065;  896,261;   -0,980;   -0,318
426,654;  866,878;   -0,435;   -0,318
427,244; 1269,038;    0,020;    1,409
427,833; 1208,071;    1,383;   -0,500
428,423; 1018,239;   -0,526;    1,136
429,012; 1079,098;   -0,344;   -1,136
429,601; 1215,489;   -1,344;    0,136
430,191; 1060,186;    1,292;    4,318
430,780;  876,707;   -0,344;   -0,409
431,369; 1207,588;    0,746;   -0,045
431,959; 1119,723;   -1,254;    0,500
432,548;  970,569;   -1,163;   -0,045
433,137;  870,577;   -1,254;   -1,318
433,726; 1054,867;    0,292;    0,500
434,315; 1024,029;   -0,526;    2,409
434,905; 1181,090;   -1,254;    1,409
435,494; 1249,200;    0,746;    0,955
436,083; 1041,996;   -0,981;   -0,955
436,672; 1106,913;    0,110;    0,500
437,261; 1050,820;    0,292;   -1,955
437,850; 1458,462;    1,383;    0,682
438,439; 1495,492;    3,291;    1,955
439,027; 1607,558;    3,655;    1,773
439,616; 1562,180;    2,927;    1,227
440,205; 1215,839;    0,200;   -2,136
440,794; 1100,949;    2,109;   -0,045
441,383; 1008,880;   -1,346;   -0,591
441,971;  899,392;   -2,436;    0,591
442,560;  932,139;    0,563;   -1,773
443,149;  798,471;    0,379;   -1,318
443,737;  929,406;   -0,074;   -2,318
444,326;  942,891;    0,018;    0,318
444,915; 1026,852;   -1,982;    0,864
445,503; 1054,216;   -2,891;   -0,318
446,092; 1383,373;    0,382;    2,136
446,680; 1336,315;    0,382;    0,318
447,269; 1245,750;   -0,346;   -0,318
447,857; 1164,643;    0,018;   -1,773
448,445; 1090,430;    0,563;    1,318
449,034; 1042,838;   -1,528;   -1,136
449,622; 1021,846;   -1,073;    3,500
450,210; 1512,020;    2,017;    2,227
450,799; 1404,623;    0,290;   -0,591
451,387; 1244,692;    1,381;   -0,591
451,975; 1234,692;    2,654;    0,864
452,563; 1405,722;    3,472;    2,318
453,151; 1063,689;   -0,528;   -1,227
453,739; 1145,661;   -1,347;    0,136
454,328; 1370,097;    2,381;   -2,136
454,916; 1217,050;    2,562;   -0,136
455,504; 1207,020;    1,017;    1,227
456,092; 1070,279;    0,017;   -1,591
456,679;  968,210;    1,472;    0,682
457,267; 1688,011;    4,017;    1,045
457,855; 1158,562;    1,017;    1,409
458,443;  867,488;   -0,165;    1,682
459,031; 1266,637;    0,108;    2,409
459,619; 1184,617;   -1,801;    2,864
460,206;  990,876;    0,835;    2,045
460,794; 1021,813;   -2,983;   -0,227
461,382; 1136,881;   -0,529;   -0,864
461,970; 1063,876;    1,198;    1,864
462,557;  983,862;   -0,711;   -0,682
463,145; 1231,041;   -3,165;   -1,682
463,732; 1576,215;    2,016;   -1,045
464,320; 1206,870;   -0,075;   -3,045
464,907; 1427,339;    2,743;   -0,773
465,495; 1278,005;    0,743;   -1,227
466,082; 1137,030;   -1,984;   -0,045
466,670; 1111,427;   -2,529;    1,227
467,257; 1006,964;   -1,711;    2,045
467,844; 1206,314;   -0,075;    0,045
468,432; 1185,259;    0,834;    3,500
469,019; 1059,396;    0,925;   -1,773
469,606; 1171,989;    0,470;    3,682
470,193; 1235,919;   -1,439;    0,227
470,780; 1193,768;   -2,075;    0,864
471,368; 1067,283;   -1,257;   -0,773
471,955; 1236,482;    1,379;   -0,682
472,542; 1133,699;    0,652;   -1,136
473,129;  943,528;   -0,166;    0,136
473,716;  930,195;    1,470;    0,591
474,303; 1011,757;    0,652;   -0,864
474,890; 1048,784;   -1,439;   -0,500
475,477; 1209,071;   -1,621;    0,409
476,064; 1038,492;    1,106;   -1,591
476,650; 1199,914;    0,288;    0,318
477,237; 1097,459;   -0,258;    0,955
477,824; 1052,512;   -1,076;    0,864
478,411;  877,297;   -1,894;   -0,318
478,997;  896,850;    0,560;   -0,773
479,584;  805,459;    1,196;   -0,409
480,171; 1207,087;   -0,440;   -0,773
480,757; 1327,404;    2,651;    0,773
481,344; 1114,101;    0,469;    0,409
481,931;  883,131;    1,105;    1,045
482,517; 1243,032;   -1,258;    0,318
483,104; 1403,002;    1,106;    2,864
483,690; 1259,754;   -1,804;    0,045
484,276; 1224,393;   -0,895;    0,227
484,863; 1592,285;    2,469;    1,136
485,449; 1342,178;   -0,077;    0,318
486,035; 1233,486;   -1,986;   -0,136
486,622; 1457,131;   -0,895;    0,045
487,208; 1299,698;    1,378;    1,500
487,794; 1170,767;    0,741;    0,318
488,380; 1191,651;    0,105;   -1,409
488,967; 1199,155;   -1,168;   -0,409
489,553; 1225,571;   -1,895;   -1,409
490,139; 1370,312;    1,559;    0,773
490,725; 1177,445;    0,741;   -0,227
491,311; 1202,673;    3,287;    3,045
491,897; 1042,607;   -0,986;    1,500
492,483; 1045,131;    0,105;    1,227
493,069; 1855,365;    3,923;    0,864
493,655; 1319,797;    1,650;    0,682
494,241; 1124,480;    1,377;   -0,955
494,826; 1198,654;    0,287;   -1,045
495,412; 1265,930;    2,559;   -0,682
495,998; 1124,805;   -0,805;   -0,318
496,584; 1209,337;    0,377;    1,045
497,169; 1160,971;    1,014;   -0,682
497,755; 1025,993;    0,650;    1,227
498,341; 1421,599;    0,559;    0,318
498,926; 1587,274;    1,832;    1,955
499,512; 1169,565;    1,286;    2,955
500,097; 1107,284;    0,195;   -0,318
500,683; 1136,913;   -0,350;    2,136
501,268; 1085,568;   -0,169;   -0,955
501,854; 1130,665;   -0,169;    1,227
502,439; 1047,532;   -0,624;   -1,773
503,024; 1175,364;    0,195;    0,500
503,610; 1239,888;   -0,078;   -0,682
504,195; 1029,527;    0,558;    1,955
504,780; 1210,419;    2,922;    1,227
505,366; 1389,279;    3,013;    2,864
505,951; 1227,009;    0,740;    1,045
506,536; 1124,325;   -3,260;   -3,682
507,121; 1183,320;    0,285;   -0,318
507,706; 1150,163;    2,376;    1,045
508,291; 1052,381;    2,649;    1,136
508,876; 1024,110;   -0,988;    2,591
509,461; 1099,573;   -0,169;   -0,773
510,046; 1188,907;    0,194;    0,318
510,631; 1157,221;   -0,351;   -0,773
511,216; 1044,606;    2,467;   -0,500
511,801; 1192,347;   -0,442;    2,591
512,386; 1206,284;    0,740;    0,500
512,971; 1247,879;   -2,988;    0,955
513,555; 1301,265;   -0,897;   -1,500
514,140; 1285,780;   -0,442;   -3,136
514,725; 1392,496;   -0,715;   -1,136
515,309; 1269,355;   -0,533;    0,318
515,894; 1131,072;   -0,624;   -2,227
516,479; 1165,972;   -0,624;   -0,955
517,063; 1144,625;    0,376;    1,227
517,648; 1127,749;    1,012;   -1,136
518,232; 1037,611;   -0,261;   -1,409
518,817; 1158,352;   -0,079;    1,682
519,401; 1377,118;    2,194;    0,591
519,985; 1200,870;    1,103;    1,136
520,570; 1038,658;    0,830;   -1,955
521,154; 1215,771;    2,102;    0,591
521,738; 1505,820;   -2,352;    2,409
522,323; 1346,903;   -0,170;    1,682
522,907; 1257,793;    0,466;   -0,136
523,491; 1139,272;    0,557;    0,955
524,075; 1071,104;    2,284;    0,591
524,659; 1311,603;    1,466;    0,591
525,243; 1186,275;    1,739;    0,409
525,827; 1114,837;    0,648;   -0,045
526,411; 1174,057;   -1,989;   -0,136
526,995; 1363,319;   -0,352;    1,409
527,579; 1390,988;   -0,443;   -1,045
528,163; 1307,578;    0,375;   -1,500
528,747; 1501,355;    2,466;   -0,773
529,331; 1441,134;   -0,080;   -1,409
529,915; 1192,506;    1,738;    0,955
530,499; 1291,140;   -0,807;    1,227
531,082; 1430,972;   -0,534;    1,591
531,666; 1490,795;    1,374;    0,773
532,250; 1409,096;    1,284;    2,682
532,833; 1579,569;    0,920;    2,773
533,417; 1333,316;   -1,807;    0,864
534,001; 1470,476;    1,647;   -0,318
534,584; 1406,470;    0,374;    0,500
535,168; 1210,544;    0,465;    1,409
535,751; 1652,806;    0,647;    0,045
536,334; 1256,790;   -0,898;   -0,409
536,918; 1213,495;    0,011;    1,591
537,501; 1206,247;   -0,899;    1,318
538,085; 1248,305;   -0,444;    1,045
538,668; 1271,955;    0,829;    2,409
539,251; 1689,787;    1,829;    3,773
539,834; 1409,663;    0,101;    0,773
540,418; 1516,988;   -1,990;    4,318
541,001; 1699,010;   -0,990;    1,773
541,584; 1419,395;    2,101;    2,227
542,167; 1514,751;    1,374;    2,955
542,750; 1368,101;    1,919;   -0,773
543,333; 1136,916;    0,555;    2,136
543,916; 1480,828;    0,192;    2,500
544,499; 1343,635;   -1,354;    0,227
545,082; 1463,293;    1,374;    3,591
545,665; 1382,776;    1,919;    1,500
546,248; 1528,825;    1,010;   -0,318
546,830; 1486,963;   -0,445;    1,955
547,413; 1500,968;    1,010;   -0,773
547,996; 1556,891;    0,555;    0,500
548,579; 1371,211;    0,919;    0,955
549,161; 1641,051;    1,828;    2,682
549,744; 1516,552;   -0,809;    0,409
550,326; 1445,569;   -0,809;   -1,136
550,909; 1941,954;    2,737;    0,591
551,492; 1611,337;   -0,263;    0,227
552,074; 1677,023;   -0,173;   -1,318
552,657; 1727,483;    2,373;    0,045
553,239; 1551,888;   -0,173;   -0,773
553,821; 1468,905;   -1,082;    1,045
554,404; 1673,745;    1,282;    1,136
554,986; 1812,389;    0,464;    1,045
555,568; 1702,431;    1,191;   -0,955
556,151; 1903,899;    1,191;   -0,227
556,733; 1561,257;   -0,264;   -0,864
557,315; 1567,976;    0,100;    0,500
557,897; 1377,940;    0,554;   -0,500
558,479; 1396,505;   -1,991;    1,318
559,061; 1529,480;   -0,719;   -0,864
559,643; 1646,453;   -0,264;    0,045
560,225; 1677,635;    1,645;    2,864
560,807; 1556,725;    0,918;    0,318
561,389; 1481,318;    0,554;    2,318
561,971; 1542,631;    0,463;    2,136
562,553; 1550,673;   -1,628;    1,591
563,135; 1649,196;   -0,537;    1,136
563,717; 1992,913;    3,372;    1,136
564,298; 1869,543;    3,645;   -0,045
564,880; 1595,623;    0,645;   -1,409
565,462; 1479,350;    0,645;    1,318
566,043; 1823,444;   -0,446;    2,318
566,625; 1975,163;    1,918;    1,227
567,207; 1725,221;    1,099;    1,682
567,788; 1707,080;   -1,264;    1,500
568,370; 1850,557;    1,917;   -0,500
568,951; 1720,954;    0,190;    0,227
569,533; 1903,127;   -0,628;   -0,500
570,114; 2035,612;   -0,446;    0,682
570,695; 2065,752;   -0,174;   -1,318
571,277; 2032,215;   -0,265;   -1,682
571,858; 2277,226;    2,008;   -1,136
572,439; 2289,752;    1,554;   -1,045
573,021; 2264,738;    2,099;   -2,773
573,602; 2385,086;   -1,265;    0,318
574,183; 2430,645;   -2,083;    2,227
574,764; 2437,435;   -1,629;    0,409
575,345; 2551,617;    0,917;   -0,136
575,926; 2544,047;   -0,356;    0,136
576,507; 2628,441;    1,099;   -0,227
577,088; 2743,256;    3,099;    1,682
577,669; 2864,320;    0,735;    1,955
578,250; 3095,281;    0,644;   -1,045
578,831; 2948,650;   -1,356;   -2,227
579,412; 2832,152;   -0,810;    0,955
579,993; 3107,355;    1,008;    0,227
580,573; 3101,457;   -0,629;   -0,955
581,154; 2812,149;    0,735;   -0,591
581,735; 2996,581;    0,644;    0,773
582,315; 2878,127;   -0,629;    2,136
582,896; 3043,163;   -0,174;    1,227
583,477; 2863,906;    0,189;    1,227
584,057; 2938,807;    0,553;    0,955
584,638; 3026,901;    2,553;    2,318
585,218; 3202,063;   -0,538;    2,682
585,799; 3134,455;    0,281;   -0,227
586,379; 3016,620;    0,372;    1,591
586,959; 2857,287;    0,735;    0,318
587,540; 2715,617;   -0,629;    2,227
588,120; 2616,851;    1,007;   -0,045
588,700; 2480,391;    2,553;    2,136
589,281; 2747,634;    0,462;   -0,955
589,861; 2629,777;    0,099;   -1,682
590,441; 2557,287;    2,371;   -2,682
591,021; 2384,256;   -0,265;   -2,591
591,601; 2471,747;   -0,537;    0,500
592,181; 2556,262;   -0,719;   -0,773
592,761; 2243,903;    0,007;    1,409
593,341; 2409,185;   -0,901;    0,045
593,921; 2356,890;   -0,265;    1,591
594,501; 2252,471;   -0,538;    1,318
595,081; 2231,876;    0,917;   -0,318
595,661; 2457,964;   -1,447;    0,955
596,240; 2482,750;   -0,537;    0,136
596,820; 2670,414;    0,372;    1,955
597,400; 2370,670;    2,008;    0,773
597,980; 2407,504;    2,008;    1,045
598,559; 2410,827;    2,735;   -0,227
599,139; 2349,149;   -0,174;   -1,227
599,718; 2335,694;   -0,174;   -0,409
600,298; 2408,193;    0,735;    0,682
600,877; 2763,620;    2,917;    1,409
601,457; 2660,102;    2,281;    1,136
602,036; 2524,375;    0,190;    2,045
602,616; 2484,678;    0,644;    1,682
603,195; 2636,730;   -0,355;    3,500
603,774; 2568,868;   -0,901;    2,045
604,354; 2480,791;    0,826;   -0,500
604,933; 2402,722;    0,463;    1,864
605,512; 2592,268;    3,554;    0,591
606,091; 2594,397;   -0,537;    3,773
606,671; 2614,744;    0,281;    0,773
607,250; 2619,306;    1,644;    3,136
607,829; 2626,480;    2,372;    3,227
608,408; 2503,105;    1,190;    2,591
608,987; 2477,213;    1,281;    3,409
609,566; 2342,973;   -1,265;   -2,500
610,145; 2425,970;   -1,082;    0,682
610,723; 2561,279;    4,372;    6,864
611,302; 2326,593;   -0,446;    1,682
611,881; 2463,023;    5,008;   11,227
612,460; 2341,045;    1,645;    3,955
613,039; 2418,064;   -0,082;    2,045
613,617; 2140,061;    1,736;    4,773
614,196; 2169,684;    1,099;    1,227
614,775; 2330,045;    1,009;    2,409
615,353; 2330,497;    0,736;    0,864
615,932; 2266,428;    0,100;    2,409
616,510; 2393,582;    0,554;    0,591
617,089; 2796,813;    7,100;   17,591
617,667; 2473,618;    2,372;    6,136
618,246; 2088,612;   -1,537;    1,318
618,824; 2216,461;   -3,355;   -0,955
619,402; 2181,287;   -2,900;   -1,773
619,981; 2325,998;   -0,173;   -1,045
620,559; 2304,830;    0,009;    1,682
621,137; 2305,786;   -0,718;    1,864
621,715; 1991,822;   -1,173;   -0,682
622,293; 2041,320;   -0,537;   -0,773
622,871; 2307,431;   -0,718;    0,500
623,450; 2145,150;    0,373;   -0,864
624,028; 2263,097;    0,191;   -0,955
624,606; 2188,373;   -1,718;    1,682
625,183; 2091,254;   -1,536;   -1,136
625,761; 2111,428;    1,009;    1,136
626,339; 2500,230;    1,373;    2,591
626,917; 2216,255;   -0,172;   -0,045
627,495; 2225,191;   -0,354;    1,318
628,073; 2188,979;   -0,263;    2,864
628,650; 2143,084;    0,100;    2,136
629,228; 2240,028;    0,373;    4,409
629,806; 1965,555;    2,282;    1,136
630,383; 2048,321;    1,464;   -0,318
630,961; 2040,921;    2,555;   -0,955
631,539; 1995,847;    2,464;    0,227
632,116; 2660,648;   11,373;   15,409
632,694; 2328,064;    2,555;    6,500
633,271; 2142,621;    0,828;    2,682
633,848; 2261,373;    1,828;    2,045
634,426; 2066,172;   -1,081;    1,773
635,003; 1902,145;    1,101;   -0,409
635,580; 2261,657;    1,192;    3,682
636,158; 2098,431;    3,737;    1,227
636,735; 1945,078;    0,555;   -0,500
637,312; 1948,593;   -0,809;   -0,682
637,889; 1962,583;   -4,354;   -0,682
638,466; 1945,244;   -3,990;   -0,409
639,043; 1944,644;    2,101;   -1,136
639,620; 1943,269;   -2,262;   -0,955
640,197; 2089,605;    1,100;    1,682
640,774; 2042,080;   -0,172;    1,136
641,351; 2123,737;    0,737;    1,136
641,928; 2175,758;   -0,627;    1,409
642,505; 2308,869;    0,828;   -0,500
643,082; 2178,890;   -1,718;    1,227
643,658; 1864,729;   -0,718;    1,500
644,235; 1986,477;    1,191;    2,500
644,812; 2139,952;    1,918;    0,773
645,388; 2064,791;   -0,991;    1,409
645,965; 1864,993;   -0,809;    1,682
646,542; 1885,923;   -1,445;   -0,227
647,118; 2335,762;    1,009;   -0,955
647,695; 2152,600;   -0,263;    1,136
648,271; 1952,985;   -0,536;    0,500
648,848; 2096,551;    0,736;    2,227
649,424; 2201,571;    0,827;    1,318
650,000; 1915,956;   -0,354;   -1,045
650,577; 1999,885;   -0,627;   -0,955
651,153; 2109,815;   -1,809;    0,955
651,729; 2100,108;    1,191;    0,864
652,305; 2380,493;    0,645;    2,773
652,881; 2817,786;   -0,082;    1,136
653,458; 3719,807;    1,100;    0,227
654,034; 4249,555;    0,282;    1,591
654,610; 4313,030;    0,554;    0,773
655,186; 4735,869;    0,645;    3,045
655,762; 4387,162;   -0,991;    0,409
656,338; 4347,273;    0,100;    0,136
656,913; 4638,749;   -0,082;    0,409
657,489; 4377,133;    0,827;   -0,318
658,065; 4479,426;   -0,173;   -1,591
658,641; 4733,083;   -0,900;   -0,864
659,217; 4442,922;   -0,991;    0,409
659,792; 4195,397;    0,645;   -0,409
660,368; 4313,236;   -2,173;   -0,682
660,944; 4500,893;   -2,082;    1,227
661,519; 3849,641;   -0,628;    0,409
662,095; 2973,298;   -1,719;    0,591
662,670; 2294,955;    1,281;   -0,136
663,246; 2265,521;    1,009;   -0,409
663,821; 2329,814;    0,281;    1,682
664,396; 2077,926;    0,009;    1,864
664,972; 2107,583;    0,009;   -0,500
665,547; 2279,694;    1,372;    0,136
666,122; 2210,442;   -1,082;    0,318
666,698; 2372,736;   -0,173;    0,318
667,273; 2020,756;   -0,173;    0,136
667,848; 2211,686;    2,372;    1,500
668,423; 2297,161;    2,190;    2,318
668,998; 2222,455;    2,827;   -0,682
669,573; 2285,475;   -3,264;   -1,500
670,148; 2417,223;   -1,446;   -0,682
670,723; 2131,153;   -1,810;    0,318
671,298; 2497,082;    2,372;    1,045
671,873; 2363,921;   -0,082;   -0,136
672,448; 2354,487;    0,645;    0,136
673,023; 2374,417;   -1,992;   -0,227
673,597; 2555,256;    0,827;    2,318
674,172; 2542,277;   -0,355;    0,318
674,747; 2395,297;    0,372;   -1,045
675,321; 2176,500;   -0,628;    3,318
675,896; 2052,066;    0,645;    1,045
676,471; 2300,359;    2,645;    1,591
677,045; 2190,289;   -1,264;    0,682
677,620; 2218,673;    0,190;    1,136
678,194; 2245,694;   -2,628;    1,136
678,769; 2240,078;   -1,083;   -0,318
679,343; 2320,008;   -0,628;    1,773
679,917; 2380,756;   -1,446;    1,955
680,492; 2239,776;    0,826;    3,227
681,066; 2281,797;    3,372;    0,409
681,640; 2271,908;    1,463;   -0,318
682,214; 2392,202;    0,735;    0,500
682,788; 2316,950;   -1,356;   -0,773
683,363; 2354,152;   -1,810;    1,682
683,937; 2213,991;   -1,719;   -0,318
684,511; 2413,921;    0,463;   -0,591
685,085; 2370,668;   -1,356;    0,318
685,659; 2246,325;   -2,538;    0,864
686,232; 2494,437;   -0,356;   -0,318
686,806; 2360,276;   -0,901;    0,409
687,380; 2422,387;   -0,174;    0,591
687,954; 2432,862;   -1,174;    1,136
688,528; 2533,156;   -0,719;    1,955
689,101; 2609,904;   -3,992;    1,045
689,675; 2405,833;   -0,356;   -0,136
690,249; 2479,945;   -0,719;    0,409
690,822; 2541,511;    0,280;    0,318
691,396; 2425,804;   -0,265;    1,227
691,969; 2282,189;    1,280;    0,136
692,543; 2361,755;   -0,447;   -1,955
693,116; 2163,321;   -0,265;   -1,409
693,690; 2235,978;    0,099;    0,500
694,263; 2366,089;   -1,083;    2,955
694,836; 2633,019;    1,371;    3,591
695,410; 2354,767;   -0,265;    1,773
695,983; 2367,515;    0,189;    0,591
696,556; 2252,536;   -0,447;   -1,045
697,129; 2298,556;   -0,356;    1,409
697,703; 2285,486;   -1,629;    1,955
698,276; 2309,779;    1,462;   -0,773
698,849; 2360,345;    1,280;    1,409
699,422; 2212,639;   -1,083;    0,591
699,995; 2100,750;    0,007;    0,136
700,568; 2276,953;   -0,629;    3,045
701,140; 2325,337;   -2,811;    1,682
701,713; 2436,721;   -0,174;    2,409
702,286; 2330,378;   -0,538;    0,864
702,859; 2313,217;   -0,902;   -0,591
703,432; 2262,783;    0,825;    0,682
704,004; 2232,076;    0,462;    0,318
704,577; 2077,824;   -0,629;    0,136
705,150; 2175,118;    0,189;    2,500
705,722; 2260,138;   -0,356;   -3,227
706,295; 2280,977;   -0,175;   -0,591
706,867; 2136,816;   -0,175;    1,955
707,440; 2335,927;   -1,720;   -0,409
708,012; 2396,948;    0,462;    0,591
708,584; 2260,605;    2,462;    0,227
709,157; 2236,262;    1,825;   -0,591
709,729; 2371,374;    2,280;    2,045
710,301; 2460,940;    0,734;    0,045
710,874; 2429,960;   -1,447;   -0,227
711,446; 2061,799;    0,371;    0,864
712,018; 2155,820;    0,098;    0,500
712,590; 2077,022;   -1,993;    1,682
713,162; 2399,588;    0,825;    1,318
713,734; 2259,154;    1,825;   -2,045
714,306; 2221,993;   -1,902;   -0,409
714,878; 2066,105;    0,825;    0,864
715,450; 2190,762;    0,643;    0,864
716,022; 2227,237;    1,552;    1,318
716,593; 2245,076;    0,189;    0,591
717,165; 2285,824;   -3,175;   -1,227
717,737; 2434,117;    0,280;    0,409
718,309; 2251,319;    0,280;   -0,045
718,880; 2161,613;   -0,539;   -1,409
719,452; 2281,633;   -0,175;   -1,591
720,024; 2261,654;    0,734;   -0,591
720,595; 2270,947;   -2,902;    0,955
721,167; 2172,786;    0,370;   -2,045
721,738; 2154,625;   -0,812;   -1,045
722,309; 2228,373;   -0,993;   -1,227
722,881; 2054,666;   -1,357;    0,773
723,452; 2242,051;   -2,630;    2,864
724,023; 2299,071;   -0,721;    2,682
724,595; 2308,910;    0,007;    0,682
725,166; 2125,476;    0,007;   -0,409
725,737; 2297,224;    1,734;    0,227
726,308; 2194,608;   -0,266;    0,318
726,879; 2104,083;   -1,630;    1,227
727,450; 2244,013;    0,552;   -0,045
728,021; 2129,488;    3,097;    0,682
728,592; 2286,327;    0,734;    0,500
729,163; 2428,166;    0,643;   -0,136
729,734; 2432,277;    0,188;   -0,227
730,305; 2274,934;    1,734;    0,136
730,876; 2254,955;    0,188;    2,955
731,447; 2568,612;    2,188;    2,682
732,017; 2456,178;    1,097;    1,864
732,588; 2323,199;    0,734;    1,227
733,159; 2495,401;    0,643;   -1,045
733,729; 2235,149;    0,006;    0,409
734,300; 2278,624;    0,915;    0,864
734,870; 2221,918;    3,461;    0,591
735,441; 2241,302;    0,370;   -0,591
736,011; 2129,050;    0,643;   -1,591
736,582; 2161,070;   -0,812;    0,045
737,152; 2147,455;   -1,721;   -2,045
737,722; 2218,566;   -0,267;   -0,682
738,293; 2077,496;   -1,358;    1,318
738,863; 2243,517;    2,461;    2,318
739,433; 2482,446;    5,279;    0,318
740,003; 2341,831;   -0,994;   -0,682
740,573; 2381,851;    2,097;   -1,591
741,143; 2321,963;   -1,085;    0,318
741,713; 2280,802;    1,188;   -0,500
742,283; 2266,459;    0,915;    1,591
742,853; 2175,297;    1,915;    1,591
743,423; 2004,227;    1,733;    0,045
743,993; 2088,520;   -0,358;    1,500
744,563; 1973,996;    0,097;   -0,864
745,133; 2005,289;   -0,812;   -0,864
745,702; 2105,946;   -0,267;    1,773
746,272; 2157,785;   -0,176;    0,591
746,842; 2159,624;   -1,358;   -0,591
747,411; 2058,735;   -0,267;   -0,318
747,981; 1976,392;    0,097;    0,500
748,551; 2001,231;    2,278;   -1,045
749,120; 2107,252;    0,642;   -0,227
749,690; 2131,999;   -0,631;    2,409
750,259; 2271,565;    1,369;    2,955
750,828; 2288,586;    1,551;   -1,955
751,398; 2144,334;    1,278;   -0,045
751,967; 2479,991;    2,187;    0,409
752,536; 2225,648;   -0,813;   -0,227
753,105; 2364,396;    0,096;    0,227
753,675; 2160,780;    0,096;    1,773
754,244; 2170,074;   -0,904;    3,591
754,813; 2183,276;    0,551;    1,227
755,382; 2097,115;    0,460;    0,955
755,951; 2250,408;    1,551;    3,682
756,520; 2303,065;   -0,085;    1,864
757,089; 2553,449;    0,278;    0,500
757,658; 2251,470;    1,733;    1,227
758,227; 2129,672;    1,096;    0,318
758,795; 2222,148;    1,187;    1,136
759,364; 2327,623;   -0,086;   -0,591
759,933; 2051,553;   -1,176;   -0,045
760,501; 1998,573;    0,733;   -1,318
761,070; 2165,957;   -2,813;   -1,409
761,639; 2370,342;   -1,904;    1,318
762,207; 2229,817;    1,551;   -0,955
762,776; 2275,747;    0,369;    0,864
763,344; 2160,040;   -0,995;    0,591
763,913; 1810,606;   -0,722;    1,409
764,481; 2455,263;    1,005;   -0,136
765,049; 2401,011;   -1,358;    1,409
765,618; 2279,213;   -0,086;    0,318
766,186; 2186,143;    0,278;    0,136
766,754; 2210,618;    0,005;    1,864
767,322; 1922,093;   -1,995;    0,409
767,890; 1893,114;   -0,722;   -1,773
768,459; 2058,316;   -2,177;   -0,318
769,027; 2277,064;    1,641;    3,409
769,595; 1993,721;    3,278;    2,591
770,163; 2036,833;    3,823;    2,955
770,730; 2033,399;    0,732;   -0,136
771,298; 2009,056;    0,187;   -1,409
771,866; 2005,895;   -1,541;    4,955
772,434; 2051,734;   -0,631;   -1,864
773,002; 2298,663;    0,005;    0,682
773,569; 2156,411;    0,914;    1,682
774,137; 2232,068;   -0,268;   -0,045
774,705; 2191,271;    0,278;   -0,136
775,272; 2016,382;    0,641;    0,682
775,840; 2125,403;   -0,177;    2,682
776,407; 2115,878;    0,277;    1,955
776,975; 1874,899;   -0,632;    0,318
777,542; 2000,101;   -1,086;   -0,045
778,110; 2018,849;   -1,268;   -0,045
778,677; 1889,597;   -2,359;   -0,864
779,244; 1924,799;    2,186;    1,045
779,812; 2073,547;    1,823;    0,864
780,379; 2121,750;    0,005;    1,136
780,946; 2007,407;    1,005;   -0,773
781,513; 2019,609;   -1,450;    0,318
782,080; 1869,539;   -0,086;    2,864
782,647; 1993,832;   -0,268;    3,045
783,214; 1915,762;   -0,177;    3,864
783,781; 2056,055;   -0,723;   -0,682
784,348; 2016,894;   -0,632;    1,500
784,915; 1875,733;   -3,177;    0,318
785,482; 2050,935;    1,368;    2,591
786,049; 2104,138;    0,186;   -0,591
786,615; 2044,977;    0,277;   -0,955
787,182; 1940,088;    0,186;   -0,682
787,749; 1903,472;   -2,814;    1,409
788,315; 1940,493;   -1,632;   -0,409
788,882; 1949,786;    1,550;   -1,227
789,448; 2255,171;    1,732;   -0,955
790,015; 2057,737;    1,095;    3,227
790,581; 2170,666;    1,459;    0,227
791,148; 1970,960;    0,641;    1,045
791,714; 1926,253;   -0,541;    3,136
792,280; 1903,819;    0,186;    1,591
792,847; 1834,385;    0,550;    2,500
793,413; 1919,497;   -0,269;   -0,318
793,979; 2008,699;    3,459;   -1,318
794,545; 2360,629;    4,459;    2,682
795,111; 2164,286;    2,186;    1,318
795,678; 2011,307;    0,731;   -1,682
796,244; 2189,509;    3,368;    0,136
796,810; 2139,166;    1,731;    0,773
797,375; 2109,914;    0,549;   -2,136
797,941; 1746,389;   -0,541;    0,591
798,507; 1711,864;   -0,451;   -0,955
799,073; 1728,067;   -0,360;    0,591
799,639; 1801,360;   -2,632;    3,136
800,205; 1742,653;    0,095;    2,682
800,770; 1701,038;    0,640;    1,773
801,336; 1659,877;    1,368;   -0,955
801,901; 2302,352;    4,549;    3,136
802,467; 2006,100;   -0,542;    2,045
803,033; 1680,029;   -0,087;    0,864
803,598; 1694,686;    1,913;   -1,045
804,163; 1762,707;    1,095;   -0,318
804,729; 1852,637;   -0,178;    1,136
805,294; 1777,385;    0,822;    2,227
805,859; 1660,132;    0,731;   -0,409
806,425; 2045,062;    1,186;    2,682
806,990; 2026,265;    2,186;    4,318
807,555; 1823,285;   -1,451;    2,591
808,120; 1967,670;    0,822;   -0,409
808,685; 1698,508;    0,185;   -2,500
809,250; 1562,711;    0,004;   -0,500
809,815; 1637,186;    1,913;    0,682
810,380; 1841,298;   -0,269;    1,591
810,945; 1995,682;   -1,087;    2,045
811,510; 1838,975;    2,094;    1,591
812,075; 1766,996;   -0,633;   -1,409
812,640; 2051,198;    2,003;    1,409
813,204; 1834,037;    0,822;   -0,227
813,769; 2037,149;    2,094;   -0,045
814,334; 1995,987;    0,458;    0,864
814,898; 1740,372;    0,367;    0,591
815,463; 1765,938;    1,276;   -0,773
816,027; 1691,504;   -0,724;   -2,318
816,592; 1712,706;    0,640;   -2,045
817,156; 1753,545;    2,094;    1,136
817,721; 1823,111;    4,276;    2,318
818,285; 1606,495;    2,912;    1,500
818,849; 1736,516;   -1,451;    1,682
819,414; 1624,264;   -0,269;    2,955
819,978; 1561,466;   -1,269;    1,773
820,542; 1967,942;    2,003;    0,500
821,106; 1787,235;   -0,815;    0,682
821,670; 1958,892;   -0,815;    2,591
822,234; 1722,458;   -0,270;    1,409
822,798; 1558,660;    0,003;    0,500
823,362; 1884,408;   -0,633;    4,227
823,926; 1606,793;    0,094;    1,136
824,490; 1816,813;   -0,997;   -0,682
825,054; 1721,197;   -0,088;   -1,136
825,618; 1554,582;   -1,542;   -1,500
826,181; 1589,511;    0,458;   -1,318
826,745; 1671,987;    1,367;   -1,045
827,309; 1960,916;    1,185;    1,318
827,872; 1800,755;    1,367;    0,955
828,436; 1769,867;    1,185;   -0,773
828,999; 1717,342;   -0,997;    1,227
829,563; 1644,453;   -0,179;    1,136
830,126; 1590,474;   -0,179;   -0,591
830,690; 1596,404;   -1,997;    2,864
831,253; 1485,879;   -0,543;    2,227
831,816; 1561,718;   -1,906;    0,500
832,380; 1476,557;    0,185;    0,864
832,943; 1492,304;   -1,361;   -0,500
833,506; 1503,871;    2,639;   -1,227
834,069; 1734,709;    3,912;   -0,955
834,632; 1619,639;    1,730;    1,318
835,195; 1618,932;    1,003;    0,955
835,758; 1513,408;   -0,997;    1,955
836,321; 1461,883;    0,730;   -1,045
836,884; 1474,540;   -0,725;   -0,955
837,447; 1469,379;   -2,816;    1,773
838,010; 1620,308;    0,366;    3,227
838,573; 1677,329;   -1,179;    0,773
839,135; 1579,077;   -1,361;   -0,955
839,698; 1521,188;    1,275;    0,409
840,261; 1463,391;    1,003;   -0,227
840,823; 1416,957;   -0,543;    0,864
841,386; 1409,250;   -0,452;   -2,409
841,948; 1753,089;   -1,361;    1,773
842,511; 1456,837;    0,912;    1,682
843,073; 1729,130;    1,912;    0,227
843,636; 1462,333;   -0,361;   -0,227
844,198; 1691,172;    0,911;    0,591
844,760; 1654,010;    1,093;    1,955
845,322; 1393,667;    0,548;    1,136
845,885; 1565,870;    0,730;    0,591
846,447; 1533,527;   -1,998;    0,227
847,009; 1875,820;    1,911;   -0,682
847,571; 1562,659;    0,820;   -2,045
848,133; 1523,134;   -1,089;   -1,864
848,695; 1369,700;   -0,543;    1,409
849,257; 1435,994;   -1,089;   -1,682
849,819; 1621,014;   -0,998;   -0,409
850,381; 1474,944;   -0,725;   -0,864
850,942; 1552,601;    1,093;   -0,591
851,504; 1588,622;    1,184;    0,227
852,066; 1498,369;    1,275;   -1,591
852,628; 1510,936;   -0,180;    1,955
853,189; 1319,229;    1,638;    2,682
853,751; 1386,431;   -0,907;    1,409
854,312; 1575,088;   -0,453;   -1,682
854,874; 1726,473;   -2,089;   -0,773
855,435; 1533,130;   -0,907;   -1,682
855,997; 1644,150;   -1,816;   -0,136
856,558; 1665,807;    0,366;    1,773
857,119; 1513,191;    0,820;    2,864
857,681; 1367,576;    0,002;    0,318
858,242; 1598,960;    1,911;   -2,136
858,803; 1673,981;    0,456;   -0,773
859,364; 1596,456;    0,184;   -4,773
859,925; 1631,295;   -2,453;   -0,955
860,486; 1512,861;   -0,453;   -0,955
861,047; 1381,336;   -0,544;   -1,227
861,608; 1425,175;   -1,089;   -0,773
862,169; 1357,559;    0,638;   -0,045
862,730; 1418,852;    0,456;    1,409
863,291; 1473,146;   -0,635;   -0,500
863,852; 1460,439;   -0,635;    1,955
864,412; 1398,551;   -0,271;   -0,864
864,973; 1572,117;   -0,089;    0,500
865,534; 1752,683;   -1,726;    0,227
866,094; 1551,067;    1,820;    0,227
866,655; 1660,906;    1,274;    3,318
867,215; 1517,108;    0,274;    0,136
867,776; 1394,220;    0,547;   -0,136
868,336; 1455,059;   -1,453;    0,136
868,897; 1853,261;    2,638;    1,682
869,457; 1625,191;    1,365;    0,318
870,017; 1428,484;    0,547;   -1,227
870,578; 1448,232;   -0,817;    0,773
871,138; 1417,525;   -2,089;   -0,955
871,698; 1312,637;   -0,817;   -1,318
872,258; 1447,567;   -0,453;   -2,864
872,818; 1686,587;    2,729;    0,045
873,378; 1469,971;    0,638;    1,045
873,938; 1400,174;    0,547;    0,500
874,498; 1311,376;    0,274;   -1,955
875,058; 1376,397;    2,183;    1,773
875,618; 1373,418;    1,910;   -2,682
876,177; 1430,075;    1,274;    0,136
876,737; 1198,732;   -0,090;    1,955
877,297; 1644,661;    0,183;    1,955
877,856; 1562,591;   -0,362;    0,318
878,416; 1293,339;    1,183;   -0,136
878,976; 1274,087;   -1,817;    0,409
879,535; 1335,380;    0,092;    3,136
880,095; 1322,401;   -0,544;    0,045
880,654; 1209,512;   -1,090;    1,318
881,213; 1578,533;    2,456;    1,500
881,773; 1378,826;    2,637;    2,682
882,332; 2010,029;    3,365;    5,136
882,891; 1402,231;    3,092;    2,136
883,451; 1407,070;   -1,272;    1,682
884,010; 1305,272;   -2,908;   -0,409
884,569; 1267,293;   -0,999;   -0,045
885,128; 1513,768;    2,819;   -1,864
885,687; 1814,516;    4,455;    0,682
886,246; 1983,173;    1,455;    2,136
886,805; 1666,194;    2,455;    2,045
887,364; 1317,033;   -0,999;   -0,500
887,922; 1239,871;   -1,181;    0,045
888,481; 1404,438;   -1,545;    0,591
889,040; 1559,367;    1,183;    2,136
889,599; 1430,388;    2,455;    1,409
890,157; 1435,045;    1,455;    2,409
890,716; 1342,793;   -0,090;    0,227
891,274; 1425,995;    0,092;   -1,136
891,833; 1539,379;    1,546;    0,864
892,391; 1349,673;   -0,454;    0,500
892,950; 1545,784;    1,819;   -0,773
893,508; 1334,169;    0,455;   -0,409
894,067; 1191,280;    0,637;    0,136
894,625; 1303,119;   -0,636;   -1,500
895,183; 1266,412;   -0,363;   -0,682
895,741; 1602,524;    1,728;   -1,773
896,299; 1363,454;   -0,545;   -2,409
896,858; 1264,383;    0,819;   -1,591
897,416; 1411,313;    2,728;   -1,318
897,974; 1343,697;    1,819;    0,318
898,532; 1865,354;    6,091;    2,682
899,089; 1481,739;    2,091;   -0,682
899,647; 1350,850;   -1,454;    1,318
900,205; 1405,780;    1,182;    1,045
900,763; 1412,437;   -0,454;    0,227
901,321; 1368,821;    2,364;   -1,409
901,878; 1164,205;   -1,000;   -0,773
902,436; 1235,135;   -1,363;    1,318
902,994; 2081,974;    4,728;    3,682
903,551; 1543,813;    0,728;    0,409
904,109; 1419,470;    0,182;   -1,409
904,666; 1341,945;    2,455;    1,045
905,224; 1217,329;    0,182;   -0,409
905,781; 1379,168;    0,727;   -0,318
906,338; 1291,007;   -1,363;    1,045
906,895; 1171,936;    0,637;    2,045
907,453; 1481,502;    1,727;    1,136
908,010; 1321,523;   -0,909;    0,409
908,567; 1241,635;    1,273;    0,591
909,124; 1046,928;    0,364;   -1,500
909,681; 1116,767;   -2,909;    0,682
910,238; 1195,969;    0,636;   -1,318
910,795; 1167,626;   -0,273;   -1,136
911,352; 1166,535;   -2,909;   -2,682
911,909; 1165,626;   -1,364;   -0,864
912,466; 1215,535;   -3,182;    1,500
913,022; 1231,535;   -1,636;    0,500
913,579; 1352,990;   -0,909;    2,045
914,136; 1216,263;    1,636;    0,955
914,692; 1269,899;    0,091;   -1,227
915,249; 1212,354;    1,455;    0,409
915,806; 1315,263;    0,182;    1,955
916,362; 1211,899;    1,909;    1,864
916,918; 1098,899;    2,000;    1,045
917,475; 1331,444;   -1,182;    0,955
918,031; 1122,535;    3,364;   -0,045
918,587; 1191,899;   -0,909;   -0,318
919,144; 1107,354;   -2,273;    0,227
919,700; 1053,535;    1,727;    0,773
920,256; 1016,444;    0,727;    0,045
920,812; 1061,990;   -0,727;   -1,045
921,368; 1020,899;   -1,727;   -1,045
921,924; 1008,444;    0,182;   -0,136
922,480; 1117,990;   -0,545;    1,227
923,036; 1143,081;    1,273;    1,955
923,592; 1031,172;    0,455;    0,318
924,148; 1073,081;    0,455;   -0,955
924,704; 1220,626;   -1,364;   -0,409
925,259; 1048,626;   -0,273;    0,591
925,815;  997,990;    1,455;    0,500
926,371;  952,172;    2,909;    1,409
926,926; 1119,626;    2,091;    0,591
927,482; 1079,354;   -1,364;    0,773
928,037; 1001,535;    0,909;    2,045
928,593; 1238,626;    1,636;    1,045
929,148;  962,263;   -1,818;   -1,500
929,704; 1025,717;   -1,455;   -0,500
930,259;  905,081;    0,091;   -0,136
930,814; 1113,990;   -0,818;    1,955
931,369; 1040,717;    1,091;   -0,773
931,925;  820,263;   -0,091;    0,136
932,480;  933,899;   -2,818;   -2,591
933,035; 1345,081;    0,545;   -0,318
933,590; 1207,808;    0,364;   -1,773
934,145;  773,172;   -1,364;   -0,318
934,700;  675,444;    0,455;   -0,591
935,255;  759,081;   -0,091;    0,045
935,809; 1104,444;    3,182;    0,864
936,364;  696,081;   -0,455;   -0,136
936,919;  698,717;    0,455;   -1,773
937,474;  608,899;    1,455;    0,136
938,028;  638,172;   -1,636;    1,136
938,583; 1055,354;    1,818;    4,682
939,138;  691,808;    2,091;    2,136
939,692;  550,808;    1,636;   -1,136
940,247;  595,626;   -0,727;   -1,045
940,801;  664,808;   -0,636;    0,227
941,355;  551,626;   -0,364;    2,591
941,910;  438,535;   -0,273;   -2,136
942,464;  482,626;   -0,818;   -0,318
943,018;  762,626;    1,000;   -0,227
943,572;  570,354;    2,545;   -0,682
944,126;  631,626;    0,091;   -0,409
944,681;  498,899;    3,091;    0,227
945,235;  432,808;    1,000;   -0,591
945,789;  385,172;    0,364;   -1,864
946,342;  719,263;    0,455;   -0,591
946,896;  449,535;   -2,273;    0,955
947,450;  423,263;    1,545;   -0,227
948,004;  686,899;    1,727;   -0,045
948,558;  479,717;    0,273;   -0,864
949,111;  480,444;   -0,273;   -0,318
949,665;  692,717;    1,636;   -0,682
950,219;  644,354;   -0,091;   -1,045
950,772;  562,626;   -1,909;    1,864
951,326;  559,172;    0,545;   -0,955
951,879;  465,263;    0,727;   -2,318
952,433;  620,263;    0,000;    2,227
952,986;  430,626;    2,909;    0,682
953,539;  387,263;   -0,273;    0,591
954,093;  332,263;    0,545;   -1,318
954,646;  491,717;    0,909;    1,318
955,199;  413,172;    0,000;   -0,500
955,752;  627,626;   -0,455;    1,773
956,305;  465,990;   -0,091;    2,955
956,858;  519,263;    0,818;   -0,318
957,411;  585,172;   -0,545;    2,136
957,964;  475,717;    1,364;    2,136
958,517;  392,626;   -1,545;    3,136
959,070;  344,990;   -0,455;    1,955
959,623;  648,990;    1,091;    1,500
960,176;  587,444;    1,727;    2,045
960,728;  553,990;   -2,727;    0,773
961,281;  495,808;    0,545;    0,500
961,834;  405,899;   -0,909;    0,864
962,386;  409,444;    1,727;    1,045
962,939;  366,990;    0,364;   -0,318
963,491;  419,263;    0,455;    1,136
964,043;  354,808;    1,182;    2,409
964,596;  543,444;   -1,000;    2,227
965,148;  441,990;   -1,000;    1,773
965,700;  354,172;    1,091;   -0,227
966,253;  520,990;   -0,636;    0,318
966,805;  478,354;   -2,273;    0,773
967,357;  404,354;    1,091;   -1,500
967,909;  529,535;    0,455;   -1,227
968,461;  405,081;    0,545;    3,136
969,013;  354,444;   -0,182;   -0,864
969,565;  516,808;   -0,455;   -1,136
970,117;  768,263;   -0,364;    1,045
970,669;  516,717;    0,182;   -0,136
971,220;  304,263;   -0,455;   -1,500
971,772;  399,444;   -0,636;   -0,318
972,324;  499,535;    0,091;   -0,500
972,876;  397,990;    0,818;   -0,045
973,427;  536,172;    1,909;   -1,045
973,979;  598,899;   -0,727;   -2,500
974,530;  390,899;    1,818;    1,318
975,082;  455,535;   -0,545;    1,682
975,633;  400,535;    1,091;    1,682
976,184;  465,626;    0,909;    0,773
976,736;  454,354;    0,091;    0,227
977,287;  469,444;   -0,909;   -0,500
977,838;  427,899;    0,909;   -0,318
978,389;  439,990;   -1,000;   -0,500
978,940;  293,535;    0,545;   -0,409
979,491;  290,990;    0,091;   -0,500
980,042;  391,172;    0,182;    3,045
980,593;  401,535;   -2,545;    0,227
981,144;  507,626;    2,545;   -0,500
981,695;  558,626;    1,455;    1,500
982,246;  494,808;   -0,273;    1,045
982,797;  343,172;   -1,727;    0,682
983,347;  499,808;    0,364;    0,591
983,898;  718,990;    3,091;    0,409
984,449;  672,444;    2,182;    0,773
984,999;  492,626;    1,455;   -1,136
985,550;  453,626;    0,182;   -0,318
986,100;  301,172;   -0,455;   -0,318
986,651;  294,990;   -0,818;    0,045
987,201;  338,263;   -1,000;   -0,591
987,751;  347,717;    0,818;    2,864
988,302;  394,535;    2,636;    1,500
988,852;  441,354;    0,455;   -1,136
989,402;  512,444;    0,091;    0,682
989,952;  535,263;   -2,182;    0,864
990,502;  369,899;   -0,091;    0,682
991,052;  270,717;   -0,727;    0,045
991,602;  322,172;   -2,909;    1,318
992,152;  376,444;    0,455;    0,682
992,702;  415,263;    1,364;   -0,045
993,252;  358,626;   -3,000;   -0,500
993,802;  456,899;   -0,273;    1,318
994,352;  412,081;   -1,545;    1,136
994,901;  309,263;   -0,182;    3,227
995,451;  304,081;   -0,182;    0,318
996,000;  342,717;    1,636;    0,318
996,550;  348,354;    2,273;    0,227
997,100;  391,172;    1,273;   -0,045
997,649;  537,172;    2,182;    0,955
998,198;  351,717;    1,727;   -1,500
998,748;  473,990;    1,091;   -2,318
999,297;  396,172;   -0,818;   -0,409
999,846;  531,808;    1,000;   -0,773
1000,395;  443,535;   -0,818;    0,500
1000,945;  562,990;    1,818;   -0,773
1001,494;  560,444;    2,364;    0,682
1002,043;  542,263;    4,636;    0,864
1002,592;  345,626;   -1,091;    1,955
1003,141;  344,717;   -0,455;   -0,682
1003,690;  508,354;    1,727;    0,500
1004,238;  383,354;    1,455;   -0,045
1004,787;  297,990;    1,364;    1,227
1005,336;  491,263;    0,364;    0,682
1005,885;  433,444;    1,364;   -2,773
1006,433;  423,263;    0,545;    0,955
1006,982;  628,990;    0,455;    1,682
1007,531;  460,444;   -1,818;   -0,227
1008,079;  406,990;   -2,273;    0,500
1008,627;  347,081;   -1,455;    0,409
1009,176;  376,990;    0,000;   -1,955
1009,724;  320,444;    1,091;    0,864
1010,273;  483,263;    1,273;    0,500
1010,821;  355,717;    0,091;    1,409
1011,369;  315,444;   -1,364;    1,318
1011,917;  342,808;   -1,364;   -0,591
1012,465;  432,081;    1,273;   -1,591
1013,013;  408,626;    2,091;   -1,682
1013,561;  519,899;    0,455;   -0,773
1014,109;  618,899;   -1,909;    1,682
1014,657;  488,626;    0,364;    0,591
1015,205;  377,535;    1,636;   -0,955
1015,753;  311,354;   -0,545;   -1,409
1016,301;  399,535;   -2,636;    3,045
1016,848;  474,172;   -1,273;    0,409
1017,396;  484,717;    2,545;    0,045
1017,944;  474,717;    1,182;    1,864
1018,491;  378,354;    0,273;    1,409
1019,039;  698,717;    0,455;    0,591
1019,586;  445,717;   -1,364;    1,682
1020,134;  436,535;    0,455;    1,500
1020,681;  510,535;    0,182;   -1,136
1021,228;  415,626;    2,909;   -2,227
1021,776;  398,263;    1,182;   -1,136
1022,323;  632,717;    0,455;    0,773
1022,870;  531,717;   -1,000;   -0,045
1023,417;  585,899;    2,636;    1,864
1023,964;  403,263;    2,636;    1,227
1024,511;  383,717;    1,000;    0,773
1025,058;  416,081;    3,182;   -0,045
1025,605;  368,081;   -2,273;    3,136
1026,152;  586,899;    1,727;   -0,591
1026,699;  437,354;    1,818;    1,318
1027,245;  424,263;   -0,091;    0,318
1027,792;  348,444;   -1,000;    1,409
1028,339;  586,263;    2,364;   -0,045
1028,885;  441,899;    1,000;   -0,227
1029,432;  387,808;   -0,091;    0,227
1029,978;  506,626;   -1,000;   -1,591
1030,525;  491,990;    1,000;    0,409
1031,071;  353,899;   -1,364;    1,136
1031,618;  664,808;    0,364;    1,682
1032,164;  485,172;   -0,091;    3,045
1032,710;  530,081;    1,636;   -1,500
1033,256;  489,808;   -0,636;   -0,136
1033,803;  336,808;   -0,545;    1,500
1034,349;  199,990;   -1,364;    0,136
1034,895;  254,444;    0,000;   -0,318
1035,441;  330,172;   -0,818;    0,318
1035,987;  376,990;   -2,364;   -0,682
1036,533;  457,990;   -1,455;   -0,955
1037,078;  656,899;    1,455;    1,682
1037,624;  506,444;    2,455;   -0,955
1038,170;  368,444;    0,455;   -0,318
1038,716;  455,899;    1,636;   -0,409
1039,261;  326,990;   -2,273;   -0,773
1039,807;  340,717;   -0,091;    3,409
1040,352;  378,081;   -1,909;   -0,318
1040,898;  368,172;   -1,545;   -0,682
1041,443;  285,808;   -1,455;   -2,591
1041,989;  601,626;    1,091;    1,591
1042,534;  390,808;   -0,364;    2,591
1043,079;  280,717;    2,909;    0,955
1043,625;  395,808;    1,818;    0,500
1044,170;  409,717;   -1,364;    1,045
1044,715;  610,626;    2,455;    0,955
1045,260;  502,172;    2,182;   -0,955
1045,805;  346,626;    1,182;   -0,591
1046,350;  306,172;    1,364;   -0,409
1046,895;  505,444;    2,909;    1,591
1047,440;  493,899;    5,364;    0,409
1047,985;  354,263;    2,818;   -0,955
1048,530;  320,899;    1,545;    1,227
1049,074;  387,717;    0,000;    0,318
1049,619;  321,808;   -1,364;    1,955
1050,164;  309,444;    0,455;    0,227
1050,708;  400,626;   -0,455;    0,045
1051,253;  653,899;    1,273;   -2,227
1051,797;  440,808;    0,818;   -1,318
1052,342;  272,808;   -1,182;    1,045
1052,886;  374,354;    0,364;   -1,409
1053,430;  254,717;   -1,364;    0,136
1053,975;  355,717;   -0,818;   -0,318
1054,519;  363,444;   -0,727;    3,227
1055,063;  435,990;    0,909;    1,318
1055,607;  417,354;   -0,182;    0,227
1056,151;  406,172;    2,909;    1,682
1056,695;  316,899;    2,273;   -1,136
1057,239;  312,808;   -1,727;   -0,682
1057,783;  363,626;    0,818;   -1,500
1058,327;  433,808;    0,000;    1,409
1058,871;  573,808;   -0,545;    1,318
1059,415;  443,990;   -0,818;   -0,045
1059,958;  603,990;    1,455;    2,591
1060,502;  362,172;   -1,000;   -0,773
1061,046;  264,263;    0,364;   -0,955
1061,589;  247,535;   -3,000;   -1,136
1062,133;  212,263;   -1,273;    1,864
1062,676;  266,444;    1,182;    0,864
1063,220;  302,899;    1,091;    0,500
1063,763;  333,990;    0,909;    1,136
1064,306;  356,990;   -0,909;    1,864
1064,849;  349,081;   -0,909;    0,591
1065,393;  329,990;    2,000;   -1,500
1065,936;  340,081;    0,182;   -0,409
1066,479;  247,626;   -1,455;    1,318
1067,022;  271,899;   -0,273;   -0,227
1067,565;  242,717;   -0,091;   -1,318
1068,108;  215,081;    0,727;   -0,591
1068,651;  193,081;   -0,636;    1,409
1069,194;  205,354;   -0,455;   -1,682
1069,736;  223,808;   -1,273;    0,955
1070,279;  199,717;   -1,364;   -0,500
1070,822;  289,899;   -2,000;   -0,318
1071,364;  420,808;   -0,364;    1,318
1071,907;  273,808;   -0,727;    3,227
1072,450;  133,354;    0,000;   -0,045
1072,992;  204,444;   -0,273;    3,136
1073,535;  286,444;    2,091;    2,136
1074,077;  201,172;   -0,727;    2,045
1074,619;  198,354;   -1,364;    0,591
1075,161;  226,990;   -1,091;    1,500
1075,704;  354,172;    1,545;    1,227
1076,246;  217,626;   -0,182;    0,682
1076,788;  149,717;   -0,364;    1,773
1077,330;  153,172;    1,273;    2,136
1077,872;  199,717;    0,909;    0,955
1078,414;  377,444;    2,727;    0,773
1078,956;  229,081;    1,273;   -0,227
1079,498;  374,990;    1,636;    0,318
1080,040;  232,081;    1,909;   -1,318
1080,581;  187,626;    1,636;   -0,318
1081,123;  125,990;    0,091;   -0,773
1081,665;  141,535;   -1,182;   -0,955
1082,206;  328,808;    1,364;   -0,500
1082,748;  248,626;    0,727;    2,045
1083,289;  157,626;   -2,000;    1,318
1083,831;  152,535;   -0,545;    0,227
1084,372;  201,808;    0,000;    0,591
1084,913;  193,808;    1,091;    0,864
1085,455;  145,626;   -1,909;   -2,045
1085,996;  146,081;   -2,273;    0,136
1086,537;  173,717;   -0,091;    0,864
1087,078;  182,354;   -0,909;   -2,136
1087,619;  235,263;   -1,273;    0,227
1088,160;  190,354;    0,000;    1,318
1088,701;  171,535;   -1,091;    0,682
1089,242;  153,354;    1,364;   -2,227
1089,783;  209,717;   -0,273;    1,409
1090,324;  188,444;    0,455;    0,682
1090,865;  136,717;    2,727;   -0,409
1091,405;  105,354;    0,727;    2,227
1091,946;  149,717;    0,182;   -0,955
1092,487;  101,354;    0,818;   -1,409
1093,027;  213,263;   -1,364;   -1,500
1093,568;  149,990;   -0,364;    1,227
1094,108;  183,990;    0,273;    1,773
1094,649;  149,990;   -1,182;    0,136
1095,189;  117,263;   -0,636;   -0,682
1095,729;  115,263;   -0,091;    0,955
1096,269;  107,717;    0,727;   -0,955
1096,810;  262,081;   -1,364;    0,500
1097,350;  197,535;    1,364;   -0,773
1097,890;  146,990;    0,364;    1,227
1098,430;  309,626;    2,364;    2,864
1098,970;  242,717;    2,182;    1,682
1099,510;  134,263;    0,545;   -2,318
1100,050;  112,172;    1,000;   -1,591
1100,589;  128,444;   -0,727;   -0,318
1101,129;  176,081;    0,818;   -0,955
1101,669;  261,717;    1,727;    2,136
1102,209;  176,626;   -0,091;    2,227
1102,748;  143,354;    0,000;    0,955
1103,288;  150,808;    1,273;   -1,227
1103,827;  144,808;    3,091;   -2,227
1104,367;  107,172;   -0,091;   -2,409
1104,906;  108,808;    1,364;   -1,136
1105,445;  150,899;    0,636;   -1,136
1105,985;  127,899;   -0,727;    1,500
1106,524;  142,444;   -1,727;   -0,682
1107,063;  133,354;   -2,727;    1,409
1107,602;  109,263;   -1,909;   -1,500
1108,141;   90,172;   -1,909;    1,500
1108,680;  152,263;   -3,455;   -0,591
1109,219;  124,990;   -0,909;   -0,500
1109,758;  112,354;    0,455;    0,682
1110,297;  108,444;    1,000;   -0,682
1110,836;   85,263;   -0,727;    0,955
1111,375;  123,172;   -2,545;    0,409
1111,913;  157,717;   -1,000;    0,773
1112,452;  126,172;   -0,273;    0,136
1112,991;   81,172;    1,091;    1,955
1113,529;   80,172;   -0,818;   -0,045
1114,068;  108,990;   -0,273;    2,955
1114,606;   76,444;   -0,364;   -0,955
1115,144;  139,990;   -1,273;    1,045
1115,683;  113,263;   -0,727;    0,318
1116,221;  142,354;   -0,455;   -0,864
1116,759;   90,808;    0,636;   -0,864
1117,297;  167,172;    0,000;    1,864
1117,836;   96,081;   -2,182;   -1,227
1118,374;   98,626;    0,182;   -0,682
1118,912;  100,717;    0,909;    2,682
1119,450;   96,990;    1,000;    0,864
1119,988;   97,535;    1,545;    2,136
1120,525;  360,444;    5,091;    3,318
1121,063;  191,444;    1,182;    1,864
1121,601;  101,354;   -0,909;   -1,227
1122,139;   79,535;   -0,727;   -2,045
1122,676;  184,172;   -0,727;    2,773
1123,214;  156,263;   -1,182;    4,409
1123,751;   75,444;    1,727;    2,227
1124,289;  110,626;   -0,091;   -0,409
1124,826;   80,990;    1,727;    0,227
1125,364;   43,990;    1,727;   -0,955
1125,901;  143,717;    1,182;    1,227
1126,438;  162,626;    0,818;    0,955
1126,975;   48,899;   -0,727;   -0,773
1127,513;   67,626;    0,273;    2,136
1128,050;   46,172;    1,636;   -0,682
1128,587;   84,172;    2,000;   -0,227
1129,124;  106,535;    0,091;    1,318
1129,661;   55,808;    0,273;    0,227
1130,198;  128,263;    1,636;    0,773
1130,734;   95,444;    0,182;    1,409
1131,271;   47,535;   -0,909;    0,864
1131,808;  113,808;    2,909;    3,045
1132,345;   67,717;    1,545;    0,318
1132,881;   19,899;   -1,545;   -1,864
1133,418;   76,263;    0,727;   -1,136
1133,954;   52,626;    2,455;   -2,682
1134,491;   85,354;    1,364;   -0,773
1135,027;   49,263;    2,364;    0,864
1135,564;   78,717;    0,273;    2,955
1136,100;   72,626;    0,364;    2,136
1136,636;   37,990;   -1,273;   -1,045
1137,172;   64,626;    0,000;   -1,045
1137,708;   41,444;   -1,364;   -1,045
1138,245;   37,354;    1,273;   -1,227
1138,781;   30,808;    1,091;   -3,318
1139,317;   48,990;    1,273;   -1,409
1139,852;   58,717;    3,091;    0,136
1140,388;   84,444;   -1,182;   -0,409
1140,924;   50,535;   -1,091;   -2,227
1141,460;   29,354;   -1,636;    0,136
1141,996;   15,263;   -1,364;    2,682
1142,531;   28,444;    1,364;    3,318
1143,067;  108,354;    1,182;    1,045
1143,602;  135,444;   -0,091;   -0,318
1144,138;   66,717;   -2,636;    1,045
1144,673;   24,990;   -1,455;    1,409
1145,209;   42,808;   -1,909;   -0,318
1145,744;   22,444;   -0,727;    0,864
1146,279;   62,172;    1,818;   -0,136
1146,815;   39,899;    1,545;   -2,682
1147,350;   56,808;   -1,364;    0,045
1147,885;   24,626;   -0,818;   -1,318
1148,420;   25,172;   -2,273;    0,773
1148,955;   24,808;   -1,727;    1,864
1149,490;   31,899;   -0,909;   -1,591
1150,025;   26,081;    0,455;   -1,773
1150,560;   60,717;    1,091;   -0,955
1151,094;   49,717;    1,455;   -0,591
1151,629;   45,354;    1,636;    0,864
1152,164;   30,354;    1,364;    1,318
1152,698;   18,626;   -0,182;   -0,136
1153,233;   10,717;    0,091;   -0,682
1153,767;   20,626;   -3,000;   -2,318
1154,302;   34,535;   -1,455;    1,773
1154,836;   34,263;   -0,455;   -2,136
1155,371;   49,172;   -1,364;    3,682
1155,905;   30,535;   -0,636;    1,682
1156,439;   30,444;   -0,636;   -0,500
1156,973;   36,626;    0,364;    0,318
1157,507;   19,444;   -0,364;    0,682
1158,042;   27,717;   -0,727;    1,045
1158,576;   37,717;    0,182;    1,773
1159,110;   37,990;   -0,818;    2,409
1159,643;   26,990;    0,636;   -0,045
1160,177;   16,354;   -1,545;    1,500

