
Integration time [ms]:   0,040
Averaging Nr. [scans]: 11
Smoothing Nr. [pixels]: 0
Data measured with spectrometer [name]: 7318044SP
Wave   ;Sample   ;Dark     ;Reference
[nm]   ;[counts] ;[counts] ;[counts] 

186,757;   33,847;   31,551;    1,318
187,357;   33,303;   22,551;    0,955
187,958;   19,055;   15,460;   -1,591
188,558;   34,833;    8,915;   -1,227
189,159;   16,596;    6,733;   -4,500
189,759;    9,042;    7,278;   -3,591
190,360;    8,931;    2,824;   -2,136
190,960;   20,990;    2,915;   -4,136
191,560;   22,057;    3,189;   -6,591
192,161;  114,226;    4,372;   -3,500
192,761;   58,837;    4,010;   -3,227
193,361;   36,711;    1,556;   -3,773
193,962;   53,366;    2,010;   -2,682
194,562;   21,280;    1,189;   -3,955
195,162;   15,502;   -2,448;   -2,227
195,762;   62,540;   -3,176;   -0,045
196,362;   42,348;    1,370;   -2,500
196,963;   12,647;    2,006;   -0,864
197,563;   25,386;    1,551;   -0,955
198,163;    9,261;    0,096;   -0,682
198,763;   16,694;    1,733;   -0,500
199,363;   30,257;    3,096;   -0,500
199,963;   19,837;    0,369;    0,409
200,563;   15,836;    2,823;   -1,409
201,163;   10,947;    3,277;   -0,227
201,763;   21,095;    3,732;    0,318
202,363;   12,426;    1,459;    1,500
202,963;   18,266;    1,459;    1,045
203,563;   35,739;    0,277;    0,500
204,162;   14,130;    2,096;   -1,864
204,762;   12,239;    0,550;    0,591
205,362;    5,122;    3,004;    1,955
205,962;   13,304;    3,096;    1,955
206,562;   12,699;    1,823;    2,318
207,161;    6,129;   -0,087;    0,318
207,761;   35,247;    1,277;    2,409
208,361;   11,689;   -0,268;    1,409
208,960;   15,216;    0,459;    1,500
209,560;   12,895;    1,277;    1,591
210,160;   22,892;    0,550;    1,864
210,759;   10,826;    4,186;    1,227
211,359;    9,451;    1,459;    1,045
211,958;   47,548;    1,277;    2,045
212,558;   46,871;    1,732;    1,864
213,157;   19,868;    1,822;    1,500
213,757;   75,492;    3,822;   -0,227
214,356;   29,022;    1,277;   -0,409
214,956;   55,824;    3,095;    0,409
215,555;   20,162;    2,095;    2,136
216,154;    7,619;   -2,723;   -0,591
216,754;    8,696;    0,277;    0,773
217,353;   11,370;   -0,268;   -1,045
217,952;   -2,789;   -0,178;    0,318
218,552;   16,763;    1,368;   -0,773
219,151;    9,756;    0,277;    0,955
219,750;    8,525;    0,004;   -0,227
220,349;    4,522;   -0,451;    1,045
220,948;   20,707;   -1,360;    1,136
221,548;    1,813;    0,913;    1,227
222,147;    5,236;   -0,087;   -0,409
222,746;   29,142;   -0,451;   -0,955
223,345;   11,539;    0,731;    0,500
223,944;   12,318;   -0,451;    0,773
224,543;   11,593;    1,004;   -1,409
225,142;    8,399;    0,094;    0,136
225,741;   11,908;   -0,814;    1,045
226,340;   10,580;   -0,451;   -0,955
226,939;   23,587;   -0,996;   -0,136
227,538;    7,981;   -0,360;   -0,773
228,137;   29,257;   -0,814;    0,864
228,735;   21,069;   -0,541;    1,227
229,334;    1,419;   -0,905;   -0,227
229,933;   29,801;    0,459;    0,591
230,532;   24,810;    1,186;   -0,409
231,131;   42,395;    1,732;    0,318
231,729;   20,676;   -2,450;   -2,318
232,328;   10,563;   -0,723;   -1,500
232,927;   12,989;    1,004;   -0,500
233,525;    7,457;    3,640;    0,045
234,124;   12,263;    2,368;   -1,591
234,723;    3,953;    0,913;   -1,045
235,321;   -0,941;    2,277;    0,136
235,920;    7,137;    1,186;   -1,227
236,518;   29,789;    3,459;    0,318
237,117;    8,454;    0,004;   -0,227
237,715;   12,969;    0,640;   -0,500
238,314;   15,740;   -0,087;   -2,318
238,912;   27,197;   -0,723;   -1,409
239,510;   18,351;    0,459;   -1,227
240,109;   34,937;    0,004;    3,773
240,707;   23,968;   -0,996;    1,227
241,305;    2,836;    0,550;    0,136
241,904;   11,927;   -0,178;   -2,045
242,502;   44,311;   -0,632;   -0,227
243,100;   24,046;   -0,087;   -0,955
243,698;    7,925;    0,732;    1,682
244,297;   14,608;   -0,632;    0,682
244,895;   12,500;   -0,269;   -2,318
245,493;   27,565;    2,186;   -0,591
246,091;   32,536;    1,368;   -1,318
246,689;   15,439;    1,004;    0,591
247,287;   16,702;    0,822;   -1,136
247,885;   12,747;   -1,451;    1,227
248,483;    6,148;    1,822;   -0,500
249,081;   17,418;    0,185;    1,591
249,679;   14,939;   -0,178;    1,682
250,277;    4,881;   -1,723;    0,864
250,875;   18,144;   -1,087;   -1,045
251,473;   10,827;   -1,178;    0,500
252,071;   23,057;    1,459;    1,045
252,669;    8,954;   -1,814;    0,318
253,267;    4,093;   -0,087;    0,773
253,864;    6,702;   -0,360;    0,682
254,462;   22,544;    1,640;    1,591
255,060;    6,692;   -0,269;    1,318
255,658;    4,954;    0,822;   -0,136
256,255;    8,332;    0,186;   -2,045
256,853;   17,292;   -0,269;    1,409
257,451;    8,552;    0,822;    1,864
258,048;   65,064;    1,822;    1,864
258,646;   25,265;    1,731;   -1,045
259,243;   34,110;   -0,087;    2,227
259,841;   19,140;   -0,814;    0,318
260,438;    4,296;   -0,087;    0,864
261,036;   16,798;   -1,905;    1,409
261,633;    4,422;   -0,087;    2,227
262,231;    3,936;    2,731;   -0,045
262,828;    6,751;   -0,905;    1,136
263,425;    2,050;    0,913;   -0,591
264,023;    5,874;    0,186;    0,045
264,620;   18,342;   -0,360;   -0,318
265,217;   27,506;   -2,087;    3,136
265,815;   11,586;   -1,905;    2,136
266,412;   18,065;    0,731;    0,136
267,009;   11,091;   -1,451;    0,773
267,606;   20,538;    0,822;   -0,955
268,203;    8,373;   -0,269;   -0,591
268,801;    7,949;    1,731;    0,591
269,398;    4,769;   -0,360;    2,500
269,995;   12,297;    0,277;    1,591
270,592;   11,694;   -0,632;   -0,500
271,189;    2,953;    0,186;    0,409
271,786;    4,786;   -0,632;    1,227
272,383;   18,267;   -1,087;    0,227
272,980;   10,102;    0,277;    0,318
273,577;    3,249;    0,004;    1,227
274,174;    6,006;    0,822;    2,591
274,771;   12,045;   -0,814;   -0,773
275,367;   69,879;    2,277;    1,409
275,964;   28,692;    0,731;   -0,500
276,561;    9,883;    1,549;   -1,045
277,158;    0,939;    0,095;   -1,773
277,755;   24,782;    2,185;    0,409
278,351;   15,622;   -0,451;   -1,500
278,948;   13,591;   -0,815;    0,045
279,545;    7,603;   -1,360;    2,318
280,141;   20,979;   -1,723;   -2,045
280,738;   26,486;   -0,451;   -0,136
281,334;   10,224;   -1,633;    0,591
281,931;    3,990;   -0,087;   -1,318
282,528;   18,322;    0,822;   -0,500
283,124;   23,272;   -1,087;   -0,500
283,721;   20,872;   -0,451;    1,409
284,317;    9,274;    0,185;    2,500
284,913;   22,338;   -1,360;    0,591
285,510;   27,338;    0,640;   -0,318
286,106;   21,157;   -2,269;   -0,955
286,703;   12,841;   -0,360;    1,955
287,299;    8,868;   -1,451;   -0,591
287,895;    6,345;    0,822;   -1,045
288,491;    5,587;    0,186;    2,136
289,088;   11,191;   -2,360;    2,409
289,684;    9,408;   -1,723;    1,500
290,280;   26,323;    0,368;    0,682
290,876;   18,333;    1,822;    5,500
291,472;   15,577;    1,276;    2,227
292,068;   20,261;    1,367;    0,227
292,665;   12,868;    2,095;    0,773
293,261;    2,603;    0,276;    2,136
293,857;   11,673;    2,913;    2,136
294,453;   10,248;    3,550;    0,955
295,049;   30,063;   -0,268;    1,955
295,644;   14,432;    0,095;    0,136
296,240;    4,769;   -0,905;   -0,136
296,836;   13,621;   -0,995;    0,318
297,432;   18,683;    1,096;   -0,500
298,028;   19,051;    0,732;    0,773
298,624;   12,004;    1,459;    1,864
299,220;   15,396;    2,368;    0,591
299,815;   10,391;    1,005;   -0,409
300,411;   15,881;    0,914;    1,773
301,007;   14,213;    1,368;    0,227
301,602;    6,450;   -0,541;   -2,318
302,198;   24,418;    0,732;   -0,773
302,794;   11,464;    1,187;   -0,500
303,389;    1,212;   -1,177;    1,045
303,985;    4,412;    0,550;    1,409
304,580;   27,730;    1,459;    1,591
305,176;   10,879;   -3,086;    0,136
305,771;    0,578;   -1,268;   -1,227
306,367;   50,078;    4,095;    0,136
306,962;   19,086;    0,641;    1,500
307,558;   25,445;   -0,450;    0,136
308,153;   11,704;    1,095;   -1,136
308,748;    1,752;   -0,814;    1,682
309,344;   35,717;   -0,632;   -1,318
309,939;   30,113;   -1,905;   -1,318
310,534;   11,324;   -0,086;   -1,682
311,130;    8,581;    0,459;   -2,500
311,725;    6,817;    1,004;   -0,500
312,320;    8,279;    2,459;    0,045
312,915;   13,421;    1,459;   -1,045
313,510;   36,463;    1,550;   -0,500
314,105;    9,331;    1,096;    1,409
314,700;    2,294;   -3,086;   -1,045
315,295;    6,821;   -0,904;    0,045
315,890;    2,982;    1,277;    0,864
316,485;   12,285;   -0,359;   -0,318
317,080;    3,373;   -3,086;    1,591
317,675;   37,559;    2,005;   -0,682
318,270;   80,452;    5,550;    3,318
318,865;   45,263;    3,278;    3,045
319,460;   22,266;   -0,904;    0,591
320,055;    8,018;   -0,541;   -1,227
320,650;    6,891;   -1,995;   -0,591
321,244;    6,961;   -0,177;   -1,409
321,839;    5,223;   -1,541;   -0,227
322,434;   11,916;   -1,086;   -1,591
323,029;    8,124;    1,732;    1,591
323,623;    1,479;    1,550;    0,773
324,218;   30,986;    2,368;    1,409
324,812;   15,653;    1,096;    1,591
325,407;   13,448;   -0,814;    2,045
326,002;   40,095;    0,277;   -0,409
326,596;   20,092;    0,914;    1,318
327,191;    5,698;    0,823;   -1,045
327,785;   10,910;   -0,813;   -0,227
328,379;    9,064;    1,368;    0,136
328,974;    7,793;    0,914;   -3,955
329,568;    9,662;    0,186;   -2,409
330,163;   21,412;    2,096;    1,045
330,757;    5,849;    2,459;    1,591
331,351;    2,504;    0,459;    0,682
331,945;    3,003;    0,914;    1,409
332,540;   12,329;   -1,723;   -0,591
333,134;    7,678;   -1,086;    0,773
333,728;    9,872;    0,005;    0,318
334,322;    2,325;   -1,177;   -0,864
334,916;    1,660;    0,277;    0,955
335,510;   18,766;   -0,450;   -0,136
336,105;   10,062;   -1,086;    1,591
336,699;    5,077;   -1,086;    0,591
337,293;   10,189;   -1,723;    0,318
337,887;    7,554;   -2,723;    1,955
338,481;   13,597;    0,459;    0,591
339,074;   28,380;   -0,359;    2,682
339,668;   24,799;   -1,632;    1,227
340,262;  108,324;    1,732;    3,227
340,856;   39,361;    1,822;   -0,682
341,450;    7,420;    1,004;    1,864
342,044;   14,462;    1,459;    0,136
342,637;   19,755;    0,913;   -2,136
343,231;    3,193;   -2,360;    0,682
343,825;    1,706;   -1,086;   -0,591
344,419;    7,225;   -1,995;    0,500
345,012;   83,440;    2,459;    4,045
345,606;   45,851;    4,641;    1,591
346,199;   10,766;   -1,813;   -0,227
346,793;   19,548;    1,914;    2,045
347,386;    8,462;   -0,813;   -1,136
347,980;    0,923;   -0,268;   -0,045
348,573;    8,268;    2,278;    0,409
349,167;   69,689;    5,278;    4,773
349,760;   30,250;    2,914;    2,682
350,354;   20,753;   -0,813;    1,136
350,947;   24,352;    1,096;    1,682
351,540;   14,613;   -0,358;   -1,409
352,134;    2,434;    1,096;    1,136
352,727;    6,526;   -0,086;    1,136
353,320;    7,470;    0,005;    0,591
353,913;    4,422;   -1,995;    1,864
354,507;   17,183;    0,823;   -1,227
355,100;    5,234;    0,460;    0,864
355,693;   75,893;    2,005;    2,409
356,286;   29,337;    0,823;    2,773
356,879;   11,900;   -0,722;    1,227
357,472;   12,650;   -0,904;    1,500
358,065;   12,721;   -0,722;    2,500
358,658;    1,257;   -0,540;    2,318
359,251;    2,452;   -1,631;   -0,591
359,844;   16,428;   -1,904;   -1,136
360,437;   20,972;   -2,995;    0,045
361,030;    8,541;    1,369;   -0,682
361,623;    8,452;    2,824;    0,318
362,215;   37,794;   -0,086;    2,045
362,808;    9,017;   -2,358;   -1,682
363,401;    3,577;   -2,449;    0,136
363,994;   39,423;   -0,631;   -1,500
364,586;   15,957;    0,824;   -1,500
365,179;   10,837;   -0,449;   -1,136
365,772;   -1,069;   -1,995;    2,045
366,364;   10,816;    1,915;   -3,227
366,957;   15,960;    2,279;   -0,045
367,549;    9,517;    2,188;   -0,864
368,142;    8,076;    1,825;   -1,500
368,734;    5,558;    0,734;   -2,136
369,327;    2,703;    1,643;   -0,500
369,919;    7,386;   -1,538;    0,409
370,512;    7,700;   -1,083;   -0,500
371,104;   62,753;   -0,901;    1,591
371,696;   63,612;    1,191;   -0,955
372,289;   29,456;    0,373;    1,136
372,881;   21,508;   -2,080;    1,318
373,473;    6,152;   -2,170;    1,136
374,066;   15,522;   -0,169;    0,500
374,658;   16,435;    0,378;    1,136
375,250;    7,423;    0,653;   -1,409
375,842;   12,306;    0,473;   -0,045
376,434;   -3,553;   -0,435;   -0,409
377,026;    1,285;    0,204;   -2,500
377,618;   16,200;   -0,158;   -0,682
378,210;    6,584;   -0,338;   -1,955
378,802;    9,780;    0,754;   -0,591
379,394;  118,169;    1,846;    0,682
379,986;   43,777;    1,393;   -0,955
380,578;   14,404;   -0,153;    0,773
381,170;   91,425;   -0,972;    0,045
381,762;   57,843;    0,755;    1,409
382,354;   34,800;   -0,065;   -1,318
382,945;   19,962;   -2,976;    0,318
383,537;    5,621;   -2,705;   -1,955
384,129;    4,625;   -2,160;   -1,136
384,721;   28,917;   -0,252;    0,955
385,312;   20,273;   -0,161;   -0,955
385,904;   31,068;   -2,706;    1,591
386,496;   21,202;   -0,979;    1,045
387,087;   63,517;    1,022;    2,500
387,679;   37,867;   -1,160;    0,045
388,270;   25,984;    2,840;    2,045
388,862;   27,094;    1,295;   -0,318
389,453;   28,845;   -0,887;    1,045
390,045;   24,843;   -0,705;   -2,682
390,636;    0,567;    0,204;   -0,591
391,227;   14,797;   -0,523;   -0,045
391,819;    8,184;    0,204;    0,773
392,410;   86,163;    1,022;    0,045
393,001;   21,917;   -0,979;   -1,591
393,593;   25,294;    1,930;   -0,045
394,184;   37,840;    1,385;   -0,409
394,775;   17,849;    1,839;    2,136
395,366;    1,967;    1,385;    0,773
395,957;   25,087;    0,113;    0,136
396,548;    9,627;   -0,342;    2,682
397,139;   37,266;   -2,433;    0,591
397,730;   16,315;   -1,888;    0,955
398,321;   17,386;   -1,252;    0,955
398,912;    8,806;   -0,615;    0,136
399,503;   11,340;   -3,524;   -1,409
400,094;   11,542;    0,294;    1,682
400,685;   11,725;   -0,433;    0,045
401,276;    9,944;    0,930;   -0,955
401,867;   -0,382;   -0,888;    0,773
402,458;   -5,799;   -2,251;   -2,318
403,048;   20,665;    1,112;    0,591
403,639;   12,910;    0,840;    0,864
404,230;   40,317;    2,476;    0,318
404,821;   51,522;   -0,615;    0,045
405,411;   27,646;    1,203;   -2,591
406,002;    9,863;   -1,252;   -1,136
406,592;   71,941;    2,294;    0,045
407,183;   32,257;    0,566;   -1,500
407,774;   32,803;    3,475;   -0,136
408,364;   10,558;    0,930;    0,409
408,954;   41,630;    0,384;    1,227
409,545;   40,156;    1,021;    1,045
410,135;   31,072;    1,293;    0,500
410,726;   10,685;    1,838;    0,318
411,316;   68,894;    0,111;    0,773
411,906;   26,590;   -0,253;   -0,409
412,497;   31,070;   -1,070;   -0,045
413,087;   18,088;   -1,980;   -0,227
413,677;    1,869;   -0,707;    3,864
414,267;   -0,342;    0,656;    1,409
414,857;   -3,938;   -2,980;    4,227
415,448;   -2,422;    0,839;    0,500
416,038;    4,342;    0,020;   -0,591
416,628;   12,031;   -0,889;    0,409
417,218;   23,759;    0,565;    3,318
417,808;   64,436;    0,202;   -0,409
418,398;   33,991;    0,020;    2,682
418,988;    7,840;    2,020;    0,591
419,578;   39,271;   -0,707;    1,409
420,168;   17,786;   -1,343;   -0,955
420,757;   42,853;   -1,343;   -1,500
421,347;   12,535;    0,111;   -0,227
421,937;    9,880;    2,292;    1,409
422,527;   44,968;    0,838;   -0,773
423,116;   93,441;   -0,253;   -0,045
423,706;   20,435;   -1,889;    0,318
424,296;    5,967;    1,384;    0,682
424,885;   31,604;   -0,071;   -3,045
425,475;   24,978;    1,474;   -2,864
426,065;    3,330;   -0,980;   -0,318
426,654;    2,612;   -0,435;   -0,318
427,244;   67,916;    0,020;    1,409
427,833;   50,324;    1,383;   -0,500
428,423;   20,081;   -0,526;    1,136
429,012;   16,445;   -0,344;   -1,136
429,601;   47,451;   -1,344;    0,136
430,191;   21,732;    1,292;    4,318
430,780;    4,365;   -0,344;   -0,409
431,369;   49,458;    0,746;   -0,045
431,959;   21,039;   -1,254;    0,500
432,548;    4,971;   -1,163;   -0,045
433,137;   -3,948;   -1,254;   -1,318
433,726;    8,173;    0,292;    0,500
434,315;   13,413;   -0,526;    2,409
434,905;   43,504;   -1,254;    1,409
435,494;   32,644;    0,746;    0,955
436,083;   10,386;   -0,981;   -0,955
436,672;   39,649;    0,110;    0,500
437,261;   24,159;    0,292;   -1,955
437,850;   79,453;    1,383;    0,682
438,439;   99,428;    3,291;    1,955
439,027;  145,301;    3,655;    1,773
439,616;   97,620;    2,927;    1,227
440,205;   26,035;    0,200;   -2,136
440,794;   21,108;    2,109;   -0,045
441,383;   11,729;   -1,346;   -0,591
441,971;    6,884;   -2,436;    0,591
442,560;   10,867;    0,563;   -1,773
443,149;   -4,316;    0,379;   -1,318
443,737;   -3,254;   -0,074;   -2,318
444,326;   10,524;    0,018;    0,318
444,915;   16,219;   -1,982;    0,864
445,503;   17,327;   -2,891;   -0,318
446,092;  116,744;    0,382;    2,136
446,680;   85,482;    0,382;    0,318
447,269;   35,177;   -0,346;   -0,318
447,857;   34,130;    0,018;   -1,773
448,445;   24,089;    0,563;    1,318
449,034;    8,414;   -1,528;   -1,136
449,622;   17,239;   -1,073;    3,500
450,210;   87,076;    2,017;    2,227
450,799;   57,486;    0,290;   -0,591
451,387;   55,816;    1,381;   -0,591
451,975;   45,832;    2,654;    0,864
452,563;   67,708;    3,472;    2,318
453,151;   24,722;   -0,528;   -1,227
453,739;   21,452;   -1,347;    0,136
454,328;   48,453;    2,381;   -2,136
454,916;   33,745;    2,562;   -0,136
455,504;   48,646;    1,017;    1,227
456,092;   18,196;    0,017;   -1,591
456,679;    8,942;    1,472;    0,682
457,267;  146,441;    4,017;    1,045
457,855;   43,792;    1,017;    1,409
458,443;    3,682;   -0,165;    1,682
459,031;   31,853;    0,108;    2,409
459,619;   21,036;   -1,801;    2,864
460,206;    2,280;    0,835;    2,045
460,794;    4,105;   -2,983;   -0,227
461,382;   15,037;   -0,529;   -0,864
461,970;   18,760;    1,198;    1,864
462,557;   -1,433;   -0,711;   -0,682
463,145;   20,854;   -3,165;   -1,682
463,732;  102,979;    2,016;   -1,045
464,320;   36,234;   -0,075;   -3,045
464,907;   65,899;    2,743;   -0,773
465,495;   37,857;    0,743;   -1,227
466,082;   19,307;   -1,984;   -0,045
466,670;   31,516;   -2,529;    1,227
467,257;    9,129;   -1,711;    2,045
467,844;   26,556;   -0,075;    0,045
468,432;   19,403;    0,834;    3,500
469,019;   13,681;    0,925;   -1,773
469,606;   41,207;    0,470;    3,682
470,193;   45,266;   -1,439;    0,227
470,780;   26,250;   -2,075;    0,864
471,368;   11,374;   -1,257;   -0,773
471,955;   40,222;    1,379;   -0,682
472,542;   24,764;    0,652;   -1,136
473,129;    1,261;   -0,166;    0,136
473,716;    4,756;    1,470;    0,591
474,303;   11,043;    0,652;   -0,864
474,890;   10,453;   -1,439;   -0,500
475,477;   43,357;   -1,621;    0,409
476,064;   12,462;    1,106;   -1,591
476,650;   56,468;    0,288;    0,318
477,237;   21,014;   -0,258;    0,955
477,824;   16,148;   -1,076;    0,864
478,411;    2,757;   -1,894;   -0,318
478,997;   -4,451;    0,560;   -0,773
479,584;   -8,614;    1,196;   -0,409
480,171;   24,486;   -0,440;   -0,773
480,757;   34,671;    2,651;    0,773
481,344;   12,498;    0,469;    0,409
481,931;   -0,503;    1,105;    1,045
482,517;   23,995;   -1,258;    0,318
483,104;   45,565;    1,106;    2,864
483,690;    7,858;   -1,804;    0,045
484,276;    3,827;   -0,895;    0,227
484,863;   66,921;    2,469;    1,136
485,449;   21,222;   -0,077;    0,318
486,035;    5,342;   -1,986;   -0,136
486,622;   26,655;   -0,895;    0,045
487,208;    9,292;    1,378;    1,500
487,794;   -6,759;    0,741;    0,318
488,380;    0,295;    0,105;   -1,409
488,967;   -2,986;   -1,168;   -0,409
489,553;   -4,547;   -1,895;   -1,409
490,139;   15,192;    1,559;    0,773
490,725;    1,134;    0,741;   -0,227
491,311;   10,189;    3,287;    3,045
491,897;    5,846;   -0,986;    1,500
492,483;    8,448;    0,105;    1,227
493,069;  143,325;    3,923;    0,864
493,655;   52,456;    1,650;    0,682
494,241;   13,874;    1,377;   -0,955
494,826;   13,355;    0,287;   -1,045
495,412;   26,630;    2,559;   -0,682
495,998;    6,521;   -0,805;   -0,318
496,584;   18,253;    0,377;    1,045
497,169;   28,507;    1,014;   -0,682
497,755;   11,748;    0,650;    1,227
498,341;   43,773;    0,559;    0,318
498,926;   82,970;    1,832;    1,955
499,512;   19,142;    1,286;    2,955
500,097;    6,913;    0,195;   -0,318
500,683;   13,286;   -0,350;    2,136
501,268;    4,665;   -0,169;   -0,955
501,854;   10,290;   -0,169;    1,227
502,439;    4,115;   -0,624;   -1,773
503,024;    3,614;    0,195;    0,500
503,610;   15,414;   -0,078;   -0,682
504,195;    4,764;    0,558;    1,955
504,780;   34,056;    2,922;    1,227
505,366;   66,925;    3,013;    2,864
505,951;   33,100;    0,740;    1,045
506,536;   11,517;   -3,260;   -3,682
507,121;   27,165;    0,285;   -0,318
507,706;   19,094;    2,376;    1,045
508,291;    2,834;    2,649;    1,136
508,876;    0,754;   -0,988;    2,591
509,461;    8,885;   -0,169;   -0,773
510,046;   19,951;    0,194;    0,318
510,631;   23,018;   -0,351;   -0,773
511,216;    3,383;    2,467;   -0,500
511,801;   19,535;   -0,442;    2,591
512,386;   19,979;    0,740;    0,500
512,971;   22,440;   -2,988;    0,955
513,555;   22,855;   -0,897;   -1,500
514,140;   14,178;   -0,442;   -3,136
514,725;   61,301;   -0,715;   -1,136
515,309;   29,260;   -0,533;    0,318
515,894;   10,706;   -0,624;   -2,227
516,479;   16,773;   -0,624;   -0,955
517,063;   16,622;    0,376;    1,227
517,648;    3,558;    1,012;   -1,136
518,232;   -4,109;   -0,261;   -1,409
518,817;   19,448;   -0,079;    1,682
519,401;   43,678;    2,194;    0,591
519,985;   44,442;    1,103;    1,136
520,570;   18,475;    0,830;   -1,955
521,154;   32,022;    2,102;    0,591
521,738;   60,302;   -2,352;    2,409
522,323;   28,527;   -0,170;    1,682
522,907;   28,007;    0,466;   -0,136
523,491;   17,845;    0,557;    0,955
524,075;   20,220;    2,284;    0,591
524,659;   87,107;    1,466;    0,591
525,243;   75,046;    1,739;    0,409
525,827;   65,134;    0,648;   -0,045
526,411;   77,471;   -1,989;   -0,136
526,995;  131,082;   -0,352;    1,409
527,579;  184,059;   -0,443;   -1,045
528,163;  163,988;    0,375;   -1,500
528,747;  235,772;    2,466;   -0,773
529,331;  219,377;   -0,080;   -1,409
529,915;  141,276;    1,738;    0,955
530,499;  237,274;   -0,807;    1,227
531,082;  405,955;   -0,534;    1,591
531,666;  512,166;    1,374;    0,773
532,250;  424,238;    1,284;    2,682
532,833;  547,766;    0,920;    2,773
533,417;  424,873;   -1,807;    0,864
534,001;  583,276;    1,647;   -0,318
534,584;  523,511;    0,374;    0,500
535,168;  356,498;    0,465;    1,409
535,751;  771,175;    0,647;    0,045
536,334;  513,236;   -0,898;   -0,409
536,918;  372,763;    0,011;    1,591
537,501;  405,858;   -0,899;    1,318
538,085;  492,178;   -0,444;    1,045
538,668;  583,734;    0,829;    2,409
539,251;  949,109;    1,829;    3,773
539,834;  644,810;    0,101;    0,773
540,418;  816,274;   -1,990;    4,318
541,001; 1051,945;   -0,990;    1,773
541,584;  785,715;    2,101;    2,227
542,167;  926,121;    1,374;    2,955
542,750;  748,184;    1,919;   -0,773
543,333;  595,405;    0,555;    2,136
543,916;  908,168;    0,192;    2,500
544,499;  809,142;   -1,354;    0,227
545,082;  923,706;    1,374;    3,591
545,665;  820,563;    1,919;    1,500
546,248;  989,587;    1,010;   -0,318
546,830;  979,915;   -0,445;    1,955
547,413;  973,250;    1,010;   -0,773
547,996;  984,244;    0,555;    0,500
548,579;  875,902;    0,919;    0,955
549,161; 1161,375;    1,828;    2,682
549,744; 1046,124;   -0,809;    0,409
550,326;  915,047;   -0,809;   -1,136
550,909; 1469,321;    2,737;    0,591
551,492; 1088,733;   -0,263;    0,227
552,074; 1222,559;   -0,173;   -1,318
552,657; 1269,109;    2,373;    0,045
553,239; 1090,234;   -0,173;   -0,773
553,821;  977,644;   -1,082;    1,045
554,404; 1251,918;    1,282;    1,136
554,986; 1394,545;    0,464;    1,045
555,568; 1242,306;    1,191;   -0,955
556,151; 1471,772;    1,191;   -0,227
556,733; 1092,693;   -0,264;   -0,864
557,315; 1101,818;    0,100;    0,500
557,897;  934,789;    0,554;   -0,500
558,479;  951,986;   -1,991;    1,318
559,061; 1085,189;   -0,719;   -0,864
559,643; 1194,910;   -0,264;    0,045
560,225; 1233,596;    1,645;    2,864
560,807; 1076,820;    0,918;    0,318
561,389; 1031,131;    0,554;    2,318
561,971; 1118,206;    0,463;    2,136
562,553; 1083,744;   -1,628;    1,591
563,135; 1177,089;   -0,537;    1,136
563,717; 1600,807;    3,372;    1,136
564,298; 1470,968;    3,645;   -0,045
564,880; 1188,438;    0,645;   -1,409
565,462; 1023,893;    0,645;    1,318
566,043; 1296,945;   -0,446;    2,318
566,625; 1561,938;    1,918;    1,227
567,207; 1319,242;    1,099;    1,682
567,788; 1226,639;   -1,264;    1,500
568,370; 1305,351;    1,917;   -0,500
568,951; 1220,320;    0,190;    0,227
569,533; 1379,991;   -0,628;   -0,500
570,114; 1462,463;   -0,446;    0,682
570,695; 1497,453;   -0,174;   -1,318
571,277; 1485,716;   -0,265;   -1,682
571,858; 1719,378;    2,008;   -1,136
572,439; 1653,561;    1,554;   -1,045
573,021; 1661,285;    2,099;   -2,773
573,602; 1787,288;   -1,265;    0,318
574,183; 1761,555;   -2,083;    2,227
574,764; 1769,351;   -1,629;    0,409
575,345; 1920,425;    0,917;   -0,136
575,926; 1856,893;   -0,356;    0,136
576,507; 1931,099;    1,099;   -0,227
577,088; 1987,006;    3,099;    1,682
577,669; 2153,042;    0,735;    1,955
578,250; 2387,919;    0,644;   -1,045
578,831; 2196,783;   -1,356;   -2,227
579,412; 2088,326;   -0,810;    0,955
579,993; 2268,162;    1,008;    0,227
580,573; 2245,353;   -0,629;   -0,955
581,154; 2094,960;    0,735;   -0,591
581,735; 2184,942;    0,644;    0,773
582,315; 2187,851;   -0,629;    2,136
582,896; 2255,078;   -0,174;    1,227
583,477; 2080,604;    0,189;    1,227
584,057; 2186,523;    0,553;    0,955
584,638; 2282,253;    2,553;    2,318
585,218; 2497,419;   -0,538;    2,682
585,799; 2369,094;    0,281;   -0,227
586,379; 2234,552;    0,372;    1,591
586,959; 2139,105;    0,735;    0,318
587,540; 2009,574;   -0,629;    2,227
588,120; 1957,857;    1,007;   -0,045
588,700; 1873,794;    2,553;    2,136
589,281; 2113,621;    0,462;   -0,955
589,861; 1994,118;    0,099;   -1,682
590,441; 1898,180;    2,371;   -2,682
591,021; 1824,791;   -0,265;   -2,591
591,601; 1851,143;   -0,537;    0,500
592,181; 1911,027;   -0,719;   -0,773
592,761; 1658,751;    0,007;    1,409
593,341; 1826,824;   -0,901;    0,045
593,921; 1795,913;   -0,265;    1,591
594,501; 1670,744;   -0,538;    1,318
595,081; 1668,266;    0,917;   -0,318
595,661; 1871,610;   -1,447;    0,955
596,240; 1871,509;   -0,537;    0,136
596,820; 2150,746;    0,372;    1,955
597,400; 1842,683;    2,008;    0,773
597,980; 1817,548;    2,008;    1,045
598,559; 1807,027;    2,735;   -0,227
599,139; 1765,704;   -0,174;   -1,227
599,718; 1746,340;   -0,174;   -0,409
600,298; 1801,665;    0,735;    0,682
600,877; 2228,750;    2,917;    1,409
601,457; 2068,533;    2,281;    1,136
602,036; 1917,409;    0,190;    2,045
602,616; 1888,269;    0,644;    1,682
603,195; 2030,890;   -0,355;    3,500
603,774; 2009,110;   -0,901;    2,045
604,354; 1915,940;    0,826;   -0,500
604,933; 1830,396;    0,463;    1,864
605,512; 2012,594;    3,554;    0,591
606,091; 2014,477;   -0,537;    3,773
606,671; 2008,447;    0,281;    0,773
607,250; 2098,278;    1,644;    3,136
607,829; 2079,577;    2,372;    3,227
608,408; 1934,370;    1,190;    2,591
608,987; 1951,251;    1,281;    3,409
609,566; 1799,253;   -1,265;   -2,500
610,145; 1890,003;   -1,082;    0,682
610,723; 2008,760;    4,372;    6,864
611,302; 1816,736;   -0,446;    1,682
611,881; 2038,972;    5,008;   11,227
612,460; 1837,263;    1,645;    3,955
613,039; 1833,221;   -0,082;    2,045
613,617; 1656,698;    1,736;    4,773
614,196; 1675,719;    1,099;    1,227
614,775; 1816,296;    1,009;    2,409
615,353; 1841,037;    0,736;    0,864
615,932; 1768,601;    0,100;    2,409
616,510; 1859,016;    0,554;    0,591
617,089; 2343,437;    7,100;   17,591
617,667; 1942,335;    2,372;    6,136
618,246; 1595,620;   -1,537;    1,318
618,824; 1713,190;   -3,355;   -0,955
619,402; 1702,378;   -2,900;   -1,773
619,981; 1822,563;   -0,173;   -1,045
620,559; 1767,591;    0,009;    1,682
621,137; 1803,902;   -0,718;    1,864
621,715; 1527,477;   -1,173;   -0,682
622,293; 1575,530;   -0,537;   -0,773
622,871; 1779,182;   -0,718;    0,500
623,450; 1622,117;    0,373;   -0,864
624,028; 1796,314;    0,191;   -0,955
624,606; 1737,878;   -1,718;    1,682
625,183; 1581,781;   -1,536;   -1,136
625,761; 1642,865;    1,009;    1,136
626,339; 2050,273;    1,373;    2,591
626,917; 1714,542;   -0,172;   -0,045
627,495; 1703,019;   -0,354;    1,318
628,073; 1729,283;   -0,263;    2,864
628,650; 1712,261;    0,100;    2,136
629,228; 1758,820;    0,373;    4,409
629,806; 1491,820;    2,282;    1,136
630,383; 1587,158;    1,464;   -0,318
630,961; 1583,186;    2,555;   -0,955
631,539; 1561,869;    2,464;    0,227
632,116; 2306,914;   11,373;   15,409
632,694; 1922,444;    2,555;    6,500
633,271; 1728,139;    0,828;    2,682
633,848; 1859,325;    1,828;    2,045
634,426; 1614,978;   -1,081;    1,773
635,003; 1470,460;    1,101;   -0,409
635,580; 1882,524;    1,192;    3,682
636,158; 1699,347;    3,737;    1,227
636,735; 1506,232;    0,555;   -0,500
637,312; 1526,447;   -0,809;   -0,682
637,889; 1531,851;   -4,354;   -0,682
638,466; 1512,847;   -3,990;   -0,409
639,043; 1522,653;    2,101;   -1,136
639,620; 1503,281;   -2,262;   -0,955
640,197; 1652,746;    1,100;    1,682
640,774; 1561,399;   -0,172;    1,136
641,351; 1643,052;    0,737;    1,136
641,928; 1750,433;   -0,627;    1,409
642,505; 1897,995;    0,828;   -0,500
643,082; 1740,648;   -1,718;    1,227
643,658; 1444,574;   -0,718;    1,500
644,235; 1523,228;    1,191;    2,500
644,812; 1726,699;    1,918;    0,773
645,388; 1674,807;   -0,991;    1,409
645,965; 1431,551;   -0,809;    1,682
646,542; 1438,568;   -1,445;   -0,227
647,118; 1926,312;    1,009;   -0,955
647,695; 1720,238;   -0,263;    1,136
648,271; 1490,255;   -0,536;    0,500
648,848; 1654,635;    0,736;    2,227
649,424; 1788,925;    0,827;    1,318
650,000; 1517,124;   -0,354;   -1,045
650,577; 1597,322;   -0,627;   -0,955
651,153; 1686,248;   -1,809;    0,955
651,729; 1645,174;    1,191;    0,864
652,305; 1980,737;    0,645;    2,773
652,881; 2252,753;   -0,082;    1,136
653,458; 2934,225;    1,100;    0,227
654,034; 3375,878;    0,282;    1,591
654,610; 3425,713;    0,554;    0,773
655,186; 3835,276;    0,645;    3,045
655,762; 3492,565;   -0,991;    0,409
656,338; 3458,400;    0,100;    0,136
656,913; 3705,872;   -0,082;    0,409
657,489; 3438,525;    0,827;   -0,318
658,065; 3540,087;   -0,173;   -1,591
658,641; 3727,559;   -0,900;   -0,864
659,217; 3521,030;   -0,991;    0,409
659,792; 3342,138;    0,645;   -0,409
660,368; 3384,427;   -2,173;   -0,682
660,944; 3533,899;   -2,082;    1,227
661,519; 3030,643;   -0,628;    0,409
662,095; 2312,751;   -1,719;    0,591
662,670; 1771,313;    1,281;   -0,136
663,246; 1740,694;    1,009;   -0,409
663,821; 1850,165;    0,281;    1,682
664,396; 1652,364;    0,009;    1,864
664,972; 1639,926;    0,009;   -0,500
665,547; 1789,943;    1,372;    0,136
666,122; 1724,869;   -1,082;    0,318
666,698; 1915,977;   -0,173;    0,318
667,273; 1584,721;   -0,173;    0,136
667,848; 1722,465;    2,372;    1,500
668,423; 1868,391;    2,190;    2,318
668,998; 1751,863;    2,827;   -0,682
669,573; 1773,698;   -3,264;   -1,500
670,148; 1957,533;   -1,446;   -0,682
670,723; 1663,095;   -1,810;    0,318
671,298; 2033,930;    2,372;    1,045
671,873; 1895,038;   -0,082;   -0,136
672,448; 1875,237;    0,645;    0,136
673,023; 1887,253;   -1,992;   -0,227
673,597; 2049,816;    0,827;    2,318
674,172; 2065,560;   -0,355;    0,318
674,747; 1925,395;    0,372;   -1,045
675,321; 1689,685;   -0,628;    3,318
675,896; 1577,883;    0,645;    1,045
676,471; 1824,627;    2,645;    1,591
677,045; 1729,917;   -1,264;    0,682
677,620; 1792,388;    0,190;    1,136
678,194; 1737,405;   -2,628;    1,136
678,769; 1752,695;   -1,083;   -0,318
679,343; 1832,894;   -0,628;    1,773
679,917; 1943,092;   -1,446;    1,955
680,492; 1764,018;    0,826;    3,227
681,066; 1813,581;    3,372;    0,409
681,640; 1771,325;    1,463;   -0,318
682,214; 1854,524;    0,735;    0,500
682,788; 1822,449;   -1,356;   -0,773
683,363; 1902,739;   -1,810;    1,682
683,937; 1750,029;   -1,719;   -0,318
684,511; 1912,864;    0,463;   -0,591
685,085; 1884,608;   -1,356;    0,318
685,659; 1743,352;   -2,538;    0,864
686,232; 2008,823;   -0,356;   -0,318
686,806; 1885,295;   -0,901;    0,409
687,380; 1887,221;   -0,174;    0,591
687,954; 1875,965;   -1,174;    1,136
688,528; 2064,800;   -0,719;    1,955
689,101; 2048,908;   -3,992;    1,045
689,675; 1860,198;   -0,356;   -0,136
690,249; 2006,669;   -0,719;    0,409
690,822; 2049,777;    0,280;    0,318
691,396; 1918,703;   -0,265;    1,227
691,969; 1796,265;    1,280;    0,136
692,543; 1831,646;   -0,447;   -1,955
693,116; 1668,572;   -0,265;   -1,409
693,690; 1759,588;    0,099;    0,500
694,263; 1836,787;   -1,083;    2,955
694,836; 2136,622;    1,371;    3,591
695,410; 1908,457;   -0,265;    1,773
695,983; 1916,292;    0,189;    0,591
696,556; 1765,673;   -0,447;   -1,045
697,129; 1769,781;   -0,356;    1,409
697,703; 1843,707;   -1,629;    1,955
698,276; 1821,542;    1,462;   -0,773
698,849; 1919,559;    1,280;    1,409
699,422; 1713,394;   -1,083;    0,591
699,995; 1595,956;    0,007;    0,136
700,568; 1786,700;   -0,629;    3,045
701,140; 1816,353;   -2,811;    1,682
701,713; 1949,825;   -0,174;    2,409
702,286; 1835,751;   -0,538;    0,864
702,859; 1873,586;   -0,902;   -0,591
703,432; 1862,875;    0,825;    0,682
704,004; 1800,620;    0,462;    0,318
704,577; 1637,455;   -0,629;    0,136
705,150; 1718,926;    0,189;    2,500
705,722; 1832,034;   -0,356;   -3,227
706,295; 1862,233;   -0,175;   -0,591
706,867; 1683,795;   -0,175;    1,955
707,440; 1872,266;   -1,720;   -0,409
708,012; 1962,192;    0,462;    0,591
708,584; 1796,664;    2,462;    0,227
709,157; 1716,953;    1,825;   -0,591
709,729; 1892,243;    2,280;    2,045
710,301; 1934,078;    0,734;    0,045
710,874; 1898,004;   -1,447;   -0,227
711,446; 1597,657;    0,371;    0,864
712,018; 1701,583;    0,098;    0,500
712,590; 1625,236;   -1,993;    1,682
713,162; 1970,799;    0,825;    1,318
713,734; 1786,816;    1,825;   -2,045
714,306; 1729,105;   -1,902;   -0,409
714,878; 1627,486;    0,825;    0,864
715,450; 1698,230;    0,643;    0,864
716,022; 1723,519;    1,552;    1,318
716,593; 1727,627;    0,189;    0,591
717,165; 1783,190;   -3,175;   -1,227
717,737; 1979,388;    0,280;    0,409
718,309; 1784,860;    0,280;   -0,045
718,880; 1703,968;   -0,539;   -1,409
719,452; 1804,075;   -0,175;   -1,591
720,024; 1805,092;    0,734;   -0,591
720,595; 1765,109;   -2,902;    0,955
721,167; 1689,126;    0,370;   -2,045
721,738; 1739,234;   -0,812;   -1,045
722,309; 1829,432;   -0,993;   -1,227
722,881; 1628,540;   -1,357;    0,773
723,452; 1786,830;   -2,630;    2,864
724,023; 1825,483;   -0,721;    2,682
724,595; 1873,409;    0,007;    0,682
725,166; 1672,971;    0,007;   -0,409
725,737; 1878,352;    1,734;    0,227
726,308; 1746,642;   -0,266;    0,318
726,879; 1635,022;   -1,630;    1,227
727,450; 1799,312;    0,552;   -0,045
728,021; 1673,147;    3,097;    0,682
728,592; 1852,527;    0,734;    0,500
729,163; 2003,908;    0,643;   -0,136
729,734; 1994,652;    0,188;   -0,227
730,305; 1815,396;    1,734;    0,136
730,876; 1789,958;    0,188;    2,955
731,447; 2160,884;    2,188;    2,682
732,017; 2020,810;    1,097;    1,864
732,588; 1864,191;    0,734;    1,227
733,159; 2061,299;    0,643;   -1,045
733,729; 1782,134;    0,006;    0,409
734,300; 1882,332;    0,915;    0,864
734,870; 1765,986;    3,461;    0,591
735,441; 1776,548;    0,370;   -0,591
736,011; 1672,110;    0,643;   -1,591
736,582; 1726,400;   -0,812;    0,045
737,152; 1773,144;   -1,721;   -2,045
737,722; 1794,161;   -0,267;   -0,682
738,293; 1641,905;   -1,358;    1,318
738,863; 1818,649;    2,461;    2,318
739,433; 2095,939;    5,279;    0,318
740,003; 1893,774;   -0,994;   -0,682
740,573; 1966,518;    2,097;   -1,591
741,143; 1877,717;   -1,085;    0,318
741,713; 1806,643;    1,188;   -0,500
742,283; 1817,660;    0,915;    1,591
742,853; 1718,040;    1,915;    1,591
743,423; 1545,875;    1,733;    0,045
743,993; 1643,347;   -0,358;    1,500
744,563; 1578,091;    0,097;   -0,864
745,133; 1637,290;   -0,812;   -0,864
745,702; 1653,034;   -0,267;    1,773
746,272; 1772,232;   -0,176;    0,591
746,842; 1778,340;   -1,358;   -0,591
747,411; 1630,175;   -0,267;   -0,318
747,981; 1544,192;    0,097;    0,500
748,551; 1565,754;    2,278;   -1,045
749,120; 1708,589;    0,642;   -0,227
749,690; 1696,697;   -0,631;    2,409
750,259; 1837,987;    1,369;    2,955
750,828; 1851,731;    1,551;   -1,955
751,398; 1675,021;    1,278;   -0,045
751,967; 2097,038;    2,187;    0,409
752,536; 1780,782;   -0,813;   -0,227
753,105; 1914,253;    0,096;    0,227
753,675; 1721,088;    0,096;    1,773
754,244; 1730,105;   -0,904;    3,591
754,813; 1752,758;    0,551;    1,227
755,382; 1676,502;    0,460;    0,955
755,951; 1834,428;    1,551;    3,682
756,520; 1894,445;   -0,085;    1,864
757,089; 2124,008;    0,278;    0,500
757,658; 1813,025;    1,733;    1,227
758,227; 1673,405;    1,096;    0,318
758,795; 1752,240;    1,187;    1,136
759,364; 1845,166;   -0,086;   -0,591
759,933; 1621,092;   -1,176;   -0,045
760,501; 1572,291;    0,733;   -1,318
761,070; 1724,671;   -2,813;   -1,409
761,639; 1870,597;   -1,904;    1,318
762,207; 1808,523;    1,551;   -0,955
762,776; 1864,086;    0,369;    0,864
763,344; 1718,102;   -0,995;    0,591
763,913; 1408,937;   -0,722;    1,409
764,481; 2059,136;    1,005;   -0,136
765,049; 2020,971;   -1,358;    1,409
765,618; 1906,806;   -0,086;    0,318
766,186; 1761,823;    0,278;    0,136
766,754; 1793,567;    0,005;    1,864
767,322; 1545,766;   -1,995;    0,409
767,890; 1512,147;   -0,722;   -1,773
768,459; 1628,163;   -2,177;   -0,318
769,027; 1857,544;    1,641;    3,409
769,595; 1612,379;    3,278;    2,591
770,163; 1662,305;    3,823;    2,955
770,730; 1663,686;    0,732;   -0,136
771,298; 1638,521;    0,187;   -1,409
771,866; 1607,810;   -1,541;    4,955
772,434; 1640,736;   -0,631;   -1,864
773,002; 1889,389;    0,005;    0,682
773,569; 1753,861;    0,914;    1,682
774,137; 1860,878;   -0,268;   -0,045
774,705; 1742,622;    0,278;   -0,136
775,272; 1589,366;    0,641;    0,682
775,840; 1683,747;   -0,177;    2,682
776,407; 1736,400;    0,277;    1,955
776,975; 1515,144;   -0,632;    0,318
777,542; 1597,252;   -1,086;   -0,045
778,110; 1607,905;   -1,268;   -0,045
778,677; 1453,922;   -2,359;   -0,864
779,244; 1525,575;    2,186;    1,045
779,812; 1705,501;    1,823;    0,864
780,379; 1765,700;    0,005;    1,136
780,946; 1625,808;    1,005;   -0,773
781,513; 1608,915;   -1,450;    0,318
782,080; 1487,205;   -0,086;    2,864
782,647; 1580,676;   -0,268;    3,045
783,214; 1520,421;   -0,177;    3,864
783,781; 1704,165;   -0,723;   -0,682
784,348; 1653,363;   -0,632;    1,500
784,915; 1463,017;   -3,177;    0,318
785,482; 1676,670;    1,368;    2,591
786,049; 1698,323;    0,186;   -0,591
786,615; 1589,976;    0,277;   -0,955
787,182; 1510,993;    0,186;   -0,682
787,749; 1487,192;   -2,814;    1,409
788,315; 1593,845;   -1,632;   -0,409
788,882; 1568,226;    1,550;   -1,227
789,448; 1877,424;    1,732;   -0,955
790,015; 1639,350;    1,095;    3,227
790,581; 1791,549;    1,459;    0,227
791,148; 1570,202;    0,641;    1,045
791,714; 1511,492;   -0,541;    3,136
792,280; 1499,327;    0,186;    1,591
792,847; 1434,253;    0,550;    2,500
793,413; 1528,452;   -0,269;   -0,318
793,979; 1660,650;    3,459;   -1,318
794,545; 2011,213;    4,459;    2,682
795,111; 1847,502;    2,186;    1,318
795,678; 1679,792;    0,731;   -1,682
796,244; 1865,445;    3,368;    0,136
796,810; 1767,371;    1,731;    0,773
797,375; 1747,115;    0,549;   -2,136
797,941; 1359,950;   -0,541;    0,591
798,507; 1338,422;   -0,451;   -0,955
799,073; 1367,530;   -0,360;    0,591
799,639; 1419,365;   -2,632;    3,136
800,205; 1370,109;    0,095;    2,682
800,770; 1353,307;    0,640;    1,773
801,336; 1329,506;    1,368;   -0,955
801,901; 1997,978;    4,549;    3,136
802,467; 1661,631;   -0,542;    2,045
803,033; 1353,193;   -0,087;    0,864
803,598; 1361,119;    1,913;   -1,045
804,163; 1400,045;    1,095;   -0,318
804,729; 1510,517;   -0,178;    1,136
805,294; 1431,170;    0,822;    2,227
805,859; 1310,096;    0,731;   -0,409
806,425; 1732,113;    1,186;    2,682
806,990; 1718,766;    2,186;    4,318
807,555; 1475,419;   -1,451;    2,591
808,120; 1649,072;    0,822;   -0,409
808,685; 1371,180;    0,185;   -2,500
809,250; 1227,106;    0,004;   -0,500
809,815; 1283,759;    1,913;    0,682
810,380; 1479,504;   -0,269;    1,591
810,945; 1650,157;   -1,087;    2,045
811,510; 1478,265;    2,094;    1,591
812,075; 1452,645;   -0,633;   -1,409
812,640; 1738,662;    2,003;    1,409
813,204; 1503,497;    0,822;   -0,227
813,769; 1693,696;    2,094;   -0,045
814,334; 1653,531;    0,458;    0,864
814,898; 1377,639;    0,367;    0,591
815,463; 1447,746;    1,276;   -0,773
816,027; 1363,581;   -0,724;   -2,318
816,592; 1331,417;    0,640;   -2,045
817,156; 1449,615;    2,094;    1,136
817,721; 1535,632;    4,276;    2,318
818,285; 1278,558;    2,912;    1,500
818,849; 1384,302;   -1,451;    1,682
819,414; 1290,137;   -0,269;    2,955
819,978; 1219,700;   -1,269;    1,773
820,542; 1636,807;    2,003;    0,500
821,106; 1441,915;   -0,815;    0,682
821,670; 1630,114;   -0,815;    2,591
822,234; 1380,585;   -0,270;    1,409
822,798; 1227,420;    0,003;    0,500
823,362; 1562,528;   -0,633;    4,227
823,926; 1289,091;    0,094;    1,136
824,490; 1517,926;   -0,997;   -0,682
825,054; 1406,033;   -0,088;   -1,136
825,618; 1244,959;   -1,542;   -1,500
826,181; 1297,794;    0,458;   -1,318
826,745; 1397,993;    1,367;   -1,045
827,309; 1679,555;    1,185;    1,318
827,872; 1531,390;    1,367;    0,955
828,436; 1433,680;    1,185;   -0,773
828,999; 1350,515;   -0,997;    1,227
829,563; 1300,168;   -0,179;    1,136
830,126; 1266,913;   -0,179;   -0,591
830,690; 1306,929;   -1,997;    2,864
831,253; 1205,037;   -0,543;    2,227
831,816; 1270,145;   -1,906;    0,500
832,380; 1190,889;    0,185;    0,864
832,943; 1199,361;   -1,361;   -0,500
833,506; 1218,832;    2,639;   -1,227
834,069; 1433,485;    3,912;   -0,955
834,632; 1292,684;    1,730;    1,318
835,195; 1312,792;    1,003;    0,955
835,758; 1221,900;   -0,997;    1,955
836,321; 1177,462;    0,730;   -1,045
836,884; 1177,115;   -0,725;   -0,955
837,447; 1149,950;   -2,816;    1,773
838,010; 1330,603;    0,366;    3,227
838,573; 1368,075;   -1,179;    0,773
839,135; 1256,092;   -1,361;   -0,955
839,698; 1234,018;    1,275;    0,409
840,261; 1171,671;    1,003;   -0,227
840,823; 1126,506;   -0,543;    0,864
841,386; 1110,068;   -0,452;   -2,409
841,948; 1493,358;   -1,361;    1,773
842,511; 1203,920;    0,912;    1,682
843,073; 1464,846;    1,912;    0,227
843,636; 1174,500;   -0,361;   -0,227
844,198; 1418,516;    0,911;    0,591
844,760; 1380,442;    1,093;    1,955
845,322; 1136,823;    0,548;    1,136
845,885; 1295,385;    0,730;    0,591
846,447; 1243,402;   -1,998;    0,227
847,009; 1606,874;    1,911;   -0,682
847,571; 1267,436;    0,820;   -2,045
848,133; 1218,362;   -1,089;   -1,864
848,695; 1070,015;   -0,543;    1,409
849,257; 1163,941;   -1,089;   -1,682
849,819; 1346,685;   -0,998;   -0,409
850,381; 1191,429;   -0,725;   -0,864
850,942; 1275,446;    1,093;   -0,591
851,504; 1326,736;    1,184;    0,227
852,066; 1203,844;    1,275;   -1,591
852,628; 1221,588;   -0,180;    1,955
853,189; 1056,605;    1,638;    2,682
853,751; 1105,076;   -0,907;    1,409
854,312; 1302,184;   -0,453;   -1,682
854,874; 1461,564;   -2,089;   -0,773
855,435; 1230,581;   -0,907;   -1,682
855,997; 1334,780;   -1,816;   -0,136
856,558; 1397,888;    0,366;    1,773
857,119; 1258,359;    0,820;    2,864
857,681; 1084,285;    0,002;    0,318
858,242; 1362,029;    1,911;   -2,136
858,803; 1395,137;    0,456;   -0,773
859,364; 1277,790;    0,184;   -4,773
859,925; 1341,898;   -2,453;   -0,955
860,486; 1224,370;   -0,453;   -0,955
861,047; 1089,477;   -0,544;   -1,227
861,608; 1144,403;   -1,089;   -0,773
862,169; 1054,511;    0,638;   -0,045
862,730; 1148,710;    0,456;    1,409
863,291; 1204,272;   -0,635;   -0,500
863,852; 1173,471;   -0,635;    1,955
864,412; 1128,488;   -0,271;   -0,864
864,973; 1355,141;   -0,089;    0,500
865,534; 1522,703;   -1,726;    0,227
866,094; 1288,266;    1,820;    0,227
866,655; 1424,737;    1,274;    3,318
867,215; 1252,209;    0,274;    0,136
867,776; 1116,225;    0,547;   -0,136
868,336; 1187,333;   -1,453;    0,136
868,897; 1612,532;    2,638;    1,682
869,457; 1369,003;    1,365;    0,318
870,017; 1154,657;    0,547;   -1,227
870,578; 1156,492;   -0,817;    0,773
871,138; 1171,781;   -2,089;   -0,955
871,698; 1056,980;   -0,817;   -1,318
872,258; 1210,088;   -0,453;   -2,864
872,818; 1431,196;    2,729;    0,045
873,378; 1219,758;    0,638;    1,045
873,938; 1155,866;    0,547;    0,500
874,498; 1050,246;    0,274;   -1,955
875,058; 1124,809;    2,183;    1,773
875,618; 1133,371;    1,910;   -2,682
876,177; 1186,933;    1,274;    0,136
876,737;  959,496;   -0,090;    1,955
877,297; 1423,240;    0,183;    1,955
877,856; 1337,438;   -0,362;    0,318
878,416; 1059,546;    1,183;   -0,136
878,976; 1034,927;   -1,817;    0,409
879,535; 1084,853;    0,092;    3,136
880,095; 1077,688;   -0,544;    0,045
880,654;  977,341;   -1,090;    1,318
881,213; 1344,994;    2,456;    1,500
881,773; 1155,284;    2,637;    2,682
882,332; 1769,755;    3,365;    5,136
882,891; 1146,408;    3,092;    2,136
883,451; 1157,062;   -1,272;    1,682
884,010; 1068,079;   -2,908;   -0,409
884,569; 1015,823;   -0,999;   -0,045
885,128; 1256,112;    2,819;   -1,864
885,687; 1574,947;    4,455;    0,682
886,246; 1743,692;    1,455;    2,136
886,805; 1451,527;    2,455;    2,045
887,364; 1078,271;   -0,999;   -0,500
887,922;  985,651;   -1,181;    0,045
888,481; 1187,850;   -1,545;    0,591
889,040; 1328,412;    1,183;    2,136
889,599; 1169,429;    2,455;    1,409
890,157; 1174,082;    1,455;    2,409
890,716; 1099,918;   -0,090;    0,227
891,274; 1210,389;    0,092;   -1,136
891,833; 1317,951;    1,546;    0,864
892,391; 1144,423;   -0,454;    0,500
892,950; 1312,621;    1,819;   -0,773
893,508; 1088,366;    0,455;   -0,409
894,067;  943,564;    0,637;    0,136
894,625; 1075,036;   -0,636;   -1,500
895,183; 1034,234;   -0,363;   -0,682
895,741; 1374,524;    1,728;   -1,773
896,299; 1134,359;   -0,545;   -2,409
896,858; 1048,285;    0,819;   -1,591
897,416; 1178,847;    2,728;   -1,318
897,974; 1100,137;    1,819;    0,318
898,532; 1619,245;    6,091;    2,682
899,089; 1250,171;    2,091;   -0,682
899,647; 1125,279;   -1,454;    1,318
900,205; 1164,205;    1,182;    1,045
900,763; 1158,949;   -0,454;    0,227
901,321; 1117,602;    2,364;   -1,409
901,878;  910,528;   -1,000;   -0,773
902,436;  994,545;   -1,363;    1,318
902,994; 1842,562;    4,728;    3,682
903,551; 1313,215;    0,728;    0,409
904,109; 1173,050;    0,182;   -1,409
904,666; 1098,340;    2,455;    1,045
905,224;  961,447;    0,182;   -0,409
905,781; 1150,646;    0,727;   -0,318
906,338; 1062,117;   -1,363;    1,045
906,895;  932,862;    0,637;    2,045
907,453; 1242,788;    1,727;    1,136
908,010; 1083,623;   -0,909;    0,409
908,567; 1038,003;    1,273;    0,591
909,124;  841,929;    0,364;   -1,500
909,681;  915,037;   -2,909;    0,682
910,238;  980,872;    0,636;   -1,318
910,795;  916,253;   -0,273;   -1,136
911,352;  932,889;   -2,909;   -2,682
911,909;  949,616;   -1,364;   -0,864
912,466;  992,798;   -3,182;    1,500
913,022; 1036,707;   -1,636;    0,500
913,579; 1144,434;   -0,909;    2,045
914,136; 1003,616;    1,636;    0,955
914,692; 1047,071;    0,091;   -1,227
915,249; 1010,253;    1,455;    0,409
915,806; 1097,253;    0,182;    1,955
916,362;  999,434;    1,909;    1,864
916,918;  918,071;    2,000;    1,045
917,475; 1130,162;   -1,182;    0,955
918,031;  932,616;    3,364;   -0,045
918,587;  999,616;   -0,909;   -0,318
919,144;  895,707;   -2,273;    0,227
919,700;  834,707;    1,727;    0,773
920,256;  820,707;    0,727;    0,045
920,812;  877,707;   -0,727;   -1,045
921,368;  833,253;   -1,727;   -1,045
921,924;  829,525;    0,182;   -0,136
922,480;  933,798;   -0,545;    1,227
923,036;  955,434;    1,273;    1,955
923,592;  840,980;    0,455;    0,318
924,148;  881,707;    0,455;   -0,955
924,704; 1036,071;   -1,364;   -0,409
925,259;  844,980;   -0,273;    0,591
925,815;  812,707;    1,455;    0,500
926,371;  775,889;    2,909;    1,409
926,926;  949,162;    2,091;    0,591
927,482;  922,889;   -1,364;    0,773
928,037;  838,980;    0,909;    2,045
928,593; 1054,980;    1,636;    1,045
929,148;  782,071;   -1,818;   -1,500
929,704;  854,889;   -1,455;   -0,500
930,259;  744,980;    0,091;   -0,136
930,814;  965,889;   -0,818;    1,955
931,369;  886,980;    1,091;   -0,773
931,925;  672,343;   -0,091;    0,136
932,480;  794,889;   -2,818;   -2,591
933,035; 1188,980;    0,545;   -0,318
933,590; 1059,343;    0,364;   -1,773
934,145;  647,253;   -1,364;   -0,318
934,700;  545,889;    0,455;   -0,591
935,255;  618,525;   -0,091;    0,045
935,809;  973,889;    3,182;    0,864
936,364;  580,889;   -0,455;   -0,136
936,919;  583,798;    0,455;   -1,773
937,474;  499,434;    1,455;    0,136
938,028;  524,707;   -1,636;    1,136
938,583;  951,798;    1,818;    4,682
939,138;  585,707;    2,091;    2,136
939,692;  450,889;    1,636;   -1,136
940,247;  507,616;   -0,727;   -1,045
940,801;  567,980;   -0,636;    0,227
941,355;  458,071;   -0,364;    2,591
941,910;  361,071;   -0,273;   -2,136
942,464;  397,707;   -0,818;   -0,318
943,018;  665,525;    1,000;   -0,227
943,572;  482,616;    2,545;   -0,682
944,126;  541,071;    0,091;   -0,409
944,681;  421,162;    3,091;    0,227
945,235;  366,889;    1,000;   -0,591
945,789;  319,798;    0,364;   -1,864
946,342;  622,434;    0,455;   -0,591
946,896;  369,434;   -2,273;    0,955
947,450;  349,889;    1,545;   -0,227
948,004;  606,253;    1,727;   -0,045
948,558;  410,343;    0,273;   -0,864
949,111;  406,525;   -0,273;   -0,318
949,665;  611,253;    1,636;   -0,682
950,219;  559,980;   -0,091;   -1,045
950,772;  485,343;   -1,909;    1,864
951,326;  472,071;    0,545;   -0,955
951,879;  396,071;    0,727;   -2,318
952,433;  533,798;    0,000;    2,227
952,986;  368,253;    2,909;    0,682
953,539;  323,071;   -0,273;    0,591
954,093;  274,889;    0,545;   -1,318
954,646;  419,616;    0,909;    1,318
955,199;  344,162;    0,000;   -0,500
955,752;  557,798;   -0,455;    1,773
956,305;  399,889;   -0,091;    2,955
956,858;  446,162;    0,818;   -0,318
957,411;  507,889;   -0,545;    2,136
957,964;  413,434;    1,364;    2,136
958,517;  330,525;   -1,545;    3,136
959,070;  290,434;   -0,455;    1,955
959,623;  568,889;    1,091;    1,500
960,176;  517,343;    1,727;    2,045
960,728;  481,343;   -2,727;    0,773
961,281;  415,071;    0,545;    0,500
961,834;  335,980;   -0,909;    0,864
962,386;  352,253;    1,727;    1,045
962,939;  314,616;    0,364;   -0,318
963,491;  361,889;    0,455;    1,136
964,043;  298,253;    1,182;    2,409
964,596;  475,889;   -1,000;    2,227
965,148;  384,798;   -1,000;    1,773
965,700;  295,798;    1,091;   -0,227
966,253;  460,434;   -0,636;    0,318
966,805;  416,889;   -2,273;    0,773
967,357;  344,980;    1,091;   -1,500
967,909;  458,798;    0,455;   -1,227
968,461;  343,434;    0,545;    3,136
969,013;  297,162;   -0,182;   -0,864
969,565;  451,525;   -0,455;   -1,136
970,117;  692,889;   -0,364;    1,045
970,669;  455,525;    0,182;   -0,136
971,220;  251,253;   -0,455;   -1,500
971,772;  339,798;   -0,636;   -0,318
972,324;  439,071;    0,091;   -0,500
972,876;  345,707;    0,818;   -0,045
973,427;  466,434;    1,909;   -1,045
973,979;  529,798;   -0,727;   -2,500
974,530;  332,434;    1,818;    1,318
975,082;  394,525;   -0,545;    1,682
975,633;  338,071;    1,091;    1,682
976,184;  394,525;    0,909;    0,773
976,736;  390,253;    0,091;    0,227
977,287;  409,798;   -0,909;   -0,500
977,838;  364,162;    0,909;   -0,318
978,389;  373,980;   -1,000;   -0,500
978,940;  244,162;    0,545;   -0,409
979,491;  240,343;    0,091;   -0,500
980,042;  342,343;    0,182;    3,045
980,593;  345,707;   -2,545;    0,227
981,144;  438,707;    2,545;   -0,500
981,695;  477,616;    1,455;    1,500
982,246;  428,434;   -0,273;    1,045
982,797;  295,707;   -1,727;    0,682
983,347;  436,253;    0,364;    0,591
983,898;  638,707;    3,091;    0,409
984,449;  595,253;    2,182;    0,773
984,999;  428,253;    1,455;   -1,136
985,550;  393,707;    0,182;   -0,318
986,100;  255,525;   -0,455;   -0,318
986,651;  249,616;   -0,818;    0,045
987,201;  283,525;   -1,000;   -0,591
987,751;  294,798;    0,818;    2,864
988,302;  338,889;    2,636;    1,500
988,852;  383,071;    0,455;   -1,136
989,402;  440,798;    0,091;    0,682
989,952;  468,343;   -2,182;    0,864
990,502;  314,162;   -0,091;    0,682
991,052;  219,343;   -0,727;    0,045
991,602;  276,525;   -2,909;    1,318
992,152;  328,434;    0,455;    0,682
992,702;  362,889;    1,364;   -0,045
993,252;  302,707;   -3,000;   -0,500
993,802;  394,253;   -0,273;    1,318
994,352;  355,980;   -1,545;    1,136
994,901;  260,434;   -0,182;    3,227
995,451;  247,980;   -0,182;    0,318
996,000;  282,162;    1,636;    0,318
996,550;  297,889;    2,273;    0,227
997,100;  338,707;    1,273;   -0,045
997,649;  473,798;    2,182;    0,955
998,198;  296,889;    1,727;   -1,500
998,748;  405,798;    1,091;   -2,318
999,297;  341,889;   -0,818;   -0,409
999,846;  469,071;    1,000;   -0,773
1000,395;  379,071;   -0,818;    0,500
1000,945;  493,162;    1,818;   -0,773
1001,494;  484,525;    2,364;    0,682
1002,043;  475,253;    4,636;    0,864
1002,592;  294,253;   -1,091;    1,955
1003,141;  286,071;   -0,455;   -0,682
1003,690;  448,798;    1,727;    0,500
1004,238;  329,980;    1,455;   -0,045
1004,787;  253,434;    1,364;    1,227
1005,336;  424,343;    0,364;    0,682
1005,885;  372,071;    1,364;   -2,773
1006,433;  367,434;    0,545;    0,955
1006,982;  556,707;    0,455;    1,682
1007,531;  397,889;   -1,818;   -0,227
1008,079;  354,162;   -2,273;    0,500
1008,627;  289,798;   -1,455;    0,409
1009,176;  316,253;    0,000;   -1,955
1009,724;  266,707;    1,091;    0,864
1010,273;  414,434;    1,273;    0,500
1010,821;  296,253;    0,091;    1,409
1011,369;  257,071;   -1,364;    1,318
1011,917;  276,253;   -1,364;   -0,591
1012,465;  360,707;    1,273;   -1,591
1013,013;  345,616;    2,091;   -1,682
1013,561;  444,525;    0,455;   -0,773
1014,109;  545,889;   -1,909;    1,682
1014,657;  416,707;    0,364;    0,591
1015,205;  312,434;    1,636;   -0,955
1015,753;  260,343;   -0,545;   -1,409
1016,301;  338,798;   -2,636;    3,045
1016,848;  409,343;   -1,273;    0,409
1017,396;  407,525;    2,545;    0,045
1017,944;  406,707;    1,182;    1,864
1018,491;  315,343;    0,273;    1,409
1019,039;  621,434;    0,455;    0,591
1019,586;  379,162;   -1,364;    1,682
1020,134;  362,253;    0,455;    1,500
1020,681;  440,616;    0,182;   -1,136
1021,228;  351,162;    2,909;   -2,227
1021,776;  332,980;    1,182;   -1,136
1022,323;  555,616;    0,455;    0,773
1022,870;  463,071;   -1,000;   -0,045
1023,417;  511,071;    2,636;    1,864
1023,964;  343,343;    2,636;    1,227
1024,511;  317,253;    1,000;    0,773
1025,058;  353,253;    3,182;   -0,045
1025,605;  309,434;   -2,273;    3,136
1026,152;  514,616;    1,727;   -0,591
1026,699;  373,253;    1,818;    1,318
1027,245;  356,071;   -0,091;    0,318
1027,792;  291,616;   -1,000;    1,409
1028,339;  514,253;    2,364;   -0,045
1028,885;  376,343;    1,000;   -0,227
1029,432;  328,343;   -0,091;    0,227
1029,978;  433,798;   -1,000;   -1,591
1030,525;  426,343;    1,000;    0,409
1031,071;  297,889;   -1,364;    1,136
1031,618;  572,071;    0,364;    1,682
1032,164;  407,798;   -0,091;    3,045
1032,710;  453,616;    1,636;   -1,500
1033,256;  415,798;   -0,636;   -0,136
1033,803;  283,616;   -0,545;    1,500
1034,349;  158,434;   -1,364;    0,136
1034,895;  200,071;    0,000;   -0,318
1035,441;  274,980;   -0,818;    0,318
1035,987;  322,798;   -2,364;   -0,682
1036,533;  397,616;   -1,455;   -0,955
1037,078;  583,616;    1,455;    1,682
1037,624;  435,707;    2,455;   -0,955
1038,170;  309,343;    0,455;   -0,318
1038,716;  391,798;    1,636;   -0,409
1039,261;  275,525;   -2,273;   -0,773
1039,807;  288,889;   -0,091;    3,409
1040,352;  318,071;   -1,909;   -0,318
1040,898;  305,980;   -1,545;   -0,682
1041,443;  236,343;   -1,455;   -2,591
1041,989;  533,253;    1,091;    1,591
1042,534;  340,798;   -0,364;    2,591
1043,079;  227,889;    2,909;    0,955
1043,625;  344,616;    1,818;    0,500
1044,170;  352,889;   -1,364;    1,045
1044,715;  541,162;    2,455;    0,955
1045,260;  437,162;    2,182;   -0,955
1045,805;  291,253;    1,182;   -0,591
1046,350;  259,343;    1,364;   -0,409
1046,895;  440,343;    2,909;    1,591
1047,440;  429,616;    5,364;    0,409
1047,985;  305,434;    2,818;   -0,955
1048,530;  275,071;    1,545;    1,227
1049,074;  333,434;    0,000;    0,318
1049,619;  269,889;   -1,364;    1,955
1050,164;  261,707;    0,455;    0,227
1050,708;  345,434;   -0,455;    0,045
1051,253;  573,798;    1,273;   -2,227
1051,797;  381,162;    0,818;   -1,318
1052,342;  225,343;   -1,182;    1,045
1052,886;  318,253;    0,364;   -1,409
1053,430;  214,889;   -1,364;    0,136
1053,975;  307,343;   -0,818;   -0,318
1054,519;  311,253;   -0,727;    3,227
1055,063;  372,253;    0,909;    1,318
1055,607;  362,616;   -0,182;    0,227
1056,151;  355,434;    2,909;    1,682
1056,695;  270,071;    2,273;   -1,136
1057,239;  261,707;   -1,727;   -0,682
1057,783;  310,889;    0,818;   -1,500
1058,327;  375,162;    0,000;    1,409
1058,871;  519,162;   -0,545;    1,318
1059,415;  395,434;   -0,818;   -0,045
1059,958;  537,162;    1,455;    2,591
1060,502;  310,071;   -1,000;   -0,773
1061,046;  217,434;    0,364;   -0,955
1061,589;  204,980;   -3,000;   -1,136
1062,133;  175,707;   -1,273;    1,864
1062,676;  223,162;    1,182;    0,864
1063,220;  260,889;    1,091;    0,500
1063,763;  285,616;    0,909;    1,136
1064,306;  306,525;   -0,909;    1,864
1064,849;  304,162;   -0,909;    0,591
1065,393;  278,889;    2,000;   -1,500
1065,936;  282,162;    0,182;   -0,409
1066,479;  205,343;   -1,455;    1,318
1067,022;  230,071;   -0,273;   -0,227
1067,565;  203,616;   -0,091;   -1,318
1068,108;  180,071;    0,727;   -0,591
1068,651;  159,616;   -0,636;    1,409
1069,194;  167,525;   -0,455;   -1,682
1069,736;  194,889;   -1,273;    0,955
1070,279;  165,434;   -1,364;   -0,500
1070,822;  247,071;   -2,000;   -0,318
1071,364;  373,162;   -0,364;    1,318
1071,907;  234,525;   -0,727;    3,227
1072,450;  103,434;    0,000;   -0,045
1072,992;  176,343;   -0,273;    3,136
1073,535;  246,707;    2,091;    2,136
1074,077;  168,980;   -0,727;    2,045
1074,619;  160,980;   -1,364;    0,591
1075,161;  190,434;   -1,091;    1,500
1075,704;  305,980;    1,545;    1,227
1076,246;  184,162;   -0,182;    0,682
1076,788;  126,071;   -0,364;    1,773
1077,330;  125,889;    1,273;    2,136
1077,872;  168,616;    0,909;    0,955
1078,414;  328,253;    2,727;    0,773
1078,956;  193,616;    1,273;   -0,227
1079,498;  326,889;    1,636;    0,318
1080,040;  193,071;    1,909;   -1,318
1080,581;  157,343;    1,636;   -0,318
1081,123;  101,798;    0,091;   -0,773
1081,665;  115,343;   -1,182;   -0,955
1082,206;  292,071;    1,364;   -0,500
1082,748;  214,434;    0,727;    2,045
1083,289;  134,434;   -2,000;    1,318
1083,831;  123,798;   -0,545;    0,227
1084,372;  165,798;    0,000;    0,591
1084,913;  164,253;    1,091;    0,864
1085,455;  124,071;   -1,909;   -2,045
1085,996;  113,253;   -2,273;    0,136
1086,537;  140,889;   -0,091;    0,864
1087,078;  152,525;   -0,909;   -2,136
1087,619;  200,889;   -1,273;    0,227
1088,160;  165,980;    0,000;    1,318
1088,701;  150,616;   -1,091;    0,682
1089,242;  130,343;    1,364;   -2,227
1089,783;  179,162;   -0,273;    1,409
1090,324;  157,889;    0,455;    0,682
1090,865;  110,798;    2,727;   -0,409
1091,405;   84,071;    0,727;    2,227
1091,946;  124,343;    0,182;   -0,955
1092,487;   80,253;    0,818;   -1,409
1093,027;  181,343;   -1,364;   -1,500
1093,568;  125,525;   -0,364;    1,227
1094,108;  155,253;    0,273;    1,773
1094,649;  128,343;   -1,182;    0,136
1095,189;   96,616;   -0,636;   -0,682
1095,729;   96,798;   -0,091;    0,955
1096,269;   81,980;    0,727;   -0,955
1096,810;  227,343;   -1,364;    0,500
1097,350;  165,162;    1,364;   -0,773
1097,890;  124,343;    0,364;    1,227
1098,430;  280,162;    2,364;    2,864
1098,970;  215,162;    2,182;    1,682
1099,510;  109,253;    0,545;   -2,318
1100,050;   96,798;    1,000;   -1,591
1100,589;  105,071;   -0,727;   -0,318
1101,129;  151,798;    0,818;   -0,955
1101,669;  224,889;    1,727;    2,136
1102,209;  154,889;   -0,091;    2,227
1102,748;  122,798;    0,000;    0,955
1103,288;  129,980;    1,273;   -1,227
1103,827;  122,798;    3,091;   -2,227
1104,367;   92,253;   -0,091;   -2,409
1104,906;   92,343;    1,364;   -1,136
1105,445;  130,525;    0,636;   -1,136
1105,985;  109,434;   -0,727;    1,500
1106,524;  118,343;   -1,727;   -0,682
1107,063;  104,980;   -2,727;    1,409
1107,602;   86,253;   -1,909;   -1,500
1108,141;   71,798;   -1,909;    1,500
1108,680;  134,798;   -3,455;   -0,591
1109,219;  104,434;   -0,909;   -0,500
1109,758;   95,162;    0,455;    0,682
1110,297;   90,889;    1,000;   -0,682
1110,836;   67,798;   -0,727;    0,955
1111,375;   98,434;   -2,545;    0,409
1111,913;  132,162;   -1,000;    0,773
1112,452;  108,071;   -0,273;    0,136
1112,991;   64,889;    1,091;    1,955
1113,529;   67,071;   -0,818;   -0,045
1114,068;   88,980;   -0,273;    2,955
1114,606;   62,434;   -0,364;   -0,955
1115,144;  118,434;   -1,273;    1,045
1115,683;   92,071;   -0,727;    0,318
1116,221;  123,253;   -0,455;   -0,864
1116,759;   79,343;    0,636;   -0,864
1117,297;  145,343;    0,000;    1,864
1117,836;   83,162;   -2,182;   -1,227
1118,374;   83,980;    0,182;   -0,682
1118,912;   85,253;    0,909;    2,682
1119,450;   82,980;    1,000;    0,864
1119,988;   80,707;    1,545;    2,136
1120,525;  324,889;    5,091;    3,318
1121,063;  165,616;    1,182;    1,864
1121,601;   78,434;   -0,909;   -1,227
1122,139;   66,434;   -0,727;   -2,045
1122,676;  158,434;   -0,727;    2,773
1123,214;  134,253;   -1,182;    4,409
1123,751;   59,707;    1,727;    2,227
1124,289;   90,343;   -0,091;   -0,409
1124,826;   66,616;    1,727;    0,227
1125,364;   32,253;    1,727;   -0,955
1125,901;  127,889;    1,182;    1,227
1126,438;  135,343;    0,818;    0,955
1126,975;   38,343;   -0,727;   -0,773
1127,513;   57,434;    0,273;    2,136
1128,050;   39,071;    1,636;   -0,682
1128,587;   69,798;    2,000;   -0,227
1129,124;   89,253;    0,091;    1,318
1129,661;   47,162;    0,273;    0,227
1130,198;  112,889;    1,636;    0,773
1130,734;   80,434;    0,182;    1,409
1131,271;   37,253;   -0,909;    0,864
1131,808;   95,071;    2,909;    3,045
1132,345;   59,253;    1,545;    0,318
1132,881;   19,707;   -1,545;   -1,864
1133,418;   66,525;    0,727;   -1,136
1133,954;   44,525;    2,455;   -2,682
1134,491;   69,798;    1,364;   -0,773
1135,027;   39,707;    2,364;    0,864
1135,564;   64,434;    0,273;    2,955
1136,100;   61,162;    0,364;    2,136
1136,636;   30,434;   -1,273;   -1,045
1137,172;   50,798;    0,000;   -1,045
1137,708;   36,253;   -1,364;   -1,045
1138,245;   32,616;    1,273;   -1,227
1138,781;   23,162;    1,091;   -3,318
1139,317;   39,980;    1,273;   -1,409
1139,852;   52,071;    3,091;    0,136
1140,388;   76,162;   -1,182;   -0,409
1140,924;   42,980;   -1,091;   -2,227
1141,460;   22,434;   -1,636;    0,136
1141,996;   11,525;   -1,364;    2,682
1142,531;   20,343;    1,364;    3,318
1143,067;   92,071;    1,182;    1,045
1143,602;  120,980;   -0,091;   -0,318
1144,138;   59,616;   -2,636;    1,045
1144,673;   21,525;   -1,455;    1,409
1145,209;   36,071;   -1,909;   -0,318
1145,744;   15,162;   -0,727;    0,864
1146,279;   53,980;    1,818;   -0,136
1146,815;   30,434;    1,545;   -2,682
1147,350;   43,798;   -1,364;    0,045
1147,885;   22,343;   -0,818;   -1,318
1148,420;   21,525;   -2,273;    0,773
1148,955;   18,253;   -1,727;    1,864
1149,490;   28,253;   -0,909;   -1,591
1150,025;   19,253;    0,455;   -1,773
1150,560;   49,253;    1,091;   -0,955
1151,094;   39,071;    1,455;   -0,591
1151,629;   41,889;    1,636;    0,864
1152,164;   24,980;    1,364;    1,318
1152,698;   17,707;   -0,182;   -0,136
1153,233;    9,525;    0,091;   -0,682
1153,767;   13,707;   -3,000;   -2,318
1154,302;   26,434;   -1,455;    1,773
1154,836;   27,889;   -0,455;   -2,136
1155,371;   37,253;   -1,364;    3,682
1155,905;   23,707;   -0,636;    1,682
1156,439;   23,343;   -0,636;   -0,500
1156,973;   29,798;    0,364;    0,318
1157,507;   15,798;   -0,364;    0,682
1158,042;   19,707;   -0,727;    1,045
1158,576;   29,707;    0,182;    1,773
1159,110;   29,889;   -0,818;    2,409
1159,643;   24,616;    0,636;   -0,045
1160,177;   12,253;   -1,545;    1,500

