
Integration time [ms]:   0,040
Averaging Nr. [scans]: 11
Smoothing Nr. [pixels]: 0
Data measured with spectrometer [name]: 7318044SP
Wave   ;Sample   ;Dark     ;Reference
[nm]   ;[counts] ;[counts] ;[counts] 

186,757;   35,717;   31,551;    1,318
187,357;   44,119;   22,551;    0,955
187,958;   28,060;   15,460;   -1,591
188,558;   42,700;    8,915;   -1,227
189,159;   26,236;    6,733;   -4,500
189,759;   16,133;    7,278;   -3,591
190,360;   12,387;    2,824;   -2,136
190,960;   24,082;    2,915;   -4,136
191,560;   36,766;    3,189;   -6,591
192,161;  149,061;    4,372;   -3,500
192,761;   84,640;    4,010;   -3,227
193,361;   55,021;    1,556;   -3,773
193,962;   72,540;    2,010;   -2,682
194,562;   32,527;    1,189;   -3,955
195,162;   32,829;   -2,448;   -2,227
195,762;  102,170;   -3,176;   -0,045
196,362;   71,276;    1,370;   -2,500
196,963;   23,793;    2,006;   -0,864
197,563;   52,799;    1,551;   -0,955
198,163;   26,202;    0,096;   -0,682
198,763;   30,873;    1,733;   -0,500
199,363;   65,078;    3,096;   -0,500
199,963;   46,542;    0,369;    0,409
200,563;   40,205;    2,823;   -1,409
201,163;   30,531;    3,277;   -0,227
201,763;   59,942;    3,732;    0,318
202,363;   35,927;    1,459;    1,500
202,963;   61,529;    1,459;    1,045
203,563;  110,253;    0,277;    0,500
204,162;   52,288;    2,096;   -1,864
204,762;   49,940;    0,550;    0,591
205,362;   32,787;    3,004;    1,955
205,962;   67,159;    3,096;    1,955
206,562;   61,347;    1,823;    2,318
207,161;   48,034;   -0,087;    0,318
207,761;  129,532;    1,277;    2,409
208,361;   62,760;   -0,268;    1,409
208,960;   92,764;    0,459;    1,500
209,560;   90,694;    1,277;    1,591
210,160;  110,298;    0,550;    1,864
210,759;   85,212;    4,186;    1,227
211,359;   67,735;    1,459;    1,045
211,958;  202,506;    1,277;    2,045
212,558;  216,726;    1,732;    1,864
213,157;  140,022;    1,822;    1,500
213,757;  335,970;    3,822;   -0,227
214,356;  184,559;    1,277;   -0,409
214,956;  334,482;    3,095;    0,409
215,555;  158,014;    2,095;    2,136
216,154;  121,744;   -2,723;   -0,591
216,754;  117,363;    0,277;    0,773
217,353;  152,175;   -0,268;   -1,045
217,952;   65,833;   -0,178;    0,318
218,552;  198,387;    1,368;   -0,773
219,151;  133,314;    0,277;    0,955
219,750;  124,851;    0,004;   -0,227
220,349;  111,610;   -0,451;    1,045
220,948;  226,824;   -1,360;    1,136
221,548;  143,152;    0,913;    1,227
222,147;  190,293;   -0,087;   -0,409
222,746;  346,980;   -0,451;   -0,955
223,345;  238,933;    0,731;    0,500
223,944;  242,035;   -0,451;    0,773
224,543;  275,102;    1,004;   -1,409
225,142;  301,561;    0,094;    0,136
225,741;  277,276;   -0,814;    1,045
226,340;  256,777;   -0,451;   -0,955
226,939;  416,548;   -0,996;   -0,136
227,538;  258,616;   -0,360;   -0,773
228,137;  421,656;   -0,814;    0,864
228,735;  372,829;   -0,541;    1,227
229,334;  238,721;   -0,905;   -0,227
229,933;  473,471;    0,459;    0,591
230,532;  506,093;    1,186;   -0,409
231,131;  600,934;    1,732;    0,318
231,729;  455,973;   -2,450;   -2,318
232,328;  371,762;   -0,723;   -1,500
232,927;  385,969;    1,004;   -0,500
233,525;  368,616;    3,640;    0,045
234,124;  441,545;    2,368;   -1,591
234,723;  342,342;    0,913;   -1,045
235,321;  354,390;    2,277;    0,136
235,920;  418,436;    1,186;   -1,227
236,518;  623,756;    3,459;    0,318
237,117;  420,703;    0,004;   -0,227
237,715;  439,636;    0,640;   -0,500
238,314;  517,301;   -0,087;   -2,318
238,912;  702,395;   -0,723;   -1,409
239,510;  551,087;    0,459;   -1,227
240,109;  705,993;    0,004;    3,773
240,707;  646,761;   -0,996;    1,227
241,305;  479,917;    0,550;    0,136
241,904;  630,826;   -0,178;   -2,045
242,502;  751,398;   -0,632;   -0,227
243,100;  620,345;   -0,087;   -0,955
243,698;  560,005;    0,732;    1,682
244,297;  608,366;   -0,632;    0,682
244,895;  609,008;   -0,269;   -2,318
245,493;  834,275;    2,186;   -0,591
246,091;  819,783;    1,368;   -1,318
246,689;  751,410;    1,004;    0,591
247,287;  695,308;    0,822;   -1,136
247,885;  660,848;   -1,451;    1,227
248,483;  631,932;    1,822;   -0,500
249,081;  726,194;    0,185;    1,591
249,679;  791,525;   -0,178;    1,682
250,277;  625,695;   -1,723;    0,864
250,875;  793,354;   -1,087;   -1,045
251,473;  670,261;   -1,178;    0,500
252,071;  791,841;    1,459;    1,045
252,669;  720,308;   -1,814;    0,318
253,267;  651,244;   -0,087;    0,773
253,864;  683,944;   -0,360;    0,682
254,462;  899,548;    1,640;    1,591
255,060;  626,868;   -0,269;    1,318
255,658;  613,217;    0,822;   -0,136
256,255;  748,026;    0,186;   -2,045
256,853;  793,666;   -0,269;    1,409
257,451;  760,167;    0,822;    1,864
258,048; 1288,941;    1,822;    1,864
258,646;  896,540;    1,731;   -1,045
259,243; 1027,393;   -0,087;    2,227
259,841;  886,223;   -0,814;    0,318
260,438;  711,490;   -0,087;    0,864
261,036;  867,469;   -1,905;    1,409
261,633;  754,325;   -0,087;    2,227
262,231;  691,011;    2,731;   -0,045
262,828;  723,407;   -0,905;    1,136
263,425;  779,378;    0,913;   -0,591
264,023;  799,232;    0,186;    0,045
264,620;  958,340;   -0,360;   -0,318
265,217; 1099,044;   -2,087;    3,136
265,815;  788,904;   -1,905;    2,136
266,412;  934,607;    0,731;    0,136
267,009;  977,067;   -1,451;    0,773
267,606; 1082,449;    0,822;   -0,955
268,203;  816,416;   -0,269;   -0,591
268,801;  898,665;    1,731;    0,591
269,398;  812,241;   -0,360;    2,500
269,995;  991,589;    0,277;    1,591
270,592;  872,905;   -0,632;   -0,500
271,189;  793,971;    0,186;    0,409
271,786;  788,481;   -0,632;    1,227
272,383; 1090,577;   -1,087;    0,227
272,980;  907,809;    0,277;    0,318
273,577;  871,618;    0,004;    1,227
274,174;  783,565;    0,822;    2,591
274,771;  936,853;   -0,814;   -0,773
275,367; 1412,700;    2,277;    1,409
275,964; 1201,812;    0,731;   -0,500
276,561;  962,152;    1,549;   -1,045
277,158;  880,980;    0,095;   -1,773
277,755; 1157,285;    2,185;    0,409
278,351;  967,713;   -0,451;   -1,500
278,948; 1079,273;   -0,815;    0,045
279,545;  972,170;   -1,360;    2,318
280,141; 1278,222;   -1,723;   -2,045
280,738; 1141,381;   -0,451;   -0,136
281,334;  926,695;   -1,633;    0,591
281,931;  944,256;   -0,087;   -1,318
282,528; 1057,487;    0,822;   -0,500
283,124; 1215,185;   -1,087;   -0,500
283,721; 1181,130;   -0,451;    1,409
284,317;  980,089;    0,185;    2,500
284,913; 1234,781;   -1,360;    0,591
285,510; 1574,963;    0,640;   -0,318
286,106; 1353,027;   -2,269;   -0,955
286,703;  995,971;   -0,360;    1,955
287,299;  966,950;   -1,451;   -0,591
287,895;  985,070;    0,822;   -1,045
288,491; 1022,241;    0,186;    2,136
289,088; 1143,681;   -2,360;    2,409
289,684; 1174,399;   -1,723;    1,500
290,280; 1356,105;    0,368;    0,682
290,876; 1335,783;    1,822;    5,500
291,472; 1183,437;    1,276;    2,227
292,068; 1203,408;    1,367;    0,227
292,665; 1025,223;    2,095;    0,773
293,261;  886,897;    0,276;    2,136
293,857; 1116,997;    2,913;    2,136
294,453; 1025,463;    3,550;    0,955
295,049; 1255,165;   -0,268;    1,955
295,644; 1066,591;    0,095;    0,136
296,240;  923,893;   -0,905;   -0,136
296,836; 1099,153;   -0,995;    0,318
297,432; 1276,907;    1,096;   -0,500
298,028; 1345,549;    0,732;    0,773
298,624; 1158,543;    1,459;    1,864
299,220; 1124,188;    2,368;    0,591
299,815; 1084,573;    1,005;   -0,409
300,411; 1208,529;    0,914;    1,773
301,007; 1356,704;    1,368;    0,227
301,602; 1151,986;   -0,541;   -2,318
302,198; 1277,343;    0,732;   -0,773
302,794; 1117,432;    1,187;   -0,500
303,389; 1103,186;   -1,177;    1,045
303,985; 1185,209;    0,550;    1,409
304,580; 1290,059;    1,459;    1,591
305,176; 1169,344;   -3,086;    0,136
305,771; 1033,699;   -1,268;   -1,227
306,367; 1486,758;    4,095;    0,136
306,962; 1251,895;    0,641;    1,500
307,558; 1233,889;   -0,450;    0,136
308,153; 1343,080;    1,095;   -1,136
308,748; 1125,752;   -0,814;    1,682
309,344; 1547,306;   -0,632;   -1,318
309,939; 1589,321;   -1,905;   -1,318
310,534; 1241,723;   -0,086;   -1,682
311,130; 1161,948;    0,459;   -2,500
311,725; 1070,564;    1,004;   -0,500
312,320; 1176,001;    2,459;    0,045
312,915; 1330,732;    1,459;   -1,045
313,510; 1560,940;    1,550;   -0,500
314,105; 1315,921;    1,096;    1,409
314,700; 1070,628;   -3,086;   -1,045
315,295; 1144,878;   -0,904;    0,045
315,890; 1030,241;    1,277;    0,864
316,485; 1158,036;   -0,359;   -0,318
317,080; 1115,458;   -3,086;    1,591
317,675; 1475,828;    2,005;   -0,682
318,270; 1655,478;    5,550;    3,318
318,865; 1564,379;    3,278;    3,045
319,460; 1337,983;   -0,904;    0,591
320,055; 1205,296;   -0,541;   -1,227
320,650; 1160,522;   -1,995;   -0,591
321,244; 1173,613;   -0,177;   -1,409
321,839; 1330,564;   -1,541;   -0,227
322,434; 1374,183;   -1,086;   -1,591
323,029; 1218,707;    1,732;    1,591
323,623; 1155,024;    1,550;    0,773
324,218; 1305,736;    2,368;    1,409
324,812; 1233,077;    1,096;    1,591
325,407; 1252,165;   -0,814;    2,045
326,002; 1359,453;    0,277;   -0,409
326,596; 1306,056;    0,914;    1,318
327,191; 1157,227;    0,823;   -1,045
327,785; 1083,965;   -0,813;   -0,227
328,379; 1189,321;    1,368;    0,136
328,974; 1184,505;    0,914;   -3,955
329,568; 1243,543;    0,186;   -2,409
330,163; 1297,182;    2,096;    1,045
330,757; 1186,515;    2,459;    1,591
331,351; 1087,784;    0,459;    0,682
331,945; 1105,696;    0,914;    1,409
332,540; 1246,429;   -1,723;   -0,591
333,134; 1212,256;   -1,086;    0,773
333,728; 1188,063;    0,005;    0,318
334,322; 1131,306;   -1,177;   -0,864
334,916; 1026,351;    0,277;    0,955
335,510; 1247,678;   -0,450;   -0,136
336,105; 1286,590;   -1,086;    1,591
336,699; 1120,819;   -1,086;    0,591
337,293; 1158,694;   -1,723;    0,318
337,887; 1094,277;   -2,723;    1,955
338,481; 1279,423;    0,459;    0,591
339,074; 1422,069;   -0,359;    2,682
339,668; 1364,386;   -1,632;    1,227
340,262; 2032,723;    1,732;    3,227
340,856; 1542,254;    1,822;   -0,682
341,450; 1106,603;    1,004;    1,864
342,044; 1232,785;    1,459;    0,136
342,637; 1392,720;    0,913;   -2,136
343,231; 1416,173;   -2,360;    0,682
343,825; 1199,174;   -1,086;   -0,591
344,419; 1178,930;   -1,995;    0,500
345,012; 1806,945;    2,459;    4,045
345,606; 1585,253;    4,641;    1,591
346,199; 1210,777;   -1,813;   -0,227
346,793; 1351,094;    1,914;    2,045
347,386; 1135,792;   -0,813;   -1,136
347,980;  975,991;   -0,268;   -0,045
348,573; 1124,483;    2,278;    0,409
349,167; 1413,594;    5,278;    4,773
349,760; 1366,979;    2,914;    2,682
350,354; 1273,749;   -0,813;    1,136
350,947; 1323,028;    1,096;    1,682
351,540; 1103,741;   -0,358;   -1,409
352,134;  935,709;    1,096;    1,136
352,727;  994,947;   -0,086;    1,136
353,320; 1033,938;    0,005;    0,591
353,913;  921,448;   -1,995;    1,864
354,507; 1191,220;    0,823;   -1,227
355,100; 1072,712;    0,460;    0,864
355,693; 1497,568;    2,005;    2,409
356,286; 1198,155;    0,823;    2,773
356,879; 1030,905;   -0,722;    1,227
357,472;  975,571;   -0,904;    1,500
358,065; 1073,154;   -0,722;    2,500
358,658;  913,988;   -0,540;    2,318
359,251;  827,278;   -1,631;   -0,591
359,844; 1040,037;   -1,904;   -1,136
360,437; 1163,727;   -2,995;    0,045
361,030; 1005,911;    1,369;   -0,682
361,623;  965,131;    2,824;    0,318
362,215; 1235,222;   -0,086;    2,045
362,808; 1053,366;   -2,358;   -1,682
363,401;  969,875;   -2,449;    0,136
363,994; 1236,520;   -0,631;   -1,500
364,586;  974,449;    0,824;   -1,500
365,179;  913,021;   -0,449;   -1,136
365,772;  717,799;   -1,995;    2,045
366,364;  906,112;    1,915;   -3,227
366,957; 1028,161;    2,279;   -0,045
367,549;  928,149;    2,188;   -0,864
368,142;  926,110;    1,825;   -1,500
368,734;  881,127;    0,734;   -2,136
369,327;  784,232;    1,643;   -0,500
369,919;  839,938;   -1,538;    0,409
370,512;  892,881;   -1,083;   -0,500
371,104; 1173,484;   -0,901;    1,591
371,696; 1237,496;    1,191;   -0,955
372,289; 1068,938;    0,373;    1,136
372,881; 1007,302;   -2,080;    1,318
373,473;  847,209;   -2,170;    1,136
374,066;  977,493;   -0,169;    0,500
374,658;  934,028;    0,378;    1,136
375,250;  877,024;    0,653;   -1,409
375,842;  937,764;    0,473;   -0,045
376,434;  877,595;   -0,435;   -0,409
377,026;  923,704;    0,204;   -2,500
377,618;  955,640;   -0,158;   -0,682
378,210;  854,923;   -0,338;   -1,955
378,802;  789,518;    0,754;   -0,591
379,394; 1319,548;    1,846;    0,682
379,986; 1058,590;    1,393;   -0,955
380,578;  952,885;   -0,153;    0,773
381,170; 1210,744;   -0,972;    0,045
381,762; 1076,972;    0,755;    1,409
382,354; 1033,668;   -0,065;   -1,318
382,945;  925,302;   -2,976;    0,318
383,537;  865,292;   -2,705;   -1,955
384,129;  880,175;   -2,160;   -1,136
384,721; 1025,947;   -0,252;    0,955
385,312;  908,839;   -0,161;   -0,955
385,904; 1071,117;   -2,706;    1,591
386,496;  891,454;   -0,979;    1,045
387,087; 1082,098;    1,022;    2,500
387,679;  998,024;   -1,160;    0,045
388,270; 1017,639;    2,840;    2,045
388,862;  956,783;    1,295;   -0,318
389,453;  882,786;   -0,887;    1,045
390,045;  949,147;   -0,705;   -2,682
390,636;  847,815;    0,204;   -0,591
391,227;  894,024;   -0,523;   -0,045
391,819;  910,446;    0,204;    0,773
392,410; 1210,928;    1,022;    0,045
393,001;  987,648;   -0,979;   -1,591
393,593; 1082,874;    1,930;   -0,045
394,184; 1132,120;    1,385;   -0,409
394,775;  923,677;    1,839;    2,136
395,366;  907,539;    1,385;    0,773
395,957; 1148,221;    0,113;    0,136
396,548; 1004,814;   -0,342;    2,682
397,139; 1201,916;   -2,433;    0,591
397,730; 1065,973;   -1,888;    0,955
398,321; 1056,911;   -1,252;    0,955
398,912;  986,530;   -0,615;    0,136
399,503; 1026,970;   -3,524;   -1,409
400,094; 1030,478;    0,294;    1,682
400,685; 1016,970;   -0,433;    0,045
401,276;  908,445;    0,930;   -0,955
401,867;  933,703;   -0,888;    0,773
402,458;  901,970;   -2,251;   -2,318
403,048; 1096,220;    1,112;    0,591
403,639;  974,310;    0,840;    0,864
404,230; 1195,513;    2,476;    0,318
404,821; 1253,243;   -0,615;    0,045
405,411; 1115,496;    1,203;   -2,591
406,002;  960,604;   -1,252;   -1,136
406,592; 1270,915;    2,294;    0,045
407,183; 1090,027;    0,566;   -1,500
407,774; 1027,546;    3,475;   -0,136
408,364; 1008,555;    0,930;    0,409
408,954; 1154,922;    0,384;    1,227
409,545; 1158,441;    1,021;    1,045
410,135; 1039,324;    1,293;    0,500
410,726; 1007,313;    1,838;    0,318
411,316; 1263,447;    0,111;    0,773
411,906; 1004,826;   -0,253;   -0,409
412,497;  985,957;   -1,070;   -0,045
413,087;  951,253;   -1,980;   -0,227
413,677;  927,680;   -0,707;    3,864
414,267;  896,460;    0,656;    1,409
414,857;  856,331;   -2,980;    4,227
415,448;  888,664;    0,839;    0,500
416,038;  902,348;    0,020;   -0,591
416,628;  962,835;   -0,889;    0,409
417,218; 1060,774;    0,565;    3,318
417,808; 1270,645;    0,202;   -0,409
418,398; 1078,748;    0,020;    2,682
418,988;  933,243;    2,020;    0,591
419,578; 1032,911;   -0,707;    1,409
420,168; 1056,935;   -1,343;   -0,955
420,757; 1221,940;   -1,343;   -1,500
421,347; 1047,619;    0,111;   -0,227
421,937; 1005,323;    2,292;    1,409
422,527; 1175,074;    0,838;   -0,773
423,116; 1342,560;   -0,253;   -0,045
423,706; 1004,672;   -1,889;    0,318
424,296;  895,836;    1,384;    0,682
424,885; 1156,654;   -0,071;   -3,045
425,475; 1111,059;    1,474;   -2,864
426,065;  953,499;   -0,980;   -0,318
426,654;  928,775;   -0,435;   -0,318
427,244; 1325,461;    0,020;    1,409
427,833; 1258,399;    1,383;   -0,500
428,423; 1082,766;   -0,526;    1,136
429,012; 1153,913;   -0,344;   -1,136
429,601; 1263,585;   -1,344;    0,136
430,191; 1116,632;    1,292;    4,318
430,780;  930,508;   -0,344;   -0,409
431,369; 1270,594;    0,746;   -0,045
431,959; 1187,368;   -1,254;    0,500
432,548; 1040,398;   -1,163;   -0,045
433,137;  942,867;   -1,254;   -1,318
433,726; 1118,879;    0,292;    0,500
434,315; 1088,137;   -0,526;    2,409
434,905; 1239,856;   -1,254;    1,409
435,494; 1302,501;    0,746;    0,955
436,083; 1106,102;   -0,981;   -0,955
436,672; 1170,298;    0,110;    0,500
437,261; 1119,580;    0,292;   -1,955
437,850; 1528,126;    1,383;    0,682
438,439; 1552,994;    3,291;    1,955
439,027; 1661,247;    3,655;    1,773
439,616; 1624,972;    2,927;    1,227
440,205; 1281,619;    0,200;   -2,136
440,794; 1155,107;    2,109;   -0,045
441,383; 1063,142;   -1,346;   -0,591
441,971;  956,289;   -2,436;    0,591
442,560;  988,958;    0,563;   -1,773
443,149;  858,993;    0,379;   -1,318
443,737;  988,449;   -0,074;   -2,318
444,326; 1000,712;    0,018;    0,318
444,915; 1083,034;   -1,982;    0,864
445,503; 1119,755;   -2,891;   -0,318
446,092; 1447,644;    0,382;    2,136
446,680; 1401,322;    0,382;    0,318
447,269; 1309,307;   -0,346;   -0,318
447,857; 1217,756;    0,018;   -1,773
448,445; 1146,821;    0,563;    1,318
449,034; 1120,407;   -1,528;   -1,136
449,622; 1091,144;   -1,073;    3,500
450,210; 1568,523;    2,017;    2,227
450,799; 1461,312;    0,290;   -0,591
451,387; 1305,022;    1,381;   -0,591
451,975; 1296,106;    2,654;    0,864
452,563; 1464,854;    3,472;    2,318
453,151; 1135,837;   -0,528;   -1,227
453,739; 1211,286;   -1,347;    0,136
454,328; 1432,260;    2,381;   -2,136
454,916; 1273,040;    2,562;   -0,136
455,504; 1263,820;    1,017;    1,227
456,092; 1132,617;    0,017;   -1,591
456,679; 1026,913;    1,472;    0,682
457,267; 1749,181;    4,017;    1,045
457,855; 1225,193;    1,017;    1,409
458,443;  929,859;   -0,165;    1,682
459,031; 1335,999;    0,108;    2,409
459,619; 1261,154;   -1,801;    2,864
460,206; 1057,328;    0,835;    2,045
460,794; 1088,545;   -2,983;   -0,227
461,382; 1196,994;   -0,529;   -0,864
461,970; 1116,534;    1,198;    1,864
462,557; 1041,610;   -0,711;   -0,682
463,145; 1292,237;   -3,165;   -1,682
463,732; 1643,156;    2,016;   -1,045
464,320; 1275,280;   -0,075;   -3,045
464,907; 1495,379;    2,743;   -0,773
465,495; 1343,981;    0,743;   -1,227
466,082; 1201,892;   -1,984;   -0,045
466,670; 1172,382;   -2,529;    1,227
467,257; 1068,561;   -1,711;    2,045
467,844; 1267,553;   -0,075;    0,045
468,432; 1248,591;    0,834;    3,500
469,019; 1120,017;    0,925;   -1,773
469,606; 1239,509;    0,470;    3,682
470,193; 1312,460;   -1,439;    0,227
470,780; 1260,201;   -2,075;    0,864
471,368; 1146,454;   -1,257;   -0,773
471,955; 1295,465;    1,379;   -0,682
472,542; 1191,061;    0,652;   -1,136
473,129; 1001,788;   -0,166;    0,136
473,716;  992,178;    1,470;    0,591
474,303; 1057,468;    0,652;   -0,864
474,890; 1093,068;   -1,439;   -0,500
475,477; 1266,997;   -1,621;    0,409
476,064; 1099,526;    1,106;   -1,591
476,650; 1262,842;    0,288;    0,318
477,237; 1155,569;   -0,258;    0,955
477,824; 1113,534;   -1,076;    0,864
478,411;  944,681;   -1,894;   -0,318
478,997;  955,156;    0,560;   -0,773
479,584;  864,691;    1,196;   -0,409
480,171; 1287,130;   -0,440;   -0,773
480,757; 1394,553;    2,651;    0,773
481,344; 1175,963;    0,469;    0,409
481,931;  946,675;    1,105;    1,045
482,517; 1329,011;   -1,258;    0,318
483,104; 1479,324;    1,106;    2,864
483,690; 1335,714;   -1,804;    0,045
484,276; 1296,093;   -0,895;    0,227
484,863; 1670,251;    2,469;    1,136
485,449; 1430,524;   -0,077;    0,318
486,035; 1296,108;   -1,986;   -0,136
486,622; 1535,559;   -0,895;    0,045
487,208; 1388,498;    1,378;    1,500
487,794; 1248,214;    0,741;    0,318
488,380; 1282,648;    0,105;   -1,409
488,967; 1282,083;   -1,168;   -0,409
489,553; 1305,308;   -1,895;   -1,409
490,139; 1455,596;    1,559;    0,773
490,725; 1264,640;    0,741;   -0,227
491,311; 1277,138;    3,287;    3,045
491,897; 1110,710;   -0,986;    1,500
492,483; 1126,784;    0,105;    1,227
493,069; 1934,106;    3,923;    0,864
493,655; 1386,640;    1,650;    0,682
494,241; 1182,411;    1,377;   -0,955
494,826; 1263,300;    0,287;   -1,045
495,412; 1330,303;    2,559;   -0,682
495,998; 1201,389;   -0,805;   -0,318
496,584; 1274,731;    0,377;    1,045
497,169; 1219,007;    1,014;   -0,682
497,755; 1094,413;    0,650;    1,227
498,341; 1492,362;    0,559;    0,318
498,926; 1660,046;    1,832;    1,955
499,512; 1244,018;    1,286;    2,955
500,097; 1179,627;    0,195;   -0,318
500,683; 1200,703;   -0,350;    2,136
501,268; 1160,997;   -0,169;   -0,955
501,854; 1190,645;   -0,169;    1,227
502,439; 1107,983;   -0,624;   -1,773
503,024; 1248,622;    0,195;    0,500
503,610; 1314,871;   -0,078;   -0,682
504,195; 1104,425;    0,558;    1,955
504,780; 1285,032;    2,922;    1,227
505,366; 1466,070;    3,013;    2,864
505,951; 1295,382;    0,740;    1,045
506,536; 1201,150;   -3,260;   -3,682
507,121; 1248,684;    0,285;   -0,318
507,706; 1214,528;    2,376;    1,045
508,291; 1126,755;    2,649;    1,136
508,876; 1089,242;   -0,988;    2,591
509,461; 1156,512;   -0,169;   -0,773
510,046; 1248,752;    0,194;    0,318
510,631; 1225,784;   -0,351;   -0,773
511,216; 1109,996;    2,467;   -0,500
511,801; 1263,810;   -0,442;    2,591
512,386; 1279,852;    0,740;    0,500
512,971; 1297,280;   -2,988;    0,955
513,555; 1370,474;   -0,897;   -1,500
514,140; 1373,720;   -0,442;   -3,136
514,725; 1479,272;   -0,715;   -1,136
515,309; 1360,583;   -0,533;    0,318
515,894; 1209,480;   -0,624;   -2,227
516,479; 1240,477;   -0,624;   -0,955
517,063; 1216,125;    0,376;    1,227
517,648; 1203,888;    1,012;   -1,136
518,232; 1113,323;   -0,261;   -1,409
518,817; 1241,519;   -0,079;    1,682
519,401; 1451,645;    2,194;    0,591
519,985; 1260,211;    1,103;    1,136
520,570; 1110,827;    0,830;   -1,955
521,154; 1294,221;    2,102;    0,591
521,738; 1573,740;   -2,352;    2,409
522,323; 1428,259;   -0,170;    1,682
522,907; 1338,165;    0,466;   -0,136
523,491; 1218,101;    0,557;    0,955
524,075; 1155,207;    2,284;    0,591
524,659; 1384,514;    1,466;    0,591
525,243; 1258,461;    1,739;    0,409
525,827; 1184,031;    0,648;   -0,045
526,411; 1256,878;   -1,989;   -0,136
526,995; 1448,054;   -0,352;    1,409
527,579; 1468,744;   -0,443;   -1,045
528,163; 1396,161;    0,375;   -1,500
528,747; 1578,571;    2,466;   -0,773
529,331; 1519,894;   -0,080;   -1,409
529,915; 1259,545;    1,738;    0,955
530,499; 1378,178;   -0,807;    1,227
531,082; 1521,544;   -0,534;    1,591
531,666; 1580,029;    1,374;    0,773
532,250; 1494,586;    1,284;    2,682
532,833; 1666,982;    0,920;    2,773
533,417; 1422,275;   -1,807;    0,864
534,001; 1539,082;    1,647;   -0,318
534,584; 1483,998;    0,374;    0,500
535,168; 1285,526;    0,465;    1,409
535,751; 1709,950;    0,647;    0,045
536,334; 1338,029;   -0,898;   -0,409
536,918; 1311,551;    0,011;    1,591
537,501; 1300,220;   -0,899;    1,318
538,085; 1346,555;   -0,444;    1,045
538,668; 1369,115;    0,829;    2,409
539,251; 1771,857;    1,829;    3,773
539,834; 1491,094;    0,101;    0,773
540,418; 1587,253;   -1,990;    4,318
541,001; 1774,998;   -0,990;    1,773
541,584; 1508,591;    2,101;    2,227
542,167; 1601,473;    1,374;    2,955
542,750; 1462,465;    1,919;   -0,773
543,333; 1238,207;    0,555;    2,136
543,916; 1571,380;    0,192;    2,500
544,499; 1443,192;   -1,354;    0,227
545,082; 1560,580;    1,374;    3,591
545,665; 1455,694;    1,919;    1,500
546,248; 1612,844;    1,010;   -0,318
546,830; 1579,888;   -0,445;    1,955
547,413; 1599,906;    1,010;   -0,773
547,996; 1657,290;    0,555;    0,500
548,579; 1470,255;    0,919;    0,955
549,161; 1735,370;    1,828;    2,682
549,744; 1601,335;   -0,809;    0,409
550,326; 1561,989;   -0,809;   -1,136
550,909; 2032,655;    2,737;    0,591
551,492; 1722,118;   -0,263;    0,227
552,074; 1777,819;   -0,173;   -1,318
552,657; 1835,552;    2,373;    0,045
553,239; 1658,687;   -0,173;   -0,773
553,821; 1588,602;   -1,082;    1,045
554,404; 1785,268;    1,282;    1,136
554,986; 1917,646;    0,464;    1,045
555,568; 1804,236;    1,191;   -0,955
556,151; 2002,341;    1,191;   -0,227
556,733; 1675,784;   -0,264;   -0,864
557,315; 1689,430;    0,100;    0,500
557,897; 1491,573;    0,554;   -0,500
558,479; 1511,049;   -1,991;    1,318
559,061; 1637,677;   -0,719;   -0,864
559,643; 1766,005;   -0,264;    0,045
560,225; 1799,805;    1,645;    2,864
560,807; 1672,550;    0,918;    0,318
561,389; 1593,600;    0,554;    2,318
561,971; 1646,844;    0,463;    2,136
562,553; 1673,598;   -1,628;    1,591
563,135; 1774,483;   -0,537;    1,136
563,717; 2099,017;    3,372;    1,136
564,298; 1988,199;    3,645;   -0,045
564,880; 1710,848;    0,645;   -1,409
565,462; 1602,848;    0,645;    1,318
566,043; 1951,287;   -0,446;    2,318
566,625; 2091,733;    1,918;    1,227
567,207; 1856,346;    1,099;    1,682
567,788; 1855,027;   -1,264;    1,500
568,370; 1995,062;    1,917;   -0,500
568,951; 1852,358;    0,190;    0,227
569,533; 2054,913;   -0,628;   -0,500
570,114; 2175,006;   -0,446;    0,682
570,695; 2215,713;   -0,174;   -1,318
571,277; 2178,365;   -0,265;   -1,682
571,858; 2418,916;    2,008;   -1,136
572,439; 2456,889;    1,554;   -1,045
573,021; 2435,723;    2,099;   -2,773
573,602; 2571,245;   -1,265;    0,318
574,183; 2620,447;   -2,083;    2,227
574,764; 2630,145;   -1,629;    0,409
575,345; 2741,788;    0,917;   -0,136
575,926; 2730,840;   -0,356;    0,136
576,507; 2814,327;    1,099;   -0,227
577,088; 2939,051;    3,099;    1,682
577,669; 3063,216;    0,735;    1,955
578,250; 3319,265;    0,644;   -1,045
578,831; 3165,471;   -1,356;   -2,227
579,412; 3048,230;   -0,810;    0,955
579,993; 3340,708;    1,008;    0,227
580,573; 3357,175;   -0,629;   -0,955
581,154; 3032,318;    0,735;   -0,591
581,735; 3213,386;    0,644;    0,773
582,315; 3085,749;   -0,629;    2,136
582,896; 3269,600;   -0,174;    1,227
583,477; 3080,630;    0,189;    1,227
584,057; 3171,796;    0,553;    0,955
584,638; 3232,527;    2,553;    2,318
585,218; 3422,779;   -0,538;    2,682
585,799; 3333,438;    0,281;   -0,227
586,379; 3233,506;    0,372;    1,591
586,959; 3081,817;    0,735;    0,318
587,540; 2904,073;   -0,629;    2,227
588,120; 2824,050;    1,007;   -0,045
588,700; 2671,213;    2,553;    2,136
589,281; 2933,351;    0,462;   -0,955
589,861; 2809,679;    0,099;   -1,682
590,441; 2734,641;    2,371;   -2,682
591,021; 2545,972;   -0,265;   -2,591
591,601; 2648,174;   -0,537;    0,500
592,181; 2760,869;   -0,719;   -0,773
592,761; 2440,366;    0,007;    1,409
593,341; 2587,532;   -0,901;    0,045
593,921; 2530,503;   -0,265;    1,591
594,501; 2416,456;   -0,538;    1,318
595,081; 2392,488;    0,917;   -0,318
595,661; 2635,764;   -1,447;    0,955
596,240; 2701,904;   -0,537;    0,136
596,820; 2823,285;    0,372;    1,955
597,400; 2551,468;    2,008;    0,773
597,980; 2585,291;    2,008;    1,045
598,559; 2586,896;    2,735;   -0,227
599,139; 2535,858;   -0,174;   -1,227
599,718; 2514,494;   -0,174;   -0,409
600,298; 2607,444;    0,735;    0,682
600,877; 2945,045;    2,917;    1,409
601,457; 2873,153;    2,281;    1,136
602,036; 2711,802;    0,190;    2,045
602,616; 2663,010;    0,644;    1,682
603,195; 2833,781;   -0,355;    3,500
603,774; 2751,012;   -0,901;    2,045
604,354; 2663,664;    0,826;   -0,500
604,933; 2565,875;    0,463;    1,864
605,512; 2762,960;    3,554;    0,591
606,091; 2775,716;   -0,537;    3,773
606,671; 2817,614;    0,281;    0,773
607,250; 2793,904;    1,644;    3,136
607,829; 2799,883;    2,372;    3,227
608,408; 2696,877;    1,190;    2,591
608,987; 2624,149;    1,281;    3,409
609,566; 2508,136;   -1,265;   -2,500
610,145; 2602,727;   -1,082;    0,682
610,723; 2757,584;    4,372;    6,864
611,302; 2494,979;   -0,446;    1,682
611,881; 2615,322;    5,008;   11,227
612,460; 2530,437;    1,645;    3,955
613,039; 2606,900;   -0,082;    2,045
613,617; 2316,557;    1,736;    4,773
614,196; 2344,076;    1,099;    1,227
614,775; 2514,334;    1,009;    2,409
615,353; 2513,870;    0,736;    0,864
615,932; 2442,985;    0,100;    2,409
616,510; 2581,961;    0,554;    0,591
617,089; 2938,917;    7,100;   17,591
617,667; 2626,630;    2,372;    6,136
618,246; 2270,436;   -1,537;    1,318
618,824; 2391,650;   -3,355;   -0,955
619,402; 2339,023;   -2,900;   -1,773
619,981; 2503,817;   -0,173;   -1,045
620,559; 2481,553;    0,009;    1,682
621,137; 2462,603;   -0,718;    1,864
621,715; 2152,005;   -1,173;   -0,682
622,293; 2193,682;   -0,537;   -0,773
622,871; 2486,884;   -0,718;    0,500
623,450; 2314,591;    0,373;   -0,864
624,028; 2426,002;    0,191;   -0,955
624,606; 2342,362;   -1,718;    1,682
625,183; 2266,327;   -1,536;   -1,136
625,761; 2262,863;    1,009;    1,136
626,339; 2650,403;    1,373;    2,591
626,917; 2398,223;   -0,172;   -0,045
627,495; 2409,889;   -0,354;    1,318
628,073; 2356,123;   -0,263;    2,864
628,650; 2311,514;    0,100;    2,136
629,228; 2406,467;    0,373;    4,409
629,806; 2106,168;    2,282;    1,136
630,383; 2203,015;    1,464;   -0,318
630,961; 2196,989;    2,555;   -0,955
631,539; 2139,813;    2,464;    0,227
632,116; 2781,444;   11,373;   15,409
632,694; 2464,215;    2,555;    6,500
633,271; 2278,844;    0,828;    2,682
633,848; 2398,786;    1,828;    2,045
634,426; 2219,844;   -1,081;    1,773
635,003; 2047,251;    1,101;   -0,409
635,580; 2399,670;    1,192;    3,682
636,158; 2236,642;    3,737;    1,227
636,735; 2097,484;    0,555;   -0,500
637,312; 2099,282;   -0,809;   -0,682
637,889; 2128,161;   -4,354;   -0,682
638,466; 2099,527;   -3,990;   -0,409
639,043; 2080,456;    2,101;   -1,136
639,620; 2087,535;   -2,262;   -0,955
640,197; 2242,470;    1,100;    1,682
640,774; 2218,674;   -0,172;    1,136
641,351; 2298,877;    0,737;    1,136
641,928; 2337,536;   -0,627;    1,409
642,505; 2454,558;    0,828;   -0,500
643,082; 2340,580;   -1,718;    1,227
643,658; 1999,602;   -0,718;    1,500
644,235; 2125,078;    1,191;    2,500
644,812; 2283,646;    1,918;    0,773
645,388; 2217,032;   -0,991;    1,409
645,965; 2022,417;   -0,809;    1,682
646,542; 2039,803;   -1,445;   -0,227
647,118; 2483,461;    1,009;   -0,955
647,695; 2319,847;   -0,263;    1,136
648,271; 2132,778;   -0,536;    0,500
648,848; 2250,800;    0,736;    2,227
649,424; 2359,822;    0,827;    1,318
650,000; 2075,208;   -0,354;   -1,045
650,577; 2144,684;   -0,627;   -0,955
651,153; 2275,343;   -1,809;    0,955
651,729; 2276,001;    1,191;    0,864
652,305; 2555,296;    0,645;    2,773
652,881; 3026,863;   -0,082;    1,136
653,458; 3988,067;    1,100;    0,227
654,034; 4550,726;    0,282;    1,591
654,610; 4622,657;    0,554;    0,773
655,186; 5016,042;    0,645;    3,045
655,762; 4701,337;   -0,991;    0,409
656,338; 4681,450;    0,100;    0,136
656,913; 5004,381;   -0,082;    0,409
657,489; 4709,221;    0,827;   -0,318
658,065; 4811,971;   -0,173;   -1,591
658,641; 5068,720;   -0,900;   -0,864
659,217; 4792,651;   -0,991;    0,409
659,792; 4520,946;    0,645;   -0,409
660,368; 4639,968;   -2,173;   -0,682
660,944; 4846,990;   -2,082;    1,227
661,519; 4122,466;   -0,628;    0,409
662,095; 3200,943;   -1,719;    0,591
662,670; 2493,147;    1,281;   -0,136
663,246; 2454,623;    1,009;   -0,409
663,821; 2500,827;    0,281;    1,682
664,396; 2241,849;    0,009;    1,864
664,972; 2282,417;    0,009;   -0,500
665,547; 2443,984;    1,372;    0,136
666,122; 2381,188;   -1,082;    0,318
666,698; 2530,756;   -0,173;    0,318
667,273; 2185,050;   -0,173;    0,136
667,848; 2377,709;    2,372;    1,500
668,423; 2449,731;    2,190;    2,318
668,998; 2407,116;    2,827;   -0,682
669,573; 2457,229;   -3,264;   -1,500
670,148; 2591,251;   -1,446;   -0,682
670,723; 2303,182;   -1,810;    0,318
671,298; 2679,386;    2,372;    1,045
671,873; 2526,499;   -0,082;   -0,136
672,448; 2526,885;    0,645;    0,136
673,023; 2569,998;   -1,992;   -0,227
673,597; 2744,111;    0,827;    2,318
674,172; 2714,951;   -0,355;    0,318
674,747; 2570,064;    0,372;   -1,045
675,321; 2352,904;   -0,628;    3,318
675,896; 2220,562;    0,645;    1,045
676,471; 2479,221;    2,645;    1,591
677,045; 2382,243;   -1,264;    0,682
677,620; 2394,992;    0,190;    1,136
678,194; 2418,196;   -2,628;    1,136
678,769; 2395,491;   -1,083;   -0,318
679,343; 2492,604;   -0,628;    1,773
679,917; 2540,808;   -1,446;    1,955
680,492; 2419,920;    0,826;    3,227
681,066; 2453,670;    3,372;    0,409
681,640; 2450,328;    1,463;   -0,318
682,214; 2580,077;    0,735;    0,500
682,788; 2509,281;   -1,356;   -0,773
683,363; 2528,758;   -1,810;    1,682
683,937; 2377,962;   -1,719;   -0,318
684,511; 2618,075;    0,463;   -0,591
685,085; 2551,188;   -1,356;    0,318
685,659; 2414,210;   -2,538;    0,864
686,232; 2652,323;   -0,356;   -0,318
686,806; 2531,981;   -0,901;    0,409
687,380; 2618,003;   -0,174;    0,591
687,954; 2638,752;   -1,174;    1,136
688,528; 2726,683;   -0,719;    1,955
689,101; 2810,433;   -3,992;    1,045
689,675; 2584,636;   -0,356;   -0,136
690,249; 2633,295;   -0,719;    0,409
690,822; 2705,044;    0,280;    0,318
691,396; 2593,975;   -0,265;    1,227
691,969; 2456,543;    1,280;    0,136
692,543; 2570,656;   -0,447;   -1,955
693,116; 2387,132;   -0,265;   -1,409
693,690; 2444,154;    0,099;    0,500
694,263; 2576,449;   -1,083;    2,955
694,836; 2803,380;    1,371;    3,591
695,410; 2524,675;   -0,265;    1,773
695,983; 2543,515;    0,189;    0,591
696,556; 2434,264;   -0,447;   -1,045
697,129; 2492,468;   -0,356;    1,409
697,703; 2462,308;   -1,629;    1,955
698,276; 2480,240;    1,462;   -0,773
698,849; 2520,080;    1,280;    1,409
699,422; 2395,556;   -1,083;    0,591
699,995; 2298,033;    0,007;    0,136
700,568; 2493,328;   -0,629;    3,045
701,140; 2512,804;   -2,811;    1,682
701,713; 2607,644;   -0,174;    2,409
702,286; 2493,485;   -0,538;    0,864
702,859; 2473,507;   -0,902;   -0,591
703,432; 2419,983;    0,825;    0,682
704,004; 2402,187;    0,462;    0,318
704,577; 2234,845;   -0,629;    0,136
705,150; 2347,777;    0,189;    2,500
705,722; 2443,889;   -0,356;   -3,227
706,295; 2453,639;   -0,175;   -0,591
706,867; 2280,206;   -0,175;    1,955
707,440; 2493,228;   -1,720;   -0,409
708,012; 2585,796;    0,462;    0,591
708,584; 2424,636;    2,462;    0,227
709,157; 2399,931;    1,825;   -0,591
709,729; 2525,407;    2,280;    2,045
710,301; 2672,338;    0,734;    0,045
710,874; 2639,906;   -1,447;   -0,227
711,446; 2244,382;    0,371;    0,864
712,018; 2337,677;    0,098;    0,500
712,590; 2251,608;   -1,993;    1,682
713,162; 2569,358;    0,825;    1,318
713,734; 2452,198;    1,825;   -2,045
714,306; 2408,038;   -1,902;   -0,409
714,878; 2220,787;    0,825;    0,864
715,450; 2357,355;    0,643;    0,864
716,022; 2396,286;    1,552;    1,318
716,593; 2426,581;    0,189;    0,591
717,165; 2473,694;   -3,175;   -1,227
717,737; 2586,352;    0,280;    0,409
718,309; 2415,829;    0,280;   -0,045
718,880; 2338,669;   -0,539;   -1,409
719,452; 2469,600;   -0,175;   -1,591
720,024; 2443,349;    0,734;   -0,591
720,595; 2440,280;   -2,902;    0,955
721,167; 2345,666;    0,370;   -2,045
721,738; 2306,506;   -0,812;   -1,045
722,309; 2369,892;   -0,993;   -1,227
722,881; 2219,005;   -1,357;    0,773
723,452; 2402,390;   -2,630;    2,864
724,023; 2483,776;   -0,721;    2,682
724,595; 2494,525;    0,007;    0,682
725,166; 2282,366;    0,007;   -0,409
725,737; 2441,751;    1,734;    0,227
726,308; 2365,500;   -0,266;    0,318
726,879; 2294,432;   -1,630;    1,227
727,450; 2430,999;    0,552;   -0,045
728,021; 2312,748;    3,097;    0,682
728,592; 2443,770;    0,734;    0,500
729,163; 2597,156;    0,643;   -0,136
729,734; 2590,814;    0,188;   -0,227
730,305; 2444,655;    1,734;    0,136
730,876; 2428,404;    0,188;    2,955
731,447; 2734,881;    2,188;    2,682
732,017; 2622,448;    1,097;    1,864
732,588; 2511,652;    0,734;    1,227
733,159; 2654,310;    0,643;   -1,045
733,729; 2379,969;    0,006;    0,409
734,300; 2420,082;    0,915;    0,864
734,870; 2377,376;    3,461;    0,591
735,441; 2433,853;    0,370;   -0,591
736,011; 2301,602;    0,643;   -1,591
736,582; 2324,624;   -0,812;    0,045
737,152; 2304,010;   -1,721;   -2,045
737,722; 2408,032;   -0,267;   -0,682
738,293; 2231,599;   -1,358;    1,318
738,863; 2393,349;    2,461;    2,318
739,433; 2622,552;    5,279;    0,318
740,003; 2511,211;   -0,994;   -0,682
740,573; 2528,869;    2,097;   -1,591
741,143; 2481,619;   -1,085;    0,318
741,713; 2458,095;    1,188;   -0,500
742,283; 2424,481;    0,915;    1,591
742,853; 2342,048;    1,915;    1,591
743,423; 2171,161;    1,733;    0,045
743,993; 2232,456;   -0,358;    1,500
744,563; 2109,932;    0,097;   -0,864
745,133; 2159,864;   -0,812;   -0,864
745,702; 2262,158;   -0,267;    1,773
746,272; 2288,726;   -0,176;    0,591
746,842; 2301,839;   -1,358;   -0,591
747,411; 2213,770;   -0,267;   -0,318
747,981; 2140,246;    0,097;    0,500
748,551; 2166,268;    2,278;   -1,045
749,120; 2269,836;    0,642;   -0,227
749,690; 2297,403;   -0,631;    2,409
750,259; 2440,971;    1,369;    2,955
750,828; 2444,720;    1,551;   -1,955
751,398; 2333,833;    1,278;   -0,045
751,967; 2623,764;    2,187;    0,409
752,536; 2394,059;   -0,813;   -0,227
753,105; 2537,081;    0,096;    0,227
753,675; 2322,376;    0,096;    1,773
754,244; 2322,216;   -0,904;    3,591
754,813; 2351,965;    0,551;    1,227
755,382; 2242,987;    0,460;    0,955
755,951; 2407,191;    1,551;    3,682
756,520; 2448,850;   -0,085;    1,864
757,089; 2702,872;    0,278;    0,500
757,658; 2421,075;    1,733;    1,227
758,227; 2305,734;    1,096;    0,318
758,795; 2401,847;    1,187;    1,136
759,364; 2538,687;   -0,086;   -0,591
759,933; 2218,618;   -1,176;   -0,045
760,501; 2173,822;    0,733;   -1,318
761,070; 2333,662;   -2,813;   -1,409
761,639; 2568,593;   -1,904;    1,318
762,207; 2392,706;    1,551;   -0,955
762,776; 2445,092;    0,369;    0,864
763,344; 2323,477;   -0,995;    0,591
763,913; 1969,681;   -0,722;    1,409
764,481; 2603,067;    1,005;   -0,136
765,049; 2546,089;   -1,358;    1,409
765,618; 2418,838;   -0,086;    0,318
766,186; 2345,951;    0,278;    0,136
766,754; 2373,973;    0,005;    1,864
767,322; 2063,632;   -1,995;    0,409
767,890; 2038,290;   -0,722;   -1,773
768,459; 2234,221;   -2,177;   -0,318
769,027; 2415,789;    1,641;    3,409
769,595; 2120,538;    3,278;    2,591
770,163; 2192,651;    3,823;    2,955
770,730; 2181,491;    0,732;   -0,136
771,298; 2159,240;    0,187;   -1,409
771,866; 2163,899;   -1,541;    4,955
772,434; 2177,739;   -0,631;   -1,864
773,002; 2438,852;    0,005;    0,682
773,569; 2324,056;    0,914;    1,682
774,137; 2374,078;   -0,268;   -0,045
774,705; 2352,372;    0,278;   -0,136
775,272; 2184,394;    0,641;    0,682
775,840; 2300,053;   -0,177;    2,682
776,407; 2252,257;    0,277;    1,955
776,975; 2014,551;   -0,632;    0,318
777,542; 2176,210;   -1,086;   -0,045
778,110; 2173,414;   -1,268;   -0,045
778,677; 2028,708;   -2,359;   -0,864
779,244; 2067,549;    2,186;    1,045
779,812; 2223,116;    1,823;    0,864
780,379; 2272,956;    0,005;    1,136
780,946; 2169,797;    1,005;   -0,773
781,513; 2180,364;   -1,450;    0,318
782,080; 2016,568;   -0,086;    2,864
782,647; 2151,681;   -0,268;    3,045
783,214; 2071,430;   -0,177;    3,864
783,781; 2198,907;   -0,723;   -0,682
784,348; 2158,565;   -0,632;    1,500
784,915; 2036,496;   -3,177;    0,318
785,482; 2192,427;    1,368;    2,591
786,049; 2275,267;    0,186;   -0,591
786,615; 2196,380;    0,277;   -0,955
787,182; 2103,857;    0,186;   -0,682
787,749; 2072,243;   -2,814;    1,409
788,315; 2074,719;   -1,632;   -0,409
788,882; 2110,741;    1,550;   -1,227
789,448; 2403,036;    1,732;   -0,955
790,015; 2218,422;    1,095;    3,227
790,581; 2300,080;    1,459;    0,227
791,148; 2093,647;    0,641;    1,045
791,714; 2089,579;   -0,541;    3,136
792,280; 2062,419;    0,186;    1,591
792,847; 1992,895;    0,550;    2,500
793,413; 2076,099;   -0,269;   -0,318
793,979; 2129,758;    3,459;   -1,318
794,545; 2482,871;    4,459;    2,682
795,111; 2271,711;    2,186;    1,318
795,678; 2131,915;    0,731;   -1,682
796,244; 2318,118;    3,368;    0,136
796,810; 2272,959;    1,731;    0,773
797,375; 2247,253;    0,549;   -2,136
797,941; 1886,548;   -0,541;    0,591
798,507; 1858,661;   -0,451;   -0,955
799,073; 1870,501;   -0,360;    0,591
799,639; 1962,432;   -2,632;    3,136
800,205; 1880,545;    0,095;    2,682
800,770; 1825,476;    0,640;    1,773
801,336; 1793,589;    1,368;   -0,955
801,901; 2398,157;    4,549;    3,136
802,467; 2138,906;   -0,542;    2,045
803,033; 1808,474;   -0,087;    0,864
803,598; 1827,587;    1,913;   -1,045
804,163; 1898,154;    1,095;   -0,318
804,729; 1981,903;   -0,178;    1,136
805,294; 1916,744;    0,822;    2,227
805,859; 1783,220;    0,731;   -0,409
806,425; 2160,606;    1,186;    2,682
806,990; 2130,900;    2,186;    4,318
807,555; 1944,104;   -1,451;    2,591
808,120; 2096,763;    0,822;   -0,409
808,685; 1834,330;    0,185;   -2,500
809,250; 1673,534;    0,004;   -0,500
809,815; 1757,556;    1,913;    0,682
810,380; 1976,487;   -0,269;    1,591
810,945; 2137,236;   -1,087;    2,045
811,510; 1966,168;    2,094;    1,591
812,075; 1878,371;   -0,633;   -1,409
812,640; 2153,848;    2,003;    1,409
813,204; 1963,143;    0,822;   -0,227
813,769; 2171,256;    2,094;   -0,045
814,334; 2112,096;    0,458;    0,864
814,898; 1868,209;    0,367;    0,591
815,463; 1896,322;    1,276;   -0,773
816,027; 1818,889;   -0,724;   -2,318
816,592; 1840,275;    0,640;   -2,045
817,156; 1862,842;    2,094;    1,136
817,721; 1929,592;    4,276;    2,318
818,285; 1739,523;    2,912;    1,500
818,849; 1872,454;   -1,451;    1,682
819,414; 1760,658;   -0,269;    2,955
819,978; 1685,407;   -1,269;    1,773
820,542; 2103,429;    2,003;    0,500
821,106; 1940,906;   -0,815;    0,682
821,670; 2080,382;   -0,815;    2,591
822,234; 1837,495;   -0,270;    1,409
822,798; 1684,063;    0,003;    0,500
823,362; 2005,994;   -0,633;    4,227
823,926; 1729,198;    0,094;    1,136
824,490; 1931,038;   -0,997;   -0,682
825,054; 1846,423;   -0,088;   -1,136
825,618; 1682,627;   -1,542;   -1,500
826,181; 1702,286;    0,458;   -1,318
826,745; 1771,489;    1,367;   -1,045
827,309; 2060,511;    1,185;    1,318
827,872; 1907,443;    1,367;    0,955
828,436; 1892,828;    1,185;   -0,773
828,999; 1836,850;   -0,997;    1,227
829,563; 1755,418;   -0,179;    1,136
830,126; 1719,713;   -0,179;   -0,591
830,690; 1711,189;   -1,997;    2,864
831,253; 1588,575;   -0,543;    2,227
831,816; 1658,233;   -1,906;    0,500
832,380; 1584,346;    0,185;    0,864
832,943; 1614,004;   -1,361;   -0,500
833,506; 1618,754;    2,639;   -1,227
834,069; 1858,321;    3,912;   -0,955
834,632; 1754,161;    1,730;    1,318
835,195; 1750,093;    1,003;    0,955
835,758; 1648,205;   -0,997;    1,955
836,321; 1573,046;    0,730;   -1,045
836,884; 1595,431;   -0,725;   -0,955
837,447; 1601,090;   -2,816;    1,773
838,010; 1728,748;    0,366;    3,227
838,573; 1789,225;   -1,179;    0,773
839,135; 1707,338;   -1,361;   -0,955
839,698; 1627,178;    1,275;    0,409
840,261; 1564,836;    1,003;   -0,227
840,823; 1510,586;   -0,543;    0,864
841,386; 1513,789;   -0,452;   -2,409
841,948; 1865,448;   -1,361;    1,773
842,511; 1565,833;    0,912;    1,682
843,073; 1829,401;    1,912;    0,227
843,636; 1560,332;   -0,361;   -0,227
844,198; 1787,172;    0,911;    0,591
844,760; 1756,285;    1,093;    1,955
845,322; 1505,762;    0,548;    1,136
845,885; 1670,602;    0,730;    0,591
846,447; 1665,169;   -1,998;    0,227
847,009; 1977,555;    1,911;   -0,682
847,571; 1664,577;    0,820;   -2,045
848,133; 1634,235;   -1,089;   -1,864
848,695; 1498,530;   -0,543;    1,409
849,257; 1547,825;   -1,089;   -1,682
849,819; 1722,302;   -0,998;   -0,409
850,381; 1577,414;   -0,725;   -0,864
850,942; 1661,164;    1,093;   -0,591
851,504; 1686,640;    1,184;    0,227
852,066; 1602,208;    1,275;   -1,591
852,628; 1616,048;   -0,180;    1,955
853,189; 1419,615;    1,638;    2,682
853,751; 1498,728;   -0,907;    1,409
854,312; 1672,750;   -0,453;   -1,682
854,874; 1825,772;   -2,089;   -0,773
855,435; 1639,885;   -0,907;   -1,682
855,997; 1766,907;   -1,816;   -0,136
856,558; 1755,020;    0,366;    1,773
857,119; 1613,951;    0,820;    2,864
857,681; 1459,064;    0,002;    0,318
858,242; 1690,268;    1,911;   -2,136
858,803; 1781,927;    0,456;   -0,773
859,364; 1720,858;    0,184;   -4,773
859,925; 1742,971;   -2,453;   -0,955
860,486; 1625,811;   -0,453;   -0,955
861,047; 1512,378;   -0,544;   -1,227
861,608; 1535,946;   -1,089;   -0,773
862,169; 1473,241;    0,638;   -0,045
862,730; 1517,990;    0,456;    1,409
863,291; 1577,739;   -0,635;   -0,500
863,852; 1571,943;   -0,635;    1,955
864,412; 1498,510;   -0,271;   -0,864
864,973; 1657,987;   -0,089;    0,500
865,534; 1817,009;   -1,726;    0,227
866,094; 1661,486;    1,820;    0,227
866,655; 1741,962;    1,274;    3,318
867,215; 1618,711;    0,274;    0,136
867,776; 1492,824;    0,547;   -0,136
868,336; 1548,756;   -1,453;    0,136
868,897; 1937,414;    2,638;    1,682
869,457; 1704,254;    1,365;    0,318
870,017; 1543,185;    0,547;   -1,227
870,578; 1564,571;   -0,817;    0,773
871,138; 1520,138;   -2,089;   -0,955
871,698; 1399,615;   -0,817;   -1,318
872,258; 1529,910;   -0,453;   -2,864
872,818; 1764,114;    2,729;    0,045
873,378; 1571,681;    0,638;    1,045
873,938; 1493,976;    0,547;    0,500
874,498; 1398,725;    0,274;   -1,955
875,058; 1462,747;    2,183;    1,773
875,618; 1470,496;    1,910;   -2,682
876,177; 1504,882;    1,274;    0,136
876,737; 1276,359;   -0,090;    1,955
877,297; 1729,381;    0,183;    1,955
877,856; 1650,039;   -0,362;    0,318
878,416; 1387,334;    1,183;   -0,136
878,976; 1374,265;   -1,817;    0,409
879,535; 1433,196;    0,092;    3,136
880,095; 1422,491;   -0,544;    0,045
880,654; 1296,422;   -1,090;    1,318
881,213; 1654,898;    2,456;    1,500
881,773; 1471,102;    2,637;    2,682
882,332; 2101,761;    3,365;    5,136
882,891; 1500,510;    3,092;    2,136
883,451; 1513,532;   -1,272;    1,682
884,010; 1388,554;   -2,908;   -0,409
884,569; 1369,485;   -0,999;   -0,045
885,128; 1588,507;    2,819;   -1,864
885,687; 1895,620;    4,455;    0,682
886,246; 2063,460;    1,455;    2,136
886,805; 1741,300;    2,455;    2,045
887,364; 1420,050;   -0,999;   -0,500
887,922; 1340,799;   -1,181;    0,045
888,481; 1479,548;   -1,545;    0,591
889,040; 1659,298;    1,183;    2,136
889,599; 1543,138;    2,455;    1,409
890,157; 1538,069;    1,455;    2,409
890,716; 1434,727;   -0,090;    0,227
891,274; 1524,931;    0,092;   -1,136
891,833; 1637,590;    1,546;    0,864
892,391; 1435,884;   -0,454;    0,500
892,950; 1634,543;    1,819;   -0,773
893,508; 1445,201;    0,455;   -0,409
894,067; 1286,587;    0,637;    0,136
894,625; 1393,063;   -0,636;   -1,500
895,183; 1372,994;   -0,363;   -0,682
895,741; 1702,198;    1,728;   -1,773
896,299; 1472,675;   -0,545;   -2,409
896,858; 1364,697;    0,819;   -1,591
897,416; 1504,173;    2,728;   -1,318
897,974; 1421,014;    1,819;    0,318
898,532; 1941,945;    6,091;    2,682
899,089; 1577,330;    2,091;   -0,682
899,647; 1455,443;   -1,454;    1,318
900,205; 1496,738;    1,182;    1,045
900,763; 1516,487;   -0,454;    0,227
901,321; 1480,328;    2,364;   -1,409
901,878; 1253,531;   -1,000;   -0,773
902,436; 1317,826;   -1,363;    1,318
902,994; 2171,485;    4,728;    3,682
903,551; 1632,507;    0,728;    0,409
904,109; 1521,529;    0,182;   -1,409
904,666; 1445,096;    2,455;    1,045
905,224; 1307,209;    0,182;   -0,409
905,781; 1462,958;    0,727;   -0,318
906,338; 1389,889;   -1,363;    1,045
906,895; 1257,730;    0,637;    2,045
907,453; 1565,752;    1,727;    1,136
908,010; 1402,774;   -0,909;    0,409
908,567; 1324,250;    1,273;    0,591
909,124; 1124,727;    0,364;   -1,500
909,681; 1194,022;   -2,909;    0,682
910,238; 1286,680;    0,636;   -1,318
910,795; 1271,702;   -0,273;   -1,136
911,352; 1253,066;   -2,909;   -2,682
911,909; 1238,793;   -1,364;   -0,864
912,466; 1291,247;   -3,182;    1,500
913,022; 1297,247;   -1,636;    0,500
913,579; 1426,793;   -0,909;    2,045
914,136; 1289,338;    1,636;    0,955
914,692; 1363,429;    0,091;   -1,227
915,249; 1290,066;    1,455;    0,409
915,806; 1384,793;    0,182;    1,955
916,362; 1293,066;    1,909;    1,864
916,918; 1172,702;    2,000;    1,045
917,475; 1405,520;   -1,182;    0,955
918,031; 1206,611;    3,364;   -0,045
918,587; 1278,611;   -0,909;   -0,318
919,144; 1177,429;   -2,273;    0,227
919,700; 1139,793;    1,727;    0,773
920,256; 1100,338;    0,727;    0,045
920,812; 1128,884;   -0,727;   -1,045
921,368; 1086,157;   -1,727;   -1,045
921,924; 1063,066;    0,182;   -0,136
922,480; 1175,157;   -0,545;    1,227
923,036; 1213,702;    1,273;    1,955
923,592; 1099,429;    0,455;    0,318
924,148; 1147,975;    0,455;   -0,955
924,704; 1285,157;   -1,364;   -0,409
925,259; 1125,157;   -0,273;    0,591
925,815; 1066,066;    1,455;    0,500
926,371; 1019,884;    2,909;    1,409
926,926; 1176,611;    2,091;    0,591
927,482; 1135,429;   -1,364;    0,773
928,037; 1059,975;    0,909;    2,045
928,593; 1278,793;    1,636;    1,045
929,148; 1036,338;   -1,818;   -1,500
929,704; 1087,157;   -1,455;   -0,500
930,259;  964,975;    0,091;   -0,136
930,814; 1175,702;   -0,818;    1,955
931,369; 1086,611;    1,091;   -0,773
931,925;  868,066;   -0,091;    0,136
932,480;  969,520;   -2,818;   -2,591
933,035; 1386,884;    0,545;   -0,318
933,590; 1253,157;    0,364;   -1,773
934,145;  820,066;   -1,364;   -0,318
934,700;  732,338;    0,455;   -0,591
935,255;  813,793;   -0,091;    0,045
935,809; 1149,247;    3,182;    0,864
936,364;  729,157;   -0,455;   -0,136
936,919;  744,157;    0,455;   -1,773
937,474;  651,066;    1,455;    0,136
938,028;  678,884;   -1,636;    1,136
938,583; 1095,702;    1,818;    4,682
939,138;  735,975;    2,091;    2,136
939,692;  577,975;    1,636;   -1,136
940,247;  624,247;   -0,727;   -1,045
940,801;  694,338;   -0,636;    0,227
941,355;  586,611;   -0,364;    2,591
941,910;  468,702;   -0,273;   -2,136
942,464;  513,611;   -0,818;   -0,318
943,018;  799,793;    1,000;   -0,227
943,572;  608,793;    2,545;   -0,682
944,126;  654,338;    0,091;   -0,409
944,681;  525,793;    3,091;    0,227
945,235;  464,429;    1,000;   -0,591
945,789;  413,884;    0,364;   -1,864
946,342;  748,975;    0,455;   -0,591
946,896;  475,429;   -2,273;    0,955
947,450;  448,338;    1,545;   -0,227
948,004;  717,793;    1,727;   -0,045
948,558;  504,793;    0,273;   -0,864
949,111;  498,066;   -0,273;   -0,318
949,665;  723,429;    1,636;   -0,682
950,219;  671,066;   -0,091;   -1,045
950,772;  581,066;   -1,909;    1,864
951,326;  578,702;    0,545;   -0,955
951,879;  497,338;    0,727;   -2,318
952,433;  645,338;    0,000;    2,227
952,986;  455,247;    2,909;    0,682
953,539;  408,157;   -0,273;    0,591
954,093;  359,520;    0,545;   -1,318
954,646;  516,793;    0,909;    1,318
955,199;  431,793;    0,000;   -0,500
955,752;  656,611;   -0,455;    1,773
956,305;  487,884;   -0,091;    2,955
956,858;  547,611;    0,818;   -0,318
957,411;  622,066;   -0,545;    2,136
957,964;  501,338;    1,364;    2,136
958,517;  411,975;   -1,545;    3,136
959,070;  366,611;   -0,455;    1,955
959,623;  676,793;    1,091;    1,500
960,176;  612,338;    1,727;    2,045
960,728;  570,884;   -2,727;    0,773
961,281;  513,429;    0,545;    0,500
961,834;  428,247;   -0,909;    0,864
962,386;  435,429;    1,727;    1,045
962,939;  391,520;    0,364;   -0,318
963,491;  439,884;    0,455;    1,136
964,043;  369,884;    1,182;    2,409
964,596;  572,338;   -1,000;    2,227
965,148;  467,884;   -1,000;    1,773
965,700;  375,247;    1,091;   -0,227
966,253;  551,247;   -0,636;    0,318
966,805;  507,429;   -2,273;    0,773
967,357;  424,702;    1,091;   -1,500
967,909;  552,066;    0,455;   -1,227
968,461;  422,247;    0,545;    3,136
969,013;  372,611;   -0,182;   -0,864
969,565;  533,975;   -0,455;   -1,136
970,117;  795,157;   -0,364;    1,045
970,669;  541,975;    0,182;   -0,136
971,220;  319,975;   -0,455;   -1,500
971,772;  416,247;   -0,636;   -0,318
972,324;  522,611;    0,091;   -0,500
972,876;  422,066;    0,818;   -0,045
973,427;  553,247;    1,909;   -1,045
973,979;  622,157;   -0,727;   -2,500
974,530;  403,702;    1,818;    1,318
975,082;  475,338;   -0,545;    1,682
975,633;  415,520;    1,091;    1,682
976,184;  486,702;    0,909;    0,773
976,736;  477,157;    0,091;    0,227
977,287;  488,975;   -0,909;   -0,500
977,838;  450,884;    0,909;   -0,318
978,389;  461,520;   -1,000;   -0,500
978,940;  310,247;    0,545;   -0,409
979,491;  309,611;    0,091;   -0,500
980,042;  420,247;    0,182;    3,045
980,593;  422,429;   -2,545;    0,227
981,144;  530,157;    2,545;   -0,500
981,695;  576,884;    1,455;    1,500
982,246;  516,702;   -0,273;    1,045
982,797;  370,066;   -1,727;    0,682
983,347;  528,611;    0,364;    0,591
983,898;  744,338;    3,091;    0,409
984,449;  696,975;    2,182;    0,773
984,999;  518,066;    1,455;   -1,136
985,550;  469,338;    0,182;   -0,318
986,100;  315,066;   -0,455;   -0,318
986,651;  314,702;   -0,818;    0,045
987,201;  355,611;   -1,000;   -0,591
987,751;  372,066;    0,818;    2,864
988,302;  426,520;    2,636;    1,500
988,852;  472,793;    0,455;   -1,136
989,402;  536,066;    0,091;    0,682
989,952;  560,066;   -2,182;    0,864
990,502;  395,884;   -0,091;    0,682
991,052;  289,157;   -0,727;    0,045
991,602;  339,247;   -2,909;    1,318
992,152;  401,520;    0,455;    0,682
992,702;  432,338;    1,364;   -0,045
993,252;  375,520;   -3,000;   -0,500
993,802;  479,975;   -0,273;    1,318
994,352;  434,884;   -1,545;    1,136
994,901;  333,975;   -0,182;    3,227
995,451;  323,520;   -0,182;    0,318
996,000;  362,247;    1,636;    0,318
996,550;  369,793;    2,273;    0,227
997,100;  409,793;    1,273;   -0,045
997,649;  566,793;    2,182;    0,955
998,198;  366,975;    1,727;   -1,500
998,748;  501,702;    1,091;   -2,318
999,297;  420,520;   -0,818;   -0,409
999,846;  563,611;    1,000;   -0,773
1000,395;  467,429;   -0,818;    0,500
1000,945;  588,611;    1,818;   -0,773
1001,494;  583,066;    2,364;    0,682
1002,043;  557,975;    4,636;    0,864
1002,592;  362,975;   -1,091;    1,955
1003,141;  367,975;   -0,455;   -0,682
1003,690;  538,611;    1,727;    0,500
1004,238;  404,702;    1,455;   -0,045
1004,787;  313,884;    1,364;    1,227
1005,336;  506,338;    0,364;    0,682
1005,885;  458,793;    1,364;   -2,773
1006,433;  449,338;    0,545;    0,955
1006,982;  651,338;    0,455;    1,682
1007,531;  487,975;   -1,818;   -0,227
1008,079;  433,793;   -2,273;    0,500
1008,627;  373,429;   -1,455;    0,409
1009,176;  396,247;    0,000;   -1,955
1009,724;  340,702;    1,091;    0,864
1010,273;  500,066;    1,273;    0,500
1010,821;  372,429;    0,091;    1,409
1011,369;  334,066;   -1,364;    1,318
1011,917;  358,884;   -1,364;   -0,591
1012,465;  447,247;    1,273;   -1,591
1013,013;  429,975;    2,091;   -1,682
1013,561;  543,066;    0,455;   -0,773
1014,109;  643,884;   -1,909;    1,682
1014,657;  514,066;    0,364;    0,591
1015,205;  390,157;    1,636;   -0,955
1015,753;  336,247;   -0,545;   -1,409
1016,301;  422,793;   -2,636;    3,045
1016,848;  502,793;   -1,273;    0,409
1017,396;  509,338;    2,545;    0,045
1017,944;  500,338;    1,182;    1,864
1018,491;  404,884;    0,273;    1,409
1019,039;  729,611;    0,455;    0,591
1019,586;  473,338;   -1,364;    1,682
1020,134;  453,066;    0,455;    1,500
1020,681;  535,884;    0,182;   -1,136
1021,228;  434,793;    2,909;   -2,227
1021,776;  422,611;    1,182;   -1,136
1022,323;  656,884;    0,455;    0,773
1022,870;  558,611;   -1,000;   -0,045
1023,417;  601,338;    2,636;    1,864
1023,964;  425,157;    2,636;    1,227
1024,511;  406,157;    1,000;    0,773
1025,058;  433,975;    3,182;   -0,045
1025,605;  387,520;   -2,273;    3,136
1026,152;  616,066;    1,727;   -0,591
1026,699;  466,338;    1,818;    1,318
1027,245;  442,338;   -0,091;    0,318
1027,792;  374,429;   -1,000;    1,409
1028,339;  607,066;    2,364;   -0,045
1028,885;  458,793;    1,000;   -0,227
1029,432;  404,066;   -0,091;    0,227
1029,978;  527,247;   -1,000;   -1,591
1030,525;  517,611;    1,000;    0,409
1031,071;  378,338;   -1,364;    1,136
1031,618;  688,247;    0,364;    1,682
1032,164;  506,884;   -0,091;    3,045
1032,710;  552,884;    1,636;   -1,500
1033,256;  515,247;   -0,636;   -0,136
1033,803;  355,793;   -0,545;    1,500
1034,349;  214,975;   -1,364;    0,136
1034,895;  268,793;    0,000;   -0,318
1035,441;  354,157;   -0,818;    0,318
1035,987;  404,793;   -2,364;   -0,682
1036,533;  482,429;   -1,455;   -0,955
1037,078;  680,157;    1,455;    1,682
1037,624;  528,429;    2,455;   -0,955
1038,170;  389,520;    0,455;   -0,318
1038,716;  473,793;    1,636;   -0,409
1039,261;  343,975;   -2,273;   -0,773
1039,807;  361,975;   -0,091;    3,409
1040,352;  395,429;   -1,909;   -0,318
1040,898;  382,975;   -1,545;   -0,682
1041,443;  303,429;   -1,455;   -2,591
1041,989;  624,338;    1,091;    1,591
1042,534;  410,429;   -0,364;    2,591
1043,079;  294,793;    2,909;    0,955
1043,625;  411,884;    1,818;    0,500
1044,170;  430,520;   -1,364;    1,045
1044,715;  639,520;    2,455;    0,955
1045,260;  535,520;    2,182;   -0,955
1045,805;  371,066;    1,182;   -0,591
1046,350;  325,884;    1,364;   -0,409
1046,895;  521,157;    2,909;    1,591
1047,440;  509,247;    5,364;    0,409
1047,985;  374,338;    2,818;   -0,955
1048,530;  339,702;    1,545;    1,227
1049,074;  408,429;    0,000;    0,318
1049,619;  338,066;   -1,364;    1,955
1050,164;  326,429;    0,455;    0,227
1050,708;  416,338;   -0,455;    0,045
1051,253;  679,611;    1,273;   -2,227
1051,797;  463,157;    0,818;   -1,318
1052,342;  285,702;   -1,182;    1,045
1052,886;  392,066;    0,364;   -1,409
1053,430;  270,429;   -1,364;    0,136
1053,975;  368,975;   -0,818;   -0,318
1054,519;  382,520;   -0,727;    3,227
1055,063;  456,429;    0,909;    1,318
1055,607;  429,884;   -0,182;    0,227
1056,151;  430,157;    2,909;    1,682
1056,695;  339,611;    2,273;   -1,136
1057,239;  333,975;   -1,727;   -0,682
1057,783;  382,338;    0,818;   -1,500
1058,327;  457,520;    0,000;    1,409
1058,871;  604,975;   -0,545;    1,318
1059,415;  470,793;   -0,818;   -0,045
1059,958;  632,793;    1,455;    2,591
1060,502;  385,520;   -1,000;   -0,773
1061,046;  274,338;    0,364;   -0,955
1061,589;  256,157;   -3,000;   -1,136
1062,133;  232,702;   -1,273;    1,864
1062,676;  277,066;    1,182;    0,864
1063,220;  317,338;    1,091;    0,500
1063,763;  348,429;    0,909;    1,136
1064,306;  376,793;   -0,909;    1,864
1064,849;  366,884;   -0,909;    0,591
1065,393;  346,338;    2,000;   -1,500
1065,936;  350,702;    0,182;   -0,409
1066,479;  261,702;   -1,455;    1,318
1067,022;  283,793;   -0,273;   -0,227
1067,565;  260,157;   -0,091;   -1,318
1068,108;  227,429;    0,727;   -0,591
1068,651;  206,520;   -0,636;    1,409
1069,194;  216,793;   -0,455;   -1,682
1069,736;  240,884;   -1,273;    0,955
1070,279;  207,338;   -1,364;   -0,500
1070,822;  305,611;   -2,000;   -0,318
1071,364;  441,611;   -0,364;    1,318
1071,907;  291,429;   -0,727;    3,227
1072,450;  132,338;    0,000;   -0,045
1072,992;  218,429;   -0,273;    3,136
1073,535;  300,793;    2,091;    2,136
1074,077;  210,157;   -0,727;    2,045
1074,619;  208,520;   -1,364;    0,591
1075,161;  240,338;   -1,091;    1,500
1075,704;  370,702;    1,545;    1,227
1076,246;  226,884;   -0,182;    0,682
1076,788;  162,520;   -0,364;    1,773
1077,330;  165,520;    1,273;    2,136
1077,872;  206,520;    0,909;    0,955
1078,414;  391,793;    2,727;    0,773
1078,956;  234,975;    1,273;   -0,227
1079,498;  382,975;    1,636;    0,318
1080,040;  236,429;    1,909;   -1,318
1080,581;  195,520;    1,636;   -0,318
1081,123;  130,066;    0,091;   -0,773
1081,665;  148,611;   -1,182;   -0,955
1082,206;  349,066;    1,364;   -0,500
1082,748;  266,884;    0,727;    2,045
1083,289;  170,702;   -2,000;    1,318
1083,831;  160,157;   -0,545;    0,227
1084,372;  208,793;    0,000;    0,591
1084,913;  204,338;    1,091;    0,864
1085,455;  151,884;   -1,909;   -2,045
1085,996;  149,884;   -2,273;    0,136
1086,537;  191,247;   -0,091;    0,864
1087,078;  195,611;   -0,909;   -2,136
1087,619;  250,520;   -1,273;    0,227
1088,160;  210,157;    0,000;    1,318
1088,701;  186,611;   -1,091;    0,682
1089,242;  164,429;    1,364;   -2,227
1089,783;  217,247;   -0,273;    1,409
1090,324;  193,702;    0,455;    0,682
1090,865;  144,157;    2,727;   -0,409
1091,405;  114,793;    0,727;    2,227
1091,946;  158,157;    0,182;   -0,955
1092,487;  104,429;    0,818;   -1,409
1093,027;  220,338;   -1,364;   -1,500
1093,568;  152,702;   -0,364;    1,227
1094,108;  192,247;    0,273;    1,773
1094,649;  152,157;   -1,182;    0,136
1095,189;  123,611;   -0,636;   -0,682
1095,729;  125,520;   -0,091;    0,955
1096,269;  106,793;    0,727;   -0,955
1096,810;  272,975;   -1,364;    0,500
1097,350;  207,611;    1,364;   -0,773
1097,890;  154,611;    0,364;    1,227
1098,430;  322,702;    2,364;    2,864
1098,970;  250,157;    2,182;    1,682
1099,510;  141,338;    0,545;   -2,318
1100,050;  124,247;    1,000;   -1,591
1100,589;  138,066;   -0,727;   -0,318
1101,129;  186,702;    0,818;   -0,955
1101,669;  273,247;    1,727;    2,136
1102,209;  189,247;   -0,091;    2,227
1102,748;  152,157;    0,000;    0,955
1103,288;  161,157;    1,273;   -1,227
1103,827;  153,884;    3,091;   -2,227
1104,367;  107,975;   -0,091;   -2,409
1104,906;  109,611;    1,364;   -1,136
1105,445;  158,247;    0,636;   -1,136
1105,985;  134,247;   -0,727;    1,500
1106,524;  151,702;   -1,727;   -0,682
1107,063;  136,247;   -2,727;    1,409
1107,602;  108,975;   -1,909;   -1,500
1108,141;   91,157;   -1,909;    1,500
1108,680;  157,157;   -3,455;   -0,591
1109,219;  127,520;   -0,909;   -0,500
1109,758;  117,429;    0,455;    0,682
1110,297;  114,520;    1,000;   -0,682
1110,836;   89,793;   -0,727;    0,955
1111,375;  130,702;   -2,545;    0,409
1111,913;  162,066;   -1,000;    0,773
1112,452;  129,520;   -0,273;    0,136
1112,991;   85,611;    1,091;    1,955
1113,529;   82,066;   -0,818;   -0,045
1114,068;  113,884;   -0,273;    2,955
1114,606;   79,338;   -0,364;   -0,955
1115,144;  145,066;   -1,273;    1,045
1115,683;  116,702;   -0,727;    0,318
1116,221;  148,793;   -0,455;   -0,864
1116,759;   99,520;    0,636;   -0,864
1117,297;  179,611;    0,000;    1,864
1117,836;  100,611;   -2,182;   -1,227
1118,374;  106,066;    0,182;   -0,682
1118,912;  108,520;    0,909;    2,682
1119,450;  100,793;    1,000;    0,864
1119,988;  103,975;    1,545;    2,136
1120,525;  373,520;    5,091;    3,318
1121,063;  197,520;    1,182;    1,864
1121,601;  103,066;   -0,909;   -1,227
1122,139;   83,975;   -0,727;   -2,045
1122,676;  188,157;   -0,727;    2,773
1123,214;  162,157;   -1,182;    4,409
1123,751;   81,157;    1,727;    2,227
1124,289;  118,975;   -0,091;   -0,409
1124,826;   83,975;    1,727;    0,227
1125,364;   44,702;    1,727;   -0,955
1125,901;  150,611;    1,182;    1,227
1126,438;  160,520;    0,818;    0,955
1126,975;   47,702;   -0,727;   -0,773
1127,513;   77,429;    0,273;    2,136
1128,050;   53,702;    1,636;   -0,682
1128,587;   88,611;    2,000;   -0,227
1129,124;  113,975;    0,091;    1,318
1129,661;   60,520;    0,273;    0,227
1130,198;  135,884;    1,636;    0,773
1130,734;   96,702;    0,182;    1,409
1131,271;   47,157;   -0,909;    0,864
1131,808;  115,702;    2,909;    3,045
1132,345;   70,247;    1,545;    0,318
1132,881;   24,793;   -1,545;   -1,864
1133,418;   82,702;    0,727;   -1,136
1133,954;   58,702;    2,455;   -2,682
1134,491;   92,247;    1,364;   -0,773
1135,027;   55,793;    2,364;    0,864
1135,564;   82,429;    0,273;    2,955
1136,100;   76,429;    0,364;    2,136
1136,636;   40,520;   -1,273;   -1,045
1137,172;   66,611;    0,000;   -1,045
1137,708;   47,884;   -1,364;   -1,045
1138,245;   41,702;    1,273;   -1,227
1138,781;   33,247;    1,091;   -3,318
1139,317;   54,975;    1,273;   -1,409
1139,852;   62,611;    3,091;    0,136
1140,388;   89,884;   -1,182;   -0,409
1140,924;   49,793;   -1,091;   -2,227
1141,460;   27,975;   -1,636;    0,136
1141,996;   12,247;   -1,364;    2,682
1142,531;   29,247;    1,364;    3,318
1143,067;  105,338;    1,182;    1,045
1143,602;  136,520;   -0,091;   -0,318
1144,138;   72,793;   -2,636;    1,045
1144,673;   31,247;   -1,455;    1,409
1145,209;   44,338;   -1,909;   -0,318
1145,744;   19,702;   -0,727;    0,864
1146,279;   65,247;    1,818;   -0,136
1146,815;   42,520;    1,545;   -2,682
1147,350;   59,520;   -1,364;    0,045
1147,885;   29,247;   -0,818;   -1,318
1148,420;   30,247;   -2,273;    0,773
1148,955;   26,247;   -1,727;    1,864
1149,490;   30,247;   -0,909;   -1,591
1150,025;   20,884;    0,455;   -1,773
1150,560;   63,157;    1,091;   -0,955
1151,094;   51,520;    1,455;   -0,591
1151,629;   49,338;    1,636;    0,864
1152,164;   27,702;    1,364;    1,318
1152,698;   15,157;   -0,182;   -0,136
1153,233;    6,702;    0,091;   -0,682
1153,767;   24,702;   -3,000;   -2,318
1154,302;   38,520;   -1,455;    1,773
1154,836;   34,157;   -0,455;   -2,136
1155,371;   50,429;   -1,364;    3,682
1155,905;   32,884;   -0,636;    1,682
1156,439;   33,611;   -0,636;   -0,500
1156,973;   38,520;    0,364;    0,318
1157,507;   21,975;   -0,364;    0,682
1158,042;   27,975;   -0,727;    1,045
1158,576;   39,066;    0,182;    1,773
1159,110;   40,702;   -0,818;    2,409
1159,643;   29,338;    0,636;   -0,045
1160,177;   14,702;   -1,545;    1,500

