
Integration time [ms]:   0,040
Averaging Nr. [scans]: 11
Smoothing Nr. [pixels]: 0
Data measured with spectrometer [name]: 7318044SP
Wave   ;Sample   ;Dark     ;Reference
[nm]   ;[counts] ;[counts] ;[counts] 

186,757;   35,192;   31,551;    1,318
187,357;   35,503;   22,551;    0,955
187,958;   21,626;   15,460;   -1,591
188,558;   37,538;    8,915;   -1,227
189,159;   23,529;    6,733;   -4,500
189,759;   13,245;    7,278;   -3,591
190,360;    8,045;    2,824;   -2,136
190,960;   20,648;    2,915;   -4,136
191,560;   30,424;    3,189;   -6,591
192,161;  131,176;    4,372;   -3,500
192,761;   76,666;    4,010;   -3,227
193,361;   46,047;    1,556;   -3,773
193,962;   63,201;    2,010;   -2,682
194,562;   21,823;    1,189;   -3,955
195,162;   17,396;   -2,448;   -2,227
195,762;   74,101;   -3,176;   -0,045
196,362;   46,934;    1,370;   -2,500
196,963;   14,450;    2,006;   -0,864
197,563;   36,002;    1,551;   -0,955
198,163;   11,131;    0,096;   -0,682
198,763;   17,075;    1,733;   -0,500
199,363;   34,281;    3,096;   -0,500
199,963;   24,199;    0,369;    0,409
200,563;   15,953;    2,823;   -1,409
201,163;    5,915;    3,277;   -0,227
201,763;   23,325;    3,732;    0,318
202,363;   12,311;    1,459;    1,500
202,963;   20,639;    1,459;    1,045
203,563;   46,273;    0,277;    0,500
204,162;   16,490;    2,096;   -1,864
204,762;   15,687;    0,550;    0,591
205,362;   10,898;    3,004;    1,955
205,962;   15,542;    3,096;    1,955
206,562;   15,549;    1,823;    2,318
207,161;   11,326;   -0,087;    0,318
207,761;   49,915;    1,277;    2,409
208,361;   18,144;   -0,268;    1,409
208,960;   23,874;    0,459;    1,500
209,560;   21,622;    1,277;    1,591
210,160;   30,135;    0,550;    1,864
210,759;   16,505;    4,186;    1,227
211,359;   11,209;    1,459;    1,045
211,958;   67,980;    1,277;    2,045
212,558;   66,745;    1,732;    1,864
213,157;   32,133;    1,822;    1,500
213,757;  113,353;    3,822;   -0,227
214,356;   47,033;    1,277;   -0,409
214,956;  102,956;    3,095;    0,409
215,555;   36,942;    2,095;    2,136
216,154;   21,582;   -2,723;   -0,591
216,754;   23,746;    0,277;    0,773
217,353;   28,649;   -0,268;   -1,045
217,952;    9,124;   -0,178;    0,318
218,552;   41,497;    1,368;   -0,773
219,151;   20,696;    0,277;    0,955
219,750;   14,961;    0,004;   -0,227
220,349;    7,992;   -0,451;    1,045
220,948;   47,116;   -1,360;    1,136
221,548;   19,535;    0,913;    1,227
222,147;   26,221;   -0,087;   -0,409
222,746;   74,362;   -0,451;   -0,955
223,345;   39,770;    0,731;    0,500
223,944;   42,781;   -0,451;    0,773
224,543;   41,485;    1,004;   -1,409
225,142;   26,307;    0,094;    0,136
225,741;   40,658;   -0,814;    1,045
226,340;   33,887;   -0,451;   -0,955
226,939;   67,931;   -0,996;   -0,136
227,538;   27,180;   -0,360;   -0,773
228,137;   73,675;   -0,814;    0,864
228,735;   55,121;   -0,541;    1,227
229,334;   14,104;   -0,905;   -0,227
229,933;   75,309;    0,459;    0,591
230,532;   66,658;    1,186;   -0,409
231,131;   94,227;    1,732;    0,318
231,729;   50,265;   -2,450;   -2,318
232,328;   30,235;   -0,723;   -1,500
232,927;   35,898;    1,004;   -0,500
233,525;   27,726;    3,640;    0,045
234,124;   37,473;    2,368;   -1,591
234,723;   19,907;    0,913;   -1,045
235,321;   14,681;    2,277;    0,136
235,920;   22,092;    1,186;   -1,227
236,518;   69,048;    3,459;    0,318
237,117;   24,904;    0,004;   -0,227
237,715;   34,928;    0,640;   -0,500
238,314;   35,775;   -0,087;   -2,318
238,912;   72,505;   -0,723;   -1,409
239,510;   48,925;    0,459;   -1,227
240,109;   90,194;    0,004;    3,773
240,707;   76,599;   -0,996;    1,227
241,305;   26,118;    0,550;    0,136
241,904;   53,845;   -0,178;   -2,045
242,502;  120,054;   -0,632;   -0,227
243,100;   70,365;   -0,087;   -0,955
243,698;   36,388;    0,732;    1,682
244,297;   59,749;   -0,632;    0,682
244,895;   58,300;   -0,269;   -2,318
245,493;  137,567;    2,186;   -0,591
246,091;  159,256;    1,368;   -1,318
246,689;  113,975;    1,004;    0,591
247,287;  112,508;    0,822;   -1,136
247,885;   94,503;   -1,451;    1,227
248,483;   76,769;    1,822;   -0,500
249,081;  132,304;    0,185;    1,591
249,679;  158,817;   -0,178;    1,682
250,277;   85,714;   -1,723;    0,864
250,875;  175,919;   -1,087;   -1,045
251,473;  116,189;   -1,178;    0,500
252,071;  190,042;    1,459;    1,045
252,669;  133,690;   -1,814;    0,318
253,267;  102,899;   -0,087;    0,773
253,864;  150,963;   -0,360;    0,682
254,462;  255,385;    1,640;    1,591
255,060;  117,432;   -0,269;    1,318
255,658;  124,509;    0,822;   -0,136
256,255;  167,863;    0,186;   -2,045
256,853;  208,412;   -0,269;    1,409
257,451;  182,004;    0,822;    1,864
258,048;  491,142;    1,822;    1,864
258,646;  295,649;    1,731;   -1,045
259,243;  369,048;   -0,087;    2,227
259,841;  272,333;   -0,814;    0,318
260,438;  164,691;   -0,087;    0,864
261,036;  263,488;   -1,905;    1,409
261,633;  173,890;   -0,087;    2,227
262,231;  151,849;    2,731;   -0,045
262,828;  150,972;   -0,905;    1,136
263,425;  205,306;    0,913;   -0,591
264,023;  206,614;    0,186;    0,045
264,620;  337,177;   -0,360;   -0,318
265,217;  446,608;   -2,087;    3,136
265,815;  228,922;   -1,905;    2,136
266,412;  329,990;    0,731;    0,136
267,009;  343,086;   -1,451;    0,773
267,606;  416,559;    0,822;   -0,955
268,203;  263,526;   -0,269;   -0,591
268,801;  295,048;    1,731;    0,591
269,398;  222,259;   -0,360;    2,500
269,995;  355,517;    0,277;    1,591
270,592;  308,743;   -0,632;   -0,500
271,189;  224,990;    0,186;    0,409
271,786;  198,681;   -0,632;    1,227
272,383;  421,687;   -1,087;    0,227
272,980;  293,646;    0,277;    0,318
273,577;  246,001;    0,004;    1,227
274,174;  226,584;    0,822;    2,591
274,771;  359,509;   -0,814;   -0,773
275,367;  694,628;    2,277;    1,409
275,964;  505,740;    0,731;   -0,500
276,561;  324,171;    1,549;   -1,045
277,158;  242,362;    0,095;   -1,773
277,755;  465,395;    2,185;    0,409
278,351;  367,641;   -0,451;   -1,500
278,948;  421,746;   -0,815;    0,045
279,545;  371,553;   -1,360;    2,318
280,141;  531,514;   -1,723;   -2,045
280,738;  506,491;   -0,451;   -0,136
281,334;  314,441;   -1,633;    0,591
281,931;  331,002;   -0,087;   -1,318
282,528;  437,324;    0,822;   -0,500
283,124;  503,931;   -1,087;   -0,500
283,721;  503,785;   -0,451;    1,409
284,317;  362,835;    0,185;    2,500
284,913;  538,981;   -1,360;    0,591
285,510;  758,981;    0,640;   -0,318
286,106;  589,773;   -2,269;   -0,955
286,703;  413,081;   -0,360;    1,955
287,299;  357,424;   -1,451;   -0,591
287,895;  343,635;    0,822;   -1,045
288,491;  328,169;    0,186;    2,136
289,088;  456,972;   -2,360;    2,409
289,684;  514,509;   -1,723;    1,500
290,280;  657,670;    0,368;    0,682
290,876;  623,711;    1,822;    5,500
291,472;  532,274;    1,276;    2,227
292,068;  552,791;    1,367;    0,227
292,665;  431,242;    2,095;    0,773
293,261;  336,825;    0,276;    2,136
293,857;  551,743;    2,913;    2,136
294,453;  469,391;    3,550;    0,955
295,049;  705,003;   -0,268;    1,955
295,644;  537,974;    0,095;    0,136
296,240;  401,367;   -0,905;   -0,136
296,836;  546,173;   -0,995;    0,318
297,432;  706,018;    1,096;   -0,500
298,028;  766,569;    0,732;    0,773
298,624;  608,109;    1,459;    1,864
299,220;  587,845;    2,368;    0,591
299,815;  577,593;    1,005;   -0,409
300,411;  695,003;    0,914;    1,773
301,007;  828,088;    1,368;    0,227
301,602;  652,370;   -0,541;   -2,318
302,198;  787,727;    0,732;   -0,773
302,794;  616,815;    1,187;   -0,500
303,389;  572,296;   -1,177;    1,045
303,985;  645,229;    0,550;    1,409
304,580;  774,625;    1,459;    1,591
305,176;  675,000;   -3,086;    0,136
305,771;  549,719;   -1,268;   -1,227
306,367;  973,323;    4,095;    0,136
306,962;  708,733;    0,641;    1,500
307,558;  758,000;   -0,450;    0,136
308,153;  844,555;    1,095;   -1,136
308,748;  615,862;   -0,814;    1,682
309,344; 1027,781;   -0,632;   -1,318
309,939; 1058,886;   -1,905;   -1,318
310,534;  684,106;   -0,086;   -1,682
311,130;  636,332;    0,459;   -2,500
311,725;  582,948;    1,004;   -0,500
312,320;  658,657;    2,459;    0,045
312,915;  776,842;    1,459;   -1,045
313,510; 1003,596;    1,550;   -0,500
314,105;  697,941;    1,096;    1,409
314,700;  511,648;   -3,086;   -1,045
315,295;  604,897;   -0,904;    0,045
315,890;  522,897;    1,277;    0,864
316,485;  645,783;   -0,359;   -0,318
317,080;  535,660;   -3,086;    1,591
317,675;  874,939;    2,005;   -0,682
318,270; 1081,135;    5,550;    3,318
318,865;  966,853;    3,278;    3,045
319,460;  771,458;   -0,904;    0,591
320,055;  590,135;   -0,541;   -1,227
320,650;  588,451;   -1,995;   -0,591
321,244;  591,270;   -0,177;   -1,409
321,839;  630,493;   -1,541;   -0,227
322,434;  685,021;   -1,086;   -1,591
323,029;  587,818;    1,732;    1,591
323,623;  538,953;    1,550;    0,773
324,218;  728,847;    2,368;    1,409
324,812;  669,188;    1,096;    1,591
325,407;  680,912;   -0,814;    2,045
326,002;  804,381;    0,277;   -0,409
326,596;  730,622;    0,914;    1,318
327,191;  562,337;    0,823;   -1,045
327,785;  551,804;   -0,813;   -0,227
328,379;  592,431;    1,368;    0,136
328,974;  657,707;    0,914;   -3,955
329,568;  681,199;    0,186;   -2,409
330,163;  765,566;    2,096;    1,045
330,757;  598,625;    2,459;    1,591
331,351;  539,895;    0,459;    0,682
331,945;  546,443;    0,914;    1,409
332,540;  717,267;   -1,723;   -0,591
333,134;  697,094;   -1,086;    0,773
333,728;  697,901;    0,005;    0,318
334,322;  592,144;   -1,177;   -0,864
334,916;  576,188;    0,277;    0,955
335,510;  784,425;   -0,450;   -0,136
336,105;  799,701;   -1,086;    1,591
336,699;  670,203;   -1,086;    0,591
337,293;  717,986;   -1,723;    0,318
337,887;  654,842;   -2,723;    1,955
338,481;  844,534;    0,459;    0,591
339,074;  978,998;   -0,359;    2,682
339,668;  952,496;   -1,632;    1,227
340,262; 1597,470;    1,732;    3,227
340,856; 1158,182;    1,822;   -0,682
341,450;  752,441;    1,004;    1,864
342,044;  844,622;    1,459;    0,136
342,637; 1031,194;    0,913;   -2,136
343,231; 1043,192;   -2,360;    0,682
343,825;  868,012;   -1,086;   -0,591
344,419;  844,041;   -1,995;    0,500
345,012; 1469,601;    2,459;    4,045
345,606; 1255,273;    4,641;    1,591
346,199;  887,979;   -1,813;   -0,227
346,793; 1056,569;    1,914;    2,045
347,386;  827,267;   -0,813;   -1,136
347,980;  688,557;   -0,268;   -0,045
348,573;  842,322;    2,278;    0,409
349,167; 1153,251;    5,278;    4,773
349,760; 1070,545;    2,914;    2,682
350,354;  991,770;   -0,813;    1,136
350,947; 1063,140;    1,096;    1,682
351,540;  860,216;   -0,358;   -1,409
352,134;  689,366;    1,096;    1,136
352,727;  756,513;   -0,086;    1,136
353,320;  789,322;    0,005;    0,591
353,913;  693,014;   -1,995;    1,864
354,507;  947,513;    0,823;   -1,227
355,100;  814,187;    0,460;    0,864
355,693; 1267,497;    2,005;    2,409
356,286;  983,357;    0,823;    2,773
356,879;  804,017;   -0,722;    1,227
357,472;  762,955;   -0,904;    1,500
358,065;  854,266;   -0,722;    2,500
358,658;  673,553;   -0,540;    2,318
359,251;  616,935;   -1,631;   -0,591
359,844;  844,785;   -1,904;   -1,136
360,437;  951,838;   -2,995;    0,045
361,030;  769,477;    1,369;   -0,682
361,623;  743,424;    2,824;    0,318
362,215; 1015,788;   -0,086;    2,045
362,808;  841,295;   -2,358;   -1,682
363,401;  744,623;   -2,449;    0,136
363,994; 1015,087;   -0,631;   -1,500
364,586;  747,743;    0,824;   -1,500
365,179;  680,951;   -0,449;   -1,136
365,772;  503,184;   -1,995;    2,045
366,364;  693,042;    1,915;   -3,227
366,957;  794,091;    2,279;   -0,045
367,549;  698,261;    2,188;   -0,864
368,142;  699,677;    1,825;   -1,500
368,734;  653,149;    0,734;   -2,136
369,327;  556,800;    1,643;   -0,500
369,919;  614,324;   -1,538;    0,409
370,512;  651,632;   -1,083;   -0,500
371,104;  957,962;   -0,901;    1,591
371,696; 1006,703;    1,191;   -0,955
372,289;  824,690;    0,373;    1,136
372,881;  764,055;   -2,080;    1,318
373,473;  617,690;   -2,170;    1,136
374,066;  745,248;   -0,169;    0,500
374,658;  702,058;    0,378;    1,136
375,250;  625,510;    0,653;   -1,409
375,842;  705,161;    0,473;   -0,045
376,434;  644,630;   -0,435;   -0,409
377,026;  647,014;    0,204;   -2,500
377,618;  690,770;   -0,158;   -0,682
378,210;  608,328;   -0,338;   -1,955
378,802;  562,288;    0,754;   -0,591
379,394; 1071,227;    1,846;    0,682
379,986;  782,270;    1,393;   -0,955
380,578;  679,566;   -0,153;    0,773
381,170;  965,423;   -0,972;    0,045
381,762;  826,651;    0,755;    1,409
382,354;  777,345;   -0,065;   -1,318
382,945;  661,523;   -2,976;    0,318
383,537;  593,693;   -2,705;   -1,955
384,129;  597,757;   -2,160;   -1,136
384,721;  742,165;   -0,252;    0,955
385,312;  637,330;   -0,161;   -0,955
385,904;  785,881;   -2,706;    1,591
386,496;  650,309;   -0,979;    1,045
387,087;  829,862;    1,022;    2,500
387,679;  759,970;   -1,160;    0,045
388,270;  754,949;    2,840;    2,045
388,862;  695,911;    1,295;   -0,318
389,453;  649,642;   -0,887;    1,045
390,045;  694,820;   -0,705;   -2,682
390,636;  567,216;    0,204;   -0,591
391,227;  631,606;   -0,523;   -0,045
391,819;  632,847;    0,204;    0,773
392,410;  937,601;    1,022;    0,045
393,001;  710,411;   -0,979;   -1,591
393,593;  803,819;    1,930;   -0,045
394,184;  868,702;    1,385;   -0,409
394,775;  675,350;    1,839;    2,136
395,366;  608,393;    1,385;    0,773
395,957;  861,531;    0,113;    0,136
396,548;  714,396;   -0,342;    2,682
397,139;  895,498;   -2,433;    0,591
397,730;  773,009;   -1,888;    0,955
398,321;  772,584;   -1,252;    0,955
398,912;  692,294;   -0,615;    0,136
399,503;  709,825;   -3,524;   -1,409
400,094;  754,787;    0,294;    1,682
400,685;  741,461;   -0,433;    0,045
401,276;  643,300;    0,930;   -0,955
401,867;  641,922;   -0,888;    0,773
402,458;  595,097;   -2,251;   -2,318
403,048;  806,710;    1,112;    0,591
403,639;  698,892;    0,840;    0,864
404,230;  875,913;    2,476;    0,318
404,821;  945,734;   -0,615;    0,045
405,411;  810,441;    1,203;   -2,591
406,002;  677,276;   -1,252;   -1,136
406,592;  971,588;    2,294;    0,045
407,183;  780,427;    0,566;   -1,500
407,774;  741,037;    3,475;   -0,136
408,364;  699,136;    0,930;    0,409
408,954;  852,048;    0,384;    1,227
409,545;  843,931;    1,021;    1,045
410,135;  763,996;    1,293;    0,500
410,726;  706,621;    1,838;    0,318
411,316;  943,301;    0,111;    0,773
411,906;  706,770;   -0,253;   -0,409
412,497;  709,538;   -1,070;   -0,045
413,087;  640,653;   -1,980;   -0,227
413,677;  573,442;   -0,707;    3,864
414,267;  549,949;    0,656;    1,409
414,857;  503,275;   -2,980;    4,227
415,448;  512,609;    0,839;    0,500
416,038;  554,838;    0,020;   -0,591
416,628;  607,325;   -0,889;    0,409
417,218;  691,718;    0,565;    3,318
417,808;  881,135;    0,202;   -0,409
418,398;  691,874;    0,020;    2,682
418,988;  538,824;    2,020;    0,591
419,578;  649,401;   -0,707;    1,409
420,168;  589,424;   -1,343;   -0,955
420,757;  785,975;   -1,343;   -1,500
421,347;  629,654;    0,111;   -0,227
421,937;  572,540;    2,292;    1,409
422,527;  740,745;    0,838;   -0,773
423,116;  913,868;   -0,253;   -0,045
423,706;  535,252;   -1,889;    0,318
424,296;  459,780;    1,384;    0,682
424,885;  654,962;   -0,071;   -3,045
425,475;  608,003;    1,474;   -2,864
426,065;  441,261;   -0,980;   -0,318
426,654;  411,901;   -0,435;   -0,318
427,244;  767,677;    0,020;    1,409
427,833;  733,616;    1,383;   -0,500
428,423;  546,346;   -0,526;    1,136
429,012;  541,584;   -0,344;   -1,136
429,601;  698,438;   -1,344;    0,136
430,191;  545,303;    1,292;    4,318
430,780;  402,725;   -0,344;   -0,409
431,369;  668,901;    0,746;   -0,045
431,959;  517,857;   -1,254;    0,500
432,548;  411,705;   -1,163;   -0,045
433,137;  321,265;   -1,254;   -1,318
433,726;  426,640;    0,292;    0,500
434,315;  443,080;   -0,526;    2,409
434,905;  571,981;   -1,254;    1,409
435,494;  582,717;    0,746;    0,955
436,083;  386,590;   -0,981;   -0,955
436,672;  477,605;    0,110;    0,500
437,261;  409,251;    0,292;   -1,955
437,850;  717,160;    1,383;    0,682
438,439;  755,483;    3,291;    1,955
439,027;  866,008;    3,655;    1,773
439,616;  779,187;    2,927;    1,227
440,205;  492,107;    0,200;   -2,136
440,794;  419,685;    2,109;   -0,045
441,383;  318,630;   -1,346;   -0,591
441,971;  264,958;   -2,436;    0,591
442,560;  274,991;    0,563;   -1,773
443,149;  135,660;    0,379;   -1,318
443,737;  206,209;   -0,074;   -2,318
444,326;  236,836;    0,018;    0,318
444,915;  286,613;   -1,982;    0,864
445,503;  285,789;   -2,891;   -0,318
446,092;  569,223;    0,382;    2,136
446,680;  479,355;    0,382;    0,318
447,269;  370,522;   -0,346;   -0,318
447,857;  343,426;    0,018;   -1,773
448,445;  279,854;    0,563;    1,318
449,034;  203,804;   -1,528;   -1,136
449,622;  205,994;   -1,073;    3,500
450,210;  491,737;    2,017;    2,227
450,799;  387,435;    0,290;   -0,591
451,387;  334,599;    1,381;   -0,591
451,975;  310,321;    2,654;    0,864
452,563;  379,614;    3,472;    2,318
453,151;  198,324;   -0,528;   -1,227
453,739;  228,227;   -1,347;    0,136
454,328;  323,110;    2,381;   -2,136
454,916;  255,799;    2,562;   -0,136
455,504;  261,943;    1,017;    1,227
456,092;  155,831;    0,017;   -1,591
456,679;  123,127;    1,472;    0,682
457,267;  475,849;    4,017;    1,045
457,855;  200,770;    1,017;    1,409
458,443;   74,527;   -0,165;    1,682
459,031;  194,577;    0,108;    2,409
459,619;  157,550;   -1,801;    2,864
460,206;   76,360;    0,835;    2,045
460,794;   78,213;   -2,983;   -0,227
461,382;  108,299;   -0,529;   -0,864
461,970;  109,384;    1,198;    1,864
462,557;   54,460;   -0,711;   -0,682
463,145;  134,178;   -3,165;   -1,682
463,732;  325,005;    2,016;   -1,045
464,320;  151,129;   -0,075;   -3,045
464,907;  242,956;    2,743;   -0,773
465,495;  167,648;    0,743;   -1,227
466,082;  113,833;   -1,984;   -0,045
466,670;  129,504;   -2,529;    1,227
467,257;   55,865;   -1,711;    2,045
467,844;  123,220;   -0,075;    0,045
468,432;   91,076;    0,834;    3,500
469,019;   70,502;    0,925;   -1,773
469,606;  130,722;    0,470;    3,682
470,193;  141,672;   -1,439;    0,227
470,780;  100,596;   -2,075;    0,864
471,368;   58,394;   -1,257;   -0,773
471,955;  119,587;    1,379;   -0,682
472,542;   87,637;    0,652;   -1,136
473,129;   38,364;   -0,166;    0,136
473,716;   38,209;    1,470;    0,591
474,303;   48,590;    0,652;   -0,864
474,890;   45,007;   -1,439;   -0,500
475,477;  103,028;   -1,621;    0,409
476,064;   46,920;    1,106;   -1,591
476,650;  116,418;    0,288;    0,318
477,237;   57,963;   -0,258;    0,955
477,824;   48,474;   -1,076;    0,864
478,411;   14,802;   -1,894;   -0,318
478,997;    1,914;    0,560;   -0,773
479,584;   -5,734;    1,196;   -0,409
480,171;   52,251;   -0,440;   -0,773
480,757;   72,037;    2,651;    0,773
481,344;   30,084;    0,469;    0,409
481,931;    1,158;    1,105;    1,045
482,517;   45,495;   -1,258;    0,318
483,104;   80,808;    1,106;    2,864
483,690;   22,380;   -1,804;    0,045
484,276;   15,304;   -0,895;    0,227
484,863;  106,917;    2,469;    1,136
485,449;   38,645;   -0,077;    0,318
486,035;   19,956;   -1,986;   -0,136
486,622;   52,134;   -0,895;    0,045
487,208;   23,982;    1,378;    1,500
487,794;   -4,393;    0,741;    0,318
488,380;   -2,141;    0,105;   -1,409
488,967;   -5,070;   -1,168;   -0,409
489,553;    3,156;   -1,895;   -1,409
490,139;   33,170;    1,559;    0,773
490,725;   11,942;    0,741;   -0,227
491,311;   23,258;    3,287;    3,045
491,897;   12,557;   -0,986;    1,500
492,483;   22,813;    0,105;    1,227
493,069;  213,317;    3,923;    0,864
493,655;   82,215;    1,650;    0,682
494,241;   28,713;    1,377;   -0,955
494,826;   29,238;    0,287;   -1,045
495,412;   50,604;    2,559;   -0,682
495,998;   20,235;   -0,805;   -0,318
496,584;   45,760;    0,377;    1,045
497,169;   58,581;    1,014;   -0,682
497,755;   33,350;    0,650;    1,227
498,341;   92,482;    0,559;    0,318
498,926;  167,074;    1,832;    1,955
499,512;   40,046;    1,286;    2,955
500,097;   35,656;    0,195;   -0,318
500,683;   56,277;   -0,350;    2,136
501,268;   35,570;   -0,169;   -0,955
501,854;   58,310;   -0,169;    1,227
502,439;   55,647;   -0,624;   -1,773
503,024;   74,377;    0,195;    0,500
503,610;  104,626;   -0,078;   -0,682
504,195;   78,999;    0,558;    1,955
504,780;  179,333;    2,922;    1,227
505,366;  280,189;    3,013;    2,864
505,951;  227,774;    0,740;    1,045
506,536;  160,905;   -3,260;   -3,682
507,121;  255,075;    0,285;   -0,318
507,706;  214,829;    2,376;    1,045
508,291;  175,055;    2,649;    1,136
508,876;  197,088;   -0,988;    2,591
509,461;  295,539;   -0,169;   -0,773
510,046;  380,325;    0,194;    0,318
510,631;  412,903;   -0,351;   -0,773
511,216;  325,205;    2,467;   -0,500
511,801;  452,565;   -0,442;    2,591
512,386;  521,334;    0,740;    0,500
512,971;  565,944;   -2,988;    0,955
513,555;  675,228;   -0,897;   -1,500
514,140;  648,111;   -0,442;   -3,136
514,725;  832,481;   -0,715;   -1,136
515,309;  730,610;   -0,533;    0,318
515,894;  614,598;   -0,624;   -2,227
516,479;  693,050;   -0,624;   -0,955
517,063;  732,425;    0,376;    1,227
517,648;  704,915;    1,012;   -1,136
518,232;  689,895;   -0,261;   -1,409
518,817;  841,092;   -0,079;    1,682
519,401; 1059,672;    2,194;    0,591
519,985;  961,056;    1,103;    1,136
520,570;  807,854;    0,830;   -1,955
521,154; 1005,429;    2,102;    0,591
521,738; 1309,221;   -2,352;    2,409
522,323; 1134,285;   -0,170;    1,682
522,907; 1088,101;    0,466;   -0,136
523,491;  991,764;    0,557;    0,955
524,075;  927,051;    2,284;    0,591
524,659; 1196,814;    1,466;    0,591
525,243; 1099,124;    1,739;    0,409
525,827; 1034,966;    0,648;   -0,045
526,411; 1109,450;   -1,989;   -0,136
526,995; 1295,626;   -0,352;    1,409
527,579; 1344,770;   -0,443;   -1,045
528,163; 1279,096;    0,375;   -1,500
528,747; 1475,052;    2,466;   -0,773
529,331; 1414,647;   -0,080;   -1,409
529,915; 1170,753;    1,738;    0,955
530,499; 1303,659;   -0,807;    1,227
531,082; 1454,116;   -0,534;    1,591
531,666; 1515,146;    1,374;    0,773
532,250; 1434,976;    1,284;    2,682
532,833; 1611,463;    0,920;    2,773
533,417; 1374,847;   -1,807;    0,864
534,001; 1495,835;    1,647;   -0,318
534,584; 1438,660;    0,374;    0,500
535,168; 1239,187;    0,465;    1,409
535,751; 1677,521;    0,647;    0,045
536,334; 1309,055;   -0,898;   -0,409
536,918; 1260,214;    0,011;    1,591
537,501; 1261,246;   -0,899;    1,318
538,085; 1309,762;   -0,444;    1,045
538,668; 1341,595;    0,829;    2,409
539,251; 1745,973;    1,829;    3,773
539,834; 1469,938;    0,101;    0,773
540,418; 1586,188;   -1,990;    4,318
541,001; 1762,842;   -0,990;    1,773
541,584; 1490,707;    2,101;    2,227
542,167; 1581,044;    1,374;    2,955
542,750; 1440,035;    1,919;   -0,773
543,333; 1204,869;    0,555;    2,136
543,916; 1547,041;    0,192;    2,500
544,499; 1417,854;   -1,354;    0,227
545,082; 1526,241;    1,374;    3,591
545,665; 1442,537;    1,919;    1,500
546,248; 1588,414;    1,010;   -0,318
546,830; 1558,640;   -0,445;    1,955
547,413; 1587,476;    1,010;   -0,773
547,996; 1646,042;    0,555;    0,500
548,579; 1448,734;    0,919;    0,955
549,161; 1707,667;    1,828;    2,682
549,744; 1602,723;   -0,809;    0,409
550,326; 1541,286;   -0,809;   -1,136
550,909; 2024,225;    2,737;    0,591
551,492; 1714,688;   -0,263;    0,227
552,074; 1765,753;   -0,173;   -1,318
552,657; 1820,395;    2,373;    0,045
553,239; 1651,075;   -0,173;   -0,773
553,821; 1580,081;   -1,082;    1,045
554,404; 1773,292;    1,282;    1,136
554,986; 1899,580;    0,464;    1,045
555,568; 1799,351;    1,191;   -0,955
556,151; 1993,638;    1,191;   -0,227
556,733; 1672,717;   -0,264;   -0,864
557,315; 1677,363;    0,100;    0,500
557,897; 1469,325;    0,554;   -0,500
558,479; 1499,891;   -1,991;    1,318
559,061; 1625,882;   -0,719;   -0,864
559,643; 1744,756;   -0,264;    0,045
560,225; 1774,374;    1,645;    2,864
560,807; 1658,211;    0,918;    0,318
561,389; 1576,806;    0,554;    2,318
561,971; 1646,959;    0,463;    2,136
562,553; 1650,167;   -1,628;    1,591
563,135; 1760,234;   -0,537;    1,136
563,717; 2104,132;    3,372;    1,136
564,298; 1978,586;    3,645;   -0,045
564,880; 1704,144;    0,645;   -1,409
565,462; 1590,689;    0,645;    1,318
566,043; 1937,311;   -0,446;    2,318
566,625; 2074,211;    1,918;    1,227
567,207; 1835,551;    1,099;    1,682
567,788; 1842,868;   -1,264;    1,500
568,370; 1978,540;    1,917;   -0,500
568,951; 1849,836;    0,190;    0,227
569,533; 2050,663;   -0,628;   -0,500
570,114; 2186,120;   -0,446;    0,682
570,695; 2224,373;   -0,174;   -1,318
571,277; 2171,388;   -0,265;   -1,682
571,858; 2421,030;    2,008;   -1,136
572,439; 2466,094;    1,554;   -1,045
573,021; 2427,928;    2,099;   -2,773
573,602; 2536,813;   -1,265;    0,318
574,183; 2591,470;   -2,083;    2,227
574,764; 2600,441;   -1,629;    0,409
575,345; 2725,901;    0,917;   -0,136
575,926; 2715,954;   -0,356;    0,136
576,507; 2806,259;    1,099;   -0,227
577,088; 2915,892;    3,099;    1,682
577,669; 3058,420;    0,735;    1,955
578,250; 3305,107;    0,644;   -1,045
578,831; 3163,858;   -1,356;   -2,227
579,412; 3032,526;   -0,810;    0,955
579,993; 3322,640;    1,008;    0,227
580,573; 3343,379;   -0,629;   -0,955
581,154; 3015,341;    0,735;   -0,591
581,735; 3229,863;    0,644;    0,773
582,315; 3093,136;   -0,629;    2,136
582,896; 3250,077;   -0,174;    1,227
583,477; 3079,016;    0,189;    1,227
584,057; 3154,547;    0,553;    0,955
584,638; 3231,004;    2,553;    2,318
585,218; 3410,711;   -0,538;    2,682
585,799; 3317,461;    0,281;   -0,227
586,379; 3233,438;    0,372;    1,591
586,959; 3056,567;    0,735;    0,318
587,540; 2889,913;   -0,629;    2,227
588,120; 2802,708;    1,007;   -0,045
588,700; 2667,963;    2,553;    2,136
589,281; 2917,646;    0,462;   -0,955
589,861; 2817,793;    0,099;   -1,682
590,441; 2730,937;    2,371;   -2,682
591,021; 2534,813;   -0,265;   -2,591
591,601; 2640,015;   -0,537;    0,500
592,181; 2743,347;   -0,719;   -0,773
592,761; 2426,752;    0,007;    1,409
593,341; 2589,555;   -0,901;    0,045
593,921; 2528,708;   -0,265;    1,591
594,501; 2414,024;   -0,538;    1,318
595,081; 2380,784;    0,917;   -0,318
595,661; 2626,878;   -1,447;    0,955
596,240; 2679,564;   -0,537;    0,136
596,820; 2826,399;    0,372;    1,955
597,400; 2551,491;    2,008;    0,773
597,980; 2586,769;    2,008;    1,045
598,559; 2577,282;    2,735;   -0,227
599,139; 2546,335;   -0,174;   -1,227
599,718; 2498,972;   -0,174;   -0,409
600,298; 2594,013;    0,735;    0,682
600,877; 2947,523;    2,917;    1,409
601,457; 2846,813;    2,281;    1,136
602,036; 2714,916;    0,190;    2,045
602,616; 2669,215;    0,644;    1,682
603,195; 2820,168;   -0,355;    3,500
603,774; 2736,218;   -0,901;    2,045
604,354; 2660,869;    0,826;   -0,500
604,933; 2555,807;    0,463;    1,864
605,512; 2754,801;    3,554;    0,591
606,091; 2773,285;   -0,537;    3,773
606,671; 2811,728;    0,281;    0,773
607,250; 2803,654;    1,644;    3,136
607,829; 2810,270;    2,372;    3,227
608,408; 2708,901;    1,190;    2,591
608,987; 2616,718;    1,281;    3,409
609,566; 2489,614;   -1,265;   -2,500
610,145; 2592,205;   -1,082;    0,682
610,723; 2745,243;    4,372;    6,864
611,302; 2488,821;   -0,446;    1,682
611,881; 2592,346;    5,008;   11,227
612,460; 2518,551;    1,645;    3,955
613,039; 2584,923;   -0,082;    2,045
613,617; 2293,490;    1,736;    4,773
614,196; 2328,463;    1,099;    1,227
614,775; 2494,448;    1,009;    2,409
615,353; 2496,621;    0,736;    0,864
615,932; 2437,645;    0,100;    2,409
616,510; 2579,076;    0,554;    0,591
617,089; 2933,941;    7,100;   17,591
617,667; 2619,199;    2,372;    6,136
618,246; 2275,642;   -1,537;    1,318
618,824; 2399,401;   -3,355;   -0,955
619,402; 2342,228;   -2,900;   -1,773
619,981; 2482,841;   -0,173;   -1,045
620,559; 2454,941;    0,009;    1,682
621,137; 2466,718;   -0,718;    1,864
621,715; 2154,029;   -1,173;   -0,682
622,293; 2199,797;   -0,537;   -0,773
622,871; 2481,363;   -0,718;    0,500
623,450; 2296,342;    0,373;   -0,864
624,028; 2417,026;    0,191;   -0,955
624,606; 2338,113;   -1,718;    1,682
625,183; 2253,169;   -1,536;   -1,136
625,761; 2263,524;    1,009;    1,136
626,339; 2642,609;    1,373;    2,591
626,917; 2396,339;   -0,172;   -0,045
627,495; 2397,277;   -0,354;    1,318
628,073; 2338,057;   -0,263;    2,864
628,650; 2318,084;    0,100;    2,136
629,228; 2392,128;    0,373;    4,409
629,806; 2111,829;    2,282;    1,136
630,383; 2209,949;    1,464;   -0,318
630,961; 2198,741;    2,555;   -0,955
631,539; 2133,746;    2,464;    0,227
632,116; 2776,377;   11,373;   15,409
632,694; 2462,603;    2,555;    6,500
633,271; 2275,415;    0,828;    2,682
633,848; 2395,902;    1,828;    2,045
634,426; 2212,142;   -1,081;    1,773
635,003; 2038,367;    1,101;   -0,409
635,580; 2376,423;    1,192;    3,682
636,158; 2231,121;    3,737;    1,227
636,735; 2104,054;    0,555;   -0,500
637,312; 2105,579;   -0,809;   -0,682
637,889; 2115,458;   -4,354;   -0,682
638,466; 2092,734;   -3,990;   -0,409
639,043; 2081,936;    2,101;   -1,136
639,620; 2088,197;   -2,262;   -0,955
640,197; 2231,949;    1,100;    1,682
640,774; 2217,244;   -0,172;    1,136
641,351; 2297,266;    0,737;    1,136
641,928; 2332,015;   -0,627;    1,409
642,505; 2435,492;    0,828;   -0,500
643,082; 2337,423;   -1,718;    1,227
643,658; 2009,354;   -0,718;    1,500
644,235; 2118,012;    1,191;    2,500
644,812; 2278,034;    1,918;    0,773
645,388; 2199,147;   -0,991;    1,409
645,965; 2005,714;   -0,809;    1,682
646,542; 2030,282;   -1,445;   -0,227
647,118; 2480,395;    1,009;   -0,955
647,695; 2317,326;   -0,263;    1,136
648,271; 2118,166;   -0,536;    0,500
648,848; 2238,643;    0,736;    2,227
649,424; 2346,483;    0,827;    1,318
650,000; 2071,868;   -0,354;   -1,045
650,577; 2150,527;   -0,627;   -0,955
651,153; 2259,094;   -1,809;    0,955
651,729; 2275,934;    1,191;    0,864
652,305; 2540,411;    0,645;    2,773
652,881; 3022,797;   -0,082;    1,136
653,458; 4001,091;    1,100;    0,227
654,034; 4548,204;    0,282;    1,591
654,610; 4621,772;    0,554;    0,773
655,186; 5021,248;    0,645;    3,045
655,762; 4683,543;   -0,991;    0,409
656,338; 4648,292;    0,100;    0,136
656,913; 4976,769;   -0,082;    0,409
657,489; 4690,336;    0,827;   -0,318
658,065; 4789,904;   -0,173;   -1,591
658,641; 5058,744;   -0,900;   -0,864
659,217; 4762,857;   -0,991;    0,409
659,792; 4525,697;    0,645;   -0,409
660,368; 4622,537;   -2,173;   -0,682
660,944; 4830,196;   -2,082;    1,227
661,519; 4106,309;   -0,628;    0,409
662,095; 3212,603;   -1,719;    0,591
662,670; 2498,534;    1,281;   -0,136
663,246; 2459,738;    1,009;   -0,409
663,821; 2502,306;    0,281;    1,682
664,396; 2229,237;    0,009;    1,864
664,972; 2274,441;    0,009;   -0,500
665,547; 2441,826;    1,372;    0,136
666,122; 2361,848;   -1,082;    0,318
666,698; 2535,870;   -0,173;    0,318
667,273; 2195,256;   -0,173;    0,136
667,848; 2385,278;    2,372;    1,500
668,423; 2468,754;    2,190;    2,318
668,998; 2389,504;    2,827;   -0,682
669,573; 2453,162;   -3,264;   -1,500
670,148; 2591,548;   -1,446;   -0,682
670,723; 2307,115;   -1,810;    0,318
671,298; 2665,864;    2,372;    1,045
671,873; 2523,977;   -0,082;   -0,136
672,448; 2528,090;    0,645;    0,136
673,023; 2559,840;   -1,992;   -0,227
673,597; 2741,862;    0,827;    2,318
674,172; 2708,702;   -0,355;    0,318
674,747; 2561,815;    0,372;   -1,045
675,321; 2351,837;   -0,628;    3,318
675,896; 2209,131;    0,645;    1,045
676,471; 2465,062;    2,645;    1,591
677,045; 2356,266;   -1,264;    0,682
677,620; 2394,197;    0,190;    1,136
678,194; 2426,583;   -2,628;    1,136
678,769; 2403,514;   -1,083;   -0,318
679,343; 2498,718;   -0,628;    1,773
679,917; 2558,831;   -1,446;    1,955
680,492; 2404,216;    0,826;    3,227
681,066; 2448,420;    3,372;    0,409
681,640; 2454,442;    1,463;   -0,318
682,214; 2593,555;    0,735;    0,500
682,788; 2490,395;   -1,356;   -0,773
683,363; 2533,417;   -1,810;    1,682
683,937; 2377,894;   -1,719;   -0,318
684,511; 2616,552;    0,463;   -0,591
685,085; 2546,847;   -1,356;    0,318
685,659; 2398,233;   -2,538;    0,864
686,232; 2645,527;   -0,356;   -0,318
686,806; 2548,095;   -0,901;    0,409
687,380; 2610,571;   -0,174;    0,591
687,954; 2626,775;   -1,174;    1,136
688,528; 2718,524;   -0,719;    1,955
689,101; 2797,092;   -3,992;    1,045
689,675; 2579,841;   -0,356;   -0,136
690,249; 2635,045;   -0,719;    0,409
690,822; 2701,158;    0,280;    0,318
691,396; 2606,816;   -0,265;    1,227
691,969; 2459,202;    1,280;    0,136
692,543; 2571,406;   -0,447;   -1,955
693,116; 2373,155;   -0,265;   -1,409
693,690; 2423,723;    0,099;    0,500
694,263; 2572,017;   -1,083;    2,955
694,836; 2803,039;    1,371;    3,591
695,410; 2522,698;   -0,265;    1,773
695,983; 2542,901;    0,189;    0,591
696,556; 2427,196;   -0,447;   -1,045
697,129; 2499,036;   -0,356;    1,409
697,703; 2464,695;   -1,629;    1,955
698,276; 2481,444;    1,462;   -0,773
698,849; 2511,102;    1,280;    1,409
699,422; 2394,579;   -1,083;    0,591
699,995; 2297,692;    0,007;    0,136
700,568; 2484,350;   -0,629;    3,045
701,140; 2496,918;   -2,811;    1,682
701,713; 2594,667;   -0,174;    2,409
702,286; 2508,416;   -0,538;    0,864
702,859; 2484,075;   -0,902;   -0,591
703,432; 2412,187;    0,825;    0,682
704,004; 2403,573;    0,462;    0,318
704,577; 2237,050;   -0,629;    0,136
705,150; 2357,526;    0,189;    2,500
705,722; 2437,275;   -0,356;   -3,227
706,295; 2459,661;   -0,175;   -0,591
706,867; 2292,320;   -0,175;    1,955
707,440; 2491,069;   -1,720;   -0,409
708,012; 2576,636;    0,462;    0,591
708,584; 2423,476;    2,462;    0,227
709,157; 2401,317;    1,825;   -0,591
709,729; 2524,066;    2,280;    2,045
710,301; 2670,179;    0,734;    0,045
710,874; 2617,292;   -1,447;   -0,227
711,446; 2225,132;    0,371;    0,864
712,018; 2345,790;    0,098;    0,500
712,590; 2241,358;   -1,993;    1,682
713,162; 2550,198;    0,825;    1,318
713,734; 2432,584;    1,825;   -2,045
714,306; 2389,515;   -1,902;   -0,409
714,878; 2228,991;    0,825;    0,864
715,450; 2371,104;    0,643;    0,864
716,022; 2407,217;    1,552;    1,318
716,593; 2423,512;    0,189;    0,591
717,165; 2467,806;   -3,175;   -1,227
717,737; 2598,465;    0,280;    0,409
718,309; 2432,669;    0,280;   -0,045
718,880; 2348,600;   -0,539;   -1,409
719,452; 2454,985;   -0,175;   -1,591
720,024; 2429,735;    0,734;   -0,591
720,595; 2438,302;   -2,902;    0,955
721,167; 2351,324;    0,370;   -2,045
721,738; 2308,710;   -0,812;   -1,045
722,309; 2374,823;   -0,993;   -1,227
722,881; 2218,390;   -1,357;    0,773
723,452; 2408,776;   -2,630;    2,864
724,023; 2467,252;   -0,721;    2,682
724,595; 2488,093;    0,007;    0,682
725,166; 2290,205;    0,007;   -0,409
725,737; 2440,409;    1,734;    0,227
726,308; 2375,613;   -0,266;    0,318
726,879; 2288,726;   -1,630;    1,227
727,450; 2416,930;    0,552;   -0,045
728,021; 2289,952;    3,097;    0,682
728,592; 2435,428;    0,734;    0,500
729,163; 2595,814;    0,643;   -0,136
729,734; 2581,472;    0,188;   -0,227
730,305; 2461,313;    1,734;    0,136
730,876; 2433,607;    0,188;    2,955
731,447; 2740,811;    2,188;    2,682
732,017; 2626,742;    1,097;    1,864
732,588; 2488,219;    0,734;    1,227
733,159; 2651,332;    0,643;   -1,045
733,729; 2391,899;    0,006;    0,409
734,300; 2427,557;    0,915;    0,864
734,870; 2384,761;    3,461;    0,591
735,441; 2409,420;    0,370;   -0,591
736,011; 2287,260;    0,643;   -1,591
736,582; 2339,282;   -0,812;    0,045
737,152; 2299,395;   -1,721;   -2,045
737,722; 2384,599;   -0,267;   -0,682
738,293; 2218,893;   -1,358;    1,318
738,863; 2380,915;    2,461;    2,318
739,433; 2615,210;    5,279;    0,318
740,003; 2523,959;   -0,994;   -0,682
740,573; 2553,254;    2,097;   -1,591
741,143; 2469,003;   -1,085;    0,318
741,713; 2461,753;    1,188;   -0,500
742,283; 2430,502;    0,915;    1,591
742,853; 2333,978;    1,915;    1,591
743,423; 2174,819;    1,733;    0,045
743,993; 2247,477;   -0,358;    1,500
744,563; 2111,590;    0,097;   -0,864
745,133; 2161,521;   -0,812;   -0,864
745,702; 2269,270;   -0,267;    1,773
746,272; 2280,838;   -0,176;    0,591
746,842; 2293,496;   -1,358;   -0,591
747,411; 2226,882;   -0,267;   -0,318
747,981; 2143,086;    0,097;    0,500
748,551; 2171,471;    2,278;   -1,045
749,120; 2264,039;    0,642;   -0,227
749,690; 2295,061;   -0,631;    2,409
750,259; 2444,628;    1,369;    2,955
750,828; 2434,105;    1,551;   -1,955
751,398; 2317,854;    1,278;   -0,045
751,967; 2622,603;    2,187;    0,409
752,536; 2374,716;   -0,813;   -0,227
753,105; 2532,465;    0,096;    0,227
753,675; 2329,215;    0,096;    1,773
754,244; 2319,600;   -0,904;    3,591
754,813; 2351,077;    0,551;    1,227
755,382; 2255,372;    0,460;    0,955
755,951; 2412,757;    1,551;    3,682
756,520; 2446,234;   -0,085;    1,864
757,089; 2696,529;    0,278;    0,500
757,658; 2417,278;    1,733;    1,227
758,227; 2315,027;    1,096;    0,318
758,795; 2384,685;    1,187;    1,136
759,364; 2520,253;   -0,086;   -0,591
759,933; 2211,184;   -1,176;   -0,045
760,501; 2175,570;    0,733;   -1,318
761,070; 2326,864;   -2,813;   -1,409
761,639; 2552,523;   -1,904;    1,318
762,207; 2384,454;    1,551;   -0,955
762,776; 2447,567;    0,369;    0,864
763,344; 2323,498;   -0,995;    0,591
763,913; 1962,156;   -0,722;    1,409
764,481; 2601,451;    1,005;   -0,136
765,049; 2549,382;   -1,358;    1,409
765,618; 2433,949;   -0,086;    0,318
766,186; 2343,881;    0,278;    0,136
766,754; 2361,448;    0,005;    1,864
767,322; 2062,379;   -1,995;    0,409
767,890; 2029,492;   -0,722;   -1,773
768,459; 2214,514;   -2,177;   -0,318
769,027; 2429,354;    1,641;    3,409
769,595; 2141,285;    3,278;    2,591
770,163; 2197,398;    3,823;    2,955
770,730; 2192,057;    0,732;   -0,136
771,298; 2161,988;    0,187;   -1,409
771,866; 2146,464;   -1,541;    4,955
772,434; 2186,941;   -0,631;   -1,864
773,002; 2444,690;    0,005;    0,682
773,569; 2306,803;    0,914;    1,682
774,137; 2370,007;   -0,268;   -0,045
774,705; 2363,665;    0,278;   -0,136
775,272; 2174,233;    0,641;    0,682
775,840; 2287,255;   -0,177;    2,682
776,407; 2261,731;    0,277;    1,955
776,975; 2005,935;   -0,632;    0,318
777,542; 2179,321;   -1,086;   -0,045
778,110; 2180,070;   -1,268;   -0,045
778,677; 2036,183;   -2,359;   -0,864
779,244; 2069,023;    2,186;    1,045
779,812; 2231,136;    1,823;    0,864
780,379; 2271,522;    0,005;    1,136
780,946; 2163,634;    1,005;   -0,773
781,513; 2173,747;   -1,450;    0,318
782,080; 2021,315;   -0,086;    2,864
782,647; 2160,064;   -0,268;    3,045
783,214; 2081,086;   -0,177;    3,864
783,781; 2189,017;   -0,723;   -0,682
784,348; 2172,130;   -0,632;    1,500
784,915; 2035,152;   -3,177;    0,318
785,482; 2202,538;    1,368;    2,591
786,049; 2281,923;    0,186;   -0,591
786,615; 2186,582;    0,277;   -0,955
787,182; 2094,058;    0,186;   -0,682
787,749; 2063,171;   -2,814;    1,409
788,315; 2063,102;   -1,632;   -0,409
788,882; 2104,306;    1,550;   -1,227
789,448; 2393,692;    1,732;   -0,955
790,015; 2210,441;    1,095;    3,227
790,581; 2302,372;    1,459;    0,227
791,148; 2106,758;    0,641;    1,045
791,714; 2085,053;   -0,541;    3,136
792,280; 2043,529;    0,186;    1,591
792,847; 1966,642;    0,550;    2,500
793,413; 2070,573;   -0,269;   -0,318
793,979; 2139,413;    3,459;   -1,318
794,545; 2487,526;    4,459;    2,682
795,111; 2262,548;    2,186;    1,318
795,678; 2137,297;    0,731;   -1,682
796,244; 2313,047;    3,368;    0,136
796,810; 2269,523;    1,731;    0,773
797,375; 2236,909;    0,549;   -2,136
797,941; 1880,567;   -0,541;    0,591
798,507; 1866,680;   -0,451;   -0,955
799,073; 1870,793;   -0,360;    0,591
799,639; 1949,906;   -2,632;    3,136
800,205; 1881,019;    0,095;    2,682
800,770; 1837,859;    0,640;    1,773
801,336; 1798,881;    1,368;   -0,955
801,901; 2412,630;    4,549;    3,136
802,467; 2155,380;   -0,542;    2,045
803,033; 1822,129;   -0,087;    0,864
803,598; 1828,696;    1,913;   -1,045
804,163; 1899,446;    1,095;   -0,318
804,729; 1989,559;   -0,178;    1,136
805,294; 1907,035;    0,822;    2,227
805,859; 1783,693;    0,731;   -0,409
806,425; 2155,170;    1,186;    2,682
806,990; 2121,556;    2,186;    4,318
807,555; 1941,214;   -1,451;    2,591
808,120; 2105,509;    0,822;   -0,409
808,685; 1842,531;    0,185;   -2,500
809,250; 1682,735;    0,004;   -0,500
809,815; 1765,666;    1,913;    0,682
810,380; 1985,142;   -0,269;    1,591
810,945; 2118,710;   -1,087;    2,045
811,510; 1956,641;    2,094;    1,591
812,075; 1865,754;   -0,633;   -1,409
812,640; 2154,048;    2,003;    1,409
813,204; 1962,070;    0,822;   -0,227
813,769; 2181,911;    2,094;   -0,045
814,334; 2114,024;    0,458;    0,864
814,898; 1871,046;    0,367;    0,591
815,463; 1887,704;    1,276;   -0,773
816,027; 1825,271;   -0,724;   -2,318
816,592; 1857,202;    0,640;   -2,045
817,156; 1877,224;    2,094;    1,136
817,721; 1930,065;    4,276;    2,318
818,285; 1725,632;    2,912;    1,500
818,849; 1862,745;   -1,451;    1,682
819,414; 1753,222;   -0,269;    2,955
819,978; 1696,971;   -1,269;    1,773
820,542; 2093,902;    2,003;    0,500
821,106; 1923,015;   -0,815;    0,682
821,670; 2073,400;   -0,815;    2,591
822,234; 1829,786;   -0,270;    1,409
822,798; 1685,354;    0,003;    0,500
823,362; 2008,012;   -0,633;    4,227
823,926; 1715,125;    0,094;    1,136
824,490; 1925,147;   -0,997;   -0,682
825,054; 1849,896;   -0,088;   -1,136
825,618; 1692,464;   -1,542;   -1,500
826,181; 1707,122;    0,458;   -1,318
826,745; 1782,144;    1,367;   -1,045
827,309; 2062,621;    1,185;    1,318
827,872; 1904,643;    1,367;    0,955
828,436; 1869,846;    1,185;   -0,773
828,999; 1845,141;   -0,997;    1,227
829,563; 1761,618;   -0,179;    1,136
830,126; 1697,549;   -0,179;   -0,591
830,690; 1711,116;   -1,997;    2,864
831,253; 1591,320;   -0,543;    2,227
831,816; 1668,797;   -1,906;    0,500
832,380; 1580,728;    0,185;    0,864
832,943; 1612,931;   -1,361;   -0,500
833,506; 1622,590;    2,639;   -1,227
834,069; 1838,248;    3,912;   -0,955
834,632; 1737,361;    1,730;    1,318
835,195; 1751,383;    1,003;    0,955
835,758; 1635,951;   -0,997;    1,955
836,321; 1567,973;    0,730;   -1,045
836,884; 1578,267;   -0,725;   -0,955
837,447; 1585,926;   -2,816;    1,773
838,010; 1731,402;    0,366;    3,227
838,573; 1815,515;   -1,179;    0,773
839,135; 1715,719;   -1,361;   -0,955
839,698; 1624,650;    1,275;    0,409
840,261; 1565,672;    1,003;   -0,227
840,823; 1522,785;   -0,543;    0,864
841,386; 1513,989;   -0,452;   -2,409
841,948; 1861,193;   -1,361;    1,773
842,511; 1582,033;    0,912;    1,682
843,073; 1839,146;    1,912;    0,227
843,636; 1566,531;   -0,361;   -0,227
844,198; 1797,735;    0,911;    0,591
844,760; 1760,394;    1,093;    1,955
845,322; 1503,325;    0,548;    1,136
845,885; 1660,256;    0,730;    0,591
846,447; 1648,096;   -1,998;    0,227
847,009; 1971,118;    1,911;   -0,682
847,571; 1657,594;    0,820;   -2,045
848,133; 1623,435;   -1,089;   -1,864
848,695; 1489,184;   -0,543;    1,409
849,257; 1542,933;   -1,089;   -1,682
849,819; 1724,501;   -0,998;   -0,409
850,381; 1580,068;   -0,725;   -0,864
850,942; 1652,636;    1,093;   -0,591
851,504; 1676,385;    1,184;    0,227
852,066; 1606,225;    1,275;   -1,591
852,628; 1607,156;   -0,180;    1,955
853,189; 1410,905;    1,638;    2,682
853,751; 1476,473;   -0,907;    1,409
854,312; 1664,131;   -0,453;   -1,682
854,874; 1824,790;   -2,089;   -0,773
855,435; 1640,357;   -0,907;   -1,682
855,997; 1760,834;   -1,816;   -0,136
856,558; 1759,674;    0,366;    1,773
857,119; 1620,241;    0,820;    2,864
857,681; 1469,354;    0,002;    0,318
858,242; 1692,831;    1,911;   -2,136
858,803; 1778,580;    0,456;   -0,773
859,364; 1706,784;    0,184;   -4,773
859,925; 1735,442;   -2,453;   -0,955
860,486; 1639,646;   -0,453;   -0,955
861,047; 1507,941;   -0,544;   -1,227
861,608; 1530,508;   -1,089;   -0,773
862,169; 1468,257;    0,638;   -0,045
862,730; 1513,007;    0,456;    1,409
863,291; 1578,847;   -0,635;   -0,500
863,852; 1565,687;   -0,635;    1,955
864,412; 1493,345;   -0,271;   -0,864
864,973; 1665,186;   -0,089;    0,500
865,534; 1830,389;   -1,726;    0,227
866,094; 1660,048;    1,820;    0,227
866,655; 1744,161;    1,274;    3,318
867,215; 1610,365;    0,274;    0,136
867,776; 1492,023;    0,547;   -0,136
868,336; 1553,681;   -1,453;    0,136
868,897; 1948,158;    2,638;    1,682
869,457; 1714,180;    1,365;    0,318
870,017; 1542,838;    0,547;   -1,227
870,578; 1564,042;   -0,817;    0,773
871,138; 1515,519;   -2,089;   -0,955
871,698; 1402,813;   -0,817;   -1,318
872,258; 1525,744;   -0,453;   -2,864
872,818; 1759,948;    2,729;    0,045
873,378; 1564,425;    0,638;    1,045
873,938; 1485,901;    0,547;    0,500
874,498; 1400,923;    0,274;   -1,955
875,058; 1462,491;    2,183;    1,773
875,618; 1460,786;    1,910;   -2,682
876,177; 1488,989;    1,274;    0,136
876,737; 1278,830;   -0,090;    1,955
877,297; 1741,397;    0,183;    1,955
877,856; 1654,055;   -0,362;    0,318
878,416; 1381,441;    1,183;   -0,136
878,976; 1380,099;   -1,817;    0,409
879,535; 1440,121;    0,092;    3,136
880,095; 1420,871;   -0,544;    0,045
880,654; 1310,256;   -1,090;    1,318
881,213; 1661,369;    2,456;    1,500
881,773; 1461,664;    2,637;    2,682
882,332; 2092,686;    3,365;    5,136
882,891; 1496,344;    3,092;    2,136
883,451; 1509,275;   -1,272;    1,682
884,010; 1390,934;   -2,908;   -0,409
884,569; 1363,410;   -0,999;   -0,045
885,128; 1581,614;    2,819;   -1,864
885,687; 1911,818;    4,455;    0,682
886,246; 2075,658;    1,455;    2,136
886,805; 1751,953;    2,455;    2,045
887,364; 1427,975;   -0,999;   -0,500
887,922; 1353,360;   -1,181;    0,045
888,481; 1479,201;   -1,545;    0,591
889,040; 1652,768;    1,183;    2,136
889,599; 1527,699;    2,455;    1,409
890,157; 1521,449;    1,455;    2,409
890,716; 1417,107;   -0,090;    0,227
891,274; 1514,947;    0,092;   -1,136
891,833; 1631,696;    1,546;    0,864
892,391; 1423,446;   -0,454;    0,500
892,950; 1636,195;    1,819;   -0,773
893,508; 1447,399;    0,455;   -0,409
894,067; 1285,966;    0,637;    0,136
894,625; 1395,897;   -0,636;   -1,500
895,183; 1372,374;   -0,363;   -0,682
895,741; 1698,123;    1,728;   -1,773
896,299; 1459,145;   -0,545;   -2,409
896,858; 1366,531;    0,819;   -1,591
897,416; 1513,462;    2,728;   -1,318
897,974; 1430,211;    1,819;    0,318
898,532; 1940,142;    6,091;    2,682
899,089; 1563,619;    2,091;   -0,682
899,647; 1443,004;   -1,454;    1,318
900,205; 1503,117;    1,182;    1,045
900,763; 1511,867;   -0,454;    0,227
901,321; 1468,616;    2,364;   -1,409
901,878; 1251,638;   -1,000;   -0,773
902,436; 1310,114;   -1,363;    1,318
902,994; 2158,227;    4,728;    3,682
903,551; 1620,522;    0,728;    0,409
904,109; 1520,817;    0,182;   -1,409
904,666; 1441,930;    2,455;    1,045
905,224; 1308,315;    0,182;   -0,409
905,781; 1468,246;    0,727;   -0,318
906,338; 1386,723;   -1,363;    1,045
906,895; 1257,200;    0,637;    2,045
907,453; 1557,676;    1,727;    1,136
908,010; 1406,244;   -0,909;    0,409
908,567; 1340,447;    1,273;    0,591
909,124; 1131,106;    0,364;   -1,500
909,681; 1200,400;   -2,909;    0,682
910,238; 1287,604;    0,636;   -1,318
910,795; 1274,535;   -0,273;   -1,136
911,352; 1263,808;   -2,909;   -2,682
911,909; 1243,263;   -1,364;   -0,864
912,466; 1292,535;   -3,182;    1,500
913,022; 1298,263;   -1,636;    0,500
913,579; 1425,626;   -0,909;    2,045
914,136; 1283,808;    1,636;    0,955
914,692; 1358,172;    0,091;   -1,227
915,249; 1282,444;    1,455;    0,409
915,806; 1374,990;    0,182;    1,955
916,362; 1286,263;    1,909;    1,864
916,918; 1173,172;    2,000;    1,045
917,475; 1392,717;   -1,182;    0,955
918,031; 1196,808;    3,364;   -0,045
918,587; 1257,535;   -0,909;   -0,318
919,144; 1178,354;   -2,273;    0,227
919,700; 1139,354;    1,727;    0,773
920,256; 1093,081;    0,727;    0,045
920,812; 1131,444;   -0,727;   -1,045
921,368; 1102,626;   -1,727;   -1,045
921,924; 1069,899;    0,182;   -0,136
922,480; 1176,535;   -0,545;    1,227
923,036; 1213,990;    1,273;    1,955
923,592; 1100,626;    0,455;    0,318
924,148; 1137,808;    0,455;   -0,955
924,704; 1285,081;   -1,364;   -0,409
925,259; 1117,263;   -0,273;    0,591
925,815; 1063,444;    1,455;    0,500
926,371; 1013,172;    2,909;    1,409
926,926; 1184,444;    2,091;    0,591
927,482; 1139,354;   -1,364;    0,773
928,037; 1062,354;    0,909;    2,045
928,593; 1301,808;    1,636;    1,045
929,148; 1041,626;   -1,818;   -1,500
929,704; 1089,899;   -1,455;   -0,500
930,259;  958,263;    0,091;   -0,136
930,814; 1174,172;   -0,818;    1,955
931,369; 1090,263;    1,091;   -0,773
931,925;  862,263;   -0,091;    0,136
932,480;  964,263;   -2,818;   -2,591
933,035; 1387,899;    0,545;   -0,318
933,590; 1259,990;    0,364;   -1,773
934,145;  823,081;   -1,364;   -0,318
934,700;  727,172;    0,455;   -0,591
935,255;  812,808;   -0,091;    0,045
935,809; 1154,354;    3,182;    0,864
936,364;  733,535;   -0,455;   -0,136
936,919;  748,354;    0,455;   -1,773
937,474;  654,899;    1,455;    0,136
938,028;  685,990;   -1,636;    1,136
938,583; 1101,535;    1,818;    4,682
939,138;  730,444;    2,091;    2,136
939,692;  571,717;    1,636;   -1,136
940,247;  625,899;   -0,727;   -1,045
940,801;  704,172;   -0,636;    0,227
941,355;  596,081;   -0,364;    2,591
941,910;  471,990;   -0,273;   -2,136
942,464;  517,354;   -0,818;   -0,318
943,018;  796,899;    1,000;   -0,227
943,572;  600,263;    2,545;   -0,682
944,126;  652,535;    0,091;   -0,409
944,681;  522,535;    3,091;    0,227
945,235;  462,626;    1,000;   -0,591
945,789;  412,808;    0,364;   -1,864
946,342;  743,263;    0,455;   -0,591
946,896;  466,172;   -2,273;    0,955
947,450;  446,263;    1,545;   -0,227
948,004;  724,535;    1,727;   -0,045
948,558;  507,717;    0,273;   -0,864
949,111;  503,081;   -0,273;   -0,318
949,665;  722,899;    1,636;   -0,682
950,219;  666,808;   -0,091;   -1,045
950,772;  584,535;   -1,909;    1,864
951,326;  579,263;    0,545;   -0,955
951,879;  495,081;    0,727;   -2,318
952,433;  646,717;    0,000;    2,227
952,986;  460,535;    2,909;    0,682
953,539;  412,535;   -0,273;    0,591
954,093;  360,081;    0,545;   -1,318
954,646;  516,263;    0,909;    1,318
955,199;  427,717;    0,000;   -0,500
955,752;  648,717;   -0,455;    1,773
956,305;  485,717;   -0,091;    2,955
956,858;  543,172;    0,818;   -0,318
957,411;  611,808;   -0,545;    2,136
957,964;  501,354;    1,364;    2,136
958,517;  412,990;   -1,545;    3,136
959,070;  365,354;   -0,455;    1,955
959,623;  669,535;    1,091;    1,500
960,176;  612,354;    1,727;    2,045
960,728;  580,717;   -2,727;    0,773
961,281;  520,444;    0,545;    0,500
961,834;  439,444;   -0,909;    0,864
962,386;  439,626;    1,727;    1,045
962,939;  396,717;    0,364;   -0,318
963,491;  448,172;    0,455;    1,136
964,043;  376,899;    1,182;    2,409
964,596;  572,808;   -1,000;    2,227
965,148;  466,535;   -1,000;    1,773
965,700;  367,354;    1,091;   -0,227
966,253;  550,990;   -0,636;    0,318
966,805;  504,535;   -2,273;    0,773
967,357;  421,354;    1,091;   -1,500
967,909;  554,717;    0,455;   -1,227
968,461;  424,081;    0,545;    3,136
969,013;  373,444;   -0,182;   -0,864
969,565;  529,990;   -0,455;   -1,136
970,117;  796,444;   -0,364;    1,045
970,669;  535,808;    0,182;   -0,136
971,220;  313,081;   -0,455;   -1,500
971,772;  420,444;   -0,636;   -0,318
972,324;  525,172;    0,091;   -0,500
972,876;  421,263;    0,818;   -0,045
973,427;  560,444;    1,909;   -1,045
973,979;  621,717;   -0,727;   -2,500
974,530;  401,172;    1,818;    1,318
975,082;  474,717;   -0,545;    1,682
975,633;  417,899;    1,091;    1,682
976,184;  489,990;    0,909;    0,773
976,736;  483,899;    0,091;    0,227
977,287;  491,535;   -0,909;   -0,500
977,838;  450,808;    0,909;   -0,318
978,389;  462,263;   -1,000;   -0,500
978,940;  313,899;    0,545;   -0,409
979,491;  304,626;    0,091;   -0,500
980,042;  412,354;    0,182;    3,045
980,593;  413,535;   -2,545;    0,227
981,144;  523,990;    2,545;   -0,500
981,695;  576,444;    1,455;    1,500
982,246;  512,081;   -0,273;    1,045
982,797;  366,172;   -1,727;    0,682
983,347;  525,354;    0,364;    0,591
983,898;  744,263;    3,091;    0,409
984,449;  692,081;    2,182;    0,773
984,999;  516,444;    1,455;   -1,136
985,550;  475,444;    0,182;   -0,318
986,100;  318,535;   -0,455;   -0,318
986,651;  319,990;   -0,818;    0,045
987,201;  357,535;   -1,000;   -0,591
987,751;  364,899;    0,818;    2,864
988,302;  421,081;    2,636;    1,500
988,852;  467,808;    0,455;   -1,136
989,402;  532,354;    0,091;    0,682
989,952;  558,808;   -2,182;    0,864
990,502;  396,263;   -0,091;    0,682
991,052;  290,444;   -0,727;    0,045
991,602;  342,990;   -2,909;    1,318
992,152;  407,263;    0,455;    0,682
992,702;  429,899;    1,364;   -0,045
993,252;  372,172;   -3,000;   -0,500
993,802;  474,899;   -0,273;    1,318
994,352;  427,808;   -1,545;    1,136
994,901;  328,354;   -0,182;    3,227
995,451;  324,444;   -0,182;    0,318
996,000;  361,626;    1,636;    0,318
996,550;  370,990;    2,273;    0,227
997,100;  412,535;    1,273;   -0,045
997,649;  564,717;    2,182;    0,955
998,198;  367,990;    1,727;   -1,500
998,748;  497,172;    1,091;   -2,318
999,297;  418,444;   -0,818;   -0,409
999,846;  563,899;    1,000;   -0,773
1000,395;  466,444;   -0,818;    0,500
1000,945;  589,081;    1,818;   -0,773
1001,494;  593,535;    2,364;    0,682
1002,043;  561,717;    4,636;    0,864
1002,592;  363,172;   -1,091;    1,955
1003,141;  364,626;   -0,455;   -0,682
1003,690;  532,535;    1,727;    0,500
1004,238;  400,990;    1,455;   -0,045
1004,787;  313,444;    1,364;    1,227
1005,336;  513,899;    0,364;    0,682
1005,885;  456,535;    1,364;   -2,773
1006,433;  445,808;    0,545;    0,955
1006,982;  655,626;    0,455;    1,682
1007,531;  485,444;   -1,818;   -0,227
1008,079;  429,626;   -2,273;    0,500
1008,627;  366,444;   -1,455;    0,409
1009,176;  386,808;    0,000;   -1,955
1009,724;  342,172;    1,091;    0,864
1010,273;  503,263;    1,273;    0,500
1010,821;  373,626;    0,091;    1,409
1011,369;  336,172;   -1,364;    1,318
1011,917;  366,535;   -1,364;   -0,591
1012,465;  442,717;    1,273;   -1,591
1013,013;  426,626;    2,091;   -1,682
1013,561;  547,535;    0,455;   -0,773
1014,109;  650,172;   -1,909;    1,682
1014,657;  508,535;    0,364;    0,591
1015,205;  390,263;    1,636;   -0,955
1015,753;  333,535;   -0,545;   -1,409
1016,301;  418,535;   -2,636;    3,045
1016,848;  497,990;   -1,273;    0,409
1017,396;  510,626;    2,545;    0,045
1017,944;  494,626;    1,182;    1,864
1018,491;  394,808;    0,273;    1,409
1019,039;  729,172;    0,455;    0,591
1019,586;  469,535;   -1,364;    1,682
1020,134;  454,172;    0,455;    1,500
1020,681;  533,444;    0,182;   -1,136
1021,228;  439,354;    2,909;   -2,227
1021,776;  414,081;    1,182;   -1,136
1022,323;  657,081;    0,455;    0,773
1022,870;  566,172;   -1,000;   -0,045
1023,417;  615,444;    2,636;    1,864
1023,964;  424,444;    2,636;    1,227
1024,511;  409,263;    1,000;    0,773
1025,058;  435,172;    3,182;   -0,045
1025,605;  389,717;   -2,273;    3,136
1026,152;  616,535;    1,727;   -0,591
1026,699;  457,444;    1,818;    1,318
1027,245;  440,717;   -0,091;    0,318
1027,792;  376,626;   -1,000;    1,409
1028,339;  610,263;    2,364;   -0,045
1028,885;  463,172;    1,000;   -0,227
1029,432;  408,172;   -0,091;    0,227
1029,978;  522,990;   -1,000;   -1,591
1030,525;  516,081;    1,000;    0,409
1031,071;  380,263;   -1,364;    1,136
1031,618;  688,081;    0,364;    1,682
1032,164;  504,081;   -0,091;    3,045
1032,710;  557,808;    1,636;   -1,500
1033,256;  509,717;   -0,636;   -0,136
1033,803;  355,444;   -0,545;    1,500
1034,349;  213,808;   -1,364;    0,136
1034,895;  267,081;    0,000;   -0,318
1035,441;  341,081;   -0,818;    0,318
1035,987;  401,263;   -2,364;   -0,682
1036,533;  481,717;   -1,455;   -0,955
1037,078;  682,172;    1,455;    1,682
1037,624;  526,444;    2,455;   -0,955
1038,170;  384,354;    0,455;   -0,318
1038,716;  472,717;    1,636;   -0,409
1039,261;  347,263;   -2,273;   -0,773
1039,807;  364,444;   -0,091;    3,409
1040,352;  394,899;   -1,909;   -0,318
1040,898;  387,990;   -1,545;   -0,682
1041,443;  305,444;   -1,455;   -2,591
1041,989;  633,172;    1,091;    1,591
1042,534;  412,354;   -0,364;    2,591
1043,079;  299,081;    2,909;    0,955
1043,625;  412,990;    1,818;    0,500
1044,170;  427,990;   -1,364;    1,045
1044,715;  635,808;    2,455;    0,955
1045,260;  525,263;    2,182;   -0,955
1045,805;  365,899;    1,182;   -0,591
1046,350;  330,354;    1,364;   -0,409
1046,895;  522,172;    2,909;    1,591
1047,440;  520,172;    5,364;    0,409
1047,985;  376,263;    2,818;   -0,955
1048,530;  341,263;    1,545;    1,227
1049,074;  412,626;    0,000;    0,318
1049,619;  344,081;   -1,364;    1,955
1050,164;  326,081;    0,455;    0,227
1050,708;  417,172;   -0,455;    0,045
1051,253;  671,081;    1,273;   -2,227
1051,797;  462,444;    0,818;   -1,318
1052,342;  293,626;   -1,182;    1,045
1052,886;  402,444;    0,364;   -1,409
1053,430;  272,081;   -1,364;    0,136
1053,975;  368,263;   -0,818;   -0,318
1054,519;  384,535;   -0,727;    3,227
1055,063;  454,717;    0,909;    1,318
1055,607;  431,626;   -0,182;    0,227
1056,151;  423,990;    2,909;    1,682
1056,695;  337,899;    2,273;   -1,136
1057,239;  333,354;   -1,727;   -0,682
1057,783;  381,263;    0,818;   -1,500
1058,327;  446,990;    0,000;    1,409
1058,871;  595,626;   -0,545;    1,318
1059,415;  470,444;   -0,818;   -0,045
1059,958;  630,172;    1,455;    2,591
1060,502;  381,081;   -1,000;   -0,773
1061,046;  273,717;    0,364;   -0,955
1061,589;  252,354;   -3,000;   -1,136
1062,133;  231,535;   -1,273;    1,864
1062,676;  275,081;    1,182;    0,864
1063,220;  311,354;    1,091;    0,500
1063,763;  345,626;    0,909;    1,136
1064,306;  374,081;   -0,909;    1,864
1064,849;  368,172;   -0,909;    0,591
1065,393;  342,535;    2,000;   -1,500
1065,936;  350,717;    0,182;   -0,409
1066,479;  262,899;   -1,455;    1,318
1067,022;  287,717;   -0,273;   -0,227
1067,565;  260,354;   -0,091;   -1,318
1068,108;  229,899;    0,727;   -0,591
1068,651;  204,717;   -0,636;    1,409
1069,194;  217,535;   -0,455;   -1,682
1069,736;  233,899;   -1,273;    0,955
1070,279;  206,172;   -1,364;   -0,500
1070,822;  311,263;   -2,000;   -0,318
1071,364;  442,808;   -0,364;    1,318
1071,907;  287,172;   -0,727;    3,227
1072,450;  135,263;    0,000;   -0,045
1072,992;  224,990;   -0,273;    3,136
1073,535;  301,535;    2,091;    2,136
1074,077;  209,172;   -0,727;    2,045
1074,619;  206,444;   -1,364;    0,591
1075,161;  239,444;   -1,091;    1,500
1075,704;  369,626;    1,545;    1,227
1076,246;  223,444;   -0,182;    0,682
1076,788;  156,717;   -0,364;    1,773
1077,330;  165,626;    1,273;    2,136
1077,872;  212,626;    0,909;    0,955
1078,414;  387,354;    2,727;    0,773
1078,956;  238,444;    1,273;   -0,227
1079,498;  389,081;    1,636;    0,318
1080,040;  244,172;    1,909;   -1,318
1080,581;  199,263;    1,636;   -0,318
1081,123;  136,717;    0,091;   -0,773
1081,665;  149,990;   -1,182;   -0,955
1082,206;  351,717;    1,364;   -0,500
1082,748;  257,990;    0,727;    2,045
1083,289;  170,535;   -2,000;    1,318
1083,831;  159,899;   -0,545;    0,227
1084,372;  203,444;    0,000;    0,591
1084,913;  202,444;    1,091;    0,864
1085,455;  152,354;   -1,909;   -2,045
1085,996;  149,899;   -2,273;    0,136
1086,537;  186,172;   -0,091;    0,864
1087,078;  196,172;   -0,909;   -2,136
1087,619;  247,081;   -1,273;    0,227
1088,160;  208,717;    0,000;    1,318
1088,701;  181,354;   -1,091;    0,682
1089,242;  164,535;    1,364;   -2,227
1089,783;  222,626;   -0,273;    1,409
1090,324;  198,172;    0,455;    0,682
1090,865;  140,899;    2,727;   -0,409
1091,405;  114,081;    0,727;    2,227
1091,946;  159,808;    0,182;   -0,955
1092,487;  108,172;    0,818;   -1,409
1093,027;  228,444;   -1,364;   -1,500
1093,568;  149,172;   -0,364;    1,227
1094,108;  185,899;    0,273;    1,773
1094,649;  156,444;   -1,182;    0,136
1095,189;  123,263;   -0,636;   -0,682
1095,729;  122,081;   -0,091;    0,955
1096,269;  109,535;    0,727;   -0,955
1096,810;  274,899;   -1,364;    0,500
1097,350;  204,899;    1,364;   -0,773
1097,890;  154,899;    0,364;    1,227
1098,430;  323,263;    2,364;    2,864
1098,970;  256,354;    2,182;    1,682
1099,510;  141,263;    0,545;   -2,318
1100,050;  119,172;    1,000;   -1,591
1100,589;  134,626;   -0,727;   -0,318
1101,129;  188,263;    0,818;   -0,955
1101,669;  274,172;    1,727;    2,136
1102,209;  194,808;   -0,091;    2,227
1102,748;  154,354;    0,000;    0,955
1103,288;  163,354;    1,273;   -1,227
1103,827;  157,354;    3,091;   -2,227
1104,367;  115,626;   -0,091;   -2,409
1104,906;  111,626;    1,364;   -1,136
1105,445;  164,354;    0,636;   -1,136
1105,985;  132,717;   -0,727;    1,500
1106,524;  145,081;   -1,727;   -0,682
1107,063;  138,263;   -2,727;    1,409
1107,602;  110,717;   -1,909;   -1,500
1108,141;   93,899;   -1,909;    1,500
1108,680;  161,899;   -3,455;   -0,591
1109,219;  127,808;   -0,909;   -0,500
1109,758;  121,717;    0,455;    0,682
1110,297;  114,172;    1,000;   -0,682
1110,836;   88,172;   -0,727;    0,955
1111,375;  126,808;   -2,545;    0,409
1111,913;  166,535;   -1,000;    0,773
1112,452;  135,081;   -0,273;    0,136
1112,991;   81,263;    1,091;    1,955
1113,529;   82,172;   -0,818;   -0,045
1114,068;  109,626;   -0,273;    2,955
1114,606;   78,626;   -0,364;   -0,955
1115,144;  146,354;   -1,273;    1,045
1115,683;  120,444;   -0,727;    0,318
1116,221;  149,354;   -0,455;   -0,864
1116,759;  100,081;    0,636;   -0,864
1117,297;  181,990;    0,000;    1,864
1117,836;   99,081;   -2,182;   -1,227
1118,374;  103,808;    0,182;   -0,682
1118,912;  104,444;    0,909;    2,682
1119,450;  102,444;    1,000;    0,864
1119,988;   98,899;    1,545;    2,136
1120,525;  370,808;    5,091;    3,318
1121,063;  196,172;    1,182;    1,864
1121,601;  102,808;   -0,909;   -1,227
1122,139;   79,535;   -0,727;   -2,045
1122,676;  189,899;   -0,727;    2,773
1123,214;  167,626;   -1,182;    4,409
1123,751;   78,808;    1,727;    2,227
1124,289;  118,081;   -0,091;   -0,409
1124,826;   81,172;    1,727;    0,227
1125,364;   46,172;    1,727;   -0,955
1125,901;  151,081;    1,182;    1,227
1126,438;  165,263;    0,818;    0,955
1126,975;   48,535;   -0,727;   -0,773
1127,513;   73,263;    0,273;    2,136
1128,050;   47,354;    1,636;   -0,682
1128,587;   89,081;    2,000;   -0,227
1129,124;  115,899;    0,091;    1,318
1129,661;   63,717;    0,273;    0,227
1130,198;  134,717;    1,636;    0,773
1130,734;   98,808;    0,182;    1,409
1131,271;   50,808;   -0,909;    0,864
1131,808;  122,354;    2,909;    3,045
1132,345;   72,717;    1,545;    0,318
1132,881;   24,444;   -1,545;   -1,864
1133,418;   84,808;    0,727;   -1,136
1133,954;   52,717;    2,455;   -2,682
1134,491;   86,263;    1,364;   -0,773
1135,027;   51,263;    2,364;    0,864
1135,564;   80,717;    0,273;    2,955
1136,100;   73,172;    0,364;    2,136
1136,636;   38,535;   -1,273;   -1,045
1137,172;   64,263;    0,000;   -1,045
1137,708;   47,263;   -1,364;   -1,045
1138,245;   39,354;    1,273;   -1,227
1138,781;   26,717;    1,091;   -3,318
1139,317;   51,172;    1,273;   -1,409
1139,852;   62,354;    3,091;    0,136
1140,388;   87,263;   -1,182;   -0,409
1140,924;   50,444;   -1,091;   -2,227
1141,460;   32,354;   -1,636;    0,136
1141,996;   16,081;   -1,364;    2,682
1142,531;   31,354;    1,364;    3,318
1143,067;  109,626;    1,182;    1,045
1143,602;  144,808;   -0,091;   -0,318
1144,138;   70,444;   -2,636;    1,045
1144,673;   27,808;   -1,455;    1,409
1145,209;   42,808;   -1,909;   -0,318
1145,744;   20,081;   -0,727;    0,864
1146,279;   68,808;    1,818;   -0,136
1146,815;   40,172;    1,545;   -2,682
1147,350;   57,990;   -1,364;    0,045
1147,885;   30,717;   -0,818;   -1,318
1148,420;   29,444;   -2,273;    0,773
1148,955;   23,354;   -1,727;    1,864
1149,490;   27,354;   -0,909;   -1,591
1150,025;   20,990;    0,455;   -1,773
1150,560;   57,990;    1,091;   -0,955
1151,094;   49,354;    1,455;   -0,591
1151,629;   52,263;    1,636;    0,864
1152,164;   31,081;    1,364;    1,318
1152,698;   23,172;   -0,182;   -0,136
1153,233;    8,808;    0,091;   -0,682
1153,767;   18,263;   -3,000;   -2,318
1154,302;   30,990;   -1,455;    1,773
1154,836;   33,990;   -0,455;   -2,136
1155,371;   49,081;   -1,364;    3,682
1155,905;   32,717;   -0,636;    1,682
1156,439;   31,717;   -0,636;   -0,500
1156,973;   38,717;    0,364;    0,318
1157,507;   21,626;   -0,364;    0,682
1158,042;   27,444;   -0,727;    1,045
1158,576;   36,535;    0,182;    1,773
1159,110;   38,899;   -0,818;    2,409
1159,643;   31,081;    0,636;   -0,045
1160,177;   17,808;   -1,545;    1,500

