
Integration time [ms]:   0,040
Averaging Nr. [scans]: 11
Smoothing Nr. [pixels]: 0
Data measured with spectrometer [name]: 7318044SP
Wave   ;Sample   ;Dark     ;Reference
[nm]   ;[counts] ;[counts] ;[counts] 

186,757;   38,246;   31,551;    1,318
187,357;   39,919;   22,551;    0,955
187,958;   29,224;   15,460;   -1,591
188,558;   39,865;    8,915;   -1,227
189,159;   28,491;    6,733;   -4,500
189,759;   13,479;    7,278;   -3,591
190,360;   16,550;    2,824;   -2,136
190,960;   32,607;    2,915;   -4,136
191,560;   32,288;    3,189;   -6,591
192,161;  150,122;    4,372;   -3,500
192,761;   88,332;    4,010;   -3,227
193,361;   55,348;    1,556;   -3,773
193,962;   74,779;    2,010;   -2,682
194,562;   31,593;    1,189;   -3,955
195,162;   28,717;   -2,448;   -2,227
195,762;  103,970;   -3,176;   -0,045
196,362;   73,258;    1,370;   -2,500
196,963;   26,502;    2,006;   -0,864
197,563;   54,055;    1,551;   -0,955
198,163;   24,005;    0,096;   -0,682
198,763;   35,221;    1,733;   -0,500
199,363;   71,881;    3,096;   -0,500
199,963;   48,982;    0,369;    0,409
200,563;   45,555;    2,823;   -1,409
201,163;   32,699;    3,277;   -0,227
201,763;   60,473;    3,732;    0,318
202,363;   39,550;    1,459;    1,500
202,963;   62,879;    1,459;    1,045
203,563;  108,966;    0,277;    0,500
204,162;   55,184;    2,096;   -1,864
204,762;   47,201;    0,550;    0,591
205,362;   34,411;    3,004;    1,955
205,962;   62,599;    3,096;    1,955
206,562;   57,880;    1,823;    2,318
207,161;   41,659;   -0,087;    0,318
207,761;  130,519;    1,277;    2,409
208,361;   64,292;   -0,268;    1,409
208,960;   88,841;    0,459;    1,500
209,560;   88,318;    1,277;    1,591
210,160;  104,467;    0,550;    1,864
210,759;   84,654;    4,186;    1,227
211,359;   70,814;    1,459;    1,045
211,958;  203,493;    1,277;    2,045
212,558;  225,986;    1,732;    1,864
213,157;  146,192;    1,822;    1,500
213,757;  341,958;    3,822;   -0,227
214,356;  185,093;    1,277;   -0,409
214,956;  335,560;    3,095;    0,409
215,555;  161,275;    2,095;    2,136
216,154;  122,369;   -2,723;   -0,591
216,754;  120,261;    0,277;    0,773
217,353;  164,799;   -0,268;   -1,045
217,952;   69,367;   -0,178;    0,318
218,552;  200,285;    1,368;   -0,773
219,151;  130,031;    0,277;    0,955
219,750;  125,387;    0,004;   -0,227
220,349;  113,236;   -0,451;    1,045
220,948;  228,269;   -1,360;    1,136
221,548;  144,960;    0,913;    1,227
222,147;  193,100;   -0,087;   -0,409
222,746;  347,151;   -0,451;   -0,955
223,345;  238,468;    0,731;    0,500
223,944;  247,843;   -0,451;    0,773
224,543;  275,546;    1,004;   -1,409
225,142;  297,370;    0,094;    0,136
225,741;  274,629;   -0,814;    1,045
226,340;  260,494;   -0,451;   -0,955
226,939;  429,355;   -0,996;   -0,136
227,538;  261,423;   -0,360;   -0,773
228,137;  429,554;   -0,814;    0,864
228,735;  377,727;   -0,541;    1,227
229,334;  239,346;   -0,905;   -0,227
229,933;  468,824;    0,459;    0,591
230,532;  501,081;    1,186;   -0,409
231,131;  591,377;    1,732;    0,318
231,729;  454,598;   -2,450;   -2,318
232,328;  378,841;   -0,723;   -1,500
232,927;  385,048;    1,004;   -0,500
233,525;  370,059;    3,640;    0,045
234,124;  445,806;    2,368;   -1,591
234,723;  348,331;    0,913;   -1,045
235,321;  352,924;    2,277;    0,136
235,920;  424,788;    1,186;   -1,227
236,518;  623,654;    3,459;    0,318
237,117;  424,056;    0,004;   -0,227
237,715;  439,352;    0,640;   -0,500
238,314;  527,017;   -0,087;   -2,318
238,912;  706,474;   -0,723;   -1,409
239,510;  548,803;    0,459;   -1,227
240,109;  711,071;    0,004;    3,773
240,707;  655,022;   -0,996;    1,227
241,305;  480,268;    0,550;    0,136
241,904;  627,450;   -0,178;   -2,045
242,502;  745,022;   -0,632;   -0,227
243,100;  618,425;   -0,087;   -0,955
243,698;  560,538;    0,732;    1,682
244,297;  601,627;   -0,632;    0,682
244,895;  612,088;   -0,269;   -2,318
245,493;  850,356;    2,186;   -0,591
246,091;  828,045;    1,368;   -1,318
246,689;  756,308;    1,004;    0,591
247,287;  700,024;    0,822;   -1,136
247,885;  667,928;   -1,451;    1,227
248,483;  635,194;    1,822;   -0,500
249,081;  731,366;    0,185;    1,591
249,679;  798,606;   -0,178;    1,682
250,277;  637,775;   -1,723;    0,864
250,875;  793,525;   -1,087;   -1,045
251,473;  675,250;   -1,178;    0,500
252,071;  801,648;    1,459;    1,045
252,669;  715,661;   -1,814;    0,318
253,267;  650,416;   -0,087;    0,773
253,864;  697,388;   -0,360;    0,682
254,462;  896,720;    1,640;    1,591
255,060;  618,130;   -0,269;    1,318
255,658;  608,297;    0,822;   -0,136
256,255;  752,561;    0,186;   -2,045
256,853;  789,565;   -0,269;    1,409
257,451;  763,247;    0,822;    1,864
258,048; 1283,385;    1,822;    1,864
258,646;  901,075;    1,731;   -1,045
259,243; 1028,655;   -0,087;    2,227
259,841;  888,667;   -0,814;    0,318
260,438;  710,570;   -0,087;    0,864
261,036;  868,275;   -1,905;    1,409
261,633;  774,315;   -0,087;    2,227
262,231;  709,910;    2,731;   -0,045
262,828;  728,214;   -0,905;    1,136
263,425;  786,276;    0,913;   -0,591
264,023;  793,676;    0,186;    0,045
264,620;  958,784;   -0,360;   -0,318
265,217; 1104,215;   -2,087;    3,136
265,815;  779,621;   -1,905;    2,136
266,412;  939,506;    0,731;    0,136
267,009;  979,693;   -1,451;    0,773
267,606; 1091,893;    0,822;   -0,955
268,203;  832,041;   -0,269;   -0,591
268,801;  898,746;    1,731;    0,591
269,398;  802,958;   -0,360;    2,500
269,995;  980,214;    0,277;    1,591
270,592;  873,440;   -0,632;   -0,500
271,189;  803,779;    0,186;    0,409
271,786;  792,015;   -0,632;    1,227
272,383; 1101,748;   -1,087;    0,227
272,980;  899,617;    0,277;    0,318
273,577;  868,242;    0,004;    1,227
274,174;  785,190;    0,822;    2,591
274,771;  939,843;   -0,814;   -0,773
275,367; 1419,961;    2,277;    1,409
275,964; 1211,073;    0,731;   -0,500
276,561;  959,324;    1,549;   -1,045
277,158;  873,606;    0,095;   -1,773
277,755; 1163,457;    2,185;    0,409
278,351;  978,066;   -0,451;   -1,500
278,948; 1075,627;   -0,815;    0,045
279,545;  966,797;   -1,360;    2,318
280,141; 1290,575;   -1,723;   -2,045
280,738; 1144,461;   -0,451;   -0,136
281,334;  931,685;   -1,633;    0,591
281,931;  949,520;   -0,087;   -1,318
282,528; 1055,296;    0,822;   -0,500
283,124; 1219,447;   -1,087;   -0,500
283,721; 1189,848;   -0,451;    1,409
284,317;  981,716;    0,185;    2,500
284,913; 1245,408;   -1,360;    0,591
285,510; 1590,044;    0,640;   -0,318
286,106; 1363,835;   -2,269;   -0,955
286,703; 1012,325;   -0,360;    1,955
287,299;  972,030;   -1,451;   -0,591
287,895;  984,060;    0,822;   -1,045
288,491; 1029,412;    0,186;    2,136
289,088; 1152,489;   -2,360;    2,409
289,684; 1184,388;   -1,723;    1,500
290,280; 1360,094;    0,368;    0,682
290,876; 1339,045;    1,822;    5,500
291,472; 1198,609;    1,276;    2,227
292,068; 1210,217;    1,367;    0,227
292,665; 1027,485;    2,095;    0,773
293,261;  893,433;    0,276;    2,136
293,857; 1124,895;    2,913;    2,136
294,453; 1034,906;    3,550;    0,955
295,049; 1272,880;   -0,268;    1,955
295,644; 1072,306;    0,095;    0,136
296,240;  926,062;   -0,905;   -0,136
296,836; 1100,231;   -0,995;    0,318
297,432; 1279,893;    1,096;   -0,500
298,028; 1344,626;    0,732;    0,773
298,624; 1170,076;    1,459;    1,864
299,220; 1137,266;    2,368;    0,591
299,815; 1099,742;    1,005;   -0,409
300,411; 1212,243;    0,914;    1,773
301,007; 1360,236;    1,368;    0,227
301,602; 1153,882;   -0,541;   -2,318
302,198; 1292,329;    0,732;   -0,773
302,794; 1122,964;    1,187;   -0,500
303,389; 1112,081;   -1,177;    1,045
303,985; 1194,105;    0,550;    1,409
304,580; 1294,227;    1,459;    1,591
305,176; 1169,695;   -3,086;    0,136
305,771; 1039,687;   -1,268;   -1,227
306,367; 1494,109;    4,095;    0,136
306,962; 1250,246;    0,641;    1,500
307,558; 1227,331;   -0,450;    0,136
308,153; 1342,795;    1,095;   -1,136
308,748; 1126,466;   -0,814;    1,682
309,344; 1555,930;   -0,632;   -1,318
309,939; 1593,672;   -1,905;   -1,318
310,534; 1251,710;   -0,086;   -1,682
311,130; 1166,299;    0,459;   -2,500
311,725; 1075,551;    1,004;   -0,500
312,320; 1178,806;    2,459;    0,045
312,915; 1334,083;    1,459;   -1,045
313,510; 1568,563;    1,550;   -0,500
314,105; 1334,453;    1,096;    1,409
314,700; 1071,887;   -3,086;   -1,045
315,295; 1145,591;   -0,904;    0,045
315,890; 1043,137;    1,277;    0,864
316,485; 1181,115;   -0,359;   -0,318
317,080; 1120,263;   -3,086;    1,591
317,675; 1478,178;    2,005;   -0,682
318,270; 1654,010;    5,550;    3,318
318,865; 1565,910;    3,278;    3,045
319,460; 1334,879;   -0,904;    0,591
320,055; 1206,645;   -0,541;   -1,227
320,650; 1164,689;   -1,995;   -0,591
321,244; 1179,690;   -0,177;   -1,409
321,839; 1337,278;   -1,541;   -0,227
322,434; 1373,169;   -1,086;   -1,591
323,029; 1223,693;    1,732;    1,591
323,623; 1147,920;    1,550;    0,773
324,218; 1314,631;    2,368;    1,409
324,812; 1239,881;    1,096;    1,591
325,407; 1248,425;   -0,814;    2,045
326,002; 1354,985;    0,277;   -0,409
326,596; 1307,043;    0,914;    1,318
327,191; 1172,031;    0,823;   -1,045
327,785; 1077,861;   -0,813;   -0,227
328,379; 1180,853;    1,368;    0,136
328,974; 1182,674;    0,914;   -3,955
329,568; 1247,984;    0,186;   -2,409
330,163; 1310,896;    2,096;    1,045
330,757; 1182,229;    2,459;    1,591
331,351; 1090,135;    0,459;    0,682
331,945; 1105,682;    0,914;    1,409
332,540; 1252,325;   -1,723;   -0,591
333,134; 1213,698;   -1,086;    0,773
333,728; 1187,050;    0,005;    0,318
334,322; 1145,656;   -1,177;   -0,864
334,916; 1038,156;    0,277;    0,955
335,510; 1256,847;   -0,450;   -0,136
336,105; 1286,486;   -1,086;    1,591
336,699; 1118,988;   -1,086;    0,591
337,293; 1154,045;   -1,723;    0,318
337,887; 1082,263;   -2,723;    1,955
338,481; 1263,956;    0,459;    0,591
339,074; 1416,057;   -0,359;    2,682
339,668; 1372,464;   -1,632;    1,227
340,262; 2054,437;    1,732;    3,227
340,856; 1554,333;    1,822;   -0,682
341,450; 1123,410;    1,004;    1,864
342,044; 1226,136;    1,459;    0,136
342,637; 1398,799;    0,913;   -2,136
343,231; 1425,162;   -2,360;    0,682
343,825; 1198,707;   -1,086;   -0,591
344,419; 1192,735;   -1,995;    0,500
345,012; 1801,204;    2,459;    4,045
345,606; 1585,148;    4,641;    1,591
346,199; 1217,854;   -1,813;   -0,227
346,793; 1358,170;    1,914;    2,045
347,386; 1139,779;   -0,813;   -1,136
347,980;  983,522;   -0,268;   -0,045
348,573; 1132,013;    2,278;    0,409
349,167; 1425,488;    5,278;    4,773
349,760; 1375,599;    2,914;    2,682
350,354; 1269,641;   -0,813;    1,136
350,947; 1330,375;    1,096;    1,682
351,540; 1103,996;   -0,358;   -1,409
352,134;  937,147;    1,096;    1,136
352,727; 1006,932;   -0,086;    1,136
353,320; 1044,558;    0,005;    0,591
353,913;  927,069;   -1,995;    1,864
354,507; 1188,022;    0,823;   -1,227
355,100; 1068,060;    0,460;    0,864
355,693; 1499,005;    2,005;    2,409
356,286; 1210,684;    0,823;    2,773
356,879; 1041,708;   -0,722;    1,227
357,472;  980,919;   -0,904;    1,500
358,065; 1069,684;   -0,722;    2,500
358,658;  914,153;   -0,540;    2,318
359,251;  833,626;   -1,631;   -0,591
359,844; 1047,021;   -1,904;   -1,136
360,437; 1155,802;   -2,995;    0,045
361,030;  997,168;    1,369;   -0,682
361,623;  968,296;    2,824;    0,318
362,215; 1233,751;   -0,086;    2,045
362,808; 1057,531;   -2,358;   -1,682
363,401;  976,131;   -2,449;    0,136
363,994; 1240,776;   -0,631;   -1,500
364,586;  966,795;    0,824;   -1,500
365,179;  916,366;   -0,449;   -1,136
365,772;  715,601;   -1,995;    2,045
366,364;  898,184;    1,915;   -3,227
366,957; 1035,323;    2,279;   -0,045
367,549;  927,492;    2,188;   -0,864
368,142;  922,726;    1,825;   -1,500
368,734;  886,831;    0,734;   -2,136
369,327;  796,391;    1,643;   -0,500
369,919;  840,459;   -1,538;    0,409
370,512;  893,583;   -1,083;   -0,500
371,104; 1183,001;   -0,901;    1,591
371,696; 1232,919;    1,191;   -0,955
372,289; 1070,086;    0,373;    1,136
372,881; 1004,719;   -2,080;    1,318
373,473;  844,896;   -2,170;    1,136
374,066;  981,629;   -0,169;    0,500
374,658;  939,247;    0,378;    1,136
375,250;  871,872;    0,653;   -1,409
375,842;  923,968;    0,473;   -0,045
376,434;  876,066;   -0,435;   -0,409
377,026;  922,349;    0,204;   -2,500
377,618;  957,095;   -0,158;   -0,682
378,210;  863,916;   -0,338;   -1,955
378,802;  792,415;    0,754;   -0,591
379,394; 1326,531;    1,846;    0,682
379,986; 1066,934;    1,393;   -0,955
380,578;  954,956;   -0,153;    0,773
381,170; 1215,817;   -0,972;    0,045
381,762; 1079,595;    0,755;    1,409
382,354; 1025,751;   -0,065;   -1,318
382,945;  919,301;   -2,976;    0,318
383,537;  858,478;   -2,705;   -1,955
384,129;  868,458;   -2,160;   -1,136
384,721; 1024,050;   -0,252;    0,955
385,312;  913,216;   -0,161;   -0,955
385,904; 1079,675;   -2,706;    1,591
386,496;  894,101;   -0,979;    1,045
387,087; 1081,471;    1,022;    2,500
387,679; 1005,669;   -1,160;    0,045
388,270; 1026,192;    2,840;    2,045
388,862;  966,701;    1,295;   -0,318
389,453;  886,248;   -0,887;    1,045
390,045;  961,791;   -0,705;   -2,682
390,636;  859,367;    0,204;   -0,591
391,227;  892,668;   -0,523;   -0,045
391,819;  910,091;    0,204;    0,773
392,410; 1209,483;    1,022;    0,045
393,001;  989,296;   -0,979;   -1,591
393,593; 1090,522;    1,930;   -0,045
394,184; 1143,132;    1,385;   -0,409
394,775;  924,962;    1,839;    2,136
395,366;  909,185;    1,385;    0,773
395,957; 1143,594;    0,113;    0,136
396,548; 1015,551;   -0,342;    2,682
397,139; 1211,016;   -2,433;    0,591
397,730; 1064,892;   -1,888;    0,955
398,321; 1067,923;   -1,252;    0,955
398,912;  978,815;   -0,615;    0,136
399,503; 1021,618;   -3,524;   -1,409
400,094; 1019,853;    0,294;    1,682
400,685; 1019,163;   -0,433;    0,045
401,276;  913,001;    0,930;   -0,955
401,867;  927,533;   -0,888;    0,773
402,458;  903,799;   -2,251;   -2,318
403,048; 1101,504;    1,112;    0,591
403,639;  961,866;    0,840;    0,864
404,230; 1197,161;    2,476;    0,318
404,821; 1244,709;   -0,615;    0,045
405,411; 1112,871;    1,203;   -2,591
406,002;  955,070;   -1,252;   -1,136
406,592; 1269,564;    2,294;    0,045
407,183; 1091,314;    0,566;   -1,500
407,774; 1024,014;    3,475;   -0,136
408,364; 1007,386;    0,930;    0,409
408,954; 1152,117;    0,384;    1,227
409,545; 1151,999;    1,021;    1,045
410,135; 1035,520;    1,293;    0,500
410,726;  987,420;    1,838;    0,318
411,316; 1261,825;    0,111;    0,773
411,906; 1010,568;   -0,253;   -0,409
412,497;  993,608;   -1,070;   -0,045
413,087;  956,904;   -1,980;   -0,227
413,677;  939,877;   -0,707;    3,864
414,267;  898,021;    0,656;    1,409
414,857;  851,619;   -2,980;    4,227
415,448;  886,860;    0,839;    0,500
416,038;  908,453;    0,020;   -0,591
416,628;  966,851;   -0,889;    0,409
417,218; 1058,790;    0,565;    3,318
417,808; 1261,479;    0,202;   -0,409
418,398; 1076,673;    0,020;    2,682
418,988;  939,623;    2,020;    0,591
419,578; 1042,473;   -0,707;    1,409
420,168; 1065,859;   -1,343;   -0,955
420,757; 1234,409;   -1,343;   -1,500
421,347; 1050,909;    0,111;   -0,227
421,937; 1005,522;    2,292;    1,409
422,527; 1181,818;    0,838;   -0,773
423,116; 1358,667;   -0,253;   -0,045
423,706; 1000,961;   -1,889;    0,318
424,296;  908,307;    1,384;    0,682
424,885; 1161,398;   -0,071;   -3,045
425,475; 1115,076;    1,474;   -2,864
426,065;  951,788;   -0,980;   -0,318
426,654;  921,157;   -0,435;   -0,318
427,244; 1330,023;    0,020;    1,409
427,833; 1272,598;    1,383;   -0,500
428,423; 1081,693;   -0,526;    1,136
429,012; 1154,750;   -0,344;   -1,136
429,601; 1270,241;   -1,344;    0,136
430,191; 1108,923;    1,292;    4,318
430,780;  924,253;   -0,344;   -0,409
431,369; 1277,250;    0,746;   -0,045
431,959; 1199,388;   -1,254;    0,500
432,548; 1035,872;   -1,163;   -0,045
433,137;  935,705;   -1,254;   -1,318
433,726; 1114,717;    0,292;    0,500
434,315; 1076,793;   -0,526;    2,409
434,905; 1240,059;   -1,254;    1,409
435,494; 1305,703;    0,746;    0,955
436,083; 1123,758;   -0,981;   -0,955
436,672; 1173,682;    0,110;    0,500
437,261; 1112,056;    0,292;   -1,955
437,850; 1516,873;    1,383;    0,682
438,439; 1559,743;    3,291;    1,955
439,027; 1669,632;    3,655;    1,773
439,616; 1623,267;    2,927;    1,227
440,205; 1285,459;    0,200;   -2,136
440,794; 1157,493;    2,109;   -0,045
441,383; 1067,166;   -1,346;   -0,591
441,971;  960,676;   -2,436;    0,591
442,560;  975,891;    0,563;   -1,773
443,149;  846,572;    0,379;   -1,318
443,737;  973,658;   -0,074;   -2,318
444,326;  993,372;    0,018;    0,318
444,915; 1084,786;   -1,982;    0,864
445,503; 1117,325;   -2,891;   -0,318
446,092; 1449,032;    0,382;    2,136
446,680; 1394,619;    0,382;    0,318
447,269; 1304,787;   -0,346;   -0,318
447,857; 1208,145;    0,018;   -1,773
448,445; 1149,574;    0,563;    1,318
449,034; 1120,706;   -1,528;   -1,136
449,622; 1087,624;   -1,073;    3,500
450,210; 1566,459;    2,017;    2,227
450,799; 1465,430;    0,290;   -0,591
451,387; 1303,140;    1,381;   -0,591
451,975; 1287,679;    2,654;    0,864
452,563; 1453,335;    3,472;    2,318
453,151; 1130,591;   -0,528;   -1,227
453,739; 1208,769;   -1,347;    0,136
454,328; 1434,470;    2,381;   -2,136
454,916; 1271,432;    2,562;   -0,136
455,504; 1267,303;    1,017;    1,227
456,092; 1130,281;    0,017;   -1,591
456,679; 1021,578;    1,472;    0,682
457,267; 1747,209;    4,017;    1,045
457,855; 1217,767;    1,017;    1,409
458,443;  916,616;   -0,165;    1,682
459,031; 1326,665;    0,108;    2,409
459,619; 1257,274;   -1,801;    2,864
460,206; 1051,811;    0,835;    2,045
460,794; 1092,484;   -2,983;   -0,227
461,382; 1202,116;   -0,529;   -0,864
461,970; 1114,201;    1,198;    1,864
462,557; 1041,822;   -0,711;   -0,682
463,145; 1304,449;   -3,165;   -1,682
463,732; 1645,914;    2,016;   -1,045
464,320; 1274,948;   -0,075;   -3,045
464,907; 1502,138;    2,743;   -0,773
465,495; 1332,014;    0,743;   -1,227
466,082; 1200,924;   -1,984;   -0,045
466,670; 1163,505;   -2,529;    1,227
467,257; 1062,139;   -1,711;    2,045
467,844; 1261,767;   -0,075;    0,045
468,432; 1254,533;    0,834;    3,500
469,019; 1117,141;    0,925;   -1,773
469,606; 1231,997;    0,470;    3,682
470,193; 1303,858;   -1,439;    0,227
470,780; 1258,507;   -2,075;    0,864
471,368; 1137,124;   -1,257;   -0,773
471,955; 1299,317;    1,379;   -0,682
472,542; 1194,187;    0,652;   -1,136
473,129;  999,276;   -0,166;    0,136
473,716;  988,030;    1,470;    0,591
474,303; 1063,866;    0,652;   -0,864
474,890; 1092,194;   -1,439;   -0,500
475,477; 1268,760;   -1,621;    0,409
476,064; 1092,017;    1,106;   -1,591
476,650; 1249,969;    0,288;    0,318
477,237; 1145,241;   -0,258;    0,955
477,824; 1102,206;   -1,076;    0,864
478,411;  939,080;   -1,894;   -0,318
478,997;  956,465;    0,560;   -0,773
479,584;  858,001;    1,196;   -0,409
480,171; 1270,895;   -0,440;   -0,773
480,757; 1395,409;    2,651;    0,773
481,344; 1176,637;    0,469;    0,409
481,931;  941,714;    1,105;    1,045
482,517; 1318,868;   -1,258;    0,318
483,104; 1468,361;    1,106;    2,864
483,690; 1310,843;   -1,804;    0,045
484,276; 1284,677;   -0,895;    0,227
484,863; 1664,652;    2,469;    1,136
485,449; 1405,654;   -0,077;    0,318
486,035; 1301,692;   -1,986;   -0,136
486,622; 1534,870;   -0,895;    0,045
487,208; 1385,082;    1,378;    1,500
487,794; 1241,071;    0,741;    0,318
488,380; 1271,142;    0,105;   -1,409
488,967; 1266,124;   -1,168;   -0,409
489,553; 1290,894;   -1,895;   -1,409
490,139; 1451,272;    1,559;    0,773
490,725; 1255,044;    0,741;   -0,227
491,311; 1278,633;    3,287;    3,045
491,897; 1106,932;   -0,986;    1,500
492,483; 1116,097;    0,105;    1,227
493,069; 1938,601;    3,923;    0,864
493,655; 1390,227;    1,650;    0,682
494,241; 1187,180;    1,377;   -0,955
494,826; 1265,522;    0,287;   -1,045
495,412; 1321,343;    2,559;   -0,682
495,998; 1200,703;   -0,805;   -0,318
496,584; 1283,773;    0,377;    1,045
497,169; 1226,867;    1,014;   -0,682
497,755; 1087,819;    0,650;    1,227
498,341; 1496,222;    0,559;    0,318
498,926; 1662,088;    1,832;    1,955
499,512; 1235,699;    1,286;    2,955
500,097; 1165,853;    0,195;   -0,318
500,683; 1203,201;   -0,350;    2,136
501,268; 1163,949;   -0,169;   -0,955
501,854; 1202,052;   -0,169;    1,227
502,439; 1108,118;   -0,624;   -1,773
503,024; 1251,575;    0,195;    0,500
503,610; 1315,369;   -0,078;   -0,682
504,195; 1113,924;    0,558;    1,955
504,780; 1294,712;    2,922;    1,227
505,366; 1456,295;    3,013;    2,864
505,951; 1290,700;    0,740;    1,045
506,536; 1196,468;   -3,260;   -3,682
507,121; 1250,365;    0,285;   -0,318
507,706; 1215,937;    2,376;    1,045
508,291; 1136,345;    2,649;    1,136
508,876; 1103,653;   -0,988;    2,591
509,461; 1160,195;   -0,169;   -0,773
510,046; 1258,526;    0,194;    0,318
510,631; 1231,466;   -0,351;   -0,773
511,216; 1112,951;    2,467;   -0,500
511,801; 1275,583;   -0,442;    2,591
512,386; 1292,352;    0,740;    0,500
512,971; 1316,055;   -2,988;    0,955
513,555; 1375,611;   -0,897;   -1,500
514,140; 1375,767;   -0,442;   -3,136
514,725; 1475,229;   -0,715;   -1,136
515,309; 1338,085;   -0,533;    0,318
515,894; 1205,528;   -0,624;   -2,227
516,479; 1251,889;   -0,624;   -0,955
517,063; 1229,446;    0,376;    1,227
517,648; 1203,026;    1,012;   -1,136
518,232; 1112,008;   -0,261;   -1,409
518,817; 1237,114;   -0,079;    1,682
519,401; 1454,058;    2,194;    0,591
519,985; 1262,260;    1,103;    1,136
520,570; 1114,695;    0,830;   -1,955
521,154; 1296,452;    2,102;    0,591
521,738; 1591,791;   -2,352;    2,409
522,323; 1444,672;   -0,170;    1,682
522,907; 1342,761;    0,466;   -0,136
523,491; 1221,788;    0,557;    0,955
524,075; 1149,894;    2,284;    0,591
524,659; 1384,746;    1,466;    0,591
525,243; 1269,057;    1,739;    0,409
525,827; 1191,263;    0,648;   -0,045
526,411; 1267,292;   -1,989;   -0,136
526,995; 1446,104;   -0,352;    1,409
527,579; 1471,886;   -0,443;   -1,045
528,163; 1399,667;    0,375;   -1,500
528,747; 1593,441;    2,466;   -0,773
529,331; 1525,309;   -0,080;   -1,409
529,915; 1281,688;    1,738;    0,955
530,499; 1382,867;   -0,807;    1,227
531,082; 1523,596;   -0,534;    1,591
531,666; 1572,082;    1,374;    0,773
532,250; 1501,547;    1,284;    2,682
532,833; 1677,762;    0,920;    2,773
533,417; 1437,328;   -1,807;    0,864
534,001; 1556,318;    1,647;   -0,318
534,584; 1495,507;    0,374;    0,500
535,168; 1291,580;    0,465;    1,409
535,751; 1736,821;    0,647;    0,045
536,334; 1343,810;   -0,898;   -0,409
536,918; 1314,786;    0,011;    1,591
537,501; 1310,729;   -0,899;    1,318
538,085; 1350,336;   -0,444;    1,045
538,668; 1365,805;    0,829;    2,409
539,251; 1765,729;    1,829;    3,773
539,834; 1494,785;    0,101;    0,773
540,418; 1604,217;   -1,990;    4,318
541,001; 1792,780;   -0,990;    1,773
541,584; 1510,466;    2,101;    2,227
542,167; 1598,437;    1,374;    2,955
542,750; 1467,702;    1,919;   -0,773
543,333; 1221,627;    0,555;    2,136
543,916; 1573,072;    0,192;    2,500
544,499; 1451,339;   -1,354;    0,227
545,082; 1563,272;    1,374;    3,591
545,665; 1472,749;    1,919;    1,500
546,248; 1622,536;    1,010;   -0,318
546,830; 1583,398;   -0,445;    1,955
547,413; 1608,144;    1,010;   -0,773
547,996; 1675,165;    0,555;    0,500
548,579; 1476,040;    0,919;    0,955
549,161; 1726,882;    1,828;    2,682
549,744; 1607,848;   -0,809;    0,409
550,326; 1569,593;   -0,809;   -1,136
550,909; 2047,441;    2,737;    0,591
551,492; 1734,630;   -0,263;    0,227
552,074; 1793,515;   -0,173;   -1,318
552,657; 1848,248;    2,373;    0,045
553,239; 1670,928;   -0,173;   -0,773
553,821; 1597,024;   -1,082;    1,045
554,404; 1786,600;    1,282;    1,136
554,986; 1912,797;    0,464;    1,045
555,568; 1821,750;    1,191;   -0,955
556,151; 2010,583;    1,191;   -0,227
556,733; 1684,389;   -0,264;   -0,864
557,315; 1691,854;    0,100;    0,500
557,897; 1479,816;    0,554;   -0,500
558,479; 1511,927;   -1,991;    1,318
559,061; 1644,920;   -0,719;   -0,864
559,643; 1765,793;   -0,264;    0,045
560,225; 1804,319;    1,645;    2,864
560,807; 1690,157;    0,918;    0,318
561,389; 1609,661;    0,554;    2,318
561,971; 1675,998;    0,463;    2,136
562,553; 1681,204;   -1,628;    1,591
563,135; 1772,726;   -0,537;    1,136
563,717; 2100,533;    3,372;    1,136
564,298; 1996,624;    3,645;   -0,045
564,880; 1727,365;    0,645;   -1,409
565,462; 1606,456;    0,645;    1,318
566,043; 1958,440;   -0,446;    2,318
566,625; 2094,431;    1,918;    1,227
567,207; 1864,681;    1,099;    1,682
567,788; 1861,180;   -1,264;    1,500
568,370; 1995,762;    1,917;   -0,500
568,951; 1872,875;    0,190;    0,227
569,533; 2074,249;   -0,628;   -0,500
570,114; 2202,613;   -0,446;    0,682
570,695; 2236,777;   -0,174;   -1,318
571,277; 2203,610;   -0,265;   -1,682
571,858; 2440,161;    2,008;   -1,136
572,439; 2489,225;    1,554;   -1,045
573,021; 2444,606;    2,099;   -2,773
573,602; 2572,854;   -1,265;    0,318
574,183; 2637,239;   -2,083;    2,227
574,764; 2636,573;   -1,629;    0,409
575,345; 2734,307;    0,917;   -0,136
575,926; 2716,450;   -0,356;    0,136
576,507; 2810,846;    1,099;   -0,227
577,088; 2944,934;    3,099;    1,682
577,669; 3059,826;    0,735;    1,955
578,250; 3308,512;    0,644;   -1,045
578,831; 3185,265;   -1,356;   -2,227
579,412; 3061,023;   -0,810;    0,955
579,993; 3357,046;    1,008;    0,227
580,573; 3365,058;   -0,629;   -0,955
581,154; 3051,292;    0,735;   -0,591
581,735; 3231,632;    0,644;    0,773
582,315; 3086,087;   -0,629;    2,136
582,896; 3272,483;   -0,174;    1,227
583,477; 3095,968;    0,189;    1,227
584,057; 3168,407;    0,553;    0,955
584,638; 3239,046;    2,553;    2,318
585,218; 3443,662;   -0,538;    2,682
585,799; 3361,321;    0,281;   -0,227
586,379; 3257,479;    0,372;    1,591
586,959; 3095,154;    0,735;    0,318
587,540; 2920,138;   -0,629;    2,227
588,120; 2826,571;    1,007;   -0,045
588,700; 2684,188;    2,553;    2,136
589,281; 2950,052;    0,462;   -0,955
589,861; 2823,563;    0,099;   -1,682
590,441; 2744,070;    2,371;   -2,682
591,021; 2546,401;   -0,265;   -2,591
591,601; 2644,693;   -0,537;    0,500
592,181; 2757,206;   -0,719;   -0,773
592,761; 2432,250;    0,007;    1,409
593,341; 2598,779;   -0,901;    0,045
593,921; 2532,385;   -0,265;    1,591
594,501; 2438,066;   -0,538;    1,318
595,081; 2410,916;    0,917;   -0,318
595,661; 2655,283;   -1,447;    0,955
596,240; 2701,605;   -0,537;    0,136
596,820; 2838,712;    0,372;    1,955
597,400; 2553,441;    2,008;    0,773
597,980; 2597,810;    2,008;    1,045
598,559; 2606,415;    2,735;   -0,227
599,139; 2539,922;   -0,174;   -1,227
599,718; 2515,013;   -0,174;   -0,409
600,298; 2617,509;    0,735;    0,682
600,877; 2954,473;    2,917;    1,409
601,457; 2866,853;    2,281;    1,136
602,036; 2726,229;    0,190;    2,045
602,616; 2678,437;    0,644;    1,682
603,195; 2842,299;   -0,355;    3,500
603,774; 2745,894;   -0,901;    2,045
604,354; 2671,091;    0,826;   -0,500
604,933; 2564,848;    0,463;    1,864
605,512; 2759,751;    3,554;    0,591
606,091; 2773,506;   -0,537;    3,773
606,671; 2828,768;    0,281;    0,773
607,250; 2819,149;    1,644;    3,136
607,829; 2810,946;    2,372;    3,227
608,408; 2713,486;    1,190;    2,591
608,987; 2628,484;    1,281;    3,409
609,566; 2516,110;   -1,265;   -2,500
610,145; 2617,244;   -1,082;    0,682
610,723; 2774,282;    4,372;    6,864
611,302; 2502,586;   -0,446;    1,682
611,881; 2619,021;    5,008;   11,227
612,460; 2538,772;    1,645;    3,955
613,039; 2596,779;   -0,082;    2,045
613,617; 2326,075;    1,736;    4,773
614,196; 2344,865;    1,099;    1,227
614,775; 2507,941;    1,009;    2,409
615,353; 2517,295;    0,736;    0,864
615,932; 2448,500;    0,100;    2,409
616,510; 2582,750;    0,554;    0,591
617,089; 2953,251;    7,100;   17,591
617,667; 2612,327;    2,372;    6,136
618,246; 2278,315;   -1,537;    1,318
618,824; 2408,529;   -3,355;   -0,955
619,402; 2356,902;   -2,900;   -1,773
619,981; 2516,241;   -0,173;   -1,045
620,559; 2475,068;    0,009;    1,682
621,137; 2480,572;   -0,718;    1,864
621,715; 2164,247;   -1,173;   -0,682
622,293; 2217,833;   -0,537;   -0,773
622,871; 2503,945;   -0,718;    0,500
623,450; 2312,287;    0,373;   -0,864
624,028; 2445,244;    0,191;   -0,955
624,606; 2350,967;   -1,718;    1,682
625,183; 2262,568;   -1,536;   -1,136
625,761; 2287,923;    1,009;    1,136
626,339; 2658,372;    1,373;    2,591
626,917; 2395,373;   -0,172;   -0,045
627,495; 2411,857;   -0,354;    1,318
628,073; 2360,545;   -0,263;    2,864
628,650; 2298,028;    0,100;    2,136
629,228; 2394,982;    0,373;    4,409
629,806; 2116,591;    2,282;    1,136
630,383; 2221,528;    1,464;   -0,318
630,961; 2216,957;    2,555;   -0,955
631,539; 2143,871;    2,464;    0,227
632,116; 2788,321;   11,373;   15,409
632,694; 2477,091;    2,555;    6,500
633,271; 2281,720;    0,828;    2,682
633,848; 2400,662;    1,828;    2,045
634,426; 2217,447;   -1,081;    1,773
635,003; 2054,125;    1,101;   -0,409
635,580; 2397,454;    1,192;    3,682
636,158; 2258,971;    3,737;    1,227
636,735; 2107,178;    0,555;   -0,500
637,312; 2127,249;   -0,809;   -0,682
637,889; 2147,309;   -4,354;   -0,682
638,466; 2099,764;   -3,990;   -0,409
639,043; 2085,420;    2,101;   -1,136
639,620; 2098,681;   -2,262;   -0,955
640,197; 2244,891;    1,100;    1,682
640,774; 2225,004;   -0,172;    1,136
641,351; 2312,390;    0,737;    1,136
641,928; 2337,321;   -0,627;    1,409
642,505; 2452,343;    0,828;   -0,500
643,082; 2359,911;   -1,718;    1,227
643,658; 2011,751;   -0,718;    1,500
644,235; 2133,319;    1,191;    2,500
644,812; 2279,795;    1,918;    0,773
645,388; 2210,454;   -0,991;    1,409
645,965; 2011,385;   -0,809;    1,682
646,542; 2063,044;   -1,445;   -0,227
647,118; 2488,247;    1,009;   -0,955
647,695; 2318,633;   -0,263;    1,136
648,271; 2132,655;   -0,536;    0,500
648,848; 2264,950;    0,736;    2,227
649,424; 2370,518;    0,827;    1,318
650,000; 2075,722;   -0,354;   -1,045
650,577; 2155,653;   -0,627;   -0,955
651,153; 2282,220;   -1,809;    0,955
651,729; 2290,061;    1,191;    0,864
652,305; 2564,628;    0,645;    2,773
652,881; 3038,650;   -0,082;    1,136
653,458; 3996,400;    1,100;    0,227
654,034; 4578,149;    0,282;    1,591
654,610; 4630,535;    0,554;    0,773
655,186; 5041,193;    0,645;    3,045
655,762; 4719,852;   -0,991;    0,409
656,338; 4678,056;    0,100;    0,136
656,913; 5008,532;   -0,082;    0,409
657,489; 4729,373;    0,827;   -0,318
658,065; 4815,122;   -0,173;   -1,591
658,641; 5067,780;   -0,900;   -0,864
659,217; 4799,803;   -0,991;    0,409
659,792; 4529,188;    0,645;   -0,409
660,368; 4646,574;   -2,173;   -0,682
660,944; 4835,596;   -2,082;    1,227
661,519; 4130,436;   -0,628;    0,409
662,095; 3213,095;   -1,719;    0,591
662,670; 2515,390;    1,281;   -0,136
663,246; 2477,957;    1,009;   -0,409
663,821; 2515,616;    0,281;    1,682
664,396; 2248,456;    0,009;    1,864
664,972; 2290,205;    0,009;   -0,500
665,547; 2449,682;    1,372;    0,136
666,122; 2377,977;   -1,082;    0,318
666,698; 2542,908;   -0,173;    0,318
667,273; 2192,021;   -0,173;    0,136
667,848; 2398,225;    2,372;    1,500
668,423; 2471,702;    2,190;    2,318
668,998; 2396,906;    2,827;   -0,682
669,573; 2456,109;   -3,264;   -1,500
670,148; 2603,313;   -1,446;   -0,682
670,723; 2322,790;   -1,810;    0,318
671,298; 2669,449;    2,372;    1,045
671,873; 2528,743;   -0,082;   -0,136
672,448; 2541,765;    0,645;    0,136
673,023; 2562,151;   -1,992;   -0,227
673,597; 2751,628;    0,827;    2,318
674,172; 2723,559;   -0,355;    0,318
674,747; 2583,490;    0,372;   -1,045
675,321; 2372,876;   -0,628;    3,318
675,896; 2223,625;    0,645;    1,045
676,471; 2472,738;    2,645;    1,591
677,045; 2387,942;   -1,264;    0,682
677,620; 2413,510;    0,190;    1,136
678,194; 2426,896;   -2,628;    1,136
678,769; 2413,827;   -1,083;   -0,318
679,343; 2529,576;   -0,628;    1,773
679,917; 2568,871;   -1,446;    1,955
680,492; 2405,075;    0,826;    3,227
681,066; 2472,642;    3,372;    0,409
681,640; 2476,665;    1,463;   -0,318
682,214; 2603,505;    0,735;    0,500
682,788; 2504,527;   -1,356;   -0,773
683,363; 2544,004;   -1,810;    1,682
683,937; 2391,389;   -1,719;   -0,318
684,511; 2627,321;    0,463;   -0,591
685,085; 2563,524;   -1,356;    0,318
685,659; 2416,637;   -2,538;    0,864
686,232; 2649,387;   -0,356;   -0,318
686,806; 2536,318;   -0,901;    0,409
687,380; 2609,976;   -0,174;    0,591
687,954; 2628,362;   -1,174;    1,136
688,528; 2717,930;   -0,719;    1,955
689,101; 2815,043;   -3,992;    1,045
689,675; 2607,338;   -0,356;   -0,136
690,249; 2664,178;   -0,719;    0,409
690,822; 2719,382;    0,280;    0,318
691,396; 2610,586;   -0,265;    1,227
691,969; 2470,971;    1,280;    0,136
692,543; 2581,539;   -0,447;   -1,955
693,116; 2371,561;   -0,265;   -1,409
693,690; 2445,311;    0,099;    0,500
694,263; 2581,424;   -1,083;    2,955
694,836; 2820,082;    1,371;    3,591
695,410; 2518,468;   -0,265;    1,773
695,983; 2538,581;    0,189;    0,591
696,556; 2448,512;   -0,447;   -1,045
697,129; 2501,807;   -0,356;    1,409
697,703; 2472,829;   -1,629;    1,955
698,276; 2495,487;    1,462;   -0,773
698,849; 2534,328;    1,280;    1,409
699,422; 2420,441;   -1,083;    0,591
699,995; 2317,008;    0,007;    0,136
700,568; 2496,667;   -0,629;    3,045
701,140; 2502,780;   -2,811;    1,682
701,713; 2609,893;   -0,174;    2,409
702,286; 2510,733;   -0,538;    0,864
702,859; 2486,664;   -0,902;   -0,591
703,432; 2402,959;    0,825;    0,682
704,004; 2413,163;    0,462;    0,318
704,577; 2252,094;   -0,629;    0,136
705,150; 2366,662;    0,189;    2,500
705,722; 2452,138;   -0,356;   -3,227
706,295; 2460,433;   -0,175;   -0,591
706,867; 2294,092;   -0,175;    1,955
707,440; 2502,568;   -1,720;   -0,409
708,012; 2578,136;    0,462;    0,591
708,584; 2427,067;    2,462;    0,227
709,157; 2399,453;    1,825;   -0,591
709,729; 2525,657;    2,280;    2,045
710,301; 2687,042;    0,734;    0,045
710,874; 2634,701;   -1,447;   -0,227
711,446; 2250,541;    0,371;    0,864
712,018; 2333,200;    0,098;    0,500
712,590; 2241,676;   -1,993;    1,682
713,162; 2568,517;    0,825;    1,318
713,734; 2452,266;    1,825;   -2,045
714,306; 2411,833;   -1,902;   -0,409
714,878; 2240,037;    0,825;    0,864
715,450; 2383,696;    0,643;    0,864
716,022; 2404,809;    1,552;    1,318
716,593; 2432,649;    0,189;    0,591
717,165; 2482,944;   -3,175;   -1,227
717,737; 2594,330;    0,280;    0,409
718,309; 2432,806;    0,280;   -0,045
718,880; 2368,101;   -0,539;   -1,409
719,452; 2475,578;   -0,175;   -1,591
720,024; 2450,327;    0,734;   -0,591
720,595; 2475,622;   -2,902;    0,955
721,167; 2363,099;    0,370;   -2,045
721,738; 2325,575;   -0,812;   -1,045
722,309; 2386,688;   -0,993;   -1,227
722,881; 2232,074;   -1,357;    0,773
723,452; 2419,096;   -2,630;    2,864
724,023; 2475,209;   -0,721;    2,682
724,595; 2500,140;    0,007;    0,682
725,166; 2283,072;    0,007;   -0,409
725,737; 2443,548;    1,734;    0,227
726,308; 2377,298;   -0,266;    0,318
726,879; 2298,592;   -1,630;    1,227
727,450; 2412,705;    0,552;   -0,045
728,021; 2297,273;    3,097;    0,682
728,592; 2438,841;    0,734;    0,500
729,163; 2590,226;    0,643;   -0,136
729,734; 2612,339;    0,188;   -0,227
730,305; 2479,725;    1,734;    0,136
730,876; 2458,111;    0,188;    2,955
731,447; 2767,860;    2,188;    2,682
732,017; 2638,519;    1,097;    1,864
732,588; 2515,359;    0,734;    1,227
733,159; 2662,472;    0,643;   -1,045
733,729; 2389,676;    0,006;    0,409
734,300; 2433,698;    0,915;    0,864
734,870; 2395,902;    3,461;    0,591
735,441; 2438,560;    0,370;   -0,591
736,011; 2322,128;    0,643;   -1,591
736,582; 2355,695;   -0,812;    0,045
737,152; 2320,536;   -1,721;   -2,045
737,722; 2393,376;   -0,267;   -0,682
738,293; 2230,398;   -1,358;    1,318
738,863; 2406,329;    2,461;    2,318
739,433; 2650,897;    5,279;    0,318
740,003; 2552,737;   -0,994;   -0,682
740,573; 2553,396;    2,097;   -1,591
741,143; 2494,600;   -1,085;    0,318
741,713; 2475,713;    1,188;   -0,500
742,283; 2437,462;    0,915;    1,591
742,853; 2339,939;    1,915;    1,591
743,423; 2186,052;    1,733;    0,045
743,993; 2258,983;   -0,358;    1,500
744,563; 2122,005;    0,097;   -0,864
745,133; 2168,482;   -0,812;   -0,864
745,702; 2286,504;   -0,267;    1,773
746,272; 2299,980;   -0,176;    0,591
746,842; 2308,184;   -1,358;   -0,591
747,411; 2232,934;   -0,267;   -0,318
747,981; 2160,865;    0,097;    0,500
748,551; 2189,705;    2,278;   -1,045
749,120; 2283,091;    0,642;   -0,227
749,690; 2306,840;   -0,631;    2,409
750,259; 2450,771;    1,369;    2,955
750,828; 2444,794;    1,551;   -1,955
751,398; 2340,634;    1,278;   -0,045
751,967; 2628,110;    2,187;    0,409
752,536; 2397,769;   -0,813;   -0,227
753,105; 2537,064;    0,096;    0,227
753,675; 2330,449;    0,096;    1,773
754,244; 2334,563;   -0,904;    3,591
754,813; 2361,039;    0,551;    1,227
755,382; 2264,698;    0,460;    0,955
755,951; 2414,083;    1,551;    3,682
756,520; 2453,924;   -0,085;    1,864
757,089; 2701,128;    0,278;    0,500
757,658; 2429,968;    1,733;    1,227
758,227; 2320,354;    1,096;    0,318
758,795; 2393,830;    1,187;    1,136
759,364; 2536,489;   -0,086;   -0,591
759,933; 2236,602;   -1,176;   -0,045
760,501; 2188,533;    0,733;   -1,318
761,070; 2324,919;   -2,813;   -1,409
761,639; 2558,941;   -1,904;    1,318
762,207; 2387,872;    1,551;   -0,955
762,776; 2450,258;    0,369;    0,864
763,344; 2331,734;   -0,995;    0,591
763,913; 1977,938;   -0,722;    1,409
764,481; 2616,506;    1,005;   -0,136
765,049; 2545,346;   -1,358;    1,409
765,618; 2439,823;   -0,086;    0,318
766,186; 2374,481;    0,278;    0,136
766,754; 2380,049;    0,005;    1,864
767,322; 2079,798;   -1,995;    0,409
767,890; 2031,184;   -0,722;   -1,773
768,459; 2228,842;   -2,177;   -0,318
769,027; 2432,501;    1,641;    3,409
769,595; 2150,705;    3,278;    2,591
770,163; 2209,909;    3,823;    2,955
770,730; 2191,022;    0,732;   -0,136
771,298; 2155,680;    0,187;   -1,409
771,866; 2168,975;   -1,541;    4,955
772,434; 2208,997;   -0,631;   -1,864
773,002; 2462,656;    0,005;    0,682
773,569; 2319,950;    0,914;    1,682
774,137; 2367,063;   -0,268;   -0,045
774,705; 2363,904;    0,278;   -0,136
775,272; 2170,289;    0,641;    0,682
775,840; 2296,675;   -0,177;    2,682
776,407; 2255,061;    0,277;    1,955
776,975; 2026,628;   -0,632;    0,318
777,542; 2188,469;   -1,086;   -0,045
778,110; 2197,854;   -1,268;   -0,045
778,677; 2047,240;   -2,359;   -0,864
779,244; 2081,535;    2,186;    1,045
779,812; 2228,466;    1,823;    0,864
780,379; 2265,125;    0,005;    1,136
780,946; 2178,692;    1,005;   -0,773
781,513; 2204,351;   -1,450;    0,318
782,080; 2031,646;   -0,086;    2,864
782,647; 2156,031;   -0,268;    3,045
783,214; 2085,508;   -0,177;    3,864
783,781; 2209,530;   -0,723;   -0,682
784,348; 2172,188;   -0,632;    1,500
784,915; 2030,756;   -3,177;    0,318
785,482; 2190,869;    1,368;    2,591
786,049; 2293,255;    0,186;   -0,591
786,615; 2213,913;    0,277;   -0,955
787,182; 2116,572;    0,186;   -0,682
787,749; 2088,957;   -2,814;    1,409
788,315; 2084,161;   -1,632;   -0,409
788,882; 2122,274;    1,550;   -1,227
789,448; 2413,842;    1,732;   -0,955
790,015; 2223,773;    1,095;    3,227
790,581; 2316,341;    1,459;    0,227
791,148; 2119,636;    0,641;    1,045
791,714; 2105,294;   -0,541;    3,136
792,280; 2066,134;    0,186;    1,591
792,847; 1990,884;    0,550;    2,500
793,413; 2094,269;   -0,269;   -0,318
793,979; 2143,564;    3,459;   -1,318
794,545; 2486,041;    4,459;    2,682
795,111; 2285,154;    2,186;    1,318
795,678; 2138,267;    0,731;   -1,682
796,244; 2314,380;    3,368;    0,136
796,810; 2290,857;    1,731;    0,773
797,375; 2246,970;    0,549;   -2,136
797,941; 1886,083;   -0,541;    0,591
798,507; 1865,377;   -0,451;   -0,955
799,073; 1876,581;   -0,360;    0,591
799,639; 1954,058;   -2,632;    3,136
800,205; 1892,989;    0,095;    2,682
800,770; 1836,193;    0,640;    1,773
801,336; 1800,397;    1,368;   -0,955
801,901; 2414,419;    4,549;    3,136
802,467; 2169,714;   -0,542;    2,045
803,033; 1811,827;   -0,087;    0,864
803,598; 1829,758;    1,913;   -1,045
804,163; 1901,780;    1,095;   -0,318
804,729; 1999,075;   -0,178;    1,136
805,294; 1925,552;    0,822;    2,227
805,859; 1788,847;    0,731;   -0,409
806,425; 2153,960;    1,186;    2,682
806,990; 2124,800;    2,186;    4,318
807,555; 1926,822;   -1,451;    2,591
808,120; 2097,208;    0,822;   -0,409
808,685; 1841,775;    0,185;   -2,500
809,250; 1680,979;    0,004;   -0,500
809,815; 1773,274;    1,913;    0,682
810,380; 1985,842;   -0,269;    1,591
810,945; 2129,591;   -1,087;    2,045
811,510; 1962,977;    2,094;    1,591
812,075; 1872,726;   -0,633;   -1,409
812,640; 2166,021;    2,003;    1,409
813,204; 1977,498;    0,822;   -0,227
813,769; 2181,065;    2,094;   -0,045
814,334; 2112,360;    0,458;    0,864
814,898; 1883,655;    0,367;    0,591
815,463; 1890,768;    1,276;   -0,773
816,027; 1813,790;   -0,724;   -2,318
816,592; 1839,267;    0,640;   -2,045
817,156; 1868,016;    2,094;    1,136
817,721; 1947,311;    4,276;    2,318
818,285; 1740,696;    2,912;    1,500
818,849; 1865,446;   -1,451;    1,682
819,414; 1757,559;   -0,269;    2,955
819,978; 1684,490;   -1,269;    1,773
820,542; 2097,785;    2,003;    0,500
821,106; 1947,262;   -0,815;    0,682
821,670; 2095,465;   -0,815;    2,591
822,234; 1852,306;   -0,270;    1,409
822,798; 1701,328;    0,003;    0,500
823,362; 2016,986;   -0,633;    4,227
823,926; 1722,554;    0,094;    1,136
824,490; 1923,303;   -0,997;   -0,682
825,054; 1850,234;   -0,088;   -1,136
825,618; 1698,711;   -1,542;   -1,500
826,181; 1714,551;    0,458;   -1,318
826,745; 1778,392;    1,367;   -1,045
827,309; 2074,959;    1,185;    1,318
827,872; 1920,345;    1,367;    0,955
828,436; 1897,367;    1,185;   -0,773
828,999; 1852,207;   -0,997;    1,227
829,563; 1775,866;   -0,179;    1,136
830,126; 1708,161;   -0,179;   -0,591
830,690; 1725,819;   -1,997;    2,864
831,253; 1595,568;   -0,543;    2,227
831,816; 1662,954;   -1,906;    0,500
832,380; 1589,976;    0,185;    0,864
832,943; 1624,180;   -1,361;   -0,500
833,506; 1630,384;    2,639;   -1,227
834,069; 1855,861;    3,912;   -0,955
834,632; 1750,428;    1,730;    1,318
835,195; 1757,269;    1,003;    0,955
835,758; 1640,109;   -0,997;    1,955
836,321; 1576,040;    0,730;   -1,045
836,884; 1589,608;   -0,725;   -0,955
837,447; 1591,084;   -2,816;    1,773
838,010; 1724,925;    0,366;    3,227
838,573; 1809,401;   -1,179;    0,773
839,135; 1709,696;   -1,361;   -0,955
839,698; 1637,082;    1,275;    0,409
840,261; 1577,377;    1,003;   -0,227
840,823; 1528,126;   -0,543;    0,864
841,386; 1516,239;   -0,452;   -2,409
841,948; 1860,261;   -1,361;    1,773
842,511; 1562,011;    0,912;    1,682
843,073; 1837,124;    1,912;    0,227
843,636; 1586,873;   -0,361;   -0,227
844,198; 1795,168;    0,911;    0,591
844,760; 1760,553;    1,093;    1,955
845,322; 1511,757;    0,548;    1,136
845,885; 1669,780;    0,730;    0,591
846,447; 1658,893;   -1,998;    0,227
847,009; 1984,551;    1,911;   -0,682
847,571; 1671,391;    0,820;   -2,045
848,133; 1634,413;   -1,089;   -1,864
848,695; 1505,890;   -0,543;    1,409
849,257; 1562,003;   -1,089;   -1,682
849,819; 1738,389;   -0,998;   -0,409
850,381; 1582,502;   -0,725;   -0,864
850,942; 1658,797;    1,093;   -0,591
851,504; 1693,273;    1,184;    0,227
852,066; 1615,659;    1,275;   -1,591
852,628; 1618,317;   -0,180;    1,955
853,189; 1424,430;    1,638;    2,682
853,751; 1496,816;   -0,907;    1,409
854,312; 1668,475;   -0,453;   -1,682
854,874; 1827,770;   -2,089;   -0,773
855,435; 1650,701;   -0,907;   -1,682
855,997; 1760,723;   -1,816;   -0,136
856,558; 1772,836;    0,366;    1,773
857,119; 1631,949;    0,820;    2,864
857,681; 1468,607;    0,002;    0,318
858,242; 1687,811;    1,911;   -2,136
858,803; 1785,197;    0,456;   -0,773
859,364; 1725,583;    0,184;   -4,773
859,925; 1728,423;   -2,453;   -0,955
860,486; 1632,172;   -0,453;   -0,955
861,047; 1511,194;   -0,544;   -1,227
861,608; 1536,035;   -1,089;   -0,773
862,169; 1466,420;    0,638;   -0,045
862,730; 1510,170;    0,456;    1,409
863,291; 1579,828;   -0,635;   -0,500
863,852; 1565,032;   -0,635;    1,955
864,412; 1502,782;   -0,271;   -0,864
864,973; 1663,622;   -0,089;    0,500
865,534; 1836,008;   -1,726;    0,227
866,094; 1680,575;    1,820;    0,227
866,655; 1754,506;    1,274;    3,318
867,215; 1630,801;    0,274;    0,136
867,776; 1508,187;    0,547;   -0,136
868,336; 1554,027;   -1,453;    0,136
868,897; 1941,595;    2,638;    1,682
869,457; 1718,981;    1,365;    0,318
870,017; 1553,366;    0,547;   -1,227
870,578; 1571,752;   -0,817;    0,773
871,138; 1521,229;   -2,089;   -0,955
871,698; 1394,160;   -0,817;   -1,318
872,258; 1535,273;   -0,453;   -2,864
872,818; 1783,204;    2,729;    0,045
873,378; 1571,953;    0,638;    1,045
873,938; 1491,339;    0,547;    0,500
874,498; 1404,179;    0,274;   -1,955
875,058; 1464,111;    2,183;    1,773
875,618; 1457,860;    1,910;   -2,682
876,177; 1509,064;    1,274;    0,136
876,737; 1287,813;   -0,090;    1,955
877,297; 1741,835;    0,183;    1,955
877,856; 1645,403;   -0,362;    0,318
878,416; 1375,516;    1,183;   -0,136
878,976; 1379,720;   -1,817;    0,409
879,535; 1438,742;    0,092;    3,136
880,095; 1423,401;   -0,544;    0,045
880,654; 1305,695;   -1,090;    1,318
881,213; 1660,445;    2,456;    1,500
881,773; 1459,285;    2,637;    2,682
882,332; 2093,489;    3,365;    5,136
882,891; 1491,966;    3,092;    2,136
883,451; 1516,351;   -1,272;    1,682
884,010; 1398,373;   -2,908;   -0,409
884,569; 1377,123;   -0,999;   -0,045
885,128; 1596,963;    2,819;   -1,864
885,687; 1911,258;    4,455;    0,682
886,246; 2075,371;    1,455;    2,136
886,805; 1761,211;    2,455;    2,045
887,364; 1427,961;   -0,999;   -0,500
887,922; 1348,164;   -1,181;    0,045
888,481; 1484,187;   -1,545;    0,591
889,040; 1666,481;    1,183;    2,136
889,599; 1535,049;    2,455;    1,409
890,157; 1544,526;    1,455;    2,409
890,716; 1433,730;   -0,090;    0,227
891,274; 1521,570;    0,092;   -1,136
891,833; 1639,319;    1,546;    0,864
892,391; 1427,523;   -0,454;    0,500
892,950; 1634,909;    1,819;   -0,773
893,508; 1449,658;    0,455;   -0,409
894,067; 1295,680;    0,637;    0,136
894,625; 1405,339;   -0,636;   -1,500
895,183; 1384,452;   -0,363;   -0,682
895,741; 1703,110;    1,728;   -1,773
896,299; 1467,860;   -0,545;   -2,409
896,858; 1372,155;    0,819;   -1,591
897,416; 1515,449;    2,728;   -1,318
897,974; 1429,926;    1,819;    0,318
898,532; 1941,584;    6,091;    2,682
899,089; 1571,061;    2,091;   -0,682
899,647; 1462,810;   -1,454;    1,318
900,205; 1504,742;    1,182;    1,045
900,763; 1509,491;   -0,454;    0,227
901,321; 1470,059;    2,364;   -1,409
901,878; 1250,626;   -1,000;   -0,773
902,436; 1313,648;   -1,363;    1,318
902,994; 2166,852;    4,728;    3,682
903,551; 1631,965;    0,728;    0,409
904,109; 1513,987;    0,182;   -1,409
904,666; 1438,100;    2,455;    1,045
905,224; 1307,213;    0,182;   -0,409
905,781; 1469,417;    0,727;   -0,318
906,338; 1389,167;   -1,363;    1,045
906,895; 1254,007;    0,637;    2,045
907,453; 1557,484;    1,727;    1,136
908,010; 1400,960;   -0,909;    0,409
908,567; 1322,619;    1,273;    0,591
909,124; 1132,913;    0,364;   -1,500
909,681; 1203,663;   -2,909;    0,682
910,238; 1290,594;    0,636;   -1,318
910,795; 1285,253;   -0,273;   -1,136
911,352; 1259,343;   -2,909;   -2,682
911,909; 1231,798;   -1,364;   -0,864
912,466; 1305,616;   -3,182;    1,500
913,022; 1301,889;   -1,636;    0,500
913,579; 1431,889;   -0,909;    2,045
914,136; 1296,707;    1,636;    0,955
914,692; 1368,798;    0,091;   -1,227
915,249; 1292,343;    1,455;    0,409
915,806; 1381,525;    0,182;    1,955
916,362; 1283,707;    1,909;    1,864
916,918; 1173,525;    2,000;    1,045
917,475; 1402,707;   -1,182;    0,955
918,031; 1201,071;    3,364;   -0,045
918,587; 1275,253;   -0,909;   -0,318
919,144; 1189,616;   -2,273;    0,227
919,700; 1149,071;    1,727;    0,773
920,256; 1105,343;    0,727;    0,045
920,812; 1136,616;   -0,727;   -1,045
921,368; 1095,616;   -1,727;   -1,045
921,924; 1073,707;    0,182;   -0,136
922,480; 1175,343;   -0,545;    1,227
923,036; 1215,980;    1,273;    1,955
923,592; 1114,798;    0,455;    0,318
924,148; 1145,162;    0,455;   -0,955
924,704; 1288,525;   -1,364;   -0,409
925,259; 1121,071;   -0,273;    0,591
925,815; 1070,434;    1,455;    0,500
926,371; 1020,434;    2,909;    1,409
926,926; 1185,343;    2,091;    0,591
927,482; 1142,798;   -1,364;    0,773
928,037; 1061,889;    0,909;    2,045
928,593; 1294,889;    1,636;    1,045
929,148; 1033,889;   -1,818;   -1,500
929,704; 1089,525;   -1,455;   -0,500
930,259;  963,071;    0,091;   -0,136
930,814; 1181,071;   -0,818;    1,955
931,369; 1096,071;    1,091;   -0,773
931,925;  871,162;   -0,091;    0,136
932,480;  976,798;   -2,818;   -2,591
933,035; 1399,434;    0,545;   -0,318
933,590; 1261,343;    0,364;   -1,773
934,145;  819,798;   -1,364;   -0,318
934,700;  732,889;    0,455;   -0,591
935,255;  809,798;   -0,091;    0,045
935,809; 1157,162;    3,182;    0,864
936,364;  744,434;   -0,455;   -0,136
936,919;  752,889;    0,455;   -1,773
937,474;  656,525;    1,455;    0,136
938,028;  688,071;   -1,636;    1,136
938,583; 1105,253;    1,818;    4,682
939,138;  732,798;    2,091;    2,136
939,692;  581,525;    1,636;   -1,136
940,247;  633,071;   -0,727;   -1,045
940,801;  697,343;   -0,636;    0,227
941,355;  597,162;   -0,364;    2,591
941,910;  473,616;   -0,273;   -2,136
942,464;  521,071;   -0,818;   -0,318
943,018;  800,525;    1,000;   -0,227
943,572;  607,525;    2,545;   -0,682
944,126;  660,253;    0,091;   -0,409
944,681;  522,616;    3,091;    0,227
945,235;  464,071;    1,000;   -0,591
945,789;  413,707;    0,364;   -1,864
946,342;  743,889;    0,455;   -0,591
946,896;  476,071;   -2,273;    0,955
947,450;  445,434;    1,545;   -0,227
948,004;  727,707;    1,727;   -0,045
948,558;  508,707;    0,273;   -0,864
949,111;  501,434;   -0,273;   -0,318
949,665;  728,343;    1,636;   -0,682
950,219;  674,616;   -0,091;   -1,045
950,772;  594,253;   -1,909;    1,864
951,326;  592,434;    0,545;   -0,955
951,879;  496,434;    0,727;   -2,318
952,433;  642,798;    0,000;    2,227
952,986;  461,798;    2,909;    0,682
953,539;  417,707;   -0,273;    0,591
954,093;  355,071;    0,545;   -1,318
954,646;  520,253;    0,909;    1,318
955,199;  429,253;    0,000;   -0,500
955,752;  647,253;   -0,455;    1,773
956,305;  486,616;   -0,091;    2,955
956,858;  549,707;    0,818;   -0,318
957,411;  613,525;   -0,545;    2,136
957,964;  504,434;    1,364;    2,136
958,517;  418,162;   -1,545;    3,136
959,070;  364,616;   -0,455;    1,955
959,623;  674,889;    1,091;    1,500
960,176;  613,071;    1,727;    2,045
960,728;  582,253;   -2,727;    0,773
961,281;  515,798;    0,545;    0,500
961,834;  432,253;   -0,909;    0,864
962,386;  435,980;    1,727;    1,045
962,939;  400,071;    0,364;   -0,318
963,491;  447,889;    0,455;    1,136
964,043;  376,798;    1,182;    2,409
964,596;  573,162;   -1,000;    2,227
965,148;  466,616;   -1,000;    1,773
965,700;  374,434;    1,091;   -0,227
966,253;  552,253;   -0,636;    0,318
966,805;  513,343;   -2,273;    0,773
967,357;  426,980;    1,091;   -1,500
967,909;  550,889;    0,455;   -1,227
968,461;  427,434;    0,545;    3,136
969,013;  379,343;   -0,182;   -0,864
969,565;  540,889;   -0,455;   -1,136
970,117;  800,253;   -0,364;    1,045
970,669;  542,707;    0,182;   -0,136
971,220;  319,343;   -0,455;   -1,500
971,772;  423,980;   -0,636;   -0,318
972,324;  527,980;    0,091;   -0,500
972,876;  431,343;    0,818;   -0,045
973,427;  558,071;    1,909;   -1,045
973,979;  621,616;   -0,727;   -2,500
974,530;  405,616;    1,818;    1,318
975,082;  479,616;   -0,545;    1,682
975,633;  419,707;    1,091;    1,682
976,184;  490,162;    0,909;    0,773
976,736;  474,162;    0,091;    0,227
977,287;  490,525;   -0,909;   -0,500
977,838;  449,253;    0,909;   -0,318
978,389;  459,343;   -1,000;   -0,500
978,940;  317,071;    0,545;   -0,409
979,491;  305,434;    0,091;   -0,500
980,042;  414,253;    0,182;    3,045
980,593;  418,343;   -2,545;    0,227
981,144;  531,889;    2,545;   -0,500
981,695;  576,889;    1,455;    1,500
982,246;  517,525;   -0,273;    1,045
982,797;  362,525;   -1,727;    0,682
983,347;  527,525;    0,364;    0,591
983,898;  741,798;    3,091;    0,409
984,449;  693,889;    2,182;    0,773
984,999;  517,707;    1,455;   -1,136
985,550;  474,253;    0,182;   -0,318
986,100;  320,434;   -0,455;   -0,318
986,651;  321,616;   -0,818;    0,045
987,201;  356,980;   -1,000;   -0,591
987,751;  375,162;    0,818;    2,864
988,302;  424,889;    2,636;    1,500
988,852;  463,798;    0,455;   -1,136
989,402;  542,343;    0,091;    0,682
989,952;  563,343;   -2,182;    0,864
990,502;  393,525;   -0,091;    0,682
991,052;  290,253;   -0,727;    0,045
991,602;  343,434;   -2,909;    1,318
992,152;  406,889;    0,455;    0,682
992,702;  438,616;    1,364;   -0,045
993,252;  373,162;   -3,000;   -0,500
993,802;  482,616;   -0,273;    1,318
994,352;  431,162;   -1,545;    1,136
994,901;  334,253;   -0,182;    3,227
995,451;  326,253;   -0,182;    0,318
996,000;  362,980;    1,636;    0,318
996,550;  365,616;    2,273;    0,227
997,100;  410,434;    1,273;   -0,045
997,649;  564,707;    2,182;    0,955
998,198;  373,162;    1,727;   -1,500
998,748;  505,434;    1,091;   -2,318
999,297;  420,707;   -0,818;   -0,409
999,846;  563,707;    1,000;   -0,773
1000,395;  467,162;   -0,818;    0,500
1000,945;  587,980;    1,818;   -0,773
1001,494;  587,980;    2,364;    0,682
1002,043;  562,343;    4,636;    0,864
1002,592;  364,071;   -1,091;    1,955
1003,141;  365,525;   -0,455;   -0,682
1003,690;  535,162;    1,727;    0,500
1004,238;  408,162;    1,455;   -0,045
1004,787;  320,616;    1,364;    1,227
1005,336;  518,616;    0,364;    0,682
1005,885;  460,434;    1,364;   -2,773
1006,433;  451,162;    0,545;    0,955
1006,982;  662,253;    0,455;    1,682
1007,531;  490,071;   -1,818;   -0,227
1008,079;  434,889;   -2,273;    0,500
1008,627;  369,889;   -1,455;    0,409
1009,176;  391,343;    0,000;   -1,955
1009,724;  337,980;    1,091;    0,864
1010,273;  507,525;    1,273;    0,500
1010,821;  378,707;    0,091;    1,409
1011,369;  329,071;   -1,364;    1,318
1011,917;  358,162;   -1,364;   -0,591
1012,465;  450,253;    1,273;   -1,591
1013,013;  434,707;    2,091;   -1,682
1013,561;  554,980;    0,455;   -0,773
1014,109;  646,162;   -1,909;    1,682
1014,657;  506,798;    0,364;    0,591
1015,205;  393,343;    1,636;   -0,955
1015,753;  330,434;   -0,545;   -1,409
1016,301;  422,616;   -2,636;    3,045
1016,848;  503,343;   -1,273;    0,409
1017,396;  504,253;    2,545;    0,045
1017,944;  499,889;    1,182;    1,864
1018,491;  400,980;    0,273;    1,409
1019,039;  737,707;    0,455;    0,591
1019,586;  470,525;   -1,364;    1,682
1020,134;  453,798;    0,455;    1,500
1020,681;  534,980;    0,182;   -1,136
1021,228;  432,889;    2,909;   -2,227
1021,776;  409,798;    1,182;   -1,136
1022,323;  653,707;    0,455;    0,773
1022,870;  568,071;   -1,000;   -0,045
1023,417;  621,707;    2,636;    1,864
1023,964;  427,434;    2,636;    1,227
1024,511;  404,707;    1,000;    0,773
1025,058;  437,980;    3,182;   -0,045
1025,605;  399,434;   -2,273;    3,136
1026,152;  624,707;    1,727;   -0,591
1026,699;  461,889;    1,818;    1,318
1027,245;  442,889;   -0,091;    0,318
1027,792;  374,343;   -1,000;    1,409
1028,339;  610,980;    2,364;   -0,045
1028,885;  465,162;    1,000;   -0,227
1029,432;  407,889;   -0,091;    0,227
1029,978;  521,343;   -1,000;   -1,591
1030,525;  513,434;    1,000;    0,409
1031,071;  378,162;   -1,364;    1,136
1031,618;  695,889;    0,364;    1,682
1032,164;  503,889;   -0,091;    3,045
1032,710;  551,889;    1,636;   -1,500
1033,256;  511,343;   -0,636;   -0,136
1033,803;  360,616;   -0,545;    1,500
1034,349;  216,071;   -1,364;    0,136
1034,895;  266,525;    0,000;   -0,318
1035,441;  341,980;   -0,818;    0,318
1035,987;  400,980;   -2,364;   -0,682
1036,533;  480,253;   -1,455;   -0,955
1037,078;  688,162;    1,455;    1,682
1037,624;  530,889;    2,455;   -0,955
1038,170;  384,889;    0,455;   -0,318
1038,716;  475,434;    1,636;   -0,409
1039,261;  348,162;   -2,273;   -0,773
1039,807;  364,343;   -0,091;    3,409
1040,352;  396,525;   -1,909;   -0,318
1040,898;  392,616;   -1,545;   -0,682
1041,443;  312,071;   -1,455;   -2,591
1041,989;  626,343;    1,091;    1,591
1042,534;  411,707;   -0,364;    2,591
1043,079;  296,343;    2,909;    0,955
1043,625;  419,253;    1,818;    0,500
1044,170;  437,071;   -1,364;    1,045
1044,715;  647,525;    2,455;    0,955
1045,260;  530,616;    2,182;   -0,955
1045,805;  370,253;    1,182;   -0,591
1046,350;  332,434;    1,364;   -0,409
1046,895;  526,707;    2,909;    1,591
1047,440;  517,980;    5,364;    0,409
1047,985;  374,889;    2,818;   -0,955
1048,530;  339,889;    1,545;    1,227
1049,074;  412,434;    0,000;    0,318
1049,619;  341,980;   -1,364;    1,955
1050,164;  329,434;    0,455;    0,227
1050,708;  421,071;   -0,455;    0,045
1051,253;  680,616;    1,273;   -2,227
1051,797;  470,434;    0,818;   -1,318
1052,342;  291,434;   -1,182;    1,045
1052,886;  392,434;    0,364;   -1,409
1053,430;  271,434;   -1,364;    0,136
1053,975;  365,707;   -0,818;   -0,318
1054,519;  386,798;   -0,727;    3,227
1055,063;  452,253;    0,909;    1,318
1055,607;  436,525;   -0,182;    0,227
1056,151;  434,162;    2,909;    1,682
1056,695;  347,707;    2,273;   -1,136
1057,239;  331,889;   -1,727;   -0,682
1057,783;  378,071;    0,818;   -1,500
1058,327;  453,616;    0,000;    1,409
1058,871;  599,434;   -0,545;    1,318
1059,415;  463,343;   -0,818;   -0,045
1059,958;  622,525;    1,455;    2,591
1060,502;  383,616;   -1,000;   -0,773
1061,046;  275,707;    0,364;   -0,955
1061,589;  256,980;   -3,000;   -1,136
1062,133;  225,980;   -1,273;    1,864
1062,676;  274,434;    1,182;    0,864
1063,220;  317,707;    1,091;    0,500
1063,763;  345,434;    0,909;    1,136
1064,306;  375,798;   -0,909;    1,864
1064,849;  369,889;   -0,909;    0,591
1065,393;  337,162;    2,000;   -1,500
1065,936;  346,525;    0,182;   -0,409
1066,479;  264,162;   -1,455;    1,318
1067,022;  290,798;   -0,273;   -0,227
1067,565;  257,525;   -0,091;   -1,318
1068,108;  232,162;    0,727;   -0,591
1068,651;  203,253;   -0,636;    1,409
1069,194;  214,616;   -0,455;   -1,682
1069,736;  241,889;   -1,273;    0,955
1070,279;  211,798;   -1,364;   -0,500
1070,822;  304,889;   -2,000;   -0,318
1071,364;  437,707;   -0,364;    1,318
1071,907;  288,707;   -0,727;    3,227
1072,450;  140,071;    0,000;   -0,045
1072,992;  222,071;   -0,273;    3,136
1073,535;  306,343;    2,091;    2,136
1074,077;  213,343;   -0,727;    2,045
1074,619;  209,343;   -1,364;    0,591
1075,161;  242,525;   -1,091;    1,500
1075,704;  371,980;    1,545;    1,227
1076,246;  229,343;   -0,182;    0,682
1076,788;  159,980;   -0,364;    1,773
1077,330;  155,343;    1,273;    2,136
1077,872;  206,434;    0,909;    0,955
1078,414;  388,525;    2,727;    0,773
1078,956;  236,616;    1,273;   -0,227
1079,498;  389,707;    1,636;    0,318
1080,040;  246,434;    1,909;   -1,318
1080,581;  203,525;    1,636;   -0,318
1081,123;  137,525;    0,091;   -0,773
1081,665;  143,162;   -1,182;   -0,955
1082,206;  347,889;    1,364;   -0,500
1082,748;  263,434;    0,727;    2,045
1083,289;  165,162;   -2,000;    1,318
1083,831;  157,798;   -0,545;    0,227
1084,372;  210,798;    0,000;    0,591
1084,913;  203,162;    1,091;    0,864
1085,455;  150,525;   -1,909;   -2,045
1085,996;  153,707;   -2,273;    0,136
1086,537;  189,980;   -0,091;    0,864
1087,078;  197,434;   -0,909;   -2,136
1087,619;  254,525;   -1,273;    0,227
1088,160;  210,525;    0,000;    1,318
1088,701;  188,071;   -1,091;    0,682
1089,242;  160,434;    1,364;   -2,227
1089,783;  215,434;   -0,273;    1,409
1090,324;  197,343;    0,455;    0,682
1090,865;  141,071;    2,727;   -0,409
1091,405;  112,889;    0,727;    2,227
1091,946;  156,525;    0,182;   -0,955
1092,487;  107,980;    0,818;   -1,409
1093,027;  223,980;   -1,364;   -1,500
1093,568;  153,343;   -0,364;    1,227
1094,108;  195,798;    0,273;    1,773
1094,649;  152,707;   -1,182;    0,136
1095,189;  130,343;   -0,636;   -0,682
1095,729;  129,616;   -0,091;    0,955
1096,269;  117,162;    0,727;   -0,955
1096,810;  276,253;   -1,364;    0,500
1097,350;  209,889;    1,364;   -0,773
1097,890;  158,798;    0,364;    1,227
1098,430;  324,071;    2,364;    2,864
1098,970;  251,616;    2,182;    1,682
1099,510;  137,616;    0,545;   -2,318
1100,050;  120,071;    1,000;   -1,591
1100,589;  133,253;   -0,727;   -0,318
1101,129;  186,798;    0,818;   -0,955
1101,669;  270,525;    1,727;    2,136
1102,209;  190,889;   -0,091;    2,227
1102,748;  158,434;    0,000;    0,955
1103,288;  164,616;    1,273;   -1,227
1103,827;  153,616;    3,091;   -2,227
1104,367;  115,525;   -0,091;   -2,409
1104,906;  112,889;    1,364;   -1,136
1105,445;  163,162;    0,636;   -1,136
1105,985;  135,980;   -0,727;    1,500
1106,524;  151,889;   -1,727;   -0,682
1107,063;  137,343;   -2,727;    1,409
1107,602;  107,343;   -1,909;   -1,500
1108,141;   91,343;   -1,909;    1,500
1108,680;  159,434;   -3,455;   -0,591
1109,219;  126,707;   -0,909;   -0,500
1109,758;  121,980;    0,455;    0,682
1110,297;  116,162;    1,000;   -0,682
1110,836;   89,889;   -0,727;    0,955
1111,375;  131,434;   -2,545;    0,409
1111,913;  164,980;   -1,000;    0,773
1112,452;  132,434;   -0,273;    0,136
1112,991;   84,162;    1,091;    1,955
1113,529;   84,525;   -0,818;   -0,045
1114,068;  112,525;   -0,273;    2,955
1114,606;   76,525;   -0,364;   -0,955
1115,144;  149,434;   -1,273;    1,045
1115,683;  117,434;   -0,727;    0,318
1116,221;  149,253;   -0,455;   -0,864
1116,759;  102,889;    0,636;   -0,864
1117,297;  183,707;    0,000;    1,864
1117,836;  103,253;   -2,182;   -1,227
1118,374;  104,253;    0,182;   -0,682
1118,912;  107,162;    0,909;    2,682
1119,450;  106,798;    1,000;    0,864
1119,988;  103,434;    1,545;    2,136
1120,525;  373,162;    5,091;    3,318
1121,063;  201,616;    1,182;    1,864
1121,601;  104,980;   -0,909;   -1,227
1122,139;   83,616;   -0,727;   -2,045
1122,676;  189,343;   -0,727;    2,773
1123,214;  159,616;   -1,182;    4,409
1123,751;   78,707;    1,727;    2,227
1124,289;  119,162;   -0,091;   -0,409
1124,826;   79,980;    1,727;    0,227
1125,364;   43,798;    1,727;   -0,955
1125,901;  150,707;    1,182;    1,227
1126,438;  163,798;    0,818;    0,955
1126,975;   52,434;   -0,727;   -0,773
1127,513;   75,798;    0,273;    2,136
1128,050;   52,253;    1,636;   -0,682
1128,587;   91,616;    2,000;   -0,227
1129,124;  109,980;    0,091;    1,318
1129,661;   60,980;    0,273;    0,227
1130,198;  132,798;    1,636;    0,773
1130,734;  101,798;    0,182;    1,409
1131,271;   48,525;   -0,909;    0,864
1131,808;  121,616;    2,909;    3,045
1132,345;   69,071;    1,545;    0,318
1132,881;   26,071;   -1,545;   -1,864
1133,418;   82,707;    0,727;   -1,136
1133,954;   60,616;    2,455;   -2,682
1134,491;   82,343;    1,364;   -0,773
1135,027;   48,707;    2,364;    0,864
1135,564;   86,343;    0,273;    2,955
1136,100;   79,253;    0,364;    2,136
1136,636;   42,707;   -1,273;   -1,045
1137,172;   69,798;    0,000;   -1,045
1137,708;   50,980;   -1,364;   -1,045
1138,245;   45,798;    1,273;   -1,227
1138,781;   32,616;    1,091;   -3,318
1139,317;   51,707;    1,273;   -1,409
1139,852;   64,162;    3,091;    0,136
1140,388;   88,343;   -1,182;   -0,409
1140,924;   53,071;   -1,091;   -2,227
1141,460;   31,162;   -1,636;    0,136
1141,996;   14,889;   -1,364;    2,682
1142,531;   29,434;    1,364;    3,318
1143,067;  113,343;    1,182;    1,045
1143,602;  138,343;   -0,091;   -0,318
1144,138;   72,707;   -2,636;    1,045
1144,673;   28,889;   -1,455;    1,409
1145,209;   46,071;   -1,909;   -0,318
1145,744;   24,525;   -0,727;    0,864
1146,279;   68,162;    1,818;   -0,136
1146,815;   44,525;    1,545;   -2,682
1147,350;   57,707;   -1,364;    0,045
1147,885;   29,071;   -0,818;   -1,318
1148,420;   32,071;   -2,273;    0,773
1148,955;   22,707;   -1,727;    1,864
1149,490;   27,253;   -0,909;   -1,591
1150,025;   22,343;    0,455;   -1,773
1150,560;   61,616;    1,091;   -0,955
1151,094;   49,980;    1,455;   -0,591
1151,629;   48,162;    1,636;    0,864
1152,164;   32,707;    1,364;    1,318
1152,698;   22,616;   -0,182;   -0,136
1153,233;   10,616;    0,091;   -0,682
1153,767;   19,980;   -3,000;   -2,318
1154,302;   31,889;   -1,455;    1,773
1154,836;   34,980;   -0,455;   -2,136
1155,371;   47,980;   -1,364;    3,682
1155,905;   32,253;   -0,636;    1,682
1156,439;   26,889;   -0,636;   -0,500
1156,973;   39,980;    0,364;    0,318
1157,507;   22,162;   -0,364;    0,682
1158,042;   29,616;   -0,727;    1,045
1158,576;   36,343;    0,182;    1,773
1159,110;   39,434;   -0,818;    2,409
1159,643;   30,071;    0,636;   -0,045
1160,177;   15,798;   -1,545;    1,500

