
Integration time [ms]:   0,040
Averaging Nr. [scans]: 11
Smoothing Nr. [pixels]: 0
Data measured with spectrometer [name]: 7318044SP
Wave   ;Sample   ;Dark     ;Reference
[nm]   ;[counts] ;[counts] ;[counts] 

186,757;   10,239;   31,551;    1,318
187,357;   31,471;   22,551;    0,955
187,958;   11,839;   15,460;   -1,591
188,558;   46,039;    8,915;   -1,227
189,159;   18,772;    6,733;   -4,500
189,759;  -11,362;    7,278;   -3,591
190,360;  -16,076;    2,824;   -2,136
190,960;   17,405;    2,915;   -4,136
191,560;   29,872;    3,189;   -6,591
192,161;  241,059;    4,372;   -3,500
192,761;  105,871;    4,010;   -3,227
193,361;   45,634;    1,556;   -3,773
193,962;   81,803;    2,010;   -2,682
194,562;   15,995;    1,189;   -3,955
195,162;   16,746;   -2,448;   -2,227
195,762;  139,704;   -3,176;   -0,045
196,362;   89,636;    1,370;   -2,500
196,963;   -2,533;    2,006;   -0,864
197,563;   45,957;    1,551;   -0,955
198,163;   -6,222;    0,096;   -0,682
198,763;    4,559;    1,733;   -0,500
199,363;   61,008;    3,096;   -0,500
199,963;   37,949;    0,369;    0,409
200,563;   21,287;    2,823;   -1,409
201,163;    2,200;    3,277;   -0,227
201,763;   40,971;    3,732;    0,318
202,363;    0,841;    1,459;    1,500
202,963;   37,332;    1,459;    1,045
203,563;   91,171;    0,277;    0,500
204,162;   15,027;    2,096;   -1,864
204,762;    7,344;    0,550;    0,591
205,362;  -14,305;    3,004;    1,955
205,962;   21,009;    3,096;    1,955
206,562;   10,915;    1,823;    2,318
207,161;    2,961;   -0,087;    0,318
207,761;   80,222;    1,277;    2,409
208,361;    7,773;   -0,268;    1,409
208,960;   31,844;    0,459;    1,500
209,560;   26,373;    1,277;    1,591
210,160;   32,512;    0,550;    1,864
210,759;   13,542;    4,186;    1,227
211,359;   -3,939;    1,459;    1,045
211,958;   98,723;    1,277;    2,045
212,558;  104,211;    1,732;    1,864
213,157;   47,062;    1,822;    1,500
213,757;  181,390;    3,822;   -0,227
214,356;   71,363;    1,277;   -0,409
214,956;  167,963;    3,095;    0,409
215,555;   48,892;    2,095;    2,136
216,154;   10,653;   -2,723;   -0,591
216,754;    7,543;    0,277;    0,773
217,353;   17,038;   -0,268;   -1,045
217,952;  -24,487;   -0,178;    0,318
218,552;   42,431;    1,368;   -0,773
219,151;    5,761;    0,277;    0,955
219,750;   -1,537;    0,004;   -0,227
220,349;  -11,645;   -0,451;    1,045
220,948;   56,669;   -1,360;    1,136
221,548;    4,920;    0,913;    1,227
222,147;   17,906;   -0,087;   -0,409
222,746;   85,823;   -0,451;   -0,955
223,345;   36,870;    0,731;    0,500
223,944;   30,656;   -0,451;    0,773
224,543;   29,078;    1,004;   -1,409
225,142;   22,936;    0,094;    0,136
225,741;   29,598;   -0,814;    1,045
226,340;   17,225;   -0,451;   -0,955
226,939;   73,887;   -0,996;   -0,136
227,538;   12,058;   -0,360;   -0,773
228,137;   74,777;   -0,814;    0,864
228,735;   50,677;   -0,541;    1,227
229,334;  -13,524;   -0,905;   -0,227
229,933;   77,199;    0,459;    0,591
230,532;   72,721;    1,186;   -0,409
231,131;  111,497;    1,732;    0,318
231,729;   55,515;   -2,450;   -2,318
232,328;   16,089;   -0,723;   -1,500
232,927;   23,770;    1,004;   -0,500
233,525;   19,293;    3,640;    0,045
234,124;   32,506;    2,368;   -1,591
234,723;   -0,600;    0,913;   -1,045
235,321;   -9,663;    2,277;    0,136
235,920;   -3,658;    1,186;   -1,227
236,518;   78,825;    3,459;    0,318
237,117;    8,896;    0,004;   -0,227
237,715;   19,452;    0,640;   -0,500
238,314;   29,022;   -0,087;   -2,318
238,912;   85,056;   -0,723;   -1,409
239,510;   44,381;    0,459;   -1,227
240,109;   91,091;    0,004;    3,773
240,707;   69,923;   -0,996;    1,227
241,305;   -1,341;    0,550;    0,136
241,904;   38,478;   -0,178;   -2,045
242,502;   96,324;   -0,632;   -0,227
243,100;   41,161;   -0,087;   -0,955
243,698;    4,808;    0,732;    1,682
244,297;   30,122;   -0,632;    0,682
244,895;   26,408;   -0,269;   -2,318
245,493;   94,288;    2,186;   -0,591
246,091;  105,308;    1,368;   -1,318
246,689;   58,571;    1,004;    0,591
247,287;   50,164;    0,822;   -1,136
247,885;   28,354;   -1,451;    1,227
248,483;    7,030;    1,822;   -0,500
249,081;   46,047;    0,185;    1,591
249,679;   58,497;   -0,178;    1,682
250,277;    6,924;   -1,723;    0,864
250,875;   54,534;   -1,087;   -1,045
251,473;    9,303;   -1,178;    0,500
252,071;   57,939;    1,459;    1,045
252,669;   20,293;   -1,814;    0,318
253,267;    8,525;   -0,087;    0,773
253,864;   18,437;   -0,360;    0,682
254,462;   66,962;    1,640;    1,591
255,060;    3,460;   -0,269;    1,318
255,658;   -9,526;    0,822;   -0,136
256,255;   18,427;    0,186;   -2,045
256,853;   46,627;   -0,269;    1,409
257,451;    9,087;    0,822;    1,864
258,048;  187,040;    1,822;    1,864
258,646;   73,498;    1,731;   -1,045
259,243;  114,445;   -0,087;    2,227
259,841;   56,814;   -0,814;    0,318
260,438;    1,967;   -0,087;    0,864
261,036;   43,983;   -1,905;    1,409
261,633;    3,857;   -0,087;    2,227
262,231;   -9,157;    2,731;   -0,045
262,828;  -19,174;   -0,905;    1,136
263,425;    3,475;    0,913;   -0,591
264,023;    3,187;    0,186;    0,045
264,620;   55,843;   -0,360;   -0,318
265,217;  107,757;   -2,087;    3,136
265,815;   22,482;   -1,905;    2,136
266,412;   45,957;    0,731;    0,136
267,009;   36,623;   -1,451;    0,773
267,606;   67,862;    0,822;   -0,955
268,203;   13,600;   -0,269;   -0,591
268,801;   14,498;    1,731;    0,591
269,398;   -0,220;   -0,360;    2,500
269,995;   37,553;    0,277;    1,591
270,592;   17,510;   -0,632;   -0,500
271,189;   -7,187;    0,186;    0,409
271,786;  -11,845;   -0,632;    1,227
272,383;   61,184;   -1,087;    0,227
272,980;   23,154;    0,277;    0,318
273,577;   -0,786;    0,004;    1,227
274,174;   -6,896;    0,822;    2,591
274,771;   40,656;   -0,814;   -0,773
275,367;  205,023;    2,277;    1,409
275,964;   96,931;    0,731;   -0,500
276,561;   19,321;    1,549;   -1,045
277,158;  -13,503;    0,095;   -1,773
277,755;   79,592;    2,185;    0,409
278,351;   46,307;   -0,451;   -1,500
278,948;   62,822;   -0,815;    0,045
279,545;   42,014;   -1,360;    2,318
280,141;   84,413;   -1,723;   -2,045
280,738;   88,092;   -0,451;   -0,136
281,334;   17,780;   -1,633;    0,591
281,931;   14,242;   -0,087;   -1,318
282,528;   61,318;    0,822;   -0,500
283,124;   77,689;   -1,087;   -0,500
283,721;   77,749;   -0,451;    1,409
284,317;   37,682;    0,185;    2,500
284,913;   93,462;   -1,360;    0,591
285,510;  143,371;    0,640;   -0,318
286,106;   95,123;   -2,269;   -0,955
286,703;   49,851;   -0,360;    1,955
287,299;   26,360;   -1,451;   -0,591
287,895;   21,785;    0,822;   -1,045
288,491;    8,052;    0,186;    2,136
289,088;   38,014;   -2,360;    2,409
289,684;   46,384;   -1,723;    1,500
290,280;  111,930;    0,368;    0,682
290,876;   83,891;    1,822;    5,500
291,472;   63,530;    1,276;    2,227
292,068;   66,778;    1,367;    0,227
292,665;   28,996;    2,095;    0,773
293,261;    2,923;    0,276;    2,136
293,857;   60,002;    2,913;    2,136
294,453;   27,098;    3,550;    0,955
295,049;  105,188;   -0,268;    1,955
295,644;   47,875;    0,095;    0,136
296,240;    3,771;   -0,905;   -0,136
296,836;   36,562;   -0,995;    0,318
297,432;   76,425;    1,096;   -0,500
298,028;   78,401;    0,732;    0,773
298,624;   42,318;    1,459;    1,864
299,220;   40,381;    2,368;    0,591
299,815;   17,562;    1,005;   -0,409
300,411;   60,279;    0,914;    1,773
301,007;   74,827;    1,368;    0,227
301,602;   23,093;   -0,541;   -2,318
302,198;   74,823;    0,732;   -0,773
302,794;   26,046;    1,187;   -0,500
303,389;   -6,744;   -1,177;    1,045
303,985;   12,252;    0,550;    1,409
304,580;   68,037;    1,459;    1,591
305,176;   28,518;   -3,086;    0,136
305,771;  -23,908;   -1,268;   -1,227
306,367;  146,216;    4,095;    0,136
306,962;   50,820;    0,641;    1,500
307,558;   77,572;   -0,450;    0,136
308,153;   52,619;    1,095;   -1,136
308,748;    2,165;   -0,814;    1,682
309,344;  141,522;   -0,632;   -1,318
309,939;  124,925;   -1,905;   -1,318
310,534;   21,541;   -0,086;   -1,682
311,130;   15,514;    0,459;   -2,500
311,725;    6,044;    1,004;   -0,500
312,320;   20,442;    2,459;    0,045
312,915;   55,824;    1,459;   -1,045
313,510;  139,360;    1,550;   -0,500
314,105;   29,410;    1,096;    1,409
314,700;  -15,786;   -3,086;   -1,045
315,295;   15,491;   -0,904;    0,045
315,890;    5,892;    1,277;    0,864
316,485;   37,427;   -0,359;   -0,318
317,080;   -3,706;   -3,086;    1,591
317,675;  129,725;    2,005;   -0,682
318,270;  242,507;    5,550;    3,318
318,865;  160,952;    3,278;    3,045
319,460;   89,332;   -0,904;    0,591
320,055;   21,469;   -0,541;   -1,227
320,650;   24,115;   -1,995;   -0,591
321,244;   20,698;   -0,177;   -1,409
321,839;   17,333;   -1,541;   -0,227
322,434;   42,988;   -1,086;   -1,591
323,029;   13,042;    1,732;    1,591
323,623;    0,983;    1,550;    0,773
324,218;   95,976;    2,368;    1,409
324,812;   60,783;    1,096;    1,591
325,407;   46,969;   -0,814;    2,045
326,002;  121,863;    0,277;   -0,409
326,596;   82,367;    0,914;    1,318
327,191;   18,816;    0,823;   -1,045
327,785;   17,003;   -0,813;   -0,227
328,379;    6,304;    1,368;    0,136
328,974;   27,247;    0,914;   -3,955
329,568;   45,008;    0,186;   -2,409
330,163;   89,004;    2,096;    1,045
330,757;   16,331;    2,459;    1,591
331,351;  -12,831;    0,459;    0,682
331,945;   -5,054;    0,914;    1,409
332,540;   40,088;   -1,723;   -0,591
333,134;   40,589;   -1,086;    0,773
333,728;   42,509;    0,005;    0,318
334,322;   -2,136;   -1,177;   -0,864
334,916;    6,933;    0,277;    0,955
335,510;   61,820;   -0,450;   -0,136
336,105;   40,725;   -1,086;    1,591
336,699;    5,025;   -1,086;    0,591
337,293;   29,335;   -1,723;    0,318
337,887;   -3,615;   -2,723;    1,955
338,481;   47,294;    0,459;    0,591
339,074;  103,196;   -0,359;    2,682
339,668;   83,388;   -1,632;    1,227
340,262;  349,360;    1,732;    3,227
340,856;  150,086;    1,822;   -0,682
341,450;   21,865;    1,004;    1,864
342,044;   42,790;    1,459;    0,136
342,637;   92,182;    0,913;   -2,136
343,231;   45,336;   -2,360;    0,682
343,825;   23,561;   -1,086;   -0,591
344,419;   24,185;   -1,995;    0,500
345,012;  290,769;    2,459;    4,045
345,606;  175,860;    4,641;    1,591
346,199;   38,679;   -1,813;   -0,227
346,793;   93,326;    1,914;    2,045
347,386;   16,740;   -0,813;   -1,136
347,980;  -10,209;   -0,268;   -0,045
348,573;   15,696;    2,278;    0,409
349,167;  187,219;    5,278;    4,773
349,760;   92,908;    2,914;    2,682
350,354;   77,859;   -0,813;    1,136
350,947;   92,001;    1,096;    1,682
351,540;   47,379;   -0,358;   -1,409
352,134;   -8,968;    1,096;    1,136
352,727;    3,289;   -0,086;    1,136
353,320;    2,295;    0,005;    0,591
353,913;  -18,251;   -1,995;    1,864
354,507;   79,706;    0,823;   -1,227
355,100;   13,376;    0,460;    0,864
355,693;  250,934;    2,005;    2,409
356,286;  117,295;    0,823;    2,773
356,879;   43,018;   -0,722;    1,227
357,472;   47,352;   -0,904;    1,500
358,065;   58,076;   -0,722;    2,500
358,658;   -1,628;   -0,540;    2,318
359,251;  -13,882;   -1,631;   -0,591
359,844;   70,593;   -1,904;   -1,136
360,437;  100,725;   -2,995;    0,045
361,030;   24,721;    1,369;   -0,682
361,623;   27,862;    2,824;    0,318
362,215;  146,081;   -0,086;    2,045
362,808;   50,865;   -2,358;   -1,682
363,401;   14,207;   -2,449;    0,136
363,994;  146,997;   -0,631;   -1,500
364,586;   47,664;    0,824;   -1,500
365,179;   15,345;   -0,449;   -1,136
365,772;  -38,588;   -1,995;    2,045
366,364;   23,019;    1,915;   -3,227
366,957;   41,400;    2,279;   -0,045
367,549;   25,319;    2,188;   -0,864
368,142;   22,446;    1,825;   -1,500
368,734;    6,186;    0,734;   -2,136
369,327;  -20,358;    1,643;   -0,500
369,919;    2,477;   -1,538;    0,409
370,512;   14,236;   -1,083;   -0,500
371,104;  197,750;   -0,901;    1,591
371,696;  215,087;    1,191;   -0,955
372,289;  115,728;    0,373;    1,136
372,881;   80,076;   -2,080;    1,318
373,473;   -2,716;   -2,170;    1,136
374,066;   68,267;   -0,169;    0,500
374,658;   46,284;    0,378;    1,136
375,250;   -4,141;    0,653;   -1,409
375,842;   28,341;    0,473;   -0,045
376,434;   -5,353;   -0,435;   -0,409
377,026;  -31,425;    0,204;   -2,500
377,618;   14,277;   -0,158;   -0,682
378,210;  -43,654;   -0,338;   -1,955
378,802;  -60,106;    0,754;   -0,591
379,394;  312,865;    1,846;    0,682
379,986;   73,264;    1,393;   -0,955
380,578;  -24,944;   -0,153;    0,773
381,170;  225,192;   -0,972;    0,045
381,762;  145,508;    0,755;    1,409
382,354;  108,600;   -0,065;   -1,318
382,945;   23,300;   -2,976;    0,318
383,537;   -9,026;   -2,705;   -1,955
384,129;   -2,942;   -2,160;   -1,136
384,721;  102,566;   -0,252;    0,955
385,312;   37,879;   -0,161;   -0,955
385,904;  113,197;   -2,706;    1,591
386,496;   47,147;   -0,979;    1,045
387,087;  162,113;    1,022;    2,500
387,679;   93,747;   -1,160;    0,045
388,270;   71,528;    2,840;    2,045
388,862;   37,532;    1,295;   -0,318
389,453;   24,710;   -0,887;    1,045
390,045;   33,858;   -0,705;   -2,682
390,636;  -76,159;    0,204;   -0,591
391,227;   -3,018;   -0,523;   -0,045
391,819;  -28,038;    0,204;    0,773
392,410;  202,338;    1,022;    0,045
393,001;   28,046;   -0,979;   -1,591
393,593;   90,313;    1,930;   -0,045
394,184;  128,156;    1,385;   -0,409
394,775;   18,199;    1,839;    2,136
395,366;  -52,177;    1,385;    0,773
395,957;  108,390;    0,113;    0,136
396,548;    4,819;   -0,342;    2,682
397,139;  107,803;   -2,433;    0,591
397,730;   30,498;   -1,888;    0,955
398,321;   44,908;   -1,252;    0,955
398,912;  -11,437;   -0,615;    0,136
399,503;  -10,968;   -3,524;   -1,409
400,094;   30,217;    0,294;    1,682
400,685;   22,540;   -0,433;    0,045
401,276;  -15,355;    0,930;   -0,955
401,867;  -49,265;   -0,888;    0,773
402,458;  -90,225;   -2,251;   -2,318
403,048;   58,983;    1,112;    0,591
403,639;    8,507;    0,840;    0,864
404,230;  120,036;    2,476;    0,318
404,821;  165,486;   -0,615;    0,045
405,411;   75,054;    1,203;   -2,591
406,002;   -1,964;   -1,252;   -1,136
406,592;  209,273;    2,294;    0,045
407,183;   77,347;    0,566;   -1,500
407,774;   54,190;    3,475;   -0,136
408,364;    7,708;    0,930;    0,409
408,954;  119,506;    0,384;    1,227
409,545;  110,205;    1,021;    1,045
410,135;   80,289;    1,293;    0,500
410,726;   33,616;    1,838;    0,318
411,316;  207,058;    0,111;    0,773
411,906;   52,937;   -0,253;   -0,409
412,497;   61,437;   -1,070;   -0,045
413,087;   12,069;   -1,980;   -0,227
413,677;  -53,896;   -0,707;    3,864
414,267;  -60,150;    0,656;    1,409
414,857;  -80,911;   -2,980;    4,227
415,448;  -78,941;    0,839;    0,500
416,038;  -46,224;    0,020;   -0,591
416,628;   -8,379;   -0,889;    0,409
417,218;   52,993;    0,565;    3,318
417,808;  204,141;    0,202;   -0,409
418,398;   72,547;    0,020;    2,682
418,988;  -36,530;    2,020;    0,591
419,578;   62,491;   -0,707;    1,409
420,168;   -0,771;   -1,343;   -0,955
420,757;  122,274;   -1,343;   -1,500
421,347;   32,316;    0,111;   -0,227
421,937;    3,684;    2,292;    1,409
422,527;  136,171;    0,838;   -0,773
423,116;  261,935;   -0,253;   -0,045
423,706;   -1,339;   -1,889;    0,318
424,296;  -41,540;    1,384;    0,682
424,885;   76,824;   -0,071;   -3,045
425,475;   51,239;    1,474;   -2,864
426,065;  -50,474;   -0,980;   -0,318
426,654;  -65,926;   -0,435;   -0,318
427,244;  184,311;    0,020;    1,409
427,833;  155,153;    1,383;   -0,500
428,423;   27,118;   -0,526;    1,136
429,012;   34,828;   -0,344;   -1,136
429,601;  159,449;   -1,344;    0,136
430,191;   44,054;    1,292;    4,318
430,780;  -41,442;   -0,344;   -0,409
431,369;  147,095;    0,746;   -0,045
431,959;   25,449;   -1,254;    0,500
432,548;  -37,762;   -1,163;   -0,045
433,137;  -87,011;   -1,254;   -1,318
433,726;  -18,279;    0,292;    0,500
434,315;   17,591;   -0,526;    2,409
434,905;  117,914;   -1,254;    1,409
435,494;  107,576;    0,746;    0,955
436,083;  -16,810;   -0,981;   -0,955
436,672;   71,486;    0,110;    0,500
437,261;   23,388;    0,292;   -1,955
437,850;  240,987;    1,383;    0,682
438,439;  294,123;    3,291;    1,955
439,027;  402,472;    3,655;    1,773
439,616;  323,059;    2,927;    1,227
440,205;  102,936;    0,200;   -2,136
440,794;   58,834;    2,109;   -0,045
441,383;   -7,871;   -1,346;   -0,591
441,971;  -35,182;   -2,436;    0,591
442,560;  -26,284;    0,563;   -1,773
443,149; -111,754;    0,379;   -1,318
443,737;  -65,620;   -0,074;   -2,318
444,326;  -41,892;    0,018;    0,318
444,915;    8,912;   -1,982;    0,864
445,503;   12,899;   -2,891;   -0,318
446,092;  262,611;    0,382;    2,136
446,680;  191,935;    0,382;    0,318
447,269;  101,896;   -0,346;   -0,318
447,857;   83,632;    0,018;   -1,773
448,445;   35,459;    0,563;    1,318
449,034;  -19,474;   -1,528;   -1,136
449,622;   -8,373;   -1,073;    3,500
450,210;  272,399;    2,017;    2,227
450,799;  190,192;    0,290;   -0,591
451,387;  144,120;    1,381;   -0,591
451,975;  132,652;    2,654;    0,864
452,563;  205,993;    3,472;    2,318
453,151;   28,087;   -0,528;   -1,227
453,739;   83,806;   -1,347;    0,136
454,328;  188,377;    2,381;   -2,136
454,916;  115,198;    2,562;   -0,136
455,504;  142,453;    1,017;    1,227
456,092;   23,090;    0,017;   -1,591
456,679;  -22,824;    1,472;    0,682
457,267;  387,639;    4,017;    1,045
457,855;   78,719;    1,017;    1,409
458,443;  -60,598;   -0,165;    1,682
459,031;   98,714;    0,108;    2,409
459,619;   51,012;   -1,801;    2,864
460,206;  -49,688;    0,835;    2,045
460,794;  -40,885;   -2,983;   -0,227
461,382;   16,070;   -0,529;   -0,864
461,970;   14,003;    1,198;    1,864
462,557;  -59,437;   -0,711;   -0,682
463,145;   66,152;   -3,165;   -1,682
463,732;  314,820;    2,016;   -1,045
464,320;   87,081;   -0,075;   -3,045
464,907;  224,326;    2,743;   -0,773
465,495;  138,021;    0,743;   -1,227
466,082;   50,722;   -1,984;   -0,045
466,670;   81,033;   -2,529;    1,227
467,257;  -32,872;   -1,711;    2,045
467,844;   64,429;   -0,075;    0,045
468,432;   46,864;    0,834;    3,500
469,019;   10,097;    0,925;   -1,773
469,606;   91,275;    0,470;    3,682
470,193;  124,765;   -1,439;    0,227
470,780;   74,365;   -2,075;    0,864
471,368;    5,933;   -1,257;   -0,773
471,955;  117,211;    1,379;   -0,682
472,542;   75,583;    0,652;   -1,136
473,129;  -39,311;   -0,166;    0,136
473,716;  -32,501;    1,470;    0,591
474,303;    7,427;    0,652;   -0,864
474,890;    8,270;   -1,439;   -0,500
475,477;  102,724;   -1,621;    0,409
476,064;   15,817;    1,106;   -1,591
476,650;  139,389;    0,288;    0,318
477,237;   50,752;   -0,258;    0,955
477,824;   17,479;   -1,076;    0,864
478,411;  -64,650;   -1,894;   -0,318
478,997;  -68,340;    0,560;   -0,773
479,584; -116,634;    1,196;   -0,409
480,171;   57,706;   -0,440;   -0,773
480,757;  115,178;    2,651;    0,773
481,344;    2,964;    0,469;    0,409
481,931;  -83,663;    1,105;    1,045
482,517;   47,377;   -1,258;    0,318
483,104;  126,605;    1,106;    2,864
483,690;  -14,003;   -1,804;    0,045
484,276;  -27,852;   -0,895;    0,227
484,863;  188,843;    2,469;    1,136
485,449;   23,774;   -0,077;    0,318
486,035;   -3,973;   -1,986;   -0,136
486,622;   85,010;   -0,895;    0,045
487,208;   -3,891;    1,378;    1,500
487,794;  -83,404;    0,741;    0,318
488,380;  -74,056;    0,105;   -1,409
488,967;  -67,776;   -1,168;   -0,409
489,553;  -57,440;   -1,895;   -1,409
490,139;   28,727;    1,559;    0,773
490,725;  -42,862;    0,741;   -0,227
491,311;    0,421;    3,287;    3,045
491,897;  -24,278;   -0,986;    1,500
492,483;  -15,805;    0,105;    1,227
493,069;  420,818;    3,923;    0,864
493,655;  141,214;    1,650;    0,682
494,241;    9,587;    1,377;   -0,955
494,826;   -3,540;    0,287;   -1,045
495,412;   68,129;    2,559;   -0,682
495,998;   -9,023;   -0,805;   -0,318
496,584;   52,160;    0,377;    1,045
497,169;   71,868;    1,014;   -0,682
497,755;    3,540;    0,650;    1,227
498,341;  133,494;    0,559;    0,318
498,926;  260,795;    1,832;    1,955
499,512;   -2,058;    1,286;    2,955
500,097;   -4,199;    0,195;   -0,318
500,683;   16,687;   -0,350;    2,136
501,268;  -34,351;   -0,169;   -0,955
501,854;   -5,453;   -0,169;    1,227
502,439;  -15,096;   -0,624;   -1,773
503,024;    1,772;    0,195;    0,500
503,610;   28,777;   -0,078;   -0,682
504,195;  -21,995;    0,558;    1,955
504,780;   70,778;    2,922;    1,227
505,366;  147,811;    3,013;    2,864
505,951;   80,199;    0,740;    1,045
506,536;    7,085;   -3,260;   -3,682
507,121;   56,004;    0,285;   -0,318
507,706;   10,578;    2,376;    1,045
508,291;  -31,791;    2,649;    1,136
508,876;  -37,963;   -0,988;    2,591
509,461;   -3,071;   -0,169;   -0,773
510,046;   38,197;    0,194;    0,318
510,631;   55,853;   -0,351;   -0,773
511,216;  -19,774;    2,467;   -0,500
511,801;   26,625;   -0,442;    2,591
512,386;   42,260;    0,740;    0,500
512,971;   56,253;   -2,988;    0,955
513,555;   90,403;   -0,897;   -1,500
514,140;   39,321;   -0,442;   -3,136
514,725;  160,318;   -0,715;   -1,136
515,309;   73,898;   -0,533;    0,318
515,894;   -6,600;   -0,624;   -2,227
516,479;   23,313;   -0,624;   -0,955
517,063;   23,137;    0,376;    1,227
517,648;  -10,007;    1,012;   -1,136
518,232;  -37,781;   -0,261;   -1,409
518,817;   34,478;   -0,079;    1,682
519,401;  131,660;    2,194;    0,591
519,985;  124,493;    1,103;    1,136
520,570;   13,879;    0,830;   -1,955
521,154;  101,161;    2,102;    0,591
521,738;  255,517;   -2,352;    2,409
522,323;  122,467;   -0,170;    1,682
522,907;  146,546;    0,466;   -0,136
523,491;   98,938;    0,557;    0,955
524,075;  107,651;    2,284;    0,591
524,659;  352,523;    1,466;    0,591
525,243;  341,867;    1,739;    0,409
525,827;  348,173;    0,648;   -0,045
526,411;  427,069;   -1,989;   -0,136
526,995;  671,403;   -0,352;    1,409
527,579;  848,118;   -0,443;   -1,045
528,163;  904,485;    0,375;   -1,500
528,747; 1241,438;    2,466;   -0,773
529,331; 1355,606;   -0,080;   -1,409
529,915; 1328,538;    1,738;    0,955
530,499; 1686,959;   -0,807;    1,227
531,082; 2020,190;   -0,534;    1,591
531,666; 2260,220;    1,374;    0,773
532,250; 2639,787;    1,284;    2,682
532,833; 3132,957;    0,920;    2,773
533,417; 3355,374;   -1,807;    0,864
534,001; 3682,587;    1,647;   -0,318
534,584; 4422,548;    0,374;    0,500
535,168; 4694,529;    0,465;    1,409
535,751; 5283,627;    0,647;    0,045
536,334; 5272,076;   -0,898;   -0,409
536,918; 6113,081;    0,011;    1,591
537,501; 6539,577;   -0,899;    1,318
538,085; 7003,008;   -0,444;    1,045
538,668; 7454,629;    0,829;    2,409
539,251; 8177,797;    1,829;    3,773
539,834; 8609,122;    0,101;    0,773
540,418; 8943,149;   -1,990;    4,318
541,001; 9335,494;   -0,990;    1,773
541,584; 9655,271;    2,101;    2,227
542,167; 9745,312;    1,374;    2,955
542,750;10122,521;    1,919;   -0,773
543,333;10087,529;    0,555;    2,136
543,916;11031,808;    0,192;    2,500
544,499;11754,233;   -1,354;    0,227
545,082;12053,046;    1,374;    3,591
545,665;12459,276;    1,919;    1,500
546,248;12931,165;    1,010;   -0,318
546,830;12855,720;   -0,445;    1,955
547,413;13434,542;    1,010;   -0,773
547,996;14086,995;    0,555;    0,500
548,579;14097,214;    0,919;    0,955
549,161;14093,846;    1,828;    2,682
549,744;14038,519;   -0,809;    0,409
550,326;14676,720;   -0,809;   -1,136
550,909;14585,183;    2,737;    0,591
551,492;15098,390;   -0,263;    0,227
552,074;15087,474;   -0,173;   -1,318
552,657;15733,723;    2,373;    0,045
553,239;15593,043;   -0,173;   -0,773
553,821;15603,308;   -1,082;    1,045
554,404;15261,316;    1,282;    1,136
554,986;15711,340;    0,464;    1,045
555,568;16353,569;    1,191;   -0,955
556,151;15752,645;    1,191;   -0,227
556,733;16014,747;   -0,264;   -0,864
557,315;16532,050;    0,100;    0,500
557,897;16411,343;    0,554;   -0,500
558,479;16581,031;   -1,991;    1,318
559,061;16816,407;   -0,719;   -0,864
559,643;17233,150;   -0,264;    0,045
560,225;17648,018;    1,645;    2,864
560,807;17780,968;    0,918;    0,318
561,389;17247,264;    0,554;    2,318
561,971;18017,080;    0,463;    2,136
562,553;17944,996;   -1,628;    1,591
563,135;18137,092;   -0,537;    1,136
563,717;17733,230;    3,372;    1,136
564,298;18489,450;    3,645;   -0,045
564,880;18272,643;    0,645;   -1,409
565,462;18486,734;    0,645;    1,318
566,043;19670,818;   -0,446;    2,318
566,625;19251,172;    1,918;    1,227
567,207;19142,706;    1,099;    1,682
567,788;20289,117;   -1,264;    1,500
568,370;21189,503;    1,917;   -0,500
568,951;21058,241;    0,190;    0,227
569,533;21975,909;   -0,628;   -0,500
570,114;22493,027;   -0,446;    0,682
570,695;23031,216;   -0,174;   -1,318
571,277;23579,966;   -0,265;   -1,682
571,858;24375,359;    2,008;   -1,136
572,439;25284,021;    1,554;   -1,045
573,021;25478,467;    2,099;   -2,773
573,602;26027,525;   -1,265;    0,318
574,183;27012,888;   -2,083;    2,227
574,764;27210,280;   -1,629;    0,409
575,345;27820,657;    0,917;   -0,136
575,926;28464,056;   -0,356;    0,136
576,507;28457,970;    1,099;   -0,227
577,088;29652,664;    3,099;    1,682
577,669;29673,720;    0,735;    1,955
578,250;30539,251;    0,644;   -1,045
578,831;31199,541;   -1,356;   -2,227
579,412;31535,342;   -0,810;    0,955
579,993;32472,246;    1,008;    0,227
580,573;32808,925;   -0,629;   -0,955
581,154;31828,035;    0,735;   -0,591
581,735;32726,586;    0,644;    0,773
582,315;32353,404;   -0,629;    2,136
582,896;32601,917;   -0,174;    1,227
583,477;32082,144;    0,189;    1,227
584,057;32308,485;    0,553;    0,955
584,638;32610,246;    2,553;    2,318
585,218;32644,830;   -0,538;    2,682
585,799;32867,514;    0,281;   -0,227
586,379;32851,391;    0,372;    1,591
586,959;31594,955;    0,735;    0,318
587,540;30914,957;   -0,629;    2,227
588,120;30477,438;    1,007;   -0,045
588,700;29510,617;    2,553;    2,136
589,281;29802,222;    0,462;   -0,955
589,861;29761,040;    0,099;   -1,682
590,441;29600,332;    2,371;   -2,682
591,021;28604,236;   -0,265;   -2,591
591,601;28830,994;   -0,537;    0,500
592,181;28834,353;   -0,719;   -0,773
592,761;28097,956;    0,007;    1,409
593,341;28059,548;   -0,901;    0,045
593,921;28055,539;   -0,265;    1,591
594,501;27987,715;   -0,538;    1,318
595,081;27802,827;    0,917;   -0,318
595,661;28176,807;   -1,447;    0,955
596,240;28688,391;   -0,537;    0,136
596,820;28415,063;    0,372;    1,955
597,400;28646,084;    2,008;    0,773
597,980;28870,713;    2,008;    1,045
598,559;28900,056;    2,735;   -0,227
599,139;28582,476;   -0,174;   -1,227
599,718;28550,931;   -0,174;   -0,409
600,298;28850,544;    0,735;    0,682
600,877;29091,468;    2,917;    1,409
601,457;29337,140;    2,281;    1,136
602,036;29254,803;    0,190;    2,045
602,616;29540,885;    0,644;    1,682
603,195;29902,948;   -0,355;    3,500
603,774;29429,063;   -0,901;    2,045
604,354;29318,866;    0,826;   -0,500
604,933;28780,239;    0,463;    1,864
605,512;28946,134;    3,554;    0,591
606,091;29000,939;   -0,537;    3,773
606,671;29838,297;    0,281;    0,773
607,250;28939,135;    1,644;    3,136
607,829;29207,098;    2,372;    3,227
608,408;29053,250;    1,190;    2,591
608,987;28051,047;    1,281;    3,409
609,566;28406,543;   -1,265;   -2,500
610,145;28521,688;   -1,082;    0,682
610,723;28944,123;    4,372;    6,864
611,302;28178,507;   -0,446;    1,682
611,881;27669,310;    5,008;   11,227
612,460;28530,941;    1,645;    3,955
613,039;28967,421;   -0,082;    2,045
613,617;27695,533;    1,736;    4,773
614,196;27866,339;    1,099;    1,227
614,775;28257,823;    1,009;    2,409
615,353;28206,504;    0,736;    0,864
615,932;27928,499;    0,100;    2,409
616,510;28501,905;    0,554;    0,591
617,089;28075,857;    7,100;   17,591
617,667;27776,872;    2,372;    6,136
618,246;27678,064;   -1,537;    1,318
618,824;27859,069;   -3,355;   -0,955
619,402;27410,624;   -2,900;   -1,773
619,981;27922,955;   -0,173;   -1,045
620,559;27717,017;    0,009;    1,682
621,137;27226,586;   -0,718;    1,864
621,715;27275,112;   -1,173;   -0,682
622,293;27222,725;   -0,537;   -0,773
622,871;27658,778;   -0,718;    0,500
623,450;27286,741;    0,373;   -0,864
624,028;27161,587;    0,191;   -0,955
624,606;26789,516;   -1,718;    1,682
625,183;27206,986;   -1,536;   -1,136
625,761;26806,249;    1,009;    1,136
626,339;27146,984;    1,373;    2,591
626,917;27562,322;   -0,172;   -0,045
627,495;27547,384;   -0,354;    1,318
628,073;26976,639;   -0,263;    2,864
628,650;26688,743;    0,100;    2,136
629,228;27103,737;    0,373;    4,409
629,806;26520,034;    2,282;    1,136
630,383;26793,657;    1,464;   -0,318
630,961;26597,613;    2,555;   -0,955
631,539;26299,605;    2,464;    0,227
632,116;25656,886;   11,373;   15,409
632,694;26269,495;    2,555;    6,500
633,271;26640,588;    0,828;    2,682
633,848;26423,903;    1,828;    2,045
634,426;26470,459;   -1,081;    1,773
635,003;25641,720;    1,101;   -0,409
635,580;25975,137;    1,192;    3,682
636,158;26537,915;    3,737;    1,227
636,735;26518,530;    0,555;   -0,500
637,312;26697,735;   -0,809;   -0,682
637,889;26797,833;   -4,354;   -0,682
638,466;26216,898;   -3,990;   -0,409
639,043;26238,202;    2,101;   -1,136
639,620;26630,159;   -2,262;   -0,955
640,197;26926,133;    1,100;    1,682
640,774;27052,293;   -0,172;    1,136
641,351;27513,362;    0,737;    1,136
641,928;26918,158;   -0,627;    1,409
642,505;26514,954;    0,828;   -0,500
643,082;26648,569;   -1,718;    1,227
643,658;25657,910;   -0,718;    1,500
644,235;26430,979;    1,191;    2,500
644,812;26747,776;    1,918;    0,773
645,388;26483,208;   -0,991;    1,409
645,965;26628,277;   -0,809;    1,682
646,542;26709,619;   -1,445;   -0,227
647,118;26641,870;    1,009;   -0,955
647,695;26975,029;   -0,263;    1,136
648,271;26901,644;   -0,536;    0,500
648,848;27219,258;    0,736;    2,227
649,424;27053,600;    0,827;    1,318
650,000;26876,578;   -0,354;   -1,045
650,577;26636,829;   -0,627;   -0,955
651,153;27120,807;   -1,809;    0,955
651,729;28162,421;    1,191;    0,864
652,305;28652,945;    0,645;    2,773
652,881;33849,832;   -0,082;    1,136
653,458;41322,355;    1,100;    0,227
654,034;45178,515;    0,282;    1,591
654,610;46661,493;    0,554;    0,773
655,186;48041,744;    0,645;    3,045
655,762;47777,722;   -0,991;    0,409
656,338;47784,245;    0,100;    0,136
656,913;48767,496;   -0,082;    0,409
657,489;48063,292;    0,827;   -0,318
658,065;48060,725;   -0,173;   -1,591
658,641;48714,794;   -0,900;   -0,864
659,217;48029,317;   -0,991;    0,409
659,792;47417,205;    0,645;   -0,409
660,368;47667,819;   -2,173;   -0,682
660,944;47135,706;   -2,082;    1,227
661,519;41756,048;   -0,628;    0,409
662,095;35094,208;   -1,719;    0,591
662,670;30341,640;    1,281;   -0,136
663,246;29208,436;    1,009;   -0,409
663,821;28523,687;    0,281;    1,682
664,396;28036,756;    0,009;    1,864
664,972;28353,098;    0,009;   -0,500
665,547;28636,712;    1,372;    0,136
666,122;28706,418;   -1,082;    0,318
666,698;29035,577;   -0,173;    0,318
667,273;28354,192;   -0,173;    0,136
667,848;29145,170;    2,372;    1,500
668,423;28963,512;    2,190;    2,318
668,998;29592,217;    2,827;   -0,682
669,573;30097,377;   -3,264;   -1,500
670,148;29916,627;   -1,446;   -0,682
670,723;29738,696;   -1,810;    0,318
671,298;30186,311;    2,372;    1,045
671,873;30342,289;   -0,082;   -0,136
672,448;30269,540;    0,645;    0,136
673,023;30594,699;   -1,992;   -0,227
673,597;30947,859;    0,827;    2,318
674,172;30732,201;   -0,355;    0,318
674,747;30187,634;    0,372;   -1,045
675,321;30014,521;   -0,628;    3,318
675,896;29619,499;    0,645;    1,045
676,471;30622,113;    2,645;    1,591
677,045;30349,728;   -1,264;    0,682
677,620;30475,342;    0,190;    1,136
678,194;30719,774;   -2,628;    1,136
678,769;30311,843;   -1,083;   -0,318
679,343;30578,549;   -0,628;    1,773
679,917;30476,163;   -1,446;    1,955
680,492;30563,959;    0,826;    3,227
681,066;30657,028;    3,372;    0,409
681,640;30658,370;    1,463;   -0,318
682,214;31526,712;    0,735;    0,500
682,788;31099,508;   -1,356;   -0,773
683,363;31141,304;   -1,810;    1,682
683,937;30814,191;   -1,719;   -0,318
684,511;31525,169;    0,463;   -0,591
685,085;31225,875;   -1,356;    0,318
685,659;31006,671;   -2,538;    0,864
686,232;31312,558;   -0,356;   -0,318
686,806;30994,263;   -0,901;    0,409
687,380;31660,332;   -0,174;    0,591
687,954;31886,219;   -1,174;    1,136
688,528;31570,106;   -0,719;    1,955
689,101;32387,084;   -3,992;    1,045
689,675;31943,335;   -0,356;   -0,136
690,249;31292,313;   -0,719;    0,409
690,822;31600,382;    0,280;    0,318
691,396;31720,178;   -0,265;    1,227
691,969;31114,520;    1,280;    0,136
692,543;31598,134;   -0,447;   -1,955
693,116;31241,294;   -0,265;   -1,409
693,690;31189,272;    0,099;    0,500
694,263;31695,614;   -1,083;    2,955
694,836;31750,410;    1,371;    3,591
695,410;30390,297;   -0,265;    1,773
695,983;30822,366;    0,189;    0,591
696,556;30806,981;   -0,447;   -1,045
697,129;31210,413;   -0,356;    1,409
697,703;30823,846;   -1,629;    1,955
698,276;30832,006;    1,462;   -0,773
698,849;30676,166;    1,280;    1,409
699,422;31030,507;   -1,083;    0,591
699,995;30675,394;    0,007;    0,136
700,568;31189,191;   -0,629;    3,045
701,140;31243,441;   -2,811;    1,682
701,713;30960,601;   -0,174;    2,409
702,286;30682,943;   -0,538;    0,864
702,859;30607,376;   -0,902;   -0,591
703,432;29735,172;    0,825;    0,682
704,004;30205,059;    0,462;    0,318
704,577;30057,946;   -0,629;    0,136
705,150;30709,197;    0,189;    2,500
705,722;30457,538;   -0,356;   -3,227
706,295;30230,880;   -0,175;   -0,591
706,867;30178,858;   -0,175;    1,955
707,440;30352,018;   -1,720;   -0,409
708,012;30605,360;    0,462;    0,591
708,584;30532,701;    2,462;    0,227
709,157;30834,861;    1,825;   -0,591
709,729;30463,112;    2,280;    2,045
710,301;31304,545;    0,734;    0,045
710,874;31335,068;   -1,447;   -0,227
711,446;30215,955;    0,371;    0,864
712,018;30116,842;    0,098;    0,500
712,590;29824,093;   -1,993;    1,682
713,162;30365,707;    0,825;    1,318
713,734;30602,231;    1,825;   -2,045
714,306;30499,936;   -1,902;   -0,409
714,878;29175,732;    0,825;    0,864
715,450;30016,983;    0,643;    0,864
716,022;30211,779;    1,552;    1,318
716,593;30392,757;    0,189;    0,591
717,165;30362,554;   -3,175;   -1,227
717,737;30020,623;    0,280;    0,409
718,309;29667,601;    0,280;   -0,045
718,880;29631,851;   -0,539;   -1,409
719,452;29769,102;   -0,175;   -1,591
720,024;29402,535;    0,734;   -0,591
720,595;29972,876;   -2,902;    0,955
721,167;29537,218;    0,370;   -2,045
721,738;29028,196;   -0,812;   -1,045
722,309;29077,538;   -0,993;   -1,227
722,881;28822,880;   -1,357;    0,773
723,452;29422,948;   -2,630;    2,864
724,023;29605,108;   -0,721;    2,682
724,595;29398,359;    0,007;    0,682
725,166;29138,973;    0,007;   -0,409
725,737;28821,770;    1,734;    0,227
726,308;28869,930;   -0,266;    0,318
726,879;29353,726;   -1,630;    1,227
727,450;29120,249;    0,552;   -0,045
728,021;29111,864;    3,097;    0,682
728,592;28875,296;    0,734;    0,500
729,163;29271,092;    0,643;   -0,136
729,734;29364,161;    0,188;   -0,227
730,305;29689,049;    1,734;    0,136
730,876;30064,845;    0,188;    2,955
731,447;29732,459;    2,188;    2,682
732,017;29875,892;    1,097;    1,864
732,588;29274,052;    0,734;    1,227
733,159;29529,121;    0,643;   -1,045
733,729;29355,371;    0,006;    0,409
734,300;28628,622;    0,915;    0,864
734,870;29059,236;    3,461;    0,591
735,441;29644,578;    0,370;   -0,591
736,011;29381,465;    0,643;   -1,591
736,582;29305,352;   -0,812;    0,045
737,152;28779,603;   -1,721;   -2,045
737,722;29216,490;   -0,267;   -0,682
738,293;28928,014;   -1,358;    1,318
738,863;28860,537;    2,461;    2,318
739,433;28603,061;    5,279;    0,318
740,003;29229,766;   -0,994;   -0,682
740,573;28597,653;    2,097;   -1,591
741,143;28529,813;   -1,085;    0,318
741,713;29395,427;    1,188;   -0,500
742,283;29014,405;    0,915;    1,591
742,853;28813,838;    1,915;    1,591
743,423;28265,089;    1,733;    0,045
743,993;28403,430;   -0,358;    1,500
744,563;27774,954;    0,097;   -0,864
745,133;27729,023;   -0,812;   -0,864
745,702;28389,365;   -0,267;    1,773
746,272;27624,979;   -0,176;    0,591
746,842;27366,139;   -1,358;   -0,591
747,411;27781,481;   -0,267;   -0,318
747,981;27979,549;    0,097;    0,500
748,551;27986,982;    2,278;   -1,045
749,120;27882,596;    0,642;   -0,227
749,690;28293,665;   -0,631;    2,409
750,259;28624,007;    1,369;    2,955
750,828;28581,167;    1,551;   -1,955
751,398;28871,145;    1,278;   -0,045
751,967;28347,759;    2,187;    0,409
752,536;28552,283;   -0,813;   -0,227
753,105;28945,534;    0,096;    0,227
753,675;28810,421;    0,096;    1,773
754,244;28737,853;   -0,904;    3,591
754,813;28764,286;    0,551;    1,227
755,382;28358,082;    0,460;    0,955
755,951;28996,060;    1,551;    3,682
756,520;28483,220;   -0,085;    1,864
757,089;29066,289;    0,278;    0,500
757,658;29293,540;    1,733;    1,227
758,227;29185,972;    1,096;    0,318
758,795;29546,405;    1,187;    1,136
759,364;29750,292;   -0,086;   -0,591
759,933;28779,270;   -1,176;   -0,045
760,501;28214,521;    0,733;   -1,318
761,070;28724,499;   -2,813;   -1,409
761,639;29455,750;   -1,904;    1,318
762,207;28826,637;    1,551;   -0,955
762,776;28727,888;    0,369;    0,864
763,344;28694,593;   -0,995;    0,591
763,913;27755,389;   -0,722;    1,409
764,481;28477,003;    1,005;   -0,136
765,049;28259,618;   -1,358;    1,409
765,618;28134,141;   -0,086;    0,318
766,186;28244,483;    0,278;    0,136
766,754;28408,916;    0,005;    1,864
767,322;27389,439;   -1,995;    0,409
767,890;27410,053;   -0,722;   -1,773
768,459;27823,213;   -2,177;   -0,318
769,027;28010,100;    1,641;    3,409
769,595;26951,260;    3,278;    2,591
770,163;27412,511;    3,823;    2,955
770,730;27160,307;    0,732;   -0,136
771,298;26983,831;    0,187;   -1,409
771,866;27012,536;   -1,541;    4,955
772,434;27338,878;   -0,631;   -1,864
773,002;27526,401;    0,005;    0,682
773,569;27195,197;    0,914;    1,682
774,137;27021,721;   -0,268;   -0,045
774,705;27780,426;    0,278;   -0,136
775,272;27290,768;    0,641;    0,682
775,840;26996,655;   -0,177;    2,682
776,407;26520,179;    0,277;    1,955
776,975;26091,793;   -0,632;    0,318
777,542;27161,771;   -1,086;   -0,045
778,110;26992,931;   -1,268;   -0,045
778,677;26653,909;   -2,359;   -0,864
779,244;26363,523;    2,186;    1,045
779,812;26491,138;    1,823;    0,864
780,379;26340,661;    0,005;    1,136
780,946;26604,912;    1,005;   -0,773
781,513;26953,617;   -1,450;    0,318
782,080;26293,959;   -0,086;    2,864
782,647;27034,482;   -0,268;    3,045
783,214;26594,824;   -0,177;    3,864
783,781;26247,439;   -0,723;   -0,682
784,348;26118,417;   -0,632;    1,500
784,915;26573,576;   -3,177;    0,318
785,482;26343,373;    1,368;    2,591
786,049;26796,442;    0,186;   -0,591
786,615;26890,965;    0,277;   -0,955
787,182;26628,489;    0,186;   -0,682
787,749;26293,103;   -2,814;    1,409
788,315;25596,081;   -1,632;   -0,409
788,882;25912,695;    1,550;   -1,227
789,448;26611,946;    1,732;   -0,955
790,015;26653,561;    1,095;    3,227
790,581;26218,811;    1,459;    0,227
791,148;26149,062;    0,641;    1,045
791,714;26342,131;   -0,541;    3,136
792,280;26005,018;    0,186;    1,591
792,847;25544,905;    0,550;    2,500
793,413;26127,156;   -0,269;   -0,318
793,979;25632,316;    3,459;   -1,318
794,545;25723,748;    4,459;    2,682
795,111;25117,272;    2,186;    1,318
795,678;25318,523;    0,731;   -1,682
796,244;24912,592;    3,368;    0,136
796,810;25412,297;    1,731;    0,773
797,375;25132,002;    0,549;   -2,136
797,941;25181,435;   -0,541;    0,591
798,507;25325,231;   -0,451;   -0,955
799,073;24880,936;   -0,360;    0,591
799,639;24939,005;   -2,632;    3,136
800,205;24898,983;    0,095;    2,682
800,770;24395,598;    0,640;    1,773
801,336;24532,758;    1,368;   -0,955
801,901;24203,190;    4,549;    3,136
802,467;24782,986;   -0,542;    2,045
803,033;24154,328;   -0,087;    0,864
803,598;24378,033;    1,913;   -1,045
804,163;24401,830;    1,095;   -0,318
804,729;24321,626;   -0,178;    1,136
805,294;24753,149;    0,822;    2,227
805,859;24517,946;    0,731;   -0,409
806,425;23969,287;    1,186;    2,682
806,990;23619,265;    2,186;    4,318
807,555;24171,698;   -1,451;    2,591
808,120;24037,494;    0,822;   -0,409
808,685;24065,290;    0,185;   -2,500
809,250;23555,087;    0,004;   -0,500
809,815;23894,065;    1,913;    0,682
810,380;24463,406;   -0,269;    1,591
810,945;25011,384;   -1,087;    2,045
811,510;24107,544;    2,094;    1,591
812,075;23866,886;   -0,633;   -1,409
812,640;23888,046;    2,003;    1,409
813,204;23942,115;    0,822;   -0,227
813,769;24417,456;    2,094;   -0,045
814,334;23815,798;    0,458;    0,864
814,898;23858,685;    0,367;    0,591
815,463;23720,663;    1,276;   -0,773
816,027;23639,459;   -0,724;   -2,318
816,592;23713,528;    0,640;   -2,045
817,156;23284,870;    2,094;    1,136
817,721;23069,939;    4,276;    2,318
818,285;23037,917;    2,912;    1,500
818,849;23720,713;   -1,451;    1,682
819,414;23638,782;   -0,269;    2,955
819,978;23208,215;   -1,269;    1,773
820,542;23792,102;    2,003;    0,500
821,106;23473,625;   -0,815;    0,682
821,670;23555,694;   -0,815;    2,591
822,234;23319,763;   -0,270;    1,409
822,798;22669,650;    0,003;    0,500
823,362;22630,083;   -0,633;    4,227
823,926;21882,243;    0,094;    1,136
824,490;22133,403;   -0,997;   -0,682
825,054;22593,562;   -0,088;   -1,136
825,618;22200,268;   -1,542;   -1,500
826,181;22143,064;    0,458;   -1,318
826,745;22050,769;    1,367;   -1,045
827,309;22389,475;    1,185;    1,318
827,872;21775,362;    1,367;    0,955
828,436;22739,249;    1,185;   -0,773
828,999;22793,500;   -0,997;    1,227
829,563;21586,932;   -0,179;    1,136
830,126;21398,910;   -0,179;   -0,591
830,690;21454,343;   -1,997;    2,864
831,253;20990,048;   -0,543;    2,227
831,816;21085,935;   -1,906;    0,500
832,380;21040,641;    0,185;    0,864
832,943;21295,619;   -1,361;   -0,500
833,506;20726,324;    2,639;   -1,227
834,069;21532,938;    3,912;   -0,955
834,632;21561,189;    1,730;    1,318
835,195;21475,349;    1,003;    0,955
835,758;20645,872;   -0,997;    1,955
836,321;20455,941;    0,730;   -1,045
836,884;20554,465;   -0,725;   -0,955
837,447;20570,897;   -2,816;    1,773
838,010;20885,239;    0,366;    3,227
838,573;21197,763;   -1,179;    0,773
839,135;21134,741;   -1,361;   -0,955
839,698;20555,628;    1,275;    0,409
840,261;20052,242;    1,003;   -0,227
840,823;19894,493;   -0,543;    0,864
841,386;20164,744;   -0,452;   -2,409
841,948;20077,267;   -1,361;    1,773
842,511;19822,063;    0,912;    1,682
843,073;19940,041;    1,912;    0,227
843,636;19710,838;   -0,361;   -0,227
844,198;19709,725;    0,911;    0,591
844,760;19818,248;    1,093;    1,955
845,322;19489,226;    0,548;    1,136
845,885;19912,023;    0,730;    0,591
846,447;20325,182;   -1,998;    0,227
847,009;19899,888;    1,911;   -0,682
847,571;20225,320;    0,820;   -2,045
848,133;20354,298;   -1,089;   -1,864
848,695;20167,095;   -0,543;    1,409
849,257;19683,618;   -1,089;   -1,682
849,819;19829,051;   -0,998;   -0,409
850,381;19881,847;   -0,725;   -0,864
850,942;20270,825;    1,093;   -0,591
851,504;20278,439;    1,184;    0,227
852,066;20273,872;    1,275;   -1,591
852,628;19826,304;   -0,180;    1,955
853,189;19340,373;    1,638;    2,682
853,751;19466,170;   -0,907;    1,409
854,312;19307,602;   -0,453;   -1,682
854,874;19795,853;   -2,089;   -0,773
855,435;20299,831;   -0,907;   -1,682
855,997;20484,354;   -1,816;   -0,136
856,558;19761,151;    0,366;    1,773
857,119;19877,856;    0,820;    2,864
857,681;19528,925;    0,002;    0,318
858,242;19611,903;    1,911;   -2,136
858,803;20068,426;    0,456;   -0,773
859,364;20643,495;    0,184;   -4,773
859,925;19931,928;   -2,453;   -0,955
860,486;19810,724;   -0,453;   -0,955
861,047;19553,339;   -0,544;   -1,227
861,608;19341,589;   -1,089;   -0,773
862,169;19406,476;    0,638;   -0,045
862,730;19172,818;    0,456;    1,409
863,291;19427,614;   -0,635;   -0,500
863,852;19868,320;   -0,635;    1,955
864,412;19279,298;   -0,271;   -0,864
864,973;17831,639;   -0,089;    0,500
865,534;17735,254;   -1,726;    0,227
866,094;19271,595;    1,820;    0,227
866,655;18938,301;    1,274;    3,318
867,215;19186,279;    0,274;    0,136
867,776;19026,893;    0,547;   -0,136
868,336;19151,508;   -1,453;    0,136
868,897;18597,304;    2,638;    1,682
869,457;18311,191;    1,365;    0,318
870,017;18539,351;    0,547;   -1,227
870,578;19086,511;   -0,817;    0,773
871,138;18763,580;   -2,089;   -0,955
871,698;18284,558;   -0,817;   -1,318
872,258;18164,354;   -0,453;   -2,864
872,818;18567,423;    2,729;    0,045
873,378;18506,946;    0,638;    1,045
873,938;18056,833;    0,547;    0,500
874,498;18409,721;    0,274;   -1,955
875,058;18294,335;    2,183;    1,773
875,618;18129,586;    1,910;   -2,682
876,177;18051,018;    1,274;    0,136
876,737;17649,996;   -0,090;    1,955
877,297;17663,429;    0,183;    1,955
877,856;17680,316;   -0,362;    0,318
878,416;17612,294;    1,183;   -0,136
878,976;17810,181;   -1,817;    0,409
879,535;17998,068;    0,092;    3,136
880,095;17700,319;   -0,544;    0,045
880,654;17878,661;   -1,090;    1,318
881,213;17972,184;    2,456;    1,500
881,773;17610,708;    2,637;    2,682
882,332;17947,595;    3,365;    5,136
882,891;17768,482;    3,092;    2,136
883,451;18267,824;   -1,272;    1,682
884,010;17693,438;   -2,908;   -0,409
884,569;17775,871;   -0,999;   -0,045
885,128;17986,121;    2,819;   -1,864
885,687;18013,099;    4,455;    0,682
886,246;17699,441;    1,455;    2,136
886,805;17472,056;    2,455;    2,045
887,364;17766,488;   -0,999;   -0,500
887,922;18127,648;   -1,181;    0,045
888,481;17628,990;   -1,545;    0,591
889,040;17939,331;    1,183;    2,136
889,599;18617,946;    2,455;    1,409
890,157;18695,287;    1,455;    2,409
890,716;18362,720;   -0,090;    0,227
891,274;18148,153;    0,092;   -1,136
891,833;18604,858;    1,546;    0,864
892,391;18479,745;   -0,454;    0,500
892,950;18540,359;    1,819;   -0,773
893,508;18889,792;    0,455;   -0,409
894,067;18212,770;    0,637;    0,136
894,625;18181,657;   -0,636;   -1,500
895,183;18428,181;   -0,363;   -0,682
895,741;18317,704;    1,728;   -1,773
896,299;18140,500;   -0,545;   -2,409
896,858;18302,569;    0,819;   -1,591
897,416;18410,275;    2,728;   -1,318
897,974;18156,616;    1,819;    0,318
898,532;18321,685;    6,091;    2,682
899,089;18256,845;    2,091;   -0,682
899,647;18296,369;   -1,454;    1,318
900,205;17974,528;    1,182;    1,045
900,763;18161,870;   -0,454;    0,227
901,321;18173,575;    2,364;   -1,409
901,878;17593,190;   -1,000;   -0,773
902,436;17481,350;   -1,363;    1,318
902,994;17871,146;    4,728;    3,682
903,551;17284,942;    0,728;    0,409
904,109;17669,284;    0,182;   -1,409
904,666;17222,353;    2,455;    1,045
905,224;17066,694;    0,182;   -0,409
905,781;16769,400;    0,727;   -0,318
906,338;16817,923;   -1,363;    1,045
906,895;16759,174;    0,637;    2,045
907,453;16710,243;    1,727;    1,136
908,010;16767,675;   -0,909;    0,409
908,567;16432,472;    1,273;    0,591
909,124;15888,813;    0,364;   -1,500
909,681;15965,610;   -2,909;    0,682
910,238;16043,406;    0,636;   -1,318
910,795;16388,475;   -0,273;   -1,136
911,352;16003,657;   -2,909;   -2,682
911,909;15388,747;   -1,364;   -0,864
912,466;15931,111;   -3,182;    1,500
913,022;15491,202;   -1,636;    0,500
913,579;15821,293;   -0,909;    2,045
914,136;15460,838;    1,636;    0,955
914,692;15820,657;    0,091;   -1,227
915,249;15418,747;    1,455;    0,409
915,806;15656,747;    0,182;    1,955
916,362;15395,566;    1,909;    1,864
916,918;14930,566;    2,000;    1,045
917,475;14904,747;   -1,182;    0,955
918,031;14974,747;    3,364;   -0,045
918,587;14421,838;   -0,909;   -0,318
919,144;14645,111;   -2,273;    0,227
919,700;14971,838;    1,727;    0,773
920,256;14553,929;    0,727;    0,045
920,812;14178,838;   -0,727;   -1,045
921,368;14147,384;   -1,727;   -1,045
921,924;13780,111;    0,182;   -0,136
922,480;13362,566;   -0,545;    1,227
923,036;13952,657;    1,273;    1,955
923,592;13924,475;    0,455;    0,318
924,148;13844,838;    0,455;   -0,955
924,704;13083,475;   -1,364;   -0,409
925,259;13334,657;   -0,273;    0,591
925,815;13128,657;    1,455;    0,500
926,371;12632,384;    2,909;    1,409
926,926;12464,566;    2,091;    0,591
927,482;12109,293;   -1,364;    0,773
928,037;11968,566;    0,909;    2,045
928,593;12280,020;    1,636;    1,045
929,148;12110,657;   -1,818;   -1,500
929,704;11588,020;   -1,455;   -0,500
930,259;11790,202;    0,091;   -0,136
930,814;10824,202;   -0,818;    1,955
931,369;10489,020;    1,091;   -0,773
931,925;10360,747;   -0,091;    0,136
932,480;10238,838;   -2,818;   -2,591
933,035;10110,747;    0,545;   -0,318
933,590; 9883,566;    0,364;   -1,773
934,145; 9490,747;   -1,364;   -0,318
934,700; 9849,475;    0,455;   -0,591
935,255; 9647,838;   -0,091;    0,045
935,809; 8875,929;    3,182;    0,864
936,364; 7969,384;   -0,455;   -0,136
936,919; 7929,475;    0,455;   -1,773
937,474; 7802,475;    1,455;    0,136
938,028; 7539,566;   -1,636;    1,136
938,583; 7019,566;    1,818;    4,682
939,138; 7308,384;    2,091;    2,136
939,692; 6696,384;    1,636;   -1,136
940,247; 6378,293;   -0,727;   -1,045
940,801; 5891,020;   -0,636;    0,227
941,355; 5796,111;   -0,364;    2,591
941,910; 5432,747;   -0,273;   -2,136
942,464; 5555,566;   -0,818;   -0,318
943,018; 5324,838;    1,000;   -0,227
943,572; 5243,657;    2,545;   -0,682
944,126; 4615,384;    0,091;   -0,409
944,681; 4516,838;    3,091;    0,227
945,235; 4507,657;    1,000;   -0,591
945,789; 4452,293;    0,364;   -1,864
946,342; 4536,202;    0,455;   -0,591
946,896; 4338,929;   -2,273;    0,955
947,450; 4092,020;    1,545;   -0,227
948,004; 4295,657;    1,727;   -0,045
948,558; 4290,929;    0,273;   -0,864
949,111; 4183,384;   -0,273;   -0,318
949,665; 4212,929;    1,636;   -0,682
950,219; 4093,747;   -0,091;   -1,045
950,772; 4172,566;   -1,909;    1,864
951,326; 4068,384;    0,545;   -0,955
951,879; 4180,475;    0,727;   -2,318
952,433; 4196,657;    0,000;    2,227
952,986; 4022,020;    2,909;    0,682
953,539; 3991,838;   -0,273;    0,591
954,093; 3935,384;    0,545;   -1,318
954,646; 4064,475;    0,909;    1,318
955,199; 3875,020;    0,000;   -0,500
955,752; 3730,293;   -0,455;    1,773
956,305; 3699,657;   -0,091;    2,955
956,858; 3860,020;    0,818;   -0,318
957,411; 4046,475;   -0,545;    2,136
957,964; 3860,384;    1,364;    2,136
958,517; 3877,111;   -1,545;    3,136
959,070; 3677,657;   -0,455;    1,955
959,623; 3751,838;    1,091;    1,500
960,176; 3516,929;    1,727;    2,045
960,728; 3502,111;   -2,727;    0,773
961,281; 3540,747;    0,545;    0,500
961,834; 3605,202;   -0,909;    0,864
962,386; 3494,838;    1,727;    1,045
962,939; 3429,475;    0,364;   -0,318
963,491; 3584,202;    0,455;    1,136
964,043; 3452,566;    1,182;    2,409
964,596; 3579,111;   -1,000;    2,227
965,148; 3406,293;   -1,000;    1,773
965,700; 3339,929;    1,091;   -0,227
966,253; 3486,566;   -0,636;    0,318
966,805; 3306,020;   -2,273;    0,773
967,357; 3364,202;    1,091;   -1,500
967,909; 3316,020;    0,455;   -1,227
968,461; 3433,657;    0,545;    3,136
969,013; 3351,020;   -0,182;   -0,864
969,565; 3431,293;   -0,455;   -1,136
970,117; 3466,384;   -0,364;    1,045
970,669; 3317,747;    0,182;   -0,136
971,220; 3204,475;   -0,455;   -1,500
971,772; 3128,293;   -0,636;   -0,318
972,324; 3250,020;    0,091;   -0,500
972,876; 3195,020;    0,818;   -0,045
973,427; 3325,929;    1,909;   -1,045
973,979; 3283,202;   -0,727;   -2,500
974,530; 3341,838;    1,818;    1,318
975,082; 3351,384;   -0,545;    1,682
975,633; 3221,566;    1,091;    1,682
976,184; 3368,747;    0,909;    0,773
976,736; 3130,747;    0,091;    0,227
977,287; 2949,293;   -0,909;   -0,500
977,838; 3135,384;    0,909;   -0,318
978,389; 3197,020;   -1,000;   -0,500
978,940; 3073,657;    0,545;   -0,409
979,491; 3089,111;    0,091;   -0,500
980,042; 3077,111;    0,182;    3,045
980,593; 3127,566;   -2,545;    0,227
981,144; 3140,202;    2,545;   -0,500
981,695; 3093,202;    1,455;    1,500
982,246; 3081,929;   -0,273;    1,045
982,797; 3256,475;   -1,727;    0,682
983,347; 3348,020;    0,364;    0,591
983,898; 3527,929;    3,091;    0,409
984,449; 3329,657;    2,182;    0,773
984,999; 3248,020;    1,455;   -1,136
985,550; 3004,475;    0,182;   -0,318
986,100; 3053,293;   -0,455;   -0,318
986,651; 3087,747;   -0,818;    0,045
987,201; 3066,020;   -1,000;   -0,591
987,751; 3155,657;    0,818;    2,864
988,302; 3142,384;    2,636;    1,500
988,852; 3173,293;    0,455;   -1,136
989,402; 3206,384;    0,091;    0,682
989,952; 3113,020;   -2,182;    0,864
990,502; 3236,566;   -0,091;    0,682
991,052; 3189,384;   -0,727;    0,045
991,602; 3037,202;   -2,909;    1,318
992,152; 3035,838;    0,455;    0,682
992,702; 3030,747;    1,364;   -0,045
993,252; 2955,475;   -3,000;   -0,500
993,802; 3049,384;   -0,273;    1,318
994,352; 3290,838;   -1,545;    1,136
994,901; 3369,293;   -0,182;    3,227
995,451; 3280,202;   -0,182;    0,318
996,000; 3372,293;    1,636;    0,318
996,550; 3072,111;    2,273;    0,227
997,100; 3067,293;    1,273;   -0,045
997,649; 3343,020;    2,182;    0,955
998,198; 2974,384;    1,727;   -1,500
998,748; 3187,202;    1,091;   -2,318
999,297; 3103,020;   -0,818;   -0,409
999,846; 3149,747;    1,000;   -0,773
1000,395; 3191,475;   -0,818;    0,500
1000,945; 3128,747;    1,818;   -0,773
1001,494; 3237,929;    2,364;    0,682
1002,043; 3237,657;    4,636;    0,864
1002,592; 3052,384;   -1,091;    1,955
1003,141; 3231,111;   -0,455;   -0,682
1003,690; 3064,929;    1,727;    0,500
1004,238; 3164,747;    1,455;   -0,045
1004,787; 2788,475;    1,364;    1,227
1005,336; 2992,293;    0,364;    0,682
1005,885; 3158,111;    1,364;   -2,773
1006,433; 3312,566;    0,545;    0,955
1006,982; 3358,838;    0,455;    1,682
1007,531; 3261,657;   -1,818;   -0,227
1008,079; 3227,384;   -2,273;    0,500
1008,627; 3385,747;   -1,455;    0,409
1009,176; 3117,293;    0,000;   -1,955
1009,724; 3166,838;    1,091;    0,864
1010,273; 3213,111;    1,273;    0,500
1010,821; 3312,384;    0,091;    1,409
1011,369; 3046,293;   -1,364;    1,318
1011,917; 3043,838;   -1,364;   -0,591
1012,465; 3327,202;    1,273;   -1,591
1013,013; 3428,566;    2,091;   -1,682
1013,561; 3289,202;    0,455;   -0,773
1014,109; 3333,657;   -1,909;    1,682
1014,657; 3227,293;    0,364;    0,591
1015,205; 3365,747;    1,636;   -0,955
1015,753; 3398,929;   -0,545;   -1,409
1016,301; 3429,202;   -2,636;    3,045
1016,848; 3435,384;   -1,273;    0,409
1017,396; 3494,475;    2,545;    0,045
1017,944; 3603,111;    1,182;    1,864
1018,491; 3371,747;    0,273;    1,409
1019,039; 3492,202;    0,455;    0,591
1019,586; 3426,293;   -1,364;    1,682
1020,134; 3526,747;    0,455;    1,500
1020,681; 3542,929;    0,182;   -1,136
1021,228; 3554,020;    2,909;   -2,227
1021,776; 3370,657;    1,182;   -1,136
1022,323; 3597,657;    0,455;    0,773
1022,870; 3536,293;   -1,000;   -0,045
1023,417; 3406,384;    2,636;    1,864
1023,964; 3567,838;    2,636;    1,227
1024,511; 3401,566;    1,000;    0,773
1025,058; 3199,384;    3,182;   -0,045
1025,605; 3266,475;   -2,273;    3,136
1026,152; 3486,020;    1,727;   -0,591
1026,699; 3211,293;    1,818;    1,318
1027,245; 3379,202;   -0,091;    0,318
1027,792; 3587,111;   -1,000;    1,409
1028,339; 3463,747;    2,364;   -0,045
1028,885; 3312,475;    1,000;   -0,227
1029,432; 3245,202;   -0,091;    0,227
1029,978; 3312,747;   -1,000;   -1,591
1030,525; 3217,020;    1,000;    0,409
1031,071; 3473,475;   -1,364;    1,136
1031,618; 3551,202;    0,364;    1,682
1032,164; 3353,657;   -0,091;    3,045
1032,710; 3404,293;    1,636;   -1,500
1033,256; 3301,384;   -0,636;   -0,136
1033,803; 3307,566;   -0,545;    1,500
1034,349; 3013,293;   -1,364;    0,136
1034,895; 3173,384;    0,000;   -0,318
1035,441; 3168,929;   -0,818;    0,318
1035,987; 3146,838;   -2,364;   -0,682
1036,533; 3133,020;   -1,455;   -0,955
1037,078; 3341,202;    1,455;    1,682
1037,624; 3158,384;    2,455;   -0,955
1038,170; 3201,475;    0,455;   -0,318
1038,716; 3082,929;    1,636;   -0,409
1039,261; 3004,475;   -2,273;   -0,773
1039,807; 2943,566;   -0,091;    3,409
1040,352; 3013,475;   -1,909;   -0,318
1040,898; 3052,838;   -1,545;   -0,682
1041,443; 2944,384;   -1,455;   -2,591
1041,989; 2948,838;    1,091;    1,591
1042,534; 2862,838;   -0,364;    2,591
1043,079; 2988,566;    2,909;    0,955
1043,625; 2762,475;    1,818;    0,500
1044,170; 2811,657;   -1,364;    1,045
1044,715; 3048,111;    2,455;    0,955
1045,260; 2876,475;    2,182;   -0,955
1045,805; 2924,384;    1,182;   -0,591
1046,350; 2844,566;    1,364;   -0,409
1046,895; 2810,747;    2,909;    1,591
1047,440; 2751,929;    5,364;    0,409
1047,985; 2647,293;    2,818;   -0,955
1048,530; 2578,384;    1,545;    1,227
1049,074; 2631,020;    0,000;    0,318
1049,619; 2606,293;   -1,364;    1,955
1050,164; 2398,838;    0,455;    0,227
1050,708; 2448,111;   -0,455;    0,045
1051,253; 2802,475;    1,273;   -2,227
1051,797; 2532,747;    0,818;   -1,318
1052,342; 2537,384;   -1,182;    1,045
1052,886; 2529,475;    0,364;   -1,409
1053,430; 2409,202;   -1,364;    0,136
1053,975; 2416,293;   -0,818;   -0,318
1054,519; 2393,838;   -0,727;    3,227
1055,063; 2418,657;    0,909;    1,318
1055,607; 2294,657;   -0,182;    0,227
1056,151; 2317,020;    2,909;    1,682
1056,695; 2226,384;    2,273;   -1,136
1057,239; 2295,293;   -1,727;   -0,682
1057,783; 2321,111;    0,818;   -1,500
1058,327; 2255,838;    0,000;    1,409
1058,871; 2468,929;   -0,545;    1,318
1059,415; 2174,020;   -0,818;   -0,045
1059,958; 2443,929;    1,455;    2,591
1060,502; 2173,566;   -1,000;   -0,773
1061,046; 2077,293;    0,364;   -0,955
1061,589; 2059,475;   -3,000;   -1,136
1062,133; 1933,929;   -1,273;    1,864
1062,676; 1875,293;    1,182;    0,864
1063,220; 1869,293;    1,091;    0,500
1063,763; 1883,929;    0,909;    1,136
1064,306; 1980,747;   -0,909;    1,864
1064,849; 1868,566;   -0,909;    0,591
1065,393; 1857,566;    2,000;   -1,500
1065,936; 1989,475;    0,182;   -0,409
1066,479; 1870,020;   -1,455;    1,318
1067,022; 1892,566;   -0,273;   -0,227
1067,565; 1783,384;   -0,091;   -1,318
1068,108; 1805,475;    0,727;   -0,591
1068,651; 1772,475;   -0,636;    1,409
1069,194; 1700,202;   -0,455;   -1,682
1069,736; 1704,566;   -1,273;    0,955
1070,279; 1685,475;   -1,364;   -0,500
1070,822; 1727,111;   -2,000;   -0,318
1071,364; 1804,566;   -0,364;    1,318
1071,907; 1635,657;   -0,727;    3,227
1072,450; 1534,293;    0,000;   -0,045
1072,992; 1526,657;   -0,273;    3,136
1073,535; 1681,202;    2,091;    2,136
1074,077; 1460,020;   -0,727;    2,045
1074,619; 1431,020;   -1,364;    0,591
1075,161; 1475,293;   -1,091;    1,500
1075,704; 1657,293;    1,545;    1,227
1076,246; 1443,475;   -0,182;    0,682
1076,788; 1368,111;   -0,364;    1,773
1077,330; 1459,293;    1,273;    2,136
1077,872; 1416,202;    0,909;    0,955
1078,414; 1642,566;    2,727;    0,773
1078,956; 1359,747;    1,273;   -0,227
1079,498; 1628,657;    1,636;    0,318
1080,040; 1327,838;    1,909;   -1,318
1080,581; 1262,475;    1,636;   -0,318
1081,123; 1189,838;    0,091;   -0,773
1081,665; 1246,384;   -1,182;   -0,955
1082,206; 1545,566;    1,364;   -0,500
1082,748; 1403,202;    0,727;    2,045
1083,289; 1277,566;   -2,000;    1,318
1083,831; 1184,747;   -0,545;    0,227
1084,372; 1227,747;    0,000;    0,591
1084,913; 1222,475;    1,091;    0,864
1085,455; 1178,475;   -1,909;   -2,045
1085,996; 1162,657;   -2,273;    0,136
1086,537; 1172,747;   -0,091;    0,864
1087,078; 1200,838;   -0,909;   -2,136
1087,619; 1257,202;   -1,273;    0,227
1088,160; 1172,384;    0,000;    1,318
1088,701; 1159,111;   -1,091;    0,682
1089,242; 1089,293;    1,364;   -2,227
1089,783; 1199,929;   -0,273;    1,409
1090,324; 1153,475;    0,455;    0,682
1090,865; 1033,475;    2,727;   -0,409
1091,405; 1008,384;    0,727;    2,227
1091,946; 1032,020;    0,182;   -0,955
1092,487;  954,747;    0,818;   -1,409
1093,027; 1115,657;   -1,364;   -1,500
1093,568;  963,020;   -0,364;    1,227
1094,108; 1062,475;    0,273;    1,773
1094,649;  990,929;   -1,182;    0,136
1095,189;  948,293;   -0,636;   -0,682
1095,729;  886,111;   -0,091;    0,955
1096,269;  893,111;    0,727;   -0,955
1096,810; 1217,384;   -1,364;    0,500
1097,350; 1041,293;    1,364;   -0,773
1097,890;  946,657;    0,364;    1,227
1098,430; 1197,111;    2,364;    2,864
1098,970; 1058,293;    2,182;    1,682
1099,510;  913,384;    0,545;   -2,318
1100,050;  849,020;    1,000;   -1,591
1100,589;  811,929;   -0,727;   -0,318
1101,129;  948,747;    0,818;   -0,955
1101,669; 1105,747;    1,727;    2,136
1102,209;  914,929;   -0,091;    2,227
1102,748;  866,475;    0,000;    0,955
1103,288;  853,929;    1,273;   -1,227
1103,827;  890,747;    3,091;   -2,227
1104,367;  751,475;   -0,091;   -2,409
1104,906;  721,202;    1,364;   -1,136
1105,445;  795,566;    0,636;   -1,136
1105,985;  734,475;   -0,727;    1,500
1106,524;  794,838;   -1,727;   -0,682
1107,063;  753,838;   -2,727;    1,409
1107,602;  729,020;   -1,909;   -1,500
1108,141;  660,657;   -1,909;    1,500
1108,680;  769,747;   -3,455;   -0,591
1109,219;  697,384;   -0,909;   -0,500
1109,758;  691,384;    0,455;    0,682
1110,297;  672,838;    1,000;   -0,682
1110,836;  620,657;   -0,727;    0,955
1111,375;  785,747;   -2,545;    0,409
1111,913;  792,111;   -1,000;    0,773
1112,452;  732,111;   -0,273;    0,136
1112,991;  599,384;    1,091;    1,955
1113,529;  559,384;   -0,818;   -0,045
1114,068;  630,747;   -0,273;    2,955
1114,606;  540,838;   -0,364;   -0,955
1115,144;  711,838;   -1,273;    1,045
1115,683;  641,293;   -0,727;    0,318
1116,221;  691,657;   -0,455;   -0,864
1116,759;  599,475;    0,636;   -0,864
1117,297;  797,293;    0,000;    1,864
1117,836;  585,202;   -2,182;   -1,227
1118,374;  610,475;    0,182;   -0,682
1118,912;  550,747;    0,909;    2,682
1119,450;  533,929;    1,000;    0,864
1119,988;  597,293;    1,545;    2,136
1120,525; 1052,657;    5,091;    3,318
1121,063;  743,475;    1,182;    1,864
1121,601;  549,475;   -0,909;   -1,227
1122,139;  499,384;   -0,727;   -2,045
1122,676;  706,657;   -0,727;    2,773
1123,214;  635,566;   -1,182;    4,409
1123,751;  443,202;    1,727;    2,227
1124,289;  580,929;   -0,091;   -0,409
1124,826;  434,747;    1,727;    0,227
1125,364;  366,838;    1,727;   -0,955
1125,901;  559,293;    1,182;    1,227
1126,438;  677,747;    0,818;    0,955
1126,975;  395,475;   -0,727;   -0,773
1127,513;  463,020;    0,273;    2,136
1128,050;  366,747;    1,636;   -0,682
1128,587;  474,020;    2,000;   -0,227
1129,124;  524,384;    0,091;    1,318
1129,661;  382,747;    0,273;    0,227
1130,198;  540,929;    1,636;    0,773
1130,734;  494,747;    0,182;    1,409
1131,271;  346,384;   -0,909;    0,864
1131,808;  518,747;    2,909;    3,045
1132,345;  381,384;    1,545;    0,318
1132,881;  258,566;   -1,545;   -1,864
1133,418;  403,838;    0,727;   -1,136
1133,954;  338,929;    2,455;   -2,682
1134,491;  419,475;    1,364;   -0,773
1135,027;  317,929;    2,364;    0,864
1135,564;  415,475;    0,273;    2,955
1136,100;  389,838;    0,364;    2,136
1136,636;  270,747;   -1,273;   -1,045
1137,172;  372,111;    0,000;   -1,045
1137,708;  294,020;   -1,364;   -1,045
1138,245;  298,293;    1,273;   -1,227
1138,781;  241,747;    1,091;   -3,318
1139,317;  324,657;    1,273;   -1,409
1139,852;  311,202;    3,091;    0,136
1140,388;  424,657;   -1,182;   -0,409
1140,924;  304,020;   -1,091;   -2,227
1141,460;  241,657;   -1,636;    0,136
1141,996;  176,384;   -1,364;    2,682
1142,531;  220,838;    1,364;    3,318
1143,067;  452,202;    1,182;    1,045
1143,602;  510,202;   -0,091;   -0,318
1144,138;  344,657;   -2,636;    1,045
1144,673;  207,384;   -1,455;    1,409
1145,209;  275,202;   -1,909;   -0,318
1145,744;  192,202;   -0,727;    0,864
1146,279;  327,384;    1,818;   -0,136
1146,815;  244,747;    1,545;   -2,682
1147,350;  291,020;   -1,364;    0,045
1147,885;  192,384;   -0,818;   -1,318
1148,420;  196,202;   -2,273;    0,773
1148,955;  168,566;   -1,727;    1,864
1149,490;  194,020;   -0,909;   -1,591
1150,025;  186,475;    0,455;   -1,773
1150,560;  302,566;    1,091;   -0,955
1151,094;  273,838;    1,455;   -0,591
1151,629;  282,202;    1,636;    0,864
1152,164;  189,838;    1,364;    1,318
1152,698;  150,111;   -0,182;   -0,136
1153,233;  116,202;    0,091;   -0,682
1153,767;  158,747;   -3,000;   -2,318
1154,302;  208,747;   -1,455;    1,773
1154,836;  212,202;   -0,455;   -2,136
1155,371;  270,657;   -1,364;    3,682
1155,905;  219,657;   -0,636;    1,682
1156,439;  178,384;   -0,636;   -0,500
1156,973;  211,566;    0,364;    0,318
1157,507;  141,111;   -0,364;    0,682
1158,042;  174,747;   -0,727;    1,045
1158,576;  226,202;    0,182;    1,773
1159,110;  224,293;   -0,818;    2,409
1159,643;  189,384;    0,636;   -0,045
1160,177;  118,838;   -1,545;    1,500

