
Integration time [ms]:   0,040
Averaging Nr. [scans]: 11
Smoothing Nr. [pixels]: 0
Data measured with spectrometer [name]: 7318044SP
Wave   ;Sample   ;Dark     ;Reference
[nm]   ;[counts] ;[counts] ;[counts] 

186,757;   22,013;   31,551;    1,318
187,357;   64,007;   22,551;    0,955
187,958;   35,383;   15,460;   -1,591
188,558;   82,717;    8,915;   -1,227
189,159;   40,860;    6,733;   -4,500
189,759;   17,905;    7,278;   -3,591
190,360;   16,918;    2,824;   -2,136
190,960;   65,670;    2,915;   -4,136
191,560;   75,115;    3,189;   -6,591
192,161;  346,877;    4,372;   -3,500
192,761;  167,108;    4,010;   -3,227
193,361;  113,104;    1,556;   -3,773
193,962;  169,503;    2,010;   -2,682
194,562;   91,411;    1,189;   -3,955
195,162;  132,518;   -2,448;   -2,227
195,762;  303,690;   -3,176;   -0,045
196,362;  243,465;    1,370;   -2,500
196,963;   94,333;    2,006;   -0,864
197,563;  177,001;    1,551;   -0,955
198,163;  130,986;    0,096;   -0,682
198,763;  145,641;    1,733;   -0,500
199,363;  257,460;    3,096;   -0,500
199,963;  216,558;    0,369;    0,409
200,563;  178,470;    2,823;   -1,409
201,163;  160,508;    3,277;   -0,227
201,763;  264,813;    3,732;    0,318
202,363;  197,793;    1,459;    1,500
202,963;  319,137;    1,459;    1,045
203,563;  443,135;    0,277;    0,500
204,162;  265,636;    2,096;   -1,864
204,762;  255,406;    0,550;    0,591
205,362;  228,630;    3,004;    1,955
205,962;  337,678;    3,096;    1,955
206,562;  335,923;    1,823;    2,318
207,161;  303,772;   -0,087;    0,318
207,761;  479,048;    1,277;    2,409
208,361;  348,568;   -0,268;    1,409
208,960;  454,934;    0,459;    1,500
209,560;  540,077;    1,277;    1,591
210,160;  510,097;    0,550;    1,864
210,759;  470,834;    4,186;    1,227
211,359;  488,615;    1,459;    1,045
211,958;  772,677;    1,277;    2,045
212,558;  863,881;    1,732;    1,864
213,157;  684,486;    1,822;    1,500
213,757; 1165,139;    3,822;   -0,227
214,356;  857,079;    1,277;   -0,409
214,956; 1206,072;    3,095;    0,409
215,555;  808,288;    2,095;    2,136
216,154;  740,231;   -2,723;   -0,591
216,754;  761,571;    0,277;    0,773
217,353;  916,385;   -0,268;   -1,045
217,952;  755,769;   -0,178;    0,318
218,552;  995,963;    1,368;   -0,773
219,151;  902,863;    0,277;    0,955
219,750;  902,879;    0,004;   -0,227
220,349; 1066,077;   -0,451;    1,045
220,948; 1115,421;   -1,360;    1,136
221,548; 1173,802;    0,913;    1,227
222,147; 1294,324;   -0,087;   -0,409
222,746; 1578,841;   -0,451;   -0,955
223,345; 1452,990;    0,731;    0,500
223,944; 1462,463;   -0,451;    0,773
224,543; 1663,676;    1,004;   -1,409
225,142; 1766,733;    0,094;    0,136
225,741; 1681,874;   -0,814;    1,045
226,340; 1735,784;   -0,451;   -0,955
226,939; 2206,937;   -0,996;   -0,136
227,538; 2208,782;   -0,360;   -0,773
228,137; 2349,447;   -0,814;    0,864
228,735; 2547,526;   -0,541;    1,227
229,334; 2286,321;   -0,905;   -0,227
229,933; 2655,867;    0,459;    0,591
230,532; 2769,456;    1,186;   -0,409
231,131; 2816,397;    1,732;    0,318
231,729; 3019,355;   -2,450;   -2,318
232,328; 3192,740;   -0,723;   -1,500
232,927; 3283,930;    1,004;   -0,500
233,525; 3427,087;    3,640;    0,045
234,124; 3642,330;    2,368;   -1,591
234,723; 3672,969;    0,913;   -1,045
235,321; 3837,574;    2,277;    0,136
235,920; 4122,821;    1,186;   -1,227
236,518; 4380,427;    3,459;    0,318
237,117; 4614,416;    0,004;   -0,227
237,715; 4783,480;    0,640;   -0,500
238,314; 4821,490;   -0,087;   -2,318
238,912; 4903,343;   -0,723;   -1,409
239,510; 4954,296;    0,459;   -1,227
240,109; 5148,326;    0,004;    3,773
240,707; 5211,622;   -0,996;    1,227
241,305; 5580,738;    0,550;    0,136
241,904; 5866,738;   -0,178;   -2,045
242,502; 5794,681;   -0,632;   -0,227
243,100; 5748,003;   -0,087;   -0,955
243,698; 6005,885;    0,732;    1,682
244,297; 6172,060;   -0,632;    0,682
244,895; 5995,642;   -0,269;   -2,318
245,493; 6366,542;    2,186;   -0,591
246,091; 6419,734;    1,368;   -1,318
246,689; 6396,722;    1,004;    0,591
247,287; 6567,040;    0,822;   -1,136
247,885; 6868,727;   -1,451;    1,227
248,483; 6978,995;    1,822;   -0,500
249,081; 7119,185;    0,185;    1,591
249,679; 7278,446;   -0,178;    1,682
250,277; 7530,736;   -1,723;    0,864
250,875; 7539,196;   -1,087;   -1,045
251,473; 7579,280;   -1,178;    0,500
252,071; 7778,449;    1,459;    1,045
252,669; 7938,463;   -1,814;    0,318
253,267; 8227,130;   -0,087;    0,773
253,864; 8194,222;   -0,360;    0,682
254,462; 8044,510;    1,640;    1,591
255,060; 8008,179;   -0,269;    1,318
255,658; 8363,554;    0,822;   -0,136
256,255; 8802,665;    0,186;   -2,045
256,853; 8623,817;   -0,269;    1,409
257,451; 8648,337;    0,822;    1,864
258,048; 8900,824;    1,822;    1,864
258,646; 8699,317;    1,731;   -1,045
259,243; 8912,636;   -0,087;    2,227
259,841; 8927,804;   -0,814;    0,318
260,438; 8800,977;   -0,087;    0,864
261,036; 9576,924;   -1,905;    1,409
261,633; 9458,486;   -0,087;    2,227
262,231; 9198,372;    2,731;   -0,045
262,828; 9260,116;   -0,905;    1,136
263,425; 9337,438;    0,913;   -0,591
264,023; 9567,361;    0,186;    0,045
264,620; 9158,202;   -0,360;   -0,318
265,217; 9538,384;   -2,087;    3,136
265,815; 9630,616;   -1,905;    2,136
266,412; 9410,861;    0,731;    0,136
267,009; 9448,053;   -1,451;    0,773
267,606; 9312,226;    0,822;   -0,955
268,203; 9326,186;   -0,269;   -0,591
268,801; 9648,849;    1,731;    0,591
269,398; 9939,977;   -0,360;    2,500
269,995; 9921,570;    0,277;    1,591
270,592; 9692,901;   -0,632;   -0,500
271,189; 9891,830;    0,186;    0,409
271,786;10050,483;   -0,632;    1,227
272,383; 9849,765;   -1,087;    0,227
272,980;10039,678;    0,277;    0,318
273,577;10585,489;    0,004;    1,227
274,174;10173,297;    0,822;    2,591
274,771;10139,372;   -0,814;   -0,773
275,367;10257,841;    2,277;    1,409
275,964;10225,776;    0,731;   -0,500
276,561;10324,680;    1,549;   -1,045
277,158;10569,264;    0,095;   -1,773
277,755;10715,185;    2,185;    0,409
278,351;10086,487;   -0,451;   -1,500
278,948;10404,048;   -0,815;    0,045
279,545;10451,853;   -1,360;    2,318
280,141;11108,745;   -1,723;   -2,045
280,738;11001,076;   -0,451;   -0,136
281,334;11291,341;   -1,633;    0,591
281,931;10631,962;   -0,087;   -1,318
282,528;10693,483;    0,822;   -0,500
283,124;11463,964;   -1,087;   -0,500
283,721;11387,461;   -0,451;    1,409
284,317;11219,314;    0,185;    2,500
284,913;11759,268;   -1,360;    0,591
285,510;11941,177;    0,640;   -0,318
286,106;12042,174;   -2,269;   -0,955
286,703;11646,889;   -0,360;    1,955
287,299;11819,713;   -1,451;   -0,591
287,895;12031,055;    0,822;   -1,045
288,491;12664,159;    0,186;    2,136
289,088;12373,593;   -2,360;    2,409
289,684;12402,736;   -1,723;    1,500
290,280;12421,892;    0,368;    0,682
290,876;12564,884;    1,822;    5,500
291,472;12424,207;    1,276;    2,227
292,068;12528,106;    1,367;    0,227
292,665;12222,077;    2,095;    0,773
293,261;11807,580;    0,276;    2,136
293,857;12263,596;    2,913;    2,136
294,453;12211,583;    3,550;    0,955
295,049;12097,833;   -0,268;    1,955
295,644;12058,486;    0,095;    0,136
296,240;12010,982;   -0,905;   -0,136
296,836;12073,819;   -0,995;    0,318
297,432;12362,008;    1,096;   -0,500
298,028;12405,622;    0,732;    0,773
298,624;12836,035;    1,459;    1,864
299,220;13109,442;    2,368;    0,591
299,815;12805,650;    1,005;   -0,409
300,411;12566,560;    0,914;    1,773
301,007;12557,587;    1,368;    0,227
301,602;12632,717;   -0,541;   -2,318
302,198;12810,198;    0,732;   -0,773
302,794;13159,828;    1,187;   -0,500
303,389;13295,954;   -1,177;    1,045
303,985;13368,590;    0,550;    1,409
304,580;13363,816;    1,459;    1,591
305,176;13313,162;   -3,086;    0,136
305,771;13248,300;   -1,268;   -1,227
306,367;13097,256;    4,095;    0,136
306,962;13444,989;    0,641;    1,500
307,558;13178,194;   -0,450;    0,136
308,153;13141,901;    1,095;   -1,136
308,748;13418,524;   -0,814;    1,682
309,344;13404,018;   -0,632;   -1,318
309,939;13498,220;   -1,905;   -1,318
310,534;13752,483;   -0,086;   -1,682
311,130;13692,968;    0,459;   -2,500
311,725;13437,606;    1,004;   -0,500
312,320;13771,069;    2,459;    0,045
312,915;13626,585;    1,459;   -1,045
313,510;13705,379;    1,550;   -0,500
314,105;14235,088;    1,096;    1,409
314,700;13584,726;   -3,086;   -1,045
315,295;13160,089;   -0,904;    0,045
315,890;12685,512;    1,277;    0,864
316,485;13068,993;   -0,359;   -0,318
317,080;13182,376;   -3,086;    1,591
317,675;13742,535;    2,005;   -0,682
318,270;13123,347;    5,550;    3,318
318,865;13124,336;    3,278;    3,045
319,460;12994,137;   -0,904;    0,591
320,055;13246,197;   -0,541;   -1,227
320,650;12878,378;   -1,995;   -0,591
321,244;12910,982;   -0,177;   -1,409
321,839;13925,215;   -1,541;   -0,227
322,434;13842,978;   -1,086;   -1,591
323,029;13413,076;    1,732;    1,591
323,623;13244,343;    1,550;    0,773
324,218;12992,540;    2,368;    1,409
324,812;12917,749;    1,096;    1,591
325,407;12711,410;   -0,814;    2,045
326,002;12663,399;    0,277;   -0,409
326,596;12959,418;    0,914;    1,318
327,191;13172,250;    0,823;   -1,045
327,785;12718,782;   -0,813;   -0,227
328,379;12930,375;    1,368;    0,136
328,974;12812,591;    0,914;   -3,955
329,568;13004,794;    0,186;   -2,409
330,163;12817,224;    2,096;    1,045
330,757;13166,903;    2,459;    1,591
331,351;12485,718;    0,459;    0,682
331,945;12773,271;    0,914;    1,409
332,540;12379,457;   -1,723;   -0,591
333,134;12534,710;   -1,086;    0,773
333,728;12837,969;    0,005;    0,318
334,322;13179,477;   -1,177;   -0,864
334,916;12415,348;    0,277;    0,955
335,510;12770,184;   -0,450;   -0,136
336,105;13027,432;   -1,086;    1,591
336,699;12709,037;   -1,086;    0,591
337,293;12634,018;   -1,723;    0,318
337,887;12816,649;   -2,723;    1,955
338,481;12899,389;    0,459;    0,591
339,074;13081,610;   -0,359;    2,682
339,668;12875,063;   -1,632;    1,227
340,262;13111,119;    1,732;    3,227
340,856;12626,066;    1,822;   -0,682
341,450;11996,955;    1,004;    1,864
342,044;12930,291;    1,459;    0,136
342,637;12693,780;    0,913;   -2,136
343,231;12548,951;   -2,360;    0,682
343,825;12502,390;   -1,086;   -0,591
344,419;12456,886;   -1,995;    0,500
345,012;12199,270;    2,459;    4,045
345,606;12227,803;    4,641;    1,591
346,199;12047,141;   -1,813;   -0,227
346,793;11551,595;    1,914;    2,045
347,386;11730,794;   -0,813;   -1,136
347,980;11779,490;   -0,268;   -0,045
348,573;11502,361;    2,278;    0,409
349,167;11158,482;    5,278;    4,773
349,760;11513,540;    2,914;    2,682
350,354;11505,666;   -0,813;    1,136
350,947;11239,943;    1,096;    1,682
351,540;10911,863;   -0,358;   -1,409
352,134;10839,301;    1,096;    1,136
352,727;10899,432;   -0,086;    1,136
353,320;10668,393;    0,005;    0,591
353,913;10512,951;   -1,995;    1,864
354,507;10726,100;    0,823;   -1,227
355,100;10712,667;    0,460;    0,864
355,693; 9905,693;    2,005;    2,409
356,286; 9955,380;    0,823;    2,773
356,879;10328,654;   -0,722;    1,227
357,472; 9932,086;   -0,904;    1,500
358,065;10113,685;   -0,722;    2,500
358,658;10029,915;   -0,540;    2,318
359,251; 9655,211;   -1,631;   -0,591
359,844; 9111,287;   -1,904;   -1,136
360,437; 9290,292;   -2,995;    0,045
361,030; 9558,995;    1,369;   -0,682
361,623; 9126,534;    2,824;    0,318
362,215; 9199,957;   -0,086;    2,045
362,808; 9014,208;   -2,358;   -1,682
363,401; 9224,680;   -2,449;    0,136
363,994; 8960,087;   -0,631;   -1,500
364,586; 8841,786;    0,824;   -1,500
365,179; 9065,520;   -0,449;   -1,136
365,772; 8531,365;   -1,995;    2,045
366,364; 8875,852;    1,915;   -3,227
366,957; 9032,592;    2,279;   -0,045
367,549; 9072,215;    2,188;   -0,864
368,142; 8718,562;    1,825;   -1,500
368,734; 8912,289;    0,734;   -2,136
369,327; 8860,069;    1,643;   -0,500
369,919; 8760,380;   -1,538;    0,409
370,512; 8531,131;   -1,083;   -0,500
371,104; 8291,738;   -0,901;    1,591
371,696; 8451,136;    1,191;   -0,955
372,289; 8591,554;    0,373;    1,136
372,881; 8729,666;   -2,080;    1,318
373,473; 8657,680;   -2,170;    1,136
374,066; 8462,029;   -0,169;    0,500
374,658; 8285,388;    0,378;    1,136
375,250; 8675,966;    0,653;   -1,409
375,842; 8528,663;    0,473;   -0,045
376,434; 8408,655;   -0,435;   -0,409
377,026; 9034,665;    0,204;   -2,500
377,618; 8921,747;   -0,158;   -0,682
378,210; 8718,891;   -0,338;   -1,955
378,802; 8590,379;    0,754;   -0,591
379,394; 8557,078;    1,846;    0,682
379,986; 9177,364;    1,393;   -0,955
380,578; 9266,460;   -0,153;    0,773
381,170; 8572,435;   -0,972;    0,045
381,762; 8521,384;    0,755;    1,409
382,354; 8773,855;   -0,065;   -1,318
382,945; 8888,486;   -2,976;    0,318
383,537; 9058,769;   -2,705;   -1,955
384,129; 9050,372;   -2,160;   -1,136
384,721; 9242,907;   -0,252;    0,955
385,312; 9174,666;   -0,161;   -0,955
385,904; 9252,921;   -2,706;    1,591
386,496; 8604,436;   -0,979;    1,045
387,087; 8742,002;    1,022;    2,500
387,679; 8786,394;   -1,160;    0,045
388,270; 8938,764;    2,840;    2,045
388,862; 9078,892;    1,295;   -0,318
389,453; 8990,322;   -0,887;    1,045
390,045; 9258,742;   -0,705;   -2,682
390,636; 9189,123;    0,204;   -0,591
391,227; 9048,335;   -0,523;   -0,045
391,819; 9128,168;    0,204;    0,773
392,410; 9236,412;    1,022;    0,045
393,001; 9178,359;   -0,979;   -1,591
393,593; 9476,022;    1,930;   -0,045
394,184; 9325,110;    1,385;   -0,409
394,775; 9248,701;    1,839;    2,136
395,366; 9459,795;    1,385;    0,773
395,957; 9490,651;    0,113;    0,136
396,548; 9808,134;   -0,342;    2,682
397,139;10153,398;   -2,433;    0,591
397,730; 9860,556;   -1,888;    0,955
398,321; 9915,016;   -1,252;    0,955
398,912; 9966,597;   -0,615;    0,136
399,503;10014,972;   -3,524;   -1,409
400,094; 9394,282;    0,294;    1,682
400,685; 9255,458;   -0,433;    0,045
401,276; 9375,184;    0,930;   -0,955
401,867; 9737,131;   -0,888;    0,773
402,458; 9805,581;   -2,251;   -2,318
403,048; 9804,667;    1,112;    0,591
403,639; 9352,853;    0,840;    0,864
404,230; 9595,269;    2,476;    0,318
404,821; 9523,881;   -0,615;    0,045
405,411; 9686,396;    1,203;   -2,591
406,002; 9257,269;   -1,252;   -1,136
406,592; 9060,923;    2,294;    0,045
407,183; 9365,612;    0,566;   -1,500
407,774; 9327,518;    3,475;   -0,136
408,364; 9684,834;    0,930;    0,409
408,954; 9259,927;    0,384;    1,227
409,545; 9299,983;    1,021;    1,045
410,135; 8845,762;    1,293;    0,500
410,726; 9014,921;    1,838;    0,318
411,316; 9390,833;    0,111;    0,773
411,906; 9053,304;   -0,253;   -0,409
412,497; 8503,728;   -1,070;   -0,045
413,087; 9152,001;   -1,980;   -0,227
413,677; 9564,319;   -0,707;    3,864
414,267; 9403,965;    0,656;    1,409
414,857; 9418,853;   -2,980;    4,227
415,448; 9725,548;    0,839;    0,500
416,038; 9355,004;    0,020;   -0,591
416,628; 9331,647;   -0,889;    0,409
417,218; 8748,321;    0,565;    3,318
417,808; 9058,299;    0,202;   -0,409
418,398; 9598,436;    0,020;    2,682
418,988; 9613,823;    2,020;    0,591
419,578; 9901,172;   -0,707;    1,409
420,168;10244,509;   -1,343;   -0,955
420,757; 9766,582;   -1,343;   -1,500
421,347; 9437,260;    0,111;   -0,227
421,937; 9653,896;    2,292;    1,409
422,527; 9611,410;    0,838;   -0,773
423,116; 9402,186;   -0,253;   -0,045
423,706; 9785,939;   -1,889;    0,318
424,296; 9769,097;    1,384;    0,682
424,885;10191,552;   -0,071;   -3,045
425,475;10479,816;    1,474;   -2,864
426,065;10398,100;   -0,980;   -0,318
426,654;10004,462;   -0,435;   -0,318
427,244;10154,806;    0,020;    1,409
427,833; 9574,270;    1,383;   -0,500
428,423;10076,300;   -0,526;    1,136
429,012;10894,885;   -0,344;   -1,136
429,601;10323,354;   -1,344;    0,136
430,191;10585,724;    1,292;    4,318
430,780;10226,016;   -0,344;   -0,409
431,369;10113,639;    0,746;   -0,045
431,959;10780,731;   -1,254;    0,500
432,548;10590,709;   -1,163;   -0,045
433,137;10760,211;   -1,254;   -1,318
433,726;11287,562;    0,292;    0,500
434,315;10624,177;   -0,526;    2,409
434,905;10700,493;   -1,254;    1,409
435,494;10557,841;    0,746;    0,955
436,083;11077,040;   -0,981;   -0,955
436,672;10937,633;    0,110;    0,500
437,261;10462,763;    0,292;   -1,955
437,850;10604,977;    1,383;    0,682
438,439;10598,644;    3,291;    1,955
439,027;10408,737;    3,655;    1,773
439,616;10799,184;    2,927;    1,227
440,205;10669,203;    0,200;   -2,136
440,794;10831,151;    2,109;   -0,045
441,383;11104,497;   -1,346;   -0,591
441,971;10948,087;   -2,436;    0,591
442,560;10781,309;    0,563;   -1,773
443,149;10535,517;    0,379;   -1,318
443,737;10699,677;   -0,074;   -2,318
444,326;10961,525;    0,018;    0,318
444,915;11012,956;   -1,982;    0,864
445,503;11469,738;   -2,891;   -0,318
446,092;10668,558;    0,382;    2,136
446,680;11238,459;    0,382;    0,318
447,269;11426,710;   -0,346;   -0,318
447,857;11212,578;    0,018;   -1,773
448,445;11332,966;    0,563;    1,318
449,034;11546,840;   -1,528;   -1,136
449,622;11680,306;   -1,073;    3,500
450,210;10831,350;    2,017;    2,227
450,799;11403,340;    0,290;   -0,591
451,387;11376,194;    1,381;   -0,591
451,975;10973,339;    2,654;    0,864
452,563;11056,097;    3,472;    2,318
453,151;11116,251;   -0,528;   -1,227
453,739;11063,055;   -1,347;    0,136
454,328;10876,507;    2,381;   -2,136
454,916;10532,453;    2,562;   -0,136
455,504;10757,041;    1,017;    1,227
456,092;10945,470;    0,017;   -1,591
456,679;10924,289;    1,472;    0,682
457,267;10840,702;    4,017;    1,045
457,855;11049,171;    1,017;    1,409
458,443;10817,449;   -0,165;    1,682
459,031;10943,820;    0,108;    2,409
459,619;11394,363;   -1,801;    2,864
460,206;11551,774;    0,835;    2,045
460,794;11623,970;   -2,983;   -0,227
461,382;11886,897;   -0,529;   -0,864
461,970;11467,647;    1,198;    1,864
462,557;11474,295;   -0,711;   -0,682
463,145;11692,951;   -3,165;   -1,682
463,732;11839,958;    2,016;   -1,045
464,320;11794,816;   -0,075;   -3,045
464,907;11427,496;    2,743;   -0,773
465,495;11303,563;    0,743;   -1,227
466,082;11509,452;   -1,984;   -0,045
466,670;11391,407;   -2,529;    1,227
467,257;11812,977;   -1,711;    2,045
467,844;11960,934;   -0,075;    0,045
468,432;12002,105;    0,834;    3,500
469,019;11454,032;    0,925;   -1,773
469,606;11948,267;    0,470;    3,682
470,193;11777,377;   -1,439;    0,227
470,780;11299,552;   -2,075;    0,864
471,368;11665,340;   -1,257;   -0,773
471,955;11436,872;    1,379;   -0,682
472,542;11042,390;    0,652;   -1,136
473,129;11297,090;   -0,166;    0,136
473,716;10988,520;    1,470;    0,591
474,303;11231,088;    0,652;   -0,864
474,890;11560,940;   -1,439;   -0,500
475,477;11570,329;   -1,621;    0,409
476,064;11461,210;    1,106;   -1,591
476,650;11417,091;    0,288;    0,318
477,237;11267,909;   -0,258;    0,955
477,824;11414,467;   -1,076;    0,864
478,411;11463,330;   -1,894;   -0,318
478,997;11687,323;    0,560;   -0,773
479,584;11765,728;    1,196;   -0,409
480,171;12508,316;   -0,440;   -0,773
480,757;12119,754;    2,651;    0,773
481,344;12457,123;    0,469;    0,409
481,931;11974,027;    1,105;    1,045
482,517;13049,361;   -1,258;    0,318
483,104;13781,239;    1,106;    2,864
483,690;14116,819;   -1,804;    0,045
484,276;14516,381;   -0,895;    0,227
484,863;14218,321;    2,469;    1,136
485,449;14917,135;   -0,077;    0,318
486,035;14906,761;   -1,986;   -0,136
486,622;15366,881;   -0,895;    0,045
487,208;15337,191;    1,378;    1,500
487,794;15142,081;    0,741;    0,318
488,380;15215,265;    0,105;   -1,409
488,967;15310,080;   -1,168;   -0,409
489,553;15350,293;   -1,895;   -1,409
490,139;15584,827;    1,559;    0,773
490,725;14959,521;    0,741;   -0,227
491,311;14438,611;    3,287;    3,045
491,897;13670,191;   -0,986;    1,500
492,483;13397,864;    0,105;    1,227
493,069;13116,294;    3,923;    0,864
493,655;13151,458;    1,650;    0,682
494,241;13055,729;    1,377;   -0,955
494,826;13470,463;    0,287;   -1,045
495,412;12906,134;    2,559;   -0,682
495,998;13058,724;   -0,805;   -0,318
496,584;13243,699;    0,377;    1,045
497,169;13268,246;    1,014;   -0,682
497,755;13190,447;    0,650;    1,227
498,341;13775,508;    0,559;    0,318
498,926;13337,659;    1,832;    1,955
499,512;13560,062;    1,286;    2,955
500,097;13716,487;    0,195;   -0,318
500,683;13647,984;   -0,350;    2,136
501,268;13995,132;   -0,169;   -0,955
501,854;13675,055;   -0,169;    1,227
502,439;13606,561;   -0,624;   -1,773
503,024;13856,114;    0,195;    0,500
503,610;13940,659;   -0,078;   -0,682
504,195;13943,002;    0,558;    1,955
504,780;14090,179;    2,922;    1,227
505,366;13874,018;    3,013;    2,864
505,951;13609,726;    0,740;    1,045
506,536;13621,600;   -3,260;   -3,682
507,121;13604,404;    0,285;   -0,318
507,706;14123,348;    2,376;    1,045
508,291;14563,010;    2,649;    1,136
508,876;14034,045;   -0,988;    2,591
509,461;13451,347;   -0,169;   -0,773
510,046;13875,699;    0,194;    0,318
510,631;14145,229;   -0,351;   -0,773
511,216;13818,902;    2,467;   -0,500
511,801;14145,327;   -0,442;    2,591
512,386;14510,015;    0,740;    0,500
512,971;14423,157;   -2,988;    0,955
513,555;13955,358;   -0,897;   -1,500
514,140;14786,473;   -0,442;   -3,136
514,725;14774,991;   -0,715;   -1,136
515,309;14921,103;   -0,533;    0,318
515,894;14336,694;   -0,624;   -2,227
516,479;14823,446;   -0,624;   -0,955
517,063;14681,615;    0,376;    1,227
517,648;14782,661;    1,012;   -1,136
518,232;14449,626;   -0,261;   -1,409
518,817;14797,524;   -0,079;    1,682
519,401;15004,512;    2,194;    0,591
519,985;14491,146;    1,103;    1,136
520,570;14389,934;    0,830;   -1,955
521,154;14709,335;    2,102;    0,591
521,738;14877,841;   -2,352;    2,409
522,323;15467,356;   -0,170;    1,682
522,907;15220,954;    0,466;   -0,136
523,491;14903,716;    0,557;    0,955
524,075;14946,978;    2,284;    0,591
524,659;14994,179;    1,466;    0,591
525,243;14410,986;    1,739;    0,409
525,827;14696,682;    0,648;   -0,045
526,411;15590,997;   -1,989;   -0,136
526,995;15798,806;   -0,352;    1,409
527,579;15400,325;   -0,443;   -1,045
528,163;15729,363;    0,375;   -1,500
528,747;15585,850;    2,466;   -0,773
529,331;15967,099;   -0,080;   -1,409
529,915;16173,875;    1,738;    0,955
530,499;16126,931;   -0,807;    1,227
531,082;15846,665;   -0,534;    1,591
531,666;15253,698;    1,374;    0,773
532,250;15958,476;    1,284;    2,682
532,833;16298,424;    0,920;    2,773
533,417;16148,118;   -1,807;    0,864
534,001;16176,463;    1,647;   -0,318
534,584;16869,195;    0,374;    0,500
535,168;16738,081;    0,465;    1,409
535,751;16778,471;    0,647;    0,045
536,334;16234,939;   -0,898;   -0,409
536,918;16809,665;    0,011;    1,591
537,501;16936,828;   -0,899;    1,318
538,085;16944,636;   -0,444;    1,045
538,668;17190,079;    0,829;    2,409
539,251;17487,068;    1,829;    3,773
539,834;17458,931;    0,101;    0,773
540,418;17396,562;   -1,990;    4,318
541,001;17571,890;   -0,990;    1,773
541,584;17530,218;    2,101;    2,227
542,167;17230,461;    1,374;    2,955
542,750;17411,418;    1,919;   -0,773
543,333;17015,766;    0,555;    2,136
543,916;17797,090;    0,192;    2,500
544,499;18468,354;   -1,354;    0,227
545,082;18470,991;    1,374;    3,591
545,665;18577,478;    1,919;    1,500
546,248;18974,947;    1,010;   -0,318
546,830;18650,492;   -0,445;    1,955
547,413;19076,269;    1,010;   -0,773
547,996;19630,204;    0,555;    0,500
548,579;19443,094;    0,919;    0,955
549,161;19210,004;    1,828;    2,682
549,744;18998,257;   -0,809;    0,409
550,326;19502,644;   -0,809;   -1,136
550,909;19283,499;    2,737;    0,591
551,492;19656,120;   -0,263;    0,227
552,074;19483,626;   -0,173;   -1,318
552,657;20086,876;    2,373;    0,045
553,239;19759,116;   -0,173;   -0,773
553,821;19627,975;   -1,082;    1,045
554,404;19179,921;    1,282;    1,136
554,986;19581,333;    0,464;    1,045
555,568;20248,845;    1,191;   -0,955
556,151;19394,744;    1,191;   -0,227
556,733;19599,275;   -0,264;   -0,864
557,315;20147,828;    0,100;    0,500
557,897;19929,747;    0,554;   -0,500
558,479;20025,895;   -1,991;    1,318
559,061;20187,334;   -0,719;   -0,864
559,643;20535,865;   -0,264;    0,045
560,225;20928,482;    1,645;    2,864
560,807;20990,592;    0,918;    0,318
561,389;20428,718;    0,554;    2,318
561,971;21239,613;    0,463;    2,136
562,553;21022,834;   -1,628;    1,591
563,135;21176,833;   -0,537;    1,136
563,717;20794,878;    3,372;    1,136
564,298;21505,574;    3,645;   -0,045
564,880;21251,674;    0,645;   -1,409
565,462;21439,310;    0,645;    1,318
566,043;22684,962;   -0,446;    2,318
566,625;22257,224;    1,918;    1,227
567,207;22100,887;    1,099;    1,682
567,788;23330,399;   -1,264;    1,500
568,370;24217,473;    1,917;   -0,500
568,951;24095,082;    0,190;    0,227
569,533;25035,089;   -0,628;   -0,500
570,114;25525,283;   -0,446;    0,682
570,695;26110,189;   -0,174;   -1,318
571,277;26669,964;   -0,265;   -1,682
571,858;27506,337;    2,008;   -1,136
572,439;28478,880;    1,554;   -1,045
573,021;28699,982;    2,099;   -2,773
573,602;29266,104;   -1,265;    0,318
574,183;30304,584;   -2,083;    2,227
574,764;30525,061;   -1,629;    0,409
575,345;31125,188;    0,917;   -0,136
575,926;31766,081;   -0,356;    0,136
576,507;31734,638;    1,099;   -0,227
577,088;32952,059;    3,099;    1,682
577,669;32973,790;    0,735;    1,955
578,250;33810,766;    0,644;   -1,045
578,831;34567,398;   -1,356;   -2,227
579,412;34883,233;   -0,810;    0,955
579,993;35776,052;    1,008;    0,227
580,573;36129,371;   -0,629;   -0,955
581,154;35137,108;    0,735;   -0,591
581,735;35991,562;    0,644;    0,773
582,315;35561,562;   -0,629;    2,136
582,896;35787,243;   -0,174;    1,227
583,477;35192,066;    0,189;    1,227
584,057;35395,200;    0,553;    0,955
584,638;35709,688;    2,553;    2,318
585,218;35686,722;   -0,538;    2,682
585,799;35840,027;    0,281;   -0,227
586,379;35805,240;    0,372;    1,591
586,959;34454,198;    0,735;    0,318
587,540;33677,625;   -0,629;    2,227
588,120;33155,892;    1,007;   -0,045
588,700;32024,387;    2,553;    2,136
589,281;32341,030;    0,462;   -0,955
589,861;32349,497;    0,099;   -1,682
590,441;32110,235;    2,371;   -2,682
591,021;31061,131;   -0,265;   -2,591
591,601;31255,557;   -0,537;    0,500
592,181;31218,363;   -0,719;   -0,773
592,761;30471,468;    0,007;    1,409
593,341;30357,970;   -0,901;    0,045
593,921;30355,933;   -0,265;    1,591
594,501;30232,869;   -0,538;    1,318
595,081;30058,672;    0,917;   -0,318
595,661;30441,219;   -1,447;    0,955
596,240;31009,864;   -0,537;    0,136
596,820;30664,224;    0,372;    1,955
597,400;30870,401;    2,008;    0,773
597,980;31069,896;    2,008;    1,045
598,559;31050,366;    2,735;   -0,227
599,139;30725,617;   -0,174;   -1,227
599,718;30639,435;   -0,174;   -0,409
600,298;30926,855;    0,735;    0,682
600,877;31135,840;    2,917;    1,409
601,457;31372,563;    2,281;    1,136
602,036;31345,636;    0,190;    2,045
602,616;31551,703;    0,644;    1,682
603,195;31924,097;   -0,355;    3,500
603,774;31478,314;   -0,901;    2,045
604,354;31327,576;    0,826;   -0,500
604,933;30760,795;    0,463;    1,864
605,512;30856,668;    3,554;    0,591
606,091;30908,891;   -0,537;    3,773
606,671;31767,814;    0,281;    0,773
607,250;30826,655;    1,644;    3,136
607,829;31039,389;    2,372;    3,227
608,408;30967,743;    1,190;    2,591
608,987;29880,748;    1,281;    3,409
609,566;30169,049;   -1,265;   -2,500
610,145;30297,487;   -1,082;    0,682
610,723;30681,386;    4,372;    6,864
611,302;29940,280;   -0,446;    1,682
611,881;29422,736;    5,008;   11,227
612,460;30227,373;    1,645;    3,955
613,039;30684,630;   -0,082;    2,045
613,617;29332,560;    1,736;    4,773
614,196;29578,953;    1,099;    1,227
614,775;29918,755;    1,009;    2,409
615,353;29804,138;    0,736;    0,864
615,932;29505,503;    0,100;    2,409
616,510;30123,652;    0,554;    0,591
617,089;29599,503;    7,100;   17,591
617,667;29349,514;    2,372;    6,136
618,246;29192,773;   -1,537;    1,318
618,824;29380,876;   -3,355;   -0,955
619,402;28899,433;   -2,900;   -1,773
619,981;29431,464;   -0,173;   -1,045
620,559;29181,781;    0,009;    1,682
621,137;28654,452;   -0,718;    1,864
621,715;28711,624;   -1,173;   -0,682
622,293;28602,316;   -0,537;   -0,773
622,871;29084,100;   -0,718;    0,500
623,450;28733,107;    0,373;   -0,864
624,028;28585,621;    0,191;   -0,955
624,606;28165,710;   -1,718;    1,682
625,183;28581,150;   -1,536;   -1,136
625,761;28154,229;    1,009;    1,136
626,339;28487,734;    1,373;    2,591
626,917;28875,350;   -0,172;   -0,045
627,495;28897,419;   -0,354;    1,318
628,073;28324,552;   -0,263;    2,864
628,650;27997,159;    0,100;    2,136
629,228;28446,458;    0,373;    4,409
629,806;27865,273;    2,282;    1,136
630,383;28040,588;    1,464;   -0,318
630,961;27828,489;    2,555;   -0,955
631,539;27587,258;    2,464;    0,227
632,116;26869,398;   11,373;   15,409
632,694;27463,975;    2,555;    6,500
633,271;27827,729;    0,828;    2,682
633,848;27780,800;    1,828;    2,045
634,426;27781,943;   -1,081;    1,773
635,003;26799,855;    1,101;   -0,409
635,580;27126,900;    1,192;    3,682
636,158;27771,826;    3,737;    1,227
636,735;27714,218;    0,555;   -0,500
637,312;27886,279;   -0,809;   -0,682
637,889;28001,033;   -4,354;   -0,682
638,466;27427,376;   -3,990;   -0,409
639,043;27421,438;    2,101;   -1,136
639,620;27761,029;   -2,262;   -0,955
640,197;28098,657;    1,100;    1,682
640,774;28233,095;   -0,172;    1,136
641,351;28618,351;    0,737;    1,136
641,928;28038,243;   -0,627;    1,409
642,505;27716,681;    0,828;   -0,500
643,082;27844,210;   -1,718;    1,227
643,658;26776,829;   -0,718;    1,500
644,235;27566,449;    1,191;    2,500
644,812;27892,159;    1,918;    0,773
645,388;27618,052;   -0,991;    1,409
645,965;27685,398;   -0,809;    1,682
646,542;27781,563;   -1,445;   -0,227
647,118;27747,819;    1,009;   -0,955
647,695;28125,803;   -0,263;    1,136
648,271;27937,604;   -0,536;    0,500
648,848;28303,406;    0,736;    2,227
649,424;28142,298;    0,827;    1,318
650,000;27940,463;   -0,354;   -1,045
650,577;27672,446;   -0,627;   -0,955
651,153;28176,520;   -1,809;    0,955
651,729;29226,231;    1,191;    0,864
652,305;29716,123;    0,645;    2,773
652,881;35155,288;   -0,082;    1,136
653,458;42676,271;    1,100;    0,227
654,034;46733,618;    0,282;    1,591
654,610;48268,965;    0,554;    0,773
655,186;49611,221;    0,645;    3,045
655,762;49374,750;   -0,991;    0,409
656,338;49397,733;    0,100;    0,136
656,913;50406,535;   -0,082;    0,409
657,489;49623,881;    0,827;   -0,318
658,065;49562,319;   -0,173;   -1,591
658,641;50310,393;   -0,900;   -0,864
659,217;49601,013;   -0,991;    0,409
659,792;48964,633;    0,645;   -0,409
660,368;49227,161;   -2,173;   -0,682
660,944;48610,508;   -2,082;    1,227
661,519;42998,582;   -0,628;    0,409
662,095;36243,747;   -1,719;    0,591
662,670;31336,821;    1,281;   -0,136
663,246;30151,259;    1,009;   -0,409
663,821;29511,606;    0,281;    1,682
664,396;29006,953;    0,009;    1,864
664,972;29276,482;    0,009;   -0,500
665,547;29600,010;    1,372;    0,136
666,122;29656,630;   -1,082;    0,318
666,698;29945,613;   -0,173;    0,318
667,273;29305,687;   -0,173;    0,136
667,848;30134,943;    2,372;    1,500
668,423;29931,836;    2,190;    2,318
668,998;30547,637;    2,827;   -0,682
669,573;31136,984;   -3,264;   -1,500
670,148;30959,422;   -1,446;   -0,682
670,723;30744,132;   -1,810;    0,318
671,298;31148,661;    2,372;    1,045
671,873;31305,553;   -0,082;   -0,136
672,448;31272,627;    0,645;    0,136
673,023;31578,156;   -1,992;   -0,227
673,597;31884,321;    0,827;    2,318
674,172;31622,759;   -0,355;    0,318
674,747;31088,379;    0,372;   -1,045
675,321;30957,362;   -0,628;    3,318
675,896;30510,890;    0,645;    1,045
676,471;31568,783;    2,645;    1,591
677,045;31339,857;   -1,264;    0,682
677,620;31419,295;    0,190;    1,136
678,194;31699,551;   -2,628;    1,136
678,769;31292,534;   -1,083;   -0,318
679,343;31541,790;   -0,628;    1,773
679,917;31430,591;   -1,446;    1,955
680,492;31531,575;    0,826;    3,227
681,066;31636,285;    3,372;    0,409
681,640;31654,450;    1,463;   -0,318
682,214;32521,615;    0,735;    0,500
682,788;32020,598;   -1,356;   -0,773
683,363;32044,218;   -1,810;    1,682
683,937;31729,747;   -1,719;   -0,318
684,511;32484,639;    0,463;   -0,591
685,085;32205,622;   -1,356;    0,318
685,659;31892,878;   -2,538;    0,864
686,232;32185,589;   -0,356;   -0,318
686,806;31867,390;   -0,901;    0,409
687,380;32601,646;   -0,174;    0,591
687,954;32796,357;   -1,174;    1,136
688,528;32464,885;   -0,719;    1,955
689,101;33243,323;   -3,992;    1,045
689,675;32857,852;   -0,356;   -0,136
690,249;32235,926;   -0,719;    0,409
690,822;32529,818;    0,280;    0,318
691,396;32646,892;   -0,265;    1,227
691,969;32050,876;    1,280;    0,136
692,543;32490,404;   -0,447;   -1,955
693,116;32146,842;   -0,265;   -1,409
693,690;32036,007;    0,099;    0,500
694,263;32547,627;   -1,083;    2,955
694,836;32624,610;    1,371;    3,591
695,410;31288,048;   -0,265;    1,773
695,983;31749,395;    0,189;    0,591
696,556;31683,196;   -0,447;   -1,045
697,129;32090,907;   -0,356;    1,409
697,703;31767,163;   -1,629;    1,955
698,276;31695,509;    1,462;   -0,773
698,849;31514,947;    1,280;    1,409
699,422;31869,294;   -1,083;    0,591
699,995;31579,550;    0,007;    0,136
700,568;32083,352;   -0,629;    3,045
701,140;32067,698;   -2,811;    1,682
701,713;31752,136;   -0,174;    2,409
702,286;31529,938;   -0,538;    0,864
702,859;31411,921;   -0,902;   -0,591
703,432;30505,450;    0,825;    0,682
704,004;31000,887;    0,462;    0,318
704,577;30889,961;   -0,629;    0,136
705,150;31462,763;    0,189;    2,500
705,722;31226,564;   -0,356;   -3,227
706,295;31005,275;   -0,175;   -0,591
706,867;30919,713;   -0,175;    1,955
707,440;31136,150;   -1,720;   -0,409
708,012;31397,679;    0,462;    0,591
708,584;31343,026;    2,462;    0,227
709,157;31577,646;    1,825;   -0,591
709,729;31258,356;    2,280;    2,045
710,301;32126,521;    0,734;    0,045
710,874;32159,232;   -1,447;   -0,227
711,446;31022,669;    0,371;    0,864
712,018;30908,198;    0,098;    0,500
712,590;30602,181;   -1,993;    1,682
713,162;31161,710;    0,825;    1,318
713,734;31401,148;    1,825;   -2,045
714,306;31250,131;   -1,902;   -0,409
714,878;29937,114;    0,825;    0,864
715,450;30747,643;    0,643;    0,864
716,022;30995,535;    1,552;    1,318
716,593;31150,791;    0,189;    0,591
717,165;31132,138;   -3,175;   -1,227
717,737;30830,121;    0,280;    0,409
718,309;30465,377;    0,280;   -0,045
718,880;30413,270;   -0,539;   -1,409
719,452;30586,980;   -0,175;   -1,591
720,024;30126,145;    0,734;   -0,591
720,595;30710,674;   -2,902;    0,955
721,167;30246,748;    0,370;   -2,045
721,738;29753,731;   -0,812;   -1,045
722,309;29753,533;   -0,993;   -1,227
722,881;29535,425;   -1,357;    0,773
723,452;30231,227;   -2,630;    2,864
724,023;30424,482;   -0,721;    2,682
724,595;30127,375;    0,007;    0,682
725,166;29859,176;    0,007;   -0,409
725,737;29535,705;    1,734;    0,227
726,308;29558,688;   -0,266;    0,318
726,879;30016,944;   -1,630;    1,227
727,450;29817,836;    0,552;   -0,045
728,021;29822,638;    3,097;    0,682
728,592;29614,803;    0,734;    0,500
729,163;29987,786;    0,643;   -0,136
729,734;30007,678;    0,188;   -0,227
730,305;30389,844;    1,734;    0,136
730,876;30768,281;    0,188;    2,955
731,447;30469,719;    2,188;    2,682
732,017;30601,248;    1,097;    1,864
732,588;30006,322;    0,734;    1,227
733,159;30240,032;    0,643;   -1,045
733,729;30081,288;    0,006;    0,409
734,300;29329,908;    0,915;    0,864
734,870;29787,164;    3,461;    0,591
735,441;30372,420;    0,370;   -0,591
736,011;30114,040;    0,643;   -1,591
736,582;30043,750;   -0,812;    0,045
737,152;29498,279;   -1,721;   -2,045
737,722;29916,898;   -0,267;   -0,682
738,293;29638,245;   -1,358;    1,318
738,863;29496,319;    2,461;    2,318
739,433;29278,575;    5,279;    0,318
740,003;29919,013;   -0,994;   -0,682
740,573;29333,087;    2,097;   -1,591
741,143;29232,889;   -1,085;    0,318
741,713;30048,054;    1,188;   -0,500
742,283;29741,764;    0,915;    1,591
742,853;29484,384;    1,915;    1,591
743,423;28904,822;    1,733;    0,045
743,993;29021,805;   -0,358;    1,500
744,563;28406,788;    0,097;   -0,864
745,133;28381,590;   -0,812;   -0,864
745,702;29051,209;   -0,267;    1,773
746,272;28271,556;   -0,176;    0,591
746,842;27990,539;   -1,358;   -0,591
747,411;28398,068;   -0,267;   -0,318
747,981;28617,233;    0,097;    0,500
748,551;28583,307;    2,278;   -1,045
749,120;28484,927;    0,642;   -0,227
749,690;28908,910;   -0,631;    2,409
750,259;29290,621;    1,369;    2,955
750,828;29167,967;    1,551;   -1,955
751,398;29496,223;    1,278;   -0,045
751,967;29017,388;    2,187;    0,409
752,536;29226,553;   -0,813;   -0,227
753,105;29601,264;    0,096;    0,227
753,675;29482,247;    0,096;    1,773
754,244;29398,594;   -0,904;    3,591
754,813;29414,941;    0,551;    1,227
755,382;28932,197;    0,460;    0,955
755,951;29619,907;    1,551;    3,682
756,520;29118,073;   -0,085;    1,864
757,089;29678,056;    0,278;    0,500
757,658;29881,130;    1,733;    1,227
758,227;29886,022;    1,096;    0,318
758,795;30254,460;    1,187;    1,136
759,364;30420,443;   -0,086;   -0,591
759,933;29346,063;   -1,176;   -0,045
760,501;28830,682;    0,733;   -1,318
761,070;29320,302;   -2,813;   -1,409
761,639;30059,831;   -1,904;    1,318
762,207;29370,178;    1,551;   -0,955
762,776;29332,343;    0,369;    0,864
763,344;29261,780;   -0,995;    0,591
763,913;28346,309;   -0,722;    1,409
764,481;29122,565;    1,005;   -0,136
765,049;28871,548;   -1,358;    1,409
765,618;28750,713;   -0,086;    0,318
766,186;28781,242;    0,278;    0,136
766,754;28963,316;    0,005;    1,864
767,322;27975,209;   -1,995;    0,409
767,890;28016,828;   -0,722;   -1,773
768,459;28375,357;   -2,177;   -0,318
769,027;28580,522;    1,641;    3,409
769,595;27523,323;    3,278;    2,591
770,163;27973,761;    3,823;    2,955
770,730;27679,563;    0,732;   -0,136
771,298;27554,364;    0,187;   -1,409
771,866;27594,074;   -1,541;    4,955
772,434;27897,694;   -0,631;   -1,864
773,002;28109,223;    0,005;    0,682
773,569;27712,024;    0,914;    1,682
774,137;27534,007;   -0,268;   -0,045
774,705;28356,172;    0,278;   -0,136
775,272;27792,065;    0,641;    0,682
775,840;27506,684;   -0,177;    2,682
776,407;27087,577;    0,277;    1,955
776,975;26661,015;   -0,632;    0,318
777,542;27726,543;   -1,086;   -0,045
778,110;27556,708;   -1,268;   -0,045
778,677;27245,692;   -2,359;   -0,864
779,244;26906,493;    2,186;    1,045
779,812;27078,113;    1,823;    0,864
780,379;26930,641;    0,005;    1,136
780,946;27124,079;    1,005;   -0,773
781,513;27493,335;   -1,450;    0,318
782,080;26853,046;   -0,086;    2,864
782,647;27609,029;   -0,268;    3,045
783,214;27204,012;   -0,177;    3,864
783,781;26794,722;   -0,723;   -0,682
784,348;26659,797;   -0,632;    1,500
784,915;27146,144;   -3,177;    0,318
785,482;26929,763;    1,368;    2,591
786,049;27300,928;    0,186;   -0,591
786,615;27473,548;    0,277;   -0,955
787,182;27143,258;    0,186;   -0,682
787,749;26845,696;   -2,814;    1,409
788,315;26150,407;   -1,632;   -0,409
788,882;26442,844;    1,550;   -1,227
789,448;27159,464;    1,732;   -0,955
790,015;27142,902;    1,095;    3,227
790,581;26765,976;    1,459;    0,227
791,148;26636,323;    0,641;    1,045
791,714;26870,761;   -0,541;    3,136
792,280;26530,653;    0,186;    1,591
792,847;26051,272;    0,550;    2,500
793,413;26635,619;   -0,269;   -0,318
793,979;26114,330;    3,459;   -1,318
794,545;26217,768;    4,459;    2,682
795,111;25624,751;    2,186;    1,318
795,678;25794,825;    0,731;   -1,682
796,244;25429,626;    3,368;    0,136
796,810;25981,519;    1,731;    0,773
797,375;25651,047;    0,549;   -2,136
797,941;25674,849;   -0,541;    0,591
798,507;25844,014;   -0,451;   -0,955
799,073;25394,634;   -0,360;    0,591
799,639;25431,435;   -2,632;    3,136
800,205;25415,691;    0,095;    2,682
800,770;24956,856;    0,640;    1,773
801,336;25096,203;    1,368;   -0,955
801,901;24747,732;    4,549;    3,136
802,467;25273,078;   -0,542;    2,045
803,033;24614,880;   -0,087;    0,864
803,598;24822,136;    1,913;   -1,045
804,163;24847,755;    1,095;   -0,318
804,729;24844,375;   -0,178;    1,136
805,294;25265,176;    0,822;    2,227
805,859;24994,978;    0,731;   -0,409
806,425;24449,597;    1,186;    2,682
806,990;24128,490;    2,186;    4,318
807,555;24615,746;   -1,451;    2,591
808,120;24542,002;    0,822;   -0,409
808,685;24594,349;    0,185;   -2,500
809,250;24057,605;    0,004;   -0,500
809,815;24410,770;    1,913;    0,682
810,380;24933,389;   -0,269;    1,591
810,945;25492,554;   -1,087;    2,045
811,510;24593,265;    2,094;    1,591
812,075;24340,430;   -0,633;   -1,409
812,640;24349,504;    2,003;    1,409
813,204;24377,396;    0,822;   -0,227
813,769;24879,925;    2,094;   -0,045
814,334;24250,726;    0,458;    0,864
814,898;24322,619;    0,367;    0,591
815,463;24221,057;    1,276;   -0,773
816,027;24183,676;   -0,724;   -2,318
816,592;24228,023;    0,640;   -2,045
817,156;23744,097;    2,094;    1,136
817,721;23593,717;    4,276;    2,318
818,285;23525,882;    2,912;    1,500
818,849;24227,865;   -1,451;    1,682
819,414;24106,030;   -0,269;    2,955
819,978;23657,559;   -1,269;    1,773
820,542;24246,633;    2,003;    0,500
821,106;23905,889;   -0,815;    0,682
821,670;24008,690;   -0,815;    2,591
822,234;23748,219;   -0,270;    1,409
822,798;23074,566;    0,003;    0,500
823,362;23029,367;   -0,633;    4,227
823,926;22340,351;    0,094;    1,136
824,490;22589,697;   -0,997;   -0,682
825,054;23016,772;   -0,088;   -1,136
825,618;22662,300;   -1,542;   -1,500
826,181;22617,829;    0,458;   -1,318
826,745;22503,812;    1,367;   -1,045
827,309;22784,523;    1,185;    1,318
827,872;22199,688;    1,367;    0,955
828,436;23233,035;    1,185;   -0,773
828,999;23229,382;   -0,997;    1,227
829,563;21971,456;   -0,179;    1,136
830,126;21872,984;   -0,179;   -0,591
830,690;21859,604;   -1,997;    2,864
831,253;21395,769;   -0,543;    2,227
831,816;21542,298;   -1,906;    0,500
832,380;21441,826;    0,185;    0,864
832,943;21718,173;   -1,361;   -0,500
833,506;21089,975;    2,639;   -1,227
834,069;21925,231;    3,912;   -0,955
834,632;21958,305;    1,730;    1,318
835,195;21832,743;    1,003;    0,955
835,758;20985,635;   -0,997;    1,955
836,321;20886,073;    0,730;   -1,045
836,884;21000,056;   -0,725;   -0,955
837,447;20997,312;   -2,816;    1,773
838,010;21258,750;    0,366;    3,227
838,573;21567,551;   -1,179;    0,773
839,135;21524,262;   -1,361;   -0,955
839,698;20980,518;    1,275;    0,409
840,261;20438,683;    1,003;   -0,227
840,823;20297,211;   -0,543;    0,864
841,386;20604,467;   -0,452;   -2,409
841,948;20475,451;   -1,361;    1,773
842,511;20216,525;    0,912;    1,682
843,073;20340,417;    1,912;    0,227
843,636;20129,309;   -0,361;   -0,227
844,198;20053,111;    0,911;    0,591
844,760;20210,094;    1,093;    1,955
845,322;19818,168;    0,548;    1,136
845,885;20291,424;    0,730;    0,591
846,447;20735,135;   -1,998;    0,227
847,009;20308,663;    1,911;   -0,682
847,571;20684,465;    0,820;   -2,045
848,133;20727,084;   -1,089;   -1,864
848,695;20546,704;   -0,543;    1,409
849,257;20092,324;   -1,089;   -1,682
849,819;20257,307;   -0,998;   -0,409
850,381;20285,472;   -0,725;   -0,864
850,942;20689,001;    1,093;   -0,591
851,504;20664,347;    1,184;    0,227
852,066;20658,967;    1,275;   -1,591
852,628;20164,314;   -0,180;    1,955
853,189;19747,024;    1,638;    2,682
853,751;19860,371;   -0,907;    1,409
854,312;19655,445;   -0,453;   -1,682
854,874;20196,611;   -2,089;   -0,773
855,435;20697,866;   -0,907;   -1,682
855,997;20912,213;   -1,816;   -0,136
856,558;20156,378;    0,366;    1,773
857,119;20260,453;    0,820;    2,864
857,681;19943,799;    0,002;    0,318
858,242;19990,146;    1,911;   -2,136
858,803;20444,220;    0,456;   -0,773
859,364;21010,658;    0,184;   -4,773
859,925;20249,187;   -2,453;   -0,955
860,486;20136,352;   -0,453;   -0,955
861,047;19885,608;   -0,544;   -1,227
861,608;19761,500;   -1,089;   -0,773
862,169;19811,029;    0,638;   -0,045
862,730;19602,467;    0,456;    1,409
863,291;19821,359;   -0,635;   -0,500
863,852;20214,706;   -0,635;    1,955
864,412;19670,780;   -0,271;   -0,864
864,973;18192,400;   -0,089;    0,500
865,534;18046,837;   -1,726;    0,227
866,094;19632,457;    1,820;    0,227
866,655;19294,168;    1,274;    3,318
867,215;19577,242;    0,274;    0,136
867,776;19371,043;    0,547;   -0,136
868,336;19482,754;   -1,453;    0,136
868,897;18933,282;    2,638;    1,682
869,457;18637,266;    1,365;    0,318
870,017;18884,340;    0,547;   -1,227
870,578;19396,596;   -0,817;    0,773
871,138;19099,124;   -2,089;   -0,955
871,698;18681,835;   -0,817;   -1,318
872,258;18527,909;   -0,453;   -2,864
872,818;18907,983;    2,729;    0,045
873,378;18849,785;    0,638;    1,045
873,938;18348,768;    0,547;    0,500
874,498;18710,024;    0,274;   -1,955
875,058;18629,462;    2,183;    1,773
875,618;18469,899;    1,910;   -2,682
876,177;18390,701;    1,274;    0,136
876,737;17985,866;   -0,090;    1,955
877,297;17975,122;    0,183;    1,955
877,856;17971,560;   -0,362;    0,318
878,416;17916,725;    1,183;   -0,136
878,976;18156,708;   -1,817;    0,409
879,535;18312,328;    0,092;    3,136
880,095;18024,584;   -0,544;    0,045
880,654;18189,749;   -1,090;    1,318
881,213;18242,459;    2,456;    1,500
881,773;17881,260;    2,637;    2,682
882,332;18260,880;    3,365;    5,136
882,891;18083,227;    3,092;    2,136
883,451;18572,210;   -1,272;    1,682
884,010;17997,284;   -2,908;   -0,409
884,569;18113,359;   -0,999;   -0,045
885,128;18256,433;    2,819;   -1,864
885,687;18356,598;    4,455;    0,682
886,246;18013,854;    1,455;    2,136
886,805;17783,291;    2,455;    2,045
887,364;18105,547;   -0,999;   -0,500
887,922;18470,622;   -1,181;    0,045
888,481;17975,150;   -1,545;    0,591
889,040;18257,679;    1,183;    2,136
889,599;18967,844;    2,455;    1,409
890,157;19041,282;    1,455;    2,409
890,716;18684,810;   -0,090;    0,227
891,274;18525,157;    0,092;   -1,136
891,833;18950,959;    1,546;    0,864
892,391;18824,215;   -0,454;    0,500
892,950;18917,743;    1,819;   -0,773
893,508;19309,818;    0,455;   -0,409
894,067;18632,801;    0,637;    0,136
894,625;18529,784;   -0,636;   -1,500
895,183;18721,676;   -0,363;   -0,682
895,741;18603,751;    1,728;   -1,773
896,299;18459,007;   -0,545;   -2,409
896,858;18646,172;    0,819;   -1,591
897,416;18743,973;    2,728;   -1,318
897,974;18488,593;    1,819;    0,318
898,532;18648,667;    6,091;    2,682
899,089;18579,468;    2,091;   -0,682
899,647;18606,542;   -1,454;    1,318
900,205;18293,071;    1,182;    1,045
900,763;18486,509;   -0,454;    0,227
901,321;18477,583;    2,364;   -1,409
901,878;17889,930;   -1,000;   -0,773
902,436;17782,913;   -1,363;    1,318
902,994;18172,442;    4,728;    3,682
903,551;17574,425;    0,728;    0,409
904,109;17993,045;    0,182;   -1,409
904,666;17531,301;    2,455;    1,045
905,224;17357,284;    0,182;   -0,409
905,781;17070,903;    0,727;   -0,318
906,338;17156,796;   -1,363;    1,045
906,895;17066,506;    0,637;    2,045
907,453;17006,944;    1,727;    1,136
908,010;17049,291;   -0,909;    0,409
908,567;16685,910;    1,273;    0,591
909,124;16155,712;    0,364;   -1,500
909,681;16253,513;   -2,909;    0,682
910,238;16384,042;    0,636;   -1,318
910,795;16675,389;   -0,273;   -1,136
911,352;16265,116;   -2,909;   -2,682
911,909;15676,389;   -1,364;   -0,864
912,466;16175,207;   -3,182;    1,500
913,022;15709,207;   -1,636;    0,500
913,579;16099,025;   -0,909;    2,045
914,136;15770,571;    1,636;    0,955
914,692;16098,571;    0,091;   -1,227
915,249;15689,480;    1,455;    0,409
915,806;15924,571;    0,182;    1,955
916,362;15683,025;    1,909;    1,864
916,918;15197,753;    2,000;    1,045
917,475;15151,389;   -1,182;    0,955
918,031;15268,843;    3,364;   -0,045
918,587;14713,116;   -0,909;   -0,318
919,144;14926,480;   -2,273;    0,227
919,700;15250,480;    1,727;    0,773
920,256;14806,298;    0,727;    0,045
920,812;14404,480;   -0,727;   -1,045
921,368;14414,753;   -1,727;   -1,045
921,924;14020,116;    0,182;   -0,136
922,480;13590,934;   -0,545;    1,227
923,036;14211,480;    1,273;    1,955
923,592;14154,662;    0,455;    0,318
924,148;14069,389;    0,455;   -0,955
924,704;13366,207;   -1,364;   -0,409
925,259;13589,843;   -0,273;    0,591
925,815;13330,389;    1,455;    0,500
926,371;12818,389;    2,909;    1,409
926,926;12675,934;    2,091;    0,591
927,482;12322,389;   -1,364;    0,773
928,037;12206,662;    0,909;    2,045
928,593;12480,843;    1,636;    1,045
929,148;12304,116;   -1,818;   -1,500
929,704;11793,753;   -1,455;   -0,500
930,259;12001,571;    0,091;   -0,136
930,814;11032,662;   -0,818;    1,955
931,369;10663,298;    1,091;   -0,773
931,925;10547,116;   -0,091;    0,136
932,480;10450,662;   -2,818;   -2,591
933,035;10326,662;    0,545;   -0,318
933,590;10068,662;    0,364;   -1,773
934,145; 9680,662;   -1,364;   -0,318
934,700;10034,571;    0,455;   -0,591
935,255; 9811,207;   -0,091;    0,045
935,809; 9032,571;    3,182;    0,864
936,364; 8129,843;   -0,455;   -0,136
936,919; 8085,298;    0,455;   -1,773
937,474; 7959,753;    1,455;    0,136
938,028; 7681,571;   -1,636;    1,136
938,583; 7121,480;    1,818;    4,682
939,138; 7404,116;    2,091;    2,136
939,692; 6824,934;    1,636;   -1,136
940,247; 6485,753;   -0,727;   -1,045
940,801; 5995,934;   -0,636;    0,227
941,355; 5902,298;   -0,364;    2,591
941,910; 5516,571;   -0,273;   -2,136
942,464; 5648,116;   -0,818;   -0,318
943,018; 5395,662;    1,000;   -0,227
943,572; 5333,662;    2,545;   -0,682
944,126; 4731,025;    0,091;   -0,409
944,681; 4604,025;    3,091;    0,227
945,235; 4579,025;    1,000;   -0,591
945,789; 4521,389;    0,364;   -1,864
946,342; 4592,934;    0,455;   -0,591
946,896; 4409,843;   -2,273;    0,955
947,450; 4162,025;    1,545;   -0,227
948,004; 4331,389;    1,727;   -0,045
948,558; 4357,207;    0,273;   -0,864
949,111; 4290,025;   -0,273;   -0,318
949,665; 4309,207;    1,636;   -0,682
950,219; 4159,207;   -0,091;   -1,045
950,772; 4239,389;   -1,909;    1,864
951,326; 4130,389;    0,545;   -0,955
951,879; 4256,298;    0,727;   -2,318
952,433; 4297,207;    0,000;    2,227
952,986; 4119,753;    2,909;    0,682
953,539; 4079,116;   -0,273;    0,591
954,093; 4009,025;    0,545;   -1,318
954,646; 4126,843;    0,909;    1,318
955,199; 3932,298;    0,000;   -0,500
955,752; 3792,207;   -0,455;    1,773
956,305; 3767,934;   -0,091;    2,955
956,858; 3968,934;    0,818;   -0,318
957,411; 4133,480;   -0,545;    2,136
957,964; 3928,025;    1,364;    2,136
958,517; 3914,662;   -1,545;    3,136
959,070; 3738,571;   -0,455;    1,955
959,623; 3812,025;    1,091;    1,500
960,176; 3569,571;    1,727;    2,045
960,728; 3553,025;   -2,727;    0,773
961,281; 3604,571;    0,545;    0,500
961,834; 3656,571;   -0,909;    0,864
962,386; 3564,116;    1,727;    1,045
962,939; 3498,298;    0,364;   -0,318
963,491; 3644,753;    0,455;    1,136
964,043; 3518,116;    1,182;    2,409
964,596; 3655,116;   -1,000;    2,227
965,148; 3485,116;   -1,000;    1,773
965,700; 3389,207;    1,091;   -0,227
966,253; 3532,662;   -0,636;    0,318
966,805; 3363,298;   -2,273;    0,773
967,357; 3425,934;    1,091;   -1,500
967,909; 3375,571;    0,455;   -1,227
968,461; 3499,025;    0,545;    3,136
969,013; 3429,298;   -0,182;   -0,864
969,565; 3499,753;   -0,455;   -1,136
970,117; 3527,571;   -0,364;    1,045
970,669; 3393,934;    0,182;   -0,136
971,220; 3256,116;   -0,455;   -1,500
971,772; 3169,389;   -0,636;   -0,318
972,324; 3317,116;    0,091;   -0,500
972,876; 3246,116;    0,818;   -0,045
973,427; 3384,753;    1,909;   -1,045
973,979; 3349,843;   -0,727;   -2,500
974,530; 3405,207;    1,818;    1,318
975,082; 3388,298;   -0,545;    1,682
975,633; 3287,116;    1,091;    1,682
976,184; 3437,571;    0,909;    0,773
976,736; 3213,389;    0,091;    0,227
977,287; 2995,480;   -0,909;   -0,500
977,838; 3186,662;    0,909;   -0,318
978,389; 3245,662;   -1,000;   -0,500
978,940; 3112,753;    0,545;   -0,409
979,491; 3155,662;    0,091;   -0,500
980,042; 3114,025;    0,182;    3,045
980,593; 3178,753;   -2,545;    0,227
981,144; 3201,025;    2,545;   -0,500
981,695; 3153,389;    1,455;    1,500
982,246; 3126,207;   -0,273;    1,045
982,797; 3305,753;   -1,727;    0,682
983,347; 3410,389;    0,364;    0,591
983,898; 3576,025;    3,091;    0,409
984,449; 3386,753;    2,182;    0,773
984,999; 3320,298;    1,455;   -1,136
985,550; 3073,116;    0,182;   -0,318
986,100; 3111,480;   -0,455;   -0,318
986,651; 3155,025;   -0,818;    0,045
987,201; 3124,116;   -1,000;   -0,591
987,751; 3207,480;    0,818;    2,864
988,302; 3203,298;    2,636;    1,500
988,852; 3214,298;    0,455;   -1,136
989,402; 3229,753;    0,091;    0,682
989,952; 3156,934;   -2,182;    0,864
990,502; 3279,753;   -0,091;    0,682
991,052; 3223,389;   -0,727;    0,045
991,602; 3103,571;   -2,909;    1,318
992,152; 3085,934;    0,455;    0,682
992,702; 3072,480;    1,364;   -0,045
993,252; 3004,025;   -3,000;   -0,500
993,802; 3072,116;   -0,273;    1,318
994,352; 3326,934;   -1,545;    1,136
994,901; 3419,571;   -0,182;    3,227
995,451; 3318,662;   -0,182;    0,318
996,000; 3407,843;    1,636;    0,318
996,550; 3133,934;    2,273;    0,227
997,100; 3117,571;    1,273;   -0,045
997,649; 3396,025;    2,182;    0,955
998,198; 3029,934;    1,727;   -1,500
998,748; 3246,116;    1,091;   -2,318
999,297; 3160,571;   -0,818;   -0,409
999,846; 3196,571;    1,000;   -0,773
1000,395; 3248,571;   -0,818;    0,500
1000,945; 3192,480;    1,818;   -0,773
1001,494; 3286,571;    2,364;    0,682
1002,043; 3288,480;    4,636;    0,864
1002,592; 3131,298;   -1,091;    1,955
1003,141; 3277,571;   -0,455;   -0,682
1003,690; 3115,934;    1,727;    0,500
1004,238; 3220,389;    1,455;   -0,045
1004,787; 2845,116;    1,364;    1,227
1005,336; 3072,843;    0,364;    0,682
1005,885; 3214,843;    1,364;   -2,773
1006,433; 3382,662;    0,545;    0,955
1006,982; 3409,843;    0,455;    1,682
1007,531; 3351,298;   -1,818;   -0,227
1008,079; 3280,571;   -2,273;    0,500
1008,627; 3427,662;   -1,455;    0,409
1009,176; 3147,843;    0,000;   -1,955
1009,724; 3217,207;    1,091;    0,864
1010,273; 3247,662;    1,273;    0,500
1010,821; 3358,480;    0,091;    1,409
1011,369; 3087,753;   -1,364;    1,318
1011,917; 3087,662;   -1,364;   -0,591
1012,465; 3353,662;    1,273;   -1,591
1013,013; 3496,207;    2,091;   -1,682
1013,561; 3344,116;    0,455;   -0,773
1014,109; 3414,480;   -1,909;    1,682
1014,657; 3277,843;    0,364;    0,591
1015,205; 3419,662;    1,636;   -0,955
1015,753; 3461,207;   -0,545;   -1,409
1016,301; 3502,662;   -2,636;    3,045
1016,848; 3484,571;   -1,273;    0,409
1017,396; 3531,480;    2,545;    0,045
1017,944; 3664,662;    1,182;    1,864
1018,491; 3406,934;    0,273;    1,409
1019,039; 3524,480;    0,455;    0,591
1019,586; 3471,480;   -1,364;    1,682
1020,134; 3583,389;    0,455;    1,500
1020,681; 3581,571;    0,182;   -1,136
1021,228; 3619,662;    2,909;   -2,227
1021,776; 3445,207;    1,182;   -1,136
1022,323; 3666,025;    0,455;    0,773
1022,870; 3590,298;   -1,000;   -0,045
1023,417; 3468,389;    2,636;    1,864
1023,964; 3613,934;    2,636;    1,227
1024,511; 3425,116;    1,000;    0,773
1025,058; 3247,480;    3,182;   -0,045
1025,605; 3315,298;   -2,273;    3,136
1026,152; 3533,843;    1,727;   -0,591
1026,699; 3264,753;    1,818;    1,318
1027,245; 3437,116;   -0,091;    0,318
1027,792; 3645,207;   -1,000;    1,409
1028,339; 3526,843;    2,364;   -0,045
1028,885; 3366,389;    1,000;   -0,227
1029,432; 3301,934;   -0,091;    0,227
1029,978; 3375,934;   -1,000;   -1,591
1030,525; 3282,025;    1,000;    0,409
1031,071; 3534,389;   -1,364;    1,136
1031,618; 3615,753;    0,364;    1,682
1032,164; 3399,389;   -0,091;    3,045
1032,710; 3444,389;    1,636;   -1,500
1033,256; 3343,662;   -0,636;   -0,136
1033,803; 3359,934;   -0,545;    1,500
1034,349; 3079,571;   -1,364;    0,136
1034,895; 3233,116;    0,000;   -0,318
1035,441; 3183,207;   -0,818;    0,318
1035,987; 3183,571;   -2,364;   -0,682
1036,533; 3170,571;   -1,455;   -0,955
1037,078; 3376,753;    1,455;    1,682
1037,624; 3201,116;    2,455;   -0,955
1038,170; 3271,753;    0,455;   -0,318
1038,716; 3140,025;    1,636;   -0,409
1039,261; 3060,571;   -2,273;   -0,773
1039,807; 2995,207;   -0,091;    3,409
1040,352; 3055,389;   -1,909;   -0,318
1040,898; 3095,843;   -1,545;   -0,682
1041,443; 3007,753;   -1,455;   -2,591
1041,989; 3000,662;    1,091;    1,591
1042,534; 2894,480;   -0,364;    2,591
1043,079; 3025,843;    2,909;    0,955
1043,625; 2802,753;    1,818;    0,500
1044,170; 2849,934;   -1,364;    1,045
1044,715; 3096,753;    2,455;    0,955
1045,260; 2914,025;    2,182;   -0,955
1045,805; 2966,662;    1,182;   -0,591
1046,350; 2894,662;    1,364;   -0,409
1046,895; 2848,025;    2,909;    1,591
1047,440; 2794,753;    5,364;    0,409
1047,985; 2697,753;    2,818;   -0,955
1048,530; 2606,843;    1,545;    1,227
1049,074; 2664,480;    0,000;    0,318
1049,619; 2642,843;   -1,364;    1,955
1050,164; 2428,662;    0,455;    0,227
1050,708; 2482,753;   -0,455;    0,045
1051,253; 2826,480;    1,273;   -2,227
1051,797; 2539,480;    0,818;   -1,318
1052,342; 2567,025;   -1,182;    1,045
1052,886; 2583,662;    0,364;   -1,409
1053,430; 2449,662;   -1,364;    0,136
1053,975; 2477,934;   -0,818;   -0,318
1054,519; 2453,843;   -0,727;    3,227
1055,063; 2440,207;    0,909;    1,318
1055,607; 2321,116;   -0,182;    0,227
1056,151; 2341,025;    2,909;    1,682
1056,695; 2270,934;    2,273;   -1,136
1057,239; 2339,207;   -1,727;   -0,682
1057,783; 2335,934;    0,818;   -1,500
1058,327; 2268,843;    0,000;    1,409
1058,871; 2503,298;   -0,545;    1,318
1059,415; 2221,571;   -0,818;   -0,045
1059,958; 2482,843;    1,455;    2,591
1060,502; 2191,662;   -1,000;   -0,773
1061,046; 2106,116;    0,364;   -0,955
1061,589; 2077,843;   -3,000;   -1,136
1062,133; 1961,025;   -1,273;    1,864
1062,676; 1890,753;    1,182;    0,864
1063,220; 1903,753;    1,091;    0,500
1063,763; 1910,571;    0,909;    1,136
1064,306; 2005,753;   -0,909;    1,864
1064,849; 1891,298;   -0,909;    0,591
1065,393; 1888,934;    2,000;   -1,500
1065,936; 2004,025;    0,182;   -0,409
1066,479; 1891,116;   -1,455;    1,318
1067,022; 1906,753;   -0,273;   -0,227
1067,565; 1798,298;   -0,091;   -1,318
1068,108; 1814,753;    0,727;   -0,591
1068,651; 1810,116;   -0,636;    1,409
1069,194; 1731,116;   -0,455;   -1,682
1069,736; 1735,116;   -1,273;    0,955
1070,279; 1712,753;   -1,364;   -0,500
1070,822; 1748,025;   -2,000;   -0,318
1071,364; 1842,662;   -0,364;    1,318
1071,907; 1668,662;   -0,727;    3,227
1072,450; 1556,480;    0,000;   -0,045
1072,992; 1552,389;   -0,273;    3,136
1073,535; 1705,753;    2,091;    2,136
1074,077; 1497,480;   -0,727;    2,045
1074,619; 1445,934;   -1,364;    0,591
1075,161; 1477,298;   -1,091;    1,500
1075,704; 1651,298;    1,545;    1,227
1076,246; 1464,207;   -0,182;    0,682
1076,788; 1395,934;   -0,364;    1,773
1077,330; 1463,025;    1,273;    2,136
1077,872; 1410,934;    0,909;    0,955
1078,414; 1643,298;    2,727;    0,773
1078,956; 1379,025;    1,273;   -0,227
1079,498; 1642,025;    1,636;    0,318
1080,040; 1356,480;    1,909;   -1,318
1080,581; 1299,843;    1,636;   -0,318
1081,123; 1215,207;    0,091;   -0,773
1081,665; 1258,389;   -1,182;   -0,955
1082,206; 1567,025;    1,364;   -0,500
1082,748; 1417,753;    0,727;    2,045
1083,289; 1290,934;   -2,000;    1,318
1083,831; 1190,753;   -0,545;    0,227
1084,372; 1228,571;    0,000;    0,591
1084,913; 1224,753;    1,091;    0,864
1085,455; 1201,298;   -1,909;   -2,045
1085,996; 1171,843;   -2,273;    0,136
1086,537; 1181,480;   -0,091;    0,864
1087,078; 1227,480;   -0,909;   -2,136
1087,619; 1267,480;   -1,273;    0,227
1088,160; 1170,116;    0,000;    1,318
1088,701; 1167,389;   -1,091;    0,682
1089,242; 1103,571;    1,364;   -2,227
1089,783; 1201,480;   -0,273;    1,409
1090,324; 1168,298;    0,455;    0,682
1090,865; 1031,843;    2,727;   -0,409
1091,405;  999,116;    0,727;    2,227
1091,946; 1039,934;    0,182;   -0,955
1092,487;  956,662;    0,818;   -1,409
1093,027; 1124,025;   -1,364;   -1,500
1093,568;  975,753;   -0,364;    1,227
1094,108; 1087,025;    0,273;    1,773
1094,649; 1011,207;   -1,182;    0,136
1095,189;  950,207;   -0,636;   -0,682
1095,729;  904,025;   -0,091;    0,955
1096,269;  903,571;    0,727;   -0,955
1096,810; 1226,843;   -1,364;    0,500
1097,350; 1044,753;    1,364;   -0,773
1097,890;  947,753;    0,364;    1,227
1098,430; 1205,571;    2,364;    2,864
1098,970; 1070,389;    2,182;    1,682
1099,510;  937,389;    0,545;   -2,318
1100,050;  865,934;    1,000;   -1,591
1100,589;  822,662;   -0,727;   -0,318
1101,129;  944,116;    0,818;   -0,955
1101,669; 1119,753;    1,727;    2,136
1102,209;  924,389;   -0,091;    2,227
1102,748;  878,480;    0,000;    0,955
1103,288;  856,116;    1,273;   -1,227
1103,827;  892,207;    3,091;   -2,227
1104,367;  769,934;   -0,091;   -2,409
1104,906;  729,934;    1,364;   -1,136
1105,445;  814,662;    0,636;   -1,136
1105,985;  746,025;   -0,727;    1,500
1106,524;  795,025;   -1,727;   -0,682
1107,063;  776,298;   -2,727;    1,409
1107,602;  753,934;   -1,909;   -1,500
1108,141;  665,116;   -1,909;    1,500
1108,680;  773,843;   -3,455;   -0,591
1109,219;  704,662;   -0,909;   -0,500
1109,758;  708,116;    0,455;    0,682
1110,297;  678,753;    1,000;   -0,682
1110,836;  617,298;   -0,727;    0,955
1111,375;  787,025;   -2,545;    0,409
1111,913;  804,389;   -1,000;    0,773
1112,452;  722,116;   -0,273;    0,136
1112,991;  615,843;    1,091;    1,955
1113,529;  567,116;   -0,818;   -0,045
1114,068;  654,298;   -0,273;    2,955
1114,606;  547,753;   -0,364;   -0,955
1115,144;  713,025;   -1,273;    1,045
1115,683;  638,843;   -0,727;    0,318
1116,221;  699,843;   -0,455;   -0,864
1116,759;  602,025;    0,636;   -0,864
1117,297;  812,025;    0,000;    1,864
1117,836;  610,753;   -2,182;   -1,227
1118,374;  624,116;    0,182;   -0,682
1118,912;  542,753;    0,909;    2,682
1119,450;  535,934;    1,000;    0,864
1119,988;  604,207;    1,545;    2,136
1120,525; 1062,843;    5,091;    3,318
1121,063;  756,480;    1,182;    1,864
1121,601;  552,480;   -0,909;   -1,227
1122,139;  509,116;   -0,727;   -2,045
1122,676;  716,753;   -0,727;    2,773
1123,214;  643,025;   -1,182;    4,409
1123,751;  443,571;    1,727;    2,227
1124,289;  578,298;   -0,091;   -0,409
1124,826;  451,207;    1,727;    0,227
1125,364;  367,934;    1,727;   -0,955
1125,901;  558,571;    1,182;    1,227
1126,438;  678,480;    0,818;    0,955
1126,975;  398,934;   -0,727;   -0,773
1127,513;  478,025;    0,273;    2,136
1128,050;  374,662;    1,636;   -0,682
1128,587;  474,389;    2,000;   -0,227
1129,124;  520,116;    0,091;    1,318
1129,661;  380,298;    0,273;    0,227
1130,198;  556,662;    1,636;    0,773
1130,734;  498,753;    0,182;    1,409
1131,271;  350,753;   -0,909;    0,864
1131,808;  536,389;    2,909;    3,045
1132,345;  391,662;    1,545;    0,318
1132,881;  262,116;   -1,545;   -1,864
1133,418;  402,298;    0,727;   -1,136
1133,954;  335,480;    2,455;   -2,682
1134,491;  420,753;    1,364;   -0,773
1135,027;  314,298;    2,364;    0,864
1135,564;  415,207;    0,273;    2,955
1136,100;  397,298;    0,364;    2,136
1136,636;  275,025;   -1,273;   -1,045
1137,172;  372,843;    0,000;   -1,045
1137,708;  291,480;   -1,364;   -1,045
1138,245;  297,298;    1,273;   -1,227
1138,781;  244,662;    1,091;   -3,318
1139,317;  326,025;    1,273;   -1,409
1139,852;  310,389;    3,091;    0,136
1140,388;  431,389;   -1,182;   -0,409
1140,924;  308,025;   -1,091;   -2,227
1141,460;  248,389;   -1,636;    0,136
1141,996;  169,298;   -1,364;    2,682
1142,531;  218,389;    1,364;    3,318
1143,067;  452,389;    1,182;    1,045
1143,602;  506,207;   -0,091;   -0,318
1144,138;  345,934;   -2,636;    1,045
1144,673;  202,934;   -1,455;    1,409
1145,209;  277,662;   -1,909;   -0,318
1145,744;  196,662;   -0,727;    0,864
1146,279;  347,389;    1,818;   -0,136
1146,815;  249,389;    1,545;   -2,682
1147,350;  287,480;   -1,364;    0,045
1147,885;  193,753;   -0,818;   -1,318
1148,420;  188,389;   -2,273;    0,773
1148,955;  175,753;   -1,727;    1,864
1149,490;  205,298;   -0,909;   -1,591
1150,025;  187,843;    0,455;   -1,773
1150,560;  307,571;    1,091;   -0,955
1151,094;  271,843;    1,455;   -0,591
1151,629;  276,298;    1,636;    0,864
1152,164;  196,480;    1,364;    1,318
1152,698;  148,843;   -0,182;   -0,136
1153,233;  115,934;    0,091;   -0,682
1153,767;  156,753;   -3,000;   -2,318
1154,302;  214,389;   -1,455;    1,773
1154,836;  209,571;   -0,455;   -2,136
1155,371;  263,662;   -1,364;    3,682
1155,905;  221,116;   -0,636;    1,682
1156,439;  188,389;   -0,636;   -0,500
1156,973;  221,571;    0,364;    0,318
1157,507;  145,934;   -0,364;    0,682
1158,042;  171,571;   -0,727;    1,045
1158,576;  234,116;    0,182;    1,773
1159,110;  224,025;   -0,818;    2,409
1159,643;  191,753;    0,636;   -0,045
1160,177;  124,207;   -1,545;    1,500

