
Integration time [ms]:   0,040
Averaging Nr. [scans]: 11
Smoothing Nr. [pixels]: 0
Data measured with spectrometer [name]: 7318044SP
Wave   ;Sample   ;Dark     ;Reference
[nm]   ;[counts] ;[counts] ;[counts] 

186,757;   19,890;   31,551;    1,318
187,357;   55,520;   22,551;    0,955
187,958;   35,623;   15,460;   -1,591
188,558;   74,594;    8,915;   -1,227
189,159;   49,373;    6,733;   -4,500
189,759;   23,236;    7,278;   -3,591
190,360;   24,521;    2,824;   -2,136
190,960;   61,816;    2,915;   -4,136
191,560;   74,985;    3,189;   -6,591
192,161;  336,287;    4,372;   -3,500
192,761;  176,148;    4,010;   -3,227
193,361;  116,053;    1,556;   -3,773
193,962;  171,637;    2,010;   -2,682
194,562;   89,735;    1,189;   -3,955
195,162;  129,300;   -2,448;   -2,227
195,762;  307,747;   -3,176;   -0,045
196,362;  258,614;    1,370;   -2,500
196,963;  100,572;    2,006;   -0,864
197,563;  176,878;    1,551;   -0,955
198,163;  120,410;    0,096;   -0,682
198,763;  149,247;    1,733;   -0,500
199,363;  267,156;    3,096;   -0,500
199,963;  215,255;    0,369;    0,409
200,563;  194,440;    2,823;   -1,409
201,163;  165,751;    3,277;   -0,227
201,763;  277,239;    3,732;    0,318
202,363;  203,309;    1,459;    1,500
202,963;  321,654;    1,459;    1,045
203,563;  447,470;    0,277;    0,500
204,162;  277,334;    2,096;   -1,864
204,762;  259,106;    0,550;    0,591
205,362;  229,693;    3,004;    1,955
205,962;  335,376;    3,096;    1,955
206,562;  348,623;    1,823;    2,318
207,161;  314,473;   -0,087;    0,318
207,761;  478,293;    1,277;    2,409
208,361;  343,812;   -0,268;    1,409
208,960;  459,087;    0,459;    1,500
209,560;  533,596;    1,277;    1,591
210,160;  512,797;    0,550;    1,864
210,759;  476,806;    4,186;    1,227
211,359;  492,679;    1,459;    1,045
211,958;  774,377;    1,277;    2,045
212,558;  870,671;    1,732;    1,864
213,157;  694,367;    1,822;    1,500
213,757; 1168,476;    3,822;   -0,227
214,356;  847,597;    1,277;   -0,409
214,956; 1211,681;    3,095;    0,409
215,555;  816,988;    2,095;    2,136
216,154;  752,477;   -2,723;   -0,591
216,754;  758,818;    0,277;    0,773
217,353;  922,176;   -0,268;   -1,045
217,952;  770,380;   -0,178;    0,318
218,552; 1007,119;    1,368;   -0,773
219,151;  897,838;    0,277;    0,955
219,750;  902,581;    0,004;   -0,227
220,349; 1078,779;   -0,451;    1,045
220,948; 1127,123;   -1,360;    1,136
221,548; 1173,595;    0,913;    1,227
222,147; 1292,662;   -0,087;   -0,409
222,746; 1575,907;   -0,451;   -0,955
223,345; 1474,056;    0,731;    0,500
223,944; 1484,165;   -0,451;    0,773
224,543; 1676,105;    1,004;   -1,409
225,142; 1779,618;    0,094;    0,136
225,741; 1697,939;   -0,814;    1,045
226,340; 1734,213;   -0,451;   -0,955
226,939; 2207,275;   -0,996;   -0,136
227,538; 2226,302;   -0,360;   -0,773
228,137; 2380,511;   -0,814;    0,864
228,735; 2554,409;   -0,541;    1,227
229,334; 2282,658;   -0,905;   -0,227
229,933; 2663,114;    0,459;    0,591
230,532; 2776,156;    1,186;   -0,409
231,131; 2837,643;    1,732;    0,318
231,729; 3041,601;   -2,450;   -2,318
232,328; 3201,896;   -0,723;   -1,500
232,927; 3278,357;    1,004;   -0,500
233,525; 3431,697;    3,640;    0,045
234,124; 3649,395;    2,368;   -1,591
234,723; 3680,760;    0,913;   -1,045
235,321; 3855,639;    2,277;    0,136
235,920; 4133,340;    1,186;   -1,227
236,518; 4398,401;    3,459;    0,318
237,117; 4597,208;    0,004;   -0,227
237,715; 4769,454;    0,640;   -0,500
238,314; 4825,645;   -0,087;   -2,318
238,912; 4913,952;   -0,723;   -1,409
239,510; 4970,269;    0,459;   -1,227
240,109; 5163,571;    0,004;    3,773
240,707; 5211,231;   -0,996;    1,227
241,305; 5594,438;    0,550;    0,136
241,904; 5838,892;   -0,178;   -2,045
242,502; 5807,291;   -0,632;   -0,227
243,100; 5739,249;   -0,087;   -0,955
243,698; 5995,858;    0,732;    1,682
244,297; 6196,761;   -0,632;    0,682
244,895; 6000,889;   -0,269;   -2,318
245,493; 6358,516;    2,186;   -0,591
246,091; 6366,435;    1,368;   -1,318
246,689; 6391,333;    1,004;    0,591
247,287; 6595,469;    0,822;   -1,136
247,885; 6884,156;   -1,451;    1,227
248,483; 6985,059;    1,822;   -0,500
249,081; 7120,888;    0,185;    1,591
249,679; 7297,784;   -0,178;    1,682
250,277; 7547,347;   -1,723;    0,864
250,875; 7520,715;   -1,087;   -1,045
251,473; 7568,618;   -1,178;    0,500
252,071; 7794,696;    1,459;    1,045
252,669; 7942,074;   -1,814;    0,318
253,267; 8196,559;   -0,087;    0,773
253,864; 8175,651;   -0,360;    0,682
254,462; 8025,848;    1,640;    1,591
255,060; 8007,154;   -0,269;    1,318
255,658; 8360,074;    0,822;   -0,136
256,255; 8803,912;    0,186;   -2,045
256,853; 8650,610;   -0,269;    1,409
257,451; 8677,311;    0,822;    1,864
258,048; 8936,344;    1,822;    1,864
258,646; 8654,018;    1,731;   -1,045
259,243; 8883,428;   -0,087;    2,227
259,841; 8958,960;   -0,814;    0,318
260,438; 8804,133;   -0,087;    0,864
261,036; 9579,170;   -1,905;    1,409
261,633; 9447,551;   -0,087;    2,227
262,231; 9199,346;    2,731;   -0,045
262,828; 9277,998;   -0,905;    1,136
263,425; 9331,593;    0,913;   -0,591
264,023; 9621,790;    0,186;    0,045
264,620; 9169,268;   -0,360;   -0,318
265,217; 9538,994;   -2,087;    3,136
265,815; 9651,683;   -1,905;    2,136
266,412; 9395,199;    0,731;    0,136
267,009; 9463,027;   -1,451;    0,773
267,606; 9342,746;    0,822;   -0,955
268,203; 9360,251;   -0,269;   -0,591
268,801; 9676,005;    1,731;    0,591
269,398; 9961,316;   -0,360;    2,500
269,995; 9924,634;    0,277;    1,591
270,592; 9698,329;   -0,632;   -0,500
271,189; 9910,259;    0,186;    0,409
271,786;10018,003;   -0,632;    1,227
272,383; 9839,194;   -1,087;    0,227
272,980;10085,470;    0,277;    0,318
273,577;10594,462;    0,004;    1,227
274,174;10156,543;    0,822;    2,591
274,771;10149,074;   -0,814;   -0,773
275,367;10301,178;    2,277;    1,409
275,964;10236,295;    0,731;   -0,500
276,561;10354,927;    1,549;   -1,045
277,158;10630,148;    0,095;   -1,773
277,755;10736,888;    2,185;    0,409
278,351;10107,552;   -0,451;   -1,500
278,948;10443,660;   -0,815;    0,045
279,545;10478,555;   -1,360;    2,318
280,141;11117,174;   -1,723;   -2,045
280,738;10998,051;   -0,451;   -0,136
281,334;11265,407;   -1,633;    0,591
281,931;10672,028;   -0,087;   -1,318
282,528;10700,732;    0,822;   -0,500
283,124;11484,575;   -1,087;   -0,500
283,721;11392,073;   -0,451;    1,409
284,317;11204,108;    0,185;    2,500
284,913;11739,153;   -1,360;    0,591
285,510;11954,880;    0,640;   -0,318
286,106;11988,422;   -2,269;   -0,955
286,703;11635,500;   -0,360;    1,955
287,299;11832,142;   -1,451;   -0,591
287,895;12037,029;    0,822;   -1,045
288,491;12648,316;    0,186;    2,136
289,088;12351,295;   -2,360;    2,409
289,684;12439,983;   -1,723;    1,500
290,280;12456,230;    0,368;    0,682
290,876;12574,586;    1,822;    5,500
291,472;12435,637;    1,276;    2,227
292,068;12542,445;    1,367;    0,227
292,665;12266,324;    2,095;    0,773
293,261;11858,373;    0,276;    2,136
293,857;12295,843;    2,913;    2,136
294,453;12215,647;    3,550;    0,955
295,049;12122,532;   -0,268;    1,955
295,644;12127,913;    0,095;    0,136
296,240;12010,773;   -0,905;   -0,136
296,836;12058,608;   -0,995;    0,318
297,432;12357,524;    1,096;   -0,500
298,028;12413,865;    0,732;    0,773
298,624;12876,098;    1,459;    1,864
299,220;13105,504;    2,368;    0,591
299,815;12780,803;    1,005;   -0,409
300,411;12532,623;    0,914;    1,773
301,007;12567,740;    1,368;    0,227
301,602;12630,234;   -0,541;   -2,318
302,198;12828,624;    0,732;   -0,773
302,794;13151,254;    1,187;   -0,500
303,389;13304,470;   -1,177;    1,045
303,985;13372,562;    0,550;    1,409
304,580;13350,606;    1,459;    1,591
305,176;13323,679;   -3,086;    0,136
305,771;13245,272;   -1,268;   -1,227
306,367;13072,501;    4,095;    0,136
306,962;13441,415;    0,641;    1,500
307,558;13203,074;   -0,450;    0,136
308,153;13149,873;    1,095;   -1,136
308,748;13407,587;   -0,814;    1,682
309,344;13371,354;   -0,632;   -1,318
309,939;13443,647;   -1,905;   -1,318
310,534;13762,364;   -0,086;   -1,682
311,130;13733,576;    0,459;   -2,500
311,725;13446,851;    1,004;   -0,500
312,320;13794,314;    2,459;    0,045
312,915;13603,739;    1,459;   -1,045
313,510;13677,078;    1,550;   -0,500
314,105;14214,513;    1,096;    1,409
314,700;13543,152;   -3,086;   -1,045
315,295;13151,515;   -0,904;    0,045
315,890;12708,029;    1,277;    0,864
316,485;13069,783;   -0,359;   -0,318
317,080;13175,984;   -3,086;    1,591
317,675;13755,053;    2,005;   -0,682
318,270;13120,682;    5,550;    3,318
318,865;13142,943;    3,278;    3,045
319,460;12969,836;   -0,904;    0,591
320,055;13191,259;   -0,541;   -1,227
320,650;12873,257;   -1,995;   -0,591
321,244;12952,862;   -0,177;   -1,409
321,839;13938,823;   -1,541;   -0,227
322,434;13863,132;   -1,086;   -1,591
323,029;13460,956;    1,732;    1,591
323,623;13247,587;    1,550;    0,773
324,218;13023,602;    2,368;    1,409
324,812;12900,811;    1,096;    1,591
325,407;12749,199;   -0,814;    2,045
326,002;12671,098;    0,277;   -0,409
326,596;12952,208;    0,914;    1,318
327,191;13168,040;    0,823;   -1,045
327,785;12731,571;   -0,813;   -0,227
328,379;12917,165;    1,368;    0,136
328,974;12730,562;    0,914;   -3,955
329,568;12954,856;    0,186;   -2,409
330,163;12794,922;    2,096;    1,045
330,757;13176,238;    2,459;    1,591
331,351;12507,327;    0,459;    0,682
331,945;12801,787;    0,914;    1,409
332,540;12331,247;   -1,723;   -0,591
333,134;12509,864;   -1,086;    0,773
333,728;12774,759;    0,005;    0,318
334,322;13124,085;   -1,177;   -0,864
334,916;12386,775;    0,277;    0,955
335,510;12755,610;   -0,450;   -0,136
336,105;13025,403;   -1,086;    1,591
336,699;12734,737;   -1,086;    0,591
337,293;12615,536;   -1,723;    0,318
337,887;12823,348;   -2,723;    1,955
338,481;12955,724;    0,459;    0,591
339,074;13079,491;   -0,359;    2,682
339,668;12923,853;   -1,632;    1,227
340,262;13187,182;    1,732;    3,227
340,856;12669,857;    1,822;   -0,682
341,450;11994,200;    1,004;    1,864
342,044;12922,354;    1,459;    0,136
342,637;12688,935;    0,913;   -2,136
343,231;12555,288;   -2,360;    0,682
343,825;12531,452;   -1,086;   -0,591
344,419;12478,312;   -1,995;    0,500
345,012;12250,059;    2,459;    4,045
345,606;12268,774;    4,641;    1,591
346,199;12059,748;   -1,813;   -0,227
346,793;11567,292;    1,914;    2,045
347,386;11738,038;   -0,813;   -1,136
347,980;11725,914;   -0,268;   -0,045
348,573;11514,331;    2,278;    0,409
349,167;11147,724;    5,278;    4,773
349,760;11519,417;    2,914;    2,682
350,354;11504,724;   -0,813;    1,136
350,947;11257,457;    1,096;    1,682
351,540;10898,468;   -0,358;   -1,409
352,134;10816,270;    1,096;    1,136
352,727;10899,674;   -0,086;    1,136
353,320;10669,998;    0,005;    0,591
353,913;10517,102;   -1,995;    1,864
354,507;10736,342;    0,823;   -1,227
355,100;10744,182;    0,460;    0,864
355,693; 9937,479;    2,005;    2,409
356,286; 9937,804;    0,823;    2,773
356,879;10312,168;   -0,722;    1,227
357,472; 9903,419;   -0,904;    1,500
358,065;10099,653;   -0,722;    2,500
358,658;10070,156;   -0,540;    2,318
359,251; 9675,816;   -1,631;   -0,591
359,844; 9111,346;   -1,904;   -1,136
360,437; 9274,171;   -2,995;    0,045
361,030; 9554,055;    1,369;   -0,682
361,623; 9119,230;    2,824;    0,318
362,215; 9199,744;   -0,086;    2,045
362,808; 9008,813;   -2,358;   -1,682
363,401; 9207,194;   -2,449;    0,136
363,994; 8935,873;   -0,631;   -1,500
364,586; 8842,207;    0,824;   -1,500
365,179; 9073,123;   -0,449;   -1,136
365,772; 8504,515;   -1,995;    2,045
366,364; 8854,364;    1,915;   -3,227
366,957; 9081,012;    2,279;   -0,045
367,549; 9075,452;    2,188;   -0,864
368,142; 8704,889;    1,825;   -1,500
368,734; 8909,615;    0,734;   -2,136
369,327; 8851,031;    1,643;   -0,500
369,919; 8778,523;   -1,538;    0,409
370,512; 8560,636;   -1,083;   -0,500
371,104; 8320,967;   -0,901;    1,591
371,696; 8476,180;    1,191;   -0,955
372,289; 8609,051;    0,373;    1,136
372,881; 8761,522;   -2,080;    1,318
373,473; 8662,624;   -2,170;    1,136
374,066; 8479,513;   -0,169;    0,500
374,658; 8318,956;    0,378;    1,136
375,250; 8682,618;    0,653;   -1,409
375,842; 8526,671;    0,473;   -0,045
376,434; 8400,111;   -0,435;   -0,409
377,026; 9023,295;    0,204;   -2,500
377,618; 8922,641;   -0,158;   -0,682
378,210; 8712,414;   -0,338;   -1,955
378,802; 8589,988;    0,754;   -0,591
379,394; 8542,592;    1,846;    0,682
379,986; 9160,056;    1,393;   -0,955
380,578; 9261,424;   -0,153;    0,773
381,170; 8564,130;   -0,972;    0,045
381,762; 8540,355;    0,755;    1,409
382,354; 8798,014;   -0,065;   -1,318
382,945; 8880,742;   -2,976;    0,318
383,537; 9052,486;   -2,705;   -1,955
384,129; 9048,731;   -2,160;   -1,136
384,721; 9242,177;   -0,252;    0,955
385,312; 9212,573;   -0,161;   -0,955
385,904; 9282,554;   -2,706;    1,591
386,496; 8617,614;   -0,979;    1,045
387,087; 8749,269;    1,022;    2,500
387,679; 8833,023;   -1,160;    0,045
388,270; 8960,847;    2,840;    2,045
388,862; 9049,794;    1,295;   -0,318
389,453; 8959,133;   -0,887;    1,045
390,045; 9246,008;   -0,705;   -2,682
390,636; 9164,478;    0,204;   -0,591
391,227; 9035,328;   -0,523;   -0,045
391,819; 9149,525;    0,204;    0,773
392,410; 9240,406;    1,022;    0,045
393,001; 9158,174;   -0,979;   -1,591
393,593; 9500,927;    1,930;   -0,045
394,184; 9333,651;    1,385;   -0,409
394,775; 9260,788;    1,839;    2,136
395,366; 9450,336;    1,385;    0,773
395,957; 9497,645;    0,113;    0,136
396,548; 9811,038;   -0,342;    2,682
397,139;10132,573;   -2,433;    0,591
397,730; 9843,097;   -1,888;    0,955
398,321; 9902,194;   -1,252;    0,955
398,912; 9941,866;   -0,615;    0,136
399,503;10006,786;   -3,524;   -1,409
400,094; 9400,370;    0,294;    1,682
400,685; 9244,272;   -0,433;    0,045
401,276; 9397,179;    0,930;   -0,955
401,867; 9721,854;   -0,888;    0,773
402,458; 9818,031;   -2,251;   -2,318
403,048; 9781,118;    1,112;    0,591
403,639; 9381,212;    0,840;    0,864
404,230; 9611,448;    2,476;    0,318
404,821; 9540,877;   -0,615;    0,045
405,411; 9675,211;    1,203;   -2,591
406,002; 9222,357;   -1,252;   -1,136
406,592; 9054,829;    2,294;    0,045
407,183; 9395,701;    0,566;   -1,500
407,774; 9322,425;    3,475;   -0,136
408,364; 9673,195;    0,930;    0,409
408,954; 9255,743;    0,384;    1,227
409,545; 9292,436;    1,021;    1,045
410,135; 8832,943;    1,293;    0,500
410,726; 8988,648;    1,838;    0,318
411,316; 9388,651;    0,111;    0,773
411,906; 9058,759;   -0,253;   -0,409
412,497; 8499,181;   -1,070;   -0,045
413,087; 9148,000;   -1,980;   -0,227
413,677; 9600,864;   -0,707;    3,864
414,267; 9359,784;    0,656;    1,409
414,857; 9408,308;   -2,980;    4,227
415,448; 9736,183;    0,839;    0,500
416,038; 9380,912;    0,020;   -0,591
416,628; 9380,102;   -0,889;    0,409
417,218; 8772,231;    0,565;    3,318
417,808; 9040,755;    0,202;   -0,409
418,398; 9552,983;    0,020;    2,682
418,988; 9611,916;    2,020;    0,591
419,578; 9868,354;   -0,707;    1,409
420,168;10226,873;   -1,343;   -0,955
420,757; 9802,763;   -1,343;   -1,500
421,347; 9439,898;    0,111;   -0,227
421,937; 9650,716;    2,292;    1,409
422,527; 9567,412;    0,838;   -0,773
423,116; 9387,005;   -0,253;   -0,045
423,706; 9757,304;   -1,889;    0,318
424,296; 9781,280;    1,384;    0,682
424,885;10206,917;   -0,071;   -3,045
425,475;10514,818;    1,474;   -2,864
426,065;10422,011;   -0,980;   -0,318
426,654;10001,374;   -0,435;   -0,318
427,244;10152,353;    0,020;    1,409
427,833; 9578,636;    1,383;   -0,500
428,423;10091,394;   -0,526;    1,136
429,012;10900,343;   -0,344;   -1,136
429,601;10345,086;   -1,344;    0,136
430,191;10578,000;    1,292;    4,318
430,780;10246,019;   -0,344;   -0,409
431,369;10135,825;    0,746;   -0,045
431,959;10802,190;   -1,254;    0,500
432,548;10622,804;   -1,163;   -0,045
433,137;10731,307;   -1,254;   -1,318
433,726;11305,566;    0,292;    0,500
434,315;10616,182;   -0,526;    2,409
434,905;10733,681;   -1,254;    1,409
435,494;10598,301;    0,746;    0,955
436,083;11114,045;   -0,981;   -0,955
436,672;10970,002;    0,110;    0,500
437,261;10503,132;    0,292;   -1,955
437,850;10619,346;    1,383;    0,682
438,439;10613,469;    3,291;    1,955
439,027;10453,925;    3,655;    1,773
439,616;10815,373;    2,927;    1,227
440,205;10686,755;    0,200;   -2,136
440,794;10794,886;    2,109;   -0,045
441,383;11086,506;   -1,346;   -0,591
441,971;10939,550;   -2,436;    0,591
442,560;10808,227;    0,563;   -1,773
443,149;10559,263;    0,379;   -1,318
443,737;10689,507;   -0,074;   -2,318
444,326;10979,262;    0,018;    0,318
444,915;11064,419;   -1,982;    0,864
445,503;11501,655;   -2,891;   -0,318
446,092;10684,657;    0,382;    2,136
446,680;11230,468;    0,382;    0,318
447,269;11441,447;   -0,346;   -0,318
447,857;11200,680;    0,018;   -1,773
448,445;11302,522;    0,563;    1,318
449,034;11544,396;   -1,528;   -1,136
449,622;11688,589;   -1,073;    3,500
450,210;10827,452;    2,017;    2,227
450,799;11434,897;    0,290;   -0,591
451,387;11399,570;    1,381;   -0,591
451,975;11016,897;    2,654;    0,864
452,563;11059,744;    3,472;    2,318
453,151;11151,445;   -0,528;   -1,227
453,739;11064,341;   -1,347;    0,136
454,328;10846,065;    2,381;   -2,136
454,916;10562,921;    2,562;   -0,136
455,504;10777,690;    1,017;    1,227
456,092;10921,756;    0,017;   -1,591
456,679;10952,120;    1,472;    0,682
457,267;10855,898;    4,017;    1,045
457,855;11041,275;    1,017;    1,409
458,443;10803,009;   -0,165;    1,682
459,031;10938,016;    0,108;    2,409
459,619;11426,195;   -1,801;    2,864
460,206;11593,970;    0,835;    2,045
460,794;11656,712;   -2,983;   -0,227
461,382;11941,731;   -0,529;   -0,864
461,970;11457,299;    1,198;    1,864
462,557;11484,946;   -0,711;   -0,682
463,145;11697,784;   -3,165;   -1,682
463,732;11862,792;    2,016;   -1,045
464,320;11793,287;   -0,075;   -3,045
464,907;11461,057;    2,743;   -0,773
465,495;11323,490;    0,743;   -1,227
466,082;11488,468;   -1,984;   -0,045
466,670;11460,606;   -2,529;    1,227
467,257;11829,631;   -1,711;    2,045
467,844;11947,133;   -0,075;    0,045
468,432;11986,396;    0,834;    3,500
469,019;11456,414;    0,925;   -1,773
469,606;11960,194;    0,470;    3,682
470,193;11767,214;   -1,439;    0,227
470,780;11289,752;   -2,075;    0,864
471,368;11657,268;   -1,257;   -0,773
471,955;11450,527;    1,379;   -0,682
472,542;11083,318;    0,652;   -1,136
473,129;11290,745;   -0,166;    0,136
473,716;11025,720;    1,470;    0,591
474,303;11269,289;    0,652;   -0,864
474,890;11601,505;   -1,439;   -0,500
475,477;11595,713;   -1,621;    0,409
476,064;11491,868;    1,106;   -1,591
476,650;11429,202;    0,288;    0,318
477,237;11276,111;   -0,258;    0,955
477,824;11420,942;   -1,076;    0,864
478,411;11468,441;   -1,894;   -0,318
478,997;11696,708;    0,560;   -0,773
479,584;11769,477;    1,196;   -0,409
480,171;12510,974;   -0,440;   -0,773
480,757;12183,322;    2,651;    0,773
481,344;12504,872;    0,469;    0,409
481,931;12009,506;    1,105;    1,045
482,517;13091,838;   -1,258;    0,318
483,104;13752,079;    1,106;    2,864
483,690;14133,750;   -1,804;    0,045
484,276;14519,404;   -0,895;    0,227
484,863;14264,253;    2,469;    1,136
485,449;14925,613;   -0,077;    0,318
486,035;14924,512;   -1,986;   -0,136
486,622;15374,359;   -0,895;    0,045
487,208;15323,123;    1,378;    1,500
487,794;15138,560;    0,741;    0,318
488,380;15262,017;    0,105;   -1,409
488,967;15336,288;   -1,168;   -0,409
489,553;15432,318;   -1,895;   -1,409
490,139;15602,307;    1,559;    0,773
490,725;14941,274;    0,741;   -0,227
491,311;14420,273;    3,287;    3,045
491,897;13690,489;   -0,986;    1,500
492,483;13411,071;    0,105;    1,227
493,069;13176,411;    3,923;    0,864
493,655;13178,756;    1,650;    0,682
494,241;13029,482;    1,377;   -0,955
494,826;13476,761;    0,287;   -1,045
495,412;12971,340;    2,559;   -0,682
495,998;13080,024;   -0,805;   -0,318
496,584;13254,270;    0,377;    1,045
497,169;13276,091;    1,014;   -0,682
497,755;13252,111;    0,650;    1,227
498,341;13818,807;    0,559;    0,318
498,926;13327,595;    1,832;    1,955
499,512;13555,092;    1,286;    2,955
500,097;13725,333;    0,195;   -0,318
500,683;13653,467;   -0,350;    2,136
501,268;14053,524;   -0,169;   -0,955
501,854;13745,538;   -0,169;    1,227
502,439;13641,500;   -0,624;   -1,773
503,024;13849,143;    0,195;    0,500
503,610;13913,687;   -0,078;   -0,682
504,195;13966,122;    0,558;    1,955
504,780;14092,662;    2,922;    1,227
505,366;13899,137;    3,013;    2,864
505,951;13592,665;    0,740;    1,045
506,536;13610,084;   -3,260;   -3,682
507,121;13619,525;    0,285;   -0,318
507,706;14213,468;    2,376;    1,045
508,291;14633,495;    2,649;    1,136
508,876;14034,531;   -0,988;    2,591
509,461;13473,379;   -0,169;   -0,773
510,046;13888,184;    0,194;    0,318
510,631;14139,987;   -0,351;   -0,773
511,216;13789,206;    2,467;   -0,500
511,801;14178,721;   -0,442;    2,591
512,386;14482,409;    0,740;    0,500
512,971;14448,553;   -2,988;    0,955
513,555;13968,934;   -0,897;   -1,500
514,140;14814,141;   -0,442;   -3,136
514,725;14833,023;   -0,715;   -1,136
515,309;14960,863;   -0,533;    0,318
515,894;14347,090;   -0,624;   -2,227
516,479;14826,388;   -0,624;   -0,955
517,063;14690,829;    0,376;    1,227
517,648;14815,693;    1,012;   -1,136
518,232;14469,206;   -0,261;   -1,409
518,817;14793,558;   -0,079;    1,682
519,401;15025,454;    2,194;    0,591
519,985;14536,089;    1,103;    1,136
520,570;14393,332;    0,830;   -1,955
521,154;14693,370;    2,102;    0,591
521,738;14887,513;   -2,352;    2,409
522,323;15445,391;   -0,170;    1,682
522,907;15178,717;    0,466;   -0,136
523,491;14886,933;    0,557;    0,955
524,075;14866,922;    2,284;    0,591
524,659;14997,668;    1,466;    0,591
525,243;14442,385;    1,739;    0,409
525,827;14689,718;    0,648;   -0,045
526,411;15560,759;   -1,989;   -0,136
526,995;15827,841;   -0,352;    1,409
527,579;15401,725;   -0,443;   -1,045
528,163;15710,945;    0,375;   -1,500
528,747;15609,978;    2,466;   -0,773
529,331;15943,318;   -0,080;   -1,409
529,915;16186,366;    1,738;    0,955
530,499;16121,605;   -0,807;    1,227
531,082;15856,338;   -0,534;    1,591
531,666;15256,918;    1,374;    0,773
532,250;15945,513;    1,284;    2,682
532,833;16346,280;    0,920;    2,773
533,417;16179,156;   -1,807;    0,864
534,001;16148,138;    1,647;   -0,318
534,584;16844,507;    0,374;    0,500
535,168;16686,392;    0,465;    1,409
535,751;16815,236;    0,647;    0,045
536,334;16233,159;   -0,898;   -0,409
536,918;16835,067;    0,011;    1,591
537,501;16936,593;   -0,899;    1,318
538,085;16920,766;   -0,444;    1,045
538,668;17166,118;    0,829;    2,409
539,251;17532,471;    1,829;    3,773
539,834;17480,606;    0,101;    0,773
540,418;17412,602;   -1,990;    4,318
541,001;17561,475;   -0,990;    1,773
541,584;17524,078;    2,101;    2,227
542,167;17245,683;    1,374;    2,955
542,750;17436,549;    1,919;   -0,773
543,333;16997,443;    0,555;    2,136
543,916;17818,404;    0,192;    2,500
544,499;18509,122;   -1,354;    0,227
545,082;18526,395;    1,374;    3,591
545,665;18624,609;    1,919;    1,500
546,248;19021,989;    1,010;   -0,318
546,830;18630,896;   -0,445;    1,955
547,413;19051,129;    1,010;   -0,773
547,996;19594,155;    0,555;    0,500
548,579;19389,318;    0,919;    0,955
549,161;19187,683;    1,828;    2,682
549,744;19011,846;   -0,809;    0,409
550,326;19526,415;   -0,809;   -1,136
550,909;19286,998;    2,737;    0,591
551,492;19648,163;   -0,263;    0,227
552,074;19471,306;   -0,173;   -1,318
552,657;20043,829;    2,373;    0,045
553,239;19769,251;   -0,173;   -0,773
553,821;19673,928;   -1,082;    1,045
554,404;19217,056;    1,282;    1,136
554,986;19626,287;    0,464;    1,045
555,568;20245,708;    1,191;   -0,955
556,151;19397,879;    1,191;   -0,227
556,733;19603,865;   -0,264;   -0,864
557,315;20088,873;    0,100;    0,500
557,897;19938,338;    0,554;   -0,500
558,479;20076,668;   -1,991;    1,318
559,061;20195,380;   -0,719;   -0,864
559,643;20545,728;   -0,264;    0,045
560,225;20942,163;    1,645;    2,864
560,807;20953,638;    0,918;    0,318
561,389;20423,219;    0,554;    2,318
561,971;21297,569;    0,463;    2,136
562,553;21070,516;   -1,628;    1,591
563,135;21220,425;   -0,537;    1,136
563,717;20785,470;    3,372;    1,136
564,298;21541,893;    3,645;   -0,045
564,880;21255,904;    0,645;   -1,409
565,462;21484,176;    0,645;    1,318
566,043;22710,555;   -0,446;    2,318
566,625;22205,452;    1,918;    1,227
567,207;22062,388;    1,099;    1,682
567,788;23380,537;   -1,264;    1,500
568,370;24261,793;    1,917;   -0,500
568,951;24151,312;    0,190;    0,227
569,533;25055,956;   -0,628;   -0,500
570,114;25507,784;   -0,446;    0,682
570,695;26088,328;   -0,174;   -1,318
571,277;26684,922;   -0,265;   -1,682
571,858;27508,204;    2,008;   -1,136
572,439;28529,382;    1,554;   -1,045
573,021;28764,486;    2,099;   -2,773
573,602;29281,517;   -1,265;    0,318
574,183;30284,361;   -2,083;    2,227
574,764;30457,838;   -1,629;    0,409
575,345;31071,420;    0,917;   -0,136
575,926;31775,311;   -0,356;    0,136
576,507;31753,415;    1,099;   -0,227
577,088;32967,744;    3,099;    1,682
577,669;32989,112;    0,735;    1,955
578,250;33788,634;    0,644;   -1,045
578,831;34613,176;   -1,356;   -2,227
579,412;34883,374;   -0,810;    0,955
579,993;35810,466;    1,008;    0,227
580,573;36135,966;   -0,629;   -0,955
581,154;35114,158;    0,735;   -0,591
581,735;35970,521;    0,644;    0,773
582,315;35484,976;   -0,629;    2,136
582,896;35754,747;   -0,174;    1,227
583,477;35173,116;    0,189;    1,227
584,057;35403,977;    0,553;    0,955
584,638;35737,466;    2,553;    2,318
585,218;35702,317;   -0,538;    2,682
585,799;35912,804;    0,281;   -0,227
586,379;35821,653;    0,372;    1,591
586,959;34446,702;    0,735;    0,318
587,540;33661,403;   -0,629;    2,227
588,120;33129,398;    1,007;   -0,045
588,700;32060,802;    2,553;    2,136
589,281;32410,079;    0,462;   -0,955
589,861;32342,456;    0,099;   -1,682
590,441;32127,466;    2,371;   -2,682
591,021;31088,272;   -0,265;   -2,591
591,601;31223,242;   -0,537;    0,500
592,181;31238,957;   -0,719;   -0,773
592,761;30489,065;    0,007;    1,409
593,341;30361,747;   -0,901;    0,045
593,921;30347,983;   -0,265;    1,591
594,501;30250,827;   -0,538;    1,318
595,081;30083,630;    0,917;   -0,318
595,661;30470,542;   -1,447;    0,955
596,240;30981,367;   -0,537;    0,136
596,820;30679,090;    0,372;    1,955
597,400;30860,359;    2,008;    0,773
597,980;31083,945;    2,008;    1,045
598,559;31090,324;    2,735;   -0,227
599,139;30691,849;   -0,174;   -1,227
599,718;30624,121;   -0,174;   -0,409
600,298;30865,177;    0,735;    0,682
600,877;31146,889;    2,917;    1,409
601,457;31399,248;    2,281;    1,136
602,036;31275,503;    0,190;    2,045
602,616;31592,297;    0,644;    1,682
603,195;31930,600;   -0,355;    3,500
603,774;31464,272;   -0,901;    2,045
604,354;31337,352;    0,826;   -0,500
604,933;30737,389;    0,463;    1,864
605,512;30859,534;    3,554;    0,591
606,091;30909,666;   -0,537;    3,773
606,671;31739,498;    0,281;    0,773
607,250;30842,885;    1,644;    3,136
607,829;31062,163;    2,372;    3,227
608,408;30896,882;    1,190;    2,591
608,987;29861,522;    1,281;    3,409
609,566;30199,644;   -1,265;   -2,500
610,145;30343,716;   -1,082;    0,682
610,723;30694,615;    4,372;    6,864
611,302;29925,599;   -0,446;    1,682
611,881;29406,147;    5,008;   11,227
612,460;30276,147;    1,645;    3,955
613,039;30652,495;   -0,082;    2,045
613,617;29304,335;    1,736;    4,773
614,196;29486,545;    1,099;    1,227
614,775;29847,255;    1,009;    2,409
615,353;29828,821;    0,736;    0,864
615,932;29561,821;    0,100;    2,409
616,510;30076,062;    0,554;    0,591
617,089;29605,913;    7,100;   17,591
617,667;29302,015;    2,372;    6,136
618,246;29203,001;   -1,537;    1,318
618,824;29392,831;   -3,355;   -0,955
619,402;28960,388;   -2,900;   -1,773
619,981;29474,510;   -0,173;   -1,045
620,559;29228,553;    0,009;    1,682
621,137;28725,407;   -0,718;    1,864
621,715;28821,033;   -1,173;   -0,682
622,293;28668,906;   -0,537;   -0,773
622,871;29043,873;   -0,718;    0,500
623,450;28661,697;    0,373;   -0,864
624,028;28523,757;    0,191;   -0,955
624,606;28154,664;   -1,718;    1,682
625,183;28579,194;   -1,536;   -1,136
625,761;28167,274;    1,009;    1,136
626,339;28481,051;    1,373;    2,591
626,917;28853,666;   -0,172;   -0,045
627,495;28917,099;   -0,354;    1,318
628,073;28282,959;   -0,263;    2,864
628,650;28000,112;    0,100;    2,136
629,228;28397,775;    0,373;    4,409
629,806;27794,954;    2,282;    1,136
630,383;28087,540;    1,464;   -0,318
630,961;27829,897;    2,555;   -0,955
631,539;27560,574;    2,464;    0,227
632,116;26929,170;   11,373;   15,409
632,694;27506,654;    2,555;    6,500
633,271;27827,953;    0,828;    2,682
633,848;27720,389;    1,828;    2,045
634,426;27729,349;   -1,081;    1,773
635,003;26803,442;    1,101;   -0,409
635,580;27112,395;    1,192;    3,682
636,158;27741,686;    3,737;    1,227
636,735;27732,533;    0,555;   -0,500
637,312;27864,776;   -0,809;   -0,682
637,889;27985,893;   -4,354;   -0,682
638,466;27436,235;   -3,990;   -0,409
639,043;27445,114;    2,101;   -1,136
639,620;27757,614;   -2,262;   -0,955
640,197;28159,972;    1,100;    1,682
640,774;28224,501;   -0,172;    1,136
641,351;28678,485;    0,737;    1,136
641,928;27996,922;   -0,627;    1,409
642,505;27637,088;    0,828;   -0,500
643,082;27741,435;   -1,718;    1,227
643,658;26741,418;   -0,718;    1,500
644,235;27555,310;    1,191;    2,500
644,812;27867,657;    1,918;    0,773
645,388;27604,641;   -0,991;    1,409
645,965;27717,624;   -0,809;    1,682
646,542;27788,244;   -1,445;   -0,227
647,118;27734,681;    1,009;   -0,955
647,695;28082,574;   -0,263;    1,136
648,271;27964,557;   -0,536;    0,500
648,848;28324,995;    0,736;    2,227
649,424;28156,251;    0,827;    1,318
650,000;27916,507;   -0,354;   -1,045
650,577;27682,854;   -0,627;   -0,955
651,153;28170,656;   -1,809;    0,955
651,729;29221,275;    1,191;    0,864
652,305;29735,349;    0,645;    2,773
652,881;35133,333;   -0,082;    1,136
653,458;42759,134;    1,100;    0,227
654,034;46707,754;    0,282;    1,591
654,610;48270,283;    0,554;    0,773
655,186;49712,175;    0,645;    3,045
655,762;49414,704;   -0,991;    0,409
656,338;49398,324;    0,100;    0,136
656,913;50328,307;   -0,082;    0,409
657,489;49667,836;    0,827;   -0,318
658,065;49663,274;   -0,173;   -1,591
658,641;50294,166;   -0,900;   -0,864
659,217;49541,967;   -0,991;    0,409
659,792;48973,769;    0,645;   -0,409
660,368;49189,298;   -2,173;   -0,682
660,944;48518,917;   -2,082;    1,227
661,519;42999,082;   -0,628;    0,409
662,095;36233,611;   -1,719;    0,591
662,670;31370,049;    1,281;   -0,136
663,246;30127,578;    1,009;   -0,409
663,821;29513,743;    0,281;    1,682
664,396;28982,181;    0,009;    1,864
664,972;29319,346;    0,009;   -0,500
665,547;29636,966;    1,372;    0,136
666,122;29732,131;   -1,082;    0,318
666,698;29963,387;   -0,173;    0,318
667,273;29275,098;   -0,173;    0,136
667,848;30113,899;    2,372;    1,500
668,423;29940,064;    2,190;    2,318
668,998;30548,593;    2,827;   -0,682
669,573;31072,213;   -3,264;   -1,500
670,148;30930,105;   -1,446;   -0,682
670,723;30760,997;   -1,810;    0,318
671,298;31166,253;    2,372;    1,045
671,873;31305,964;   -0,082;   -0,136
672,448;31193,402;    0,645;    0,136
673,023;31589,567;   -1,992;   -0,227
673,597;31932,641;    0,827;    2,318
674,172;31698,079;   -0,355;    0,318
674,747;31159,608;    0,372;   -1,045
675,321;30939,864;   -0,628;    3,318
675,896;30502,302;    0,645;    1,045
676,471;31581,922;    2,645;    1,591
677,045;31334,359;   -1,264;    0,682
677,620;31399,979;    0,190;    1,136
678,194;31647,508;   -2,628;    1,136
678,769;31273,855;   -1,083;   -0,318
679,343;31545,202;   -0,628;    1,773
679,917;31435,094;   -1,446;    1,955
680,492;31525,441;    0,826;    3,227
681,066;31669,879;    3,372;    0,409
681,640;31712,590;    1,463;   -0,318
682,214;32527,664;    0,735;    0,500
682,788;32047,738;   -1,356;   -0,773
683,363;32015,994;   -1,810;    1,682
683,937;31691,159;   -1,719;   -0,318
684,511;32467,142;    0,463;   -0,591
685,085;32207,489;   -1,356;    0,318
685,659;31937,564;   -2,538;    0,864
686,232;32218,820;   -0,356;   -0,318
686,806;31905,894;   -0,901;    0,409
687,380;32589,514;   -0,174;    0,591
687,954;32764,315;   -1,174;    1,136
688,528;32467,662;   -0,719;    1,955
689,101;33255,736;   -3,992;    1,045
689,675;32886,992;   -0,356;   -0,136
690,249;32231,067;   -0,719;    0,409
690,822;32510,595;    0,280;    0,318
691,396;32627,488;   -0,265;    1,227
691,969;32057,380;    1,280;    0,136
692,543;32486,909;   -0,447;   -1,955
693,116;32117,710;   -0,265;   -1,409
693,690;32002,876;    0,099;    0,500
694,263;32640,223;   -1,083;    2,955
694,836;32633,388;    1,371;    3,591
695,410;31265,098;   -0,265;    1,773
695,983;31757,809;    0,189;    0,591
696,556;31675,883;   -0,447;   -1,045
697,129;32082,866;   -0,356;    1,409
697,703;31722,213;   -1,629;    1,955
698,276;31659,560;    1,462;   -0,773
698,849;31522,998;    1,280;    1,409
699,422;31828,527;   -1,083;    0,591
699,995;31565,510;    0,007;    0,136
700,568;32038,584;   -0,629;    3,045
701,140;32047,113;   -2,811;    1,682
701,713;31756,824;   -0,174;    2,409
702,286;31556,989;   -0,538;    0,864
702,859;31457,881;   -0,902;   -0,591
703,432;30539,228;    0,825;    0,682
704,004;31024,757;    0,462;    0,318
704,577;30948,922;   -0,629;    0,136
705,150;31525,724;    0,189;    2,500
705,722;31255,980;   -0,356;   -3,227
706,295;31040,054;   -0,175;   -0,591
706,867;30882,946;   -0,175;    1,955
707,440;31134,021;   -1,720;   -0,409
708,012;31446,277;    0,462;    0,591
708,584;31377,805;    2,462;    0,227
709,157;31628,698;    1,825;   -0,591
709,729;31277,772;    2,280;    2,045
710,301;32092,665;    0,734;    0,045
710,874;32161,284;   -1,447;   -0,227
711,446;30993,631;    0,371;    0,864
712,018;30835,887;    0,098;    0,500
712,590;30633,325;   -1,993;    1,682
713,162;31135,763;    0,825;    1,318
713,734;31467,110;    1,825;   -2,045
714,306;31300,275;   -1,902;   -0,409
714,878;29986,349;    0,825;    0,864
715,450;30786,333;    0,643;    0,864
716,022;30983,134;    1,552;    1,318
716,593;31139,117;    0,189;    0,591
717,165;31077,828;   -3,175;   -1,227
717,737;30780,175;    0,280;    0,409
718,309;30402,976;    0,280;   -0,045
718,880;30335,232;   -0,539;   -1,409
719,452;30605,852;   -0,175;   -1,591
720,024;30132,835;    0,734;   -0,591
720,595;30701,728;   -2,902;    0,955
721,167;30297,620;    0,370;   -2,045
721,738;29839,513;   -0,812;   -1,045
722,309;29800,132;   -0,993;   -1,227
722,881;29607,025;   -1,357;    0,773
723,452;30231,826;   -2,630;    2,864
724,023;30386,719;   -0,721;    2,682
724,595;30120,429;    0,007;    0,682
725,166;29788,049;    0,007;   -0,409
725,737;29483,760;    1,734;    0,227
726,308;29555,925;   -0,266;    0,318
726,879;30027,999;   -1,630;    1,227
727,450;29864,073;    0,552;   -0,045
728,021;29840,147;    3,097;    0,682
728,592;29651,585;    0,734;    0,500
729,163;29951,387;    0,643;   -0,136
729,734;30022,370;    0,188;   -0,227
730,305;30368,262;    1,734;    0,136
730,876;30786,337;    0,188;    2,955
731,447;30527,138;    2,188;    2,682
732,017;30617,031;    1,097;    1,864
732,588;30017,923;    0,734;    1,227
733,159;30262,270;    0,643;   -1,045
733,729;30088,071;    0,006;    0,409
734,300;29373,146;    0,915;    0,864
734,870;29748,038;    3,461;    0,591
735,441;30336,385;    0,370;   -0,591
736,011;30086,459;    0,643;   -1,591
736,582;30029,897;   -0,812;    0,045
737,152;29491,517;   -1,721;   -2,045
737,722;29899,591;   -0,267;   -0,682
738,293;29644,665;   -1,358;    1,318
738,863;29505,830;    2,461;    2,318
739,433;29266,814;    5,279;    0,318
740,003;29913,343;   -0,994;   -0,682
740,573;29275,326;    2,097;   -1,591
741,143;29252,127;   -1,085;    0,318
741,713;30097,474;    1,188;   -0,500
742,283;29782,003;    0,915;    1,591
742,853;29500,077;    1,915;    1,591
743,423;28883,788;    1,733;    0,045
743,993;29075,317;   -0,358;    1,500
744,563;28407,664;    0,097;   -0,864
745,133;28356,465;   -0,812;   -0,864
745,702;29081,903;   -0,267;    1,773
746,272;28331,795;   -0,176;    0,591
746,842;28025,870;   -1,358;   -0,591
747,411;28432,580;   -0,267;   -0,318
747,981;28630,109;    0,097;    0,500
748,551;28665,820;    2,278;   -1,045
749,120;28504,076;    0,642;   -0,227
749,690;28924,968;   -0,631;    2,409
750,259;29291,406;    1,369;    2,955
750,828;29226,389;    1,551;   -1,955
751,398;29503,463;    1,278;   -0,045
751,967;29014,810;    2,187;    0,409
752,536;29223,066;   -0,813;   -0,227
753,105;29622,868;    0,096;    0,227
753,675;29453,124;    0,096;    1,773
754,244;29389,471;   -0,904;    3,591
754,813;29406,000;    0,551;    1,227
755,382;29013,347;    0,460;    0,955
755,951;29602,694;    1,551;    3,682
756,520;29050,677;   -0,085;    1,864
757,089;29646,478;    0,278;    0,500
757,658;29862,553;    1,733;    1,227
758,227;29851,627;    1,096;    0,318
758,795;30180,792;    1,187;    1,136
759,364;30457,412;   -0,086;   -0,591
759,933;29427,668;   -1,176;   -0,045
760,501;28864,015;    0,733;   -1,318
761,070;29346,543;   -2,813;   -1,409
761,639;30032,163;   -1,904;    1,318
762,207;29394,510;    1,551;   -0,955
762,776;29333,766;    0,369;    0,864
763,344;29261,477;   -0,995;    0,591
763,913;28437,187;   -0,722;    1,409
764,481;29156,262;    1,005;   -0,136
765,049;28842,609;   -1,358;    1,409
765,618;28696,592;   -0,086;    0,318
766,186;28765,575;    0,278;    0,136
766,754;28975,922;    0,005;    1,864
767,322;27953,633;   -1,995;    0,409
767,890;27986,525;   -0,722;   -1,773
768,459;28390,145;   -2,177;   -0,318
769,027;28559,037;    1,641;    3,409
769,595;27564,839;    3,278;    2,591
770,163;27982,822;    3,823;    2,955
770,730;27676,078;    0,732;   -0,136
771,298;27509,789;    0,187;   -1,409
771,866;27553,227;   -1,541;    4,955
772,434;27889,301;   -0,631;   -1,864
773,002;28088,466;    0,005;    0,682
773,569;27708,540;    0,914;    1,682
774,137;27544,796;   -0,268;   -0,045
774,705;28305,052;    0,278;   -0,136
775,272;27781,581;    0,641;    0,682
775,840;27545,201;   -0,177;    2,682
776,407;27095,275;    0,277;    1,955
776,975;26686,531;   -0,632;    0,318
777,542;27704,605;   -1,086;   -0,045
778,110;27516,952;   -1,268;   -0,045
778,677;27220,935;   -2,359;   -0,864
779,244;26964,464;    2,186;    1,045
779,812;27056,448;    1,823;    0,864
780,379;26901,885;    0,005;    1,136
780,946;27164,869;    1,005;   -0,773
781,513;27502,670;   -1,450;    0,318
782,080;26841,472;   -0,086;    2,864
782,647;27646,000;   -0,268;    3,045
783,214;27231,438;   -0,177;    3,864
783,781;26794,876;   -0,723;   -0,682
784,348;26674,405;   -0,632;    1,500
784,915;27100,297;   -3,177;    0,318
785,482;26871,281;    1,368;    2,591
786,049;27278,173;    0,186;   -0,591
786,615;27426,429;    0,277;   -0,955
787,182;27103,503;    0,186;   -0,682
787,749;26814,214;   -2,814;    1,409
788,315;26119,379;   -1,632;   -0,409
788,882;26406,908;    1,550;   -1,227
789,448;27147,346;    1,732;   -0,955
790,015;27161,329;    1,095;    3,227
790,581;26715,312;    1,459;    0,227
791,148;26689,387;    0,641;    1,045
791,714;26870,188;   -0,541;    3,136
792,280;26521,626;    0,186;    1,591
792,847;26009,882;    0,550;    2,500
793,413;26640,684;   -0,269;   -0,318
793,979;26141,849;    3,459;   -1,318
794,545;26213,014;    4,459;    2,682
795,111;25659,543;    2,186;    1,318
795,678;25763,708;    0,731;   -1,682
796,244;25414,873;    3,368;    0,136
796,810;25950,402;    1,731;    0,773
797,375;25689,839;    0,549;   -2,136
797,941;25691,732;   -0,541;    0,591
798,507;25875,624;   -0,451;   -0,955
799,073;25406,517;   -0,360;    0,591
799,639;25414,773;   -2,632;    3,136
800,205;25470,574;    0,095;    2,682
800,770;24959,830;    0,640;    1,773
801,336;25064,723;    1,368;   -0,955
801,901;24743,070;    4,549;    3,136
802,467;25337,144;   -0,542;    2,045
803,033;24700,582;   -0,087;    0,864
803,598;24882,111;    1,913;   -1,045
804,163;24894,912;    1,095;   -0,318
804,729;24837,804;   -0,178;    1,136
805,294;25203,879;    0,822;    2,227
805,859;24977,771;    0,731;   -0,409
806,425;24484,118;    1,186;    2,682
806,990;24129,101;    2,186;    4,318
807,555;24645,085;   -1,451;    2,591
808,120;24508,704;    0,822;   -0,409
808,685;24592,051;    0,185;   -2,500
809,250;24056,671;    0,004;   -0,500
809,815;24424,109;    1,913;    0,682
810,380;24934,365;   -0,269;    1,591
810,945;25494,894;   -1,087;    2,045
811,510;24596,422;    2,094;    1,591
812,075;24299,678;   -0,633;   -1,409
812,640;24362,389;    2,003;    1,409
813,204;24409,736;    0,822;   -0,227
813,769;24869,447;    2,094;   -0,045
814,334;24235,157;    0,458;    0,864
814,898;24319,141;    0,367;    0,591
815,463;24175,760;    1,276;   -0,773
816,027;24175,925;   -0,724;   -2,318
816,592;24234,545;    0,640;   -2,045
817,156;23732,437;    2,094;    1,136
817,721;23633,512;    4,276;    2,318
818,285;23579,040;    2,912;    1,500
818,849;24231,024;   -1,451;    1,682
819,414;24132,007;   -0,269;    2,955
819,978;23656,990;   -1,269;    1,773
820,542;24242,792;    2,003;    0,500
821,106;23872,866;   -0,815;    0,682
821,670;24068,940;   -0,815;    2,591
822,234;23772,378;   -0,270;    1,409
822,798;23110,361;    0,003;    0,500
823,362;23051,618;   -0,633;    4,227
823,926;22305,055;    0,094;    1,136
824,490;22573,221;   -0,997;   -0,682
825,054;23047,477;   -0,088;   -1,136
825,618;22699,551;   -1,542;   -1,500
826,181;22596,534;    0,458;   -1,318
826,745;22472,699;    1,367;   -1,045
827,309;22870,683;    1,185;    1,318
827,872;22215,030;    1,367;    0,955
828,436;23229,649;    1,185;   -0,773
828,999;23250,723;   -0,997;    1,227
829,563;21974,979;   -0,179;    1,136
830,126;21818,236;   -0,179;   -0,591
830,690;21861,855;   -1,997;    2,864
831,253;21403,657;   -0,543;    2,227
831,816;21544,640;   -1,906;    0,500
832,380;21432,078;    0,185;    0,864
832,943;21652,243;   -1,361;   -0,500
833,506;21099,681;    2,639;   -1,227
834,069;21905,391;    3,912;   -0,955
834,632;21961,829;    1,730;    1,318
835,195;21868,904;    1,003;    0,955
835,758;21029,432;   -0,997;    1,955
836,321;20873,143;    0,730;   -1,045
836,884;20962,035;   -0,725;   -0,955
837,447;21003,382;   -2,816;    1,773
838,010;21297,729;    0,366;    3,227
838,573;21544,713;   -1,179;    0,773
839,135;21543,332;   -1,361;   -0,955
839,698;21033,316;    1,275;    0,409
840,261;20501,844;    1,003;   -0,227
840,823;20314,282;   -0,543;    0,864
841,386;20625,175;   -0,452;   -2,409
841,948;20501,340;   -1,361;    1,773
842,511;20229,414;    0,912;    1,682
843,073;20364,488;    1,912;    0,227
843,636;20142,381;   -0,361;   -0,227
844,198;20117,182;    0,911;    0,591
844,760;20207,620;    1,093;    1,955
845,322;19889,421;    0,548;    1,136
845,885;20265,950;    0,730;    0,591
846,447;20680,297;   -1,998;    0,227
847,009;20293,735;    1,911;   -0,682
847,571;20638,355;    0,820;   -2,045
848,133;20718,065;   -1,089;   -1,864
848,695;20499,685;   -0,543;    1,409
849,257;20061,396;   -1,089;   -1,682
849,819;20271,743;   -0,998;   -0,409
850,381;20301,726;   -0,725;   -0,864
850,942;20668,255;    1,093;   -0,591
851,504;20670,602;    1,184;    0,227
852,066;20666,039;    1,275;   -1,591
852,628;20179,205;   -0,180;    1,955
853,189;19711,279;    1,638;    2,682
853,751;19845,989;   -0,907;    1,409
854,312;19697,882;   -0,453;   -1,682
854,874;20180,320;   -2,089;   -0,773
855,435;20727,848;   -0,907;   -1,682
855,997;20889,832;   -1,816;   -0,136
856,558;20137,451;    0,366;    1,773
857,119;20246,617;    0,820;    2,864
857,681;19900,327;    0,002;    0,318
858,242;19985,765;    1,911;   -2,136
858,803;20415,021;    0,456;   -0,773
859,364;21004,914;    0,184;   -4,773
859,925;20290,624;   -2,453;   -0,955
860,486;20195,971;   -0,453;   -0,955
861,047;19927,136;   -0,544;   -1,227
861,608;19696,392;   -1,089;   -0,773
862,169;19801,194;    0,638;   -0,045
862,730;19559,359;    0,456;    1,409
863,291;19811,069;   -0,635;   -0,500
863,852;20235,326;   -0,635;    1,955
864,412;19656,945;   -0,271;   -0,864
864,973;18158,565;   -0,089;    0,500
865,534;18048,094;   -1,726;    0,227
866,094;19633,168;    1,820;    0,227
866,655;19258,606;    1,274;    3,318
867,215;19548,589;    0,274;    0,136
867,776;19412,391;    0,547;   -0,136
868,336;19495,283;   -1,453;    0,136
868,897;18946,812;    2,638;    1,682
869,457;18654,795;    1,365;    0,318
870,017;18865,051;    0,547;   -1,227
870,578;19409,671;   -0,817;    0,773
871,138;19132,836;   -2,089;   -0,955
871,698;18649,637;   -0,817;   -1,318
872,258;18520,803;   -0,453;   -2,864
872,818;18878,059;    2,729;    0,045
873,378;18864,769;    0,638;    1,045
873,938;18400,389;    0,547;    0,500
874,498;18758,099;    0,274;   -1,955
875,058;18647,628;    2,183;    1,773
875,618;18480,248;    1,910;   -2,682
876,177;18395,595;    1,274;    0,136
876,737;17996,215;   -0,090;    1,955
877,297;18034,562;    0,183;    1,955
877,856;18000,181;   -0,362;    0,318
878,416;17920,710;    1,183;   -0,136
878,976;18152,602;   -1,817;    0,409
879,535;18295,495;    0,092;    3,136
880,095;18062,387;   -0,544;    0,045
880,654;18158,007;   -1,090;    1,318
881,213;18263,081;    2,456;    1,500
881,773;17912,974;    2,637;    2,682
882,332;18285,048;    3,365;    5,136
882,891;18127,577;    3,092;    2,136
883,451;18647,105;   -1,272;    1,682
884,010;18062,089;   -2,908;   -0,409
884,569;18143,981;   -0,999;   -0,045
885,128;18292,055;    2,819;   -1,864
885,687;18350,220;    4,455;    0,682
886,246;18003,840;    1,455;    2,136
886,805;17843,460;    2,455;    2,045
887,364;18112,534;   -0,999;   -0,500
887,922;18464,608;   -1,181;    0,045
888,481;17970,773;   -1,545;    0,591
889,040;18259,120;    1,183;    2,136
889,599;18941,831;    2,455;    1,409
890,157;19066,632;    1,455;    2,409
890,716;18749,616;   -0,090;    0,227
891,274;18528,508;    0,092;   -1,136
891,833;18991,491;    1,546;    0,864
892,391;18864,384;   -0,454;    0,500
892,950;18902,640;    1,819;   -0,773
893,508;19302,441;    0,455;   -0,409
894,067;18620,334;    0,637;    0,136
894,625;18531,681;   -0,636;   -1,500
895,183;18796,119;   -0,363;   -0,682
895,741;18652,102;    1,728;   -1,773
896,299;18464,176;   -0,545;   -2,409
896,858;18652,887;    0,819;   -1,591
897,416;18813,234;    2,728;   -1,318
897,974;18517,853;    1,819;    0,318
898,532;18675,291;    6,091;    2,682
899,089;18612,820;    2,091;   -0,682
899,647;18615,803;   -1,454;    1,318
900,205;18266,605;    1,182;    1,045
900,763;18460,225;   -0,454;    0,227
901,321;18517,117;    2,364;   -1,409
901,878;17928,646;   -1,000;   -0,773
902,436;17761,629;   -1,363;    1,318
902,994;18159,976;    4,728;    3,682
903,551;17553,141;    0,728;    0,409
904,109;17939,761;    0,182;   -1,409
904,666;17507,108;    2,455;    1,045
905,224;17357,364;    0,182;   -0,409
905,781;17060,711;    0,727;   -0,318
906,338;17156,785;   -1,363;    1,045
906,895;17058,496;    0,637;    2,045
907,453;16982,570;    1,727;    1,136
908,010;17034,371;   -0,909;    0,409
908,567;16647,082;    1,273;    0,591
909,124;16173,974;    0,364;   -1,500
909,681;16244,139;   -2,909;    0,682
910,238;16352,395;    0,636;   -1,318
910,795;16663,015;   -0,273;   -1,136
911,352;16275,924;   -2,909;   -2,682
911,909;15666,106;   -1,364;   -0,864
912,466;16232,015;   -3,182;    1,500
913,022;15752,106;   -1,636;    0,500
913,579;16127,197;   -0,909;    2,045
914,136;15813,742;    1,636;    0,955
914,692;16120,106;    0,091;   -1,227
915,249;15750,470;    1,455;    0,409
915,806;15975,924;    0,182;    1,955
916,362;15700,106;    1,909;    1,864
916,918;15245,652;    2,000;    1,045
917,475;15239,015;   -1,182;    0,955
918,031;15297,652;    3,364;   -0,045
918,587;14679,288;   -0,909;   -0,318
919,144;14912,470;   -2,273;    0,227
919,700;15266,924;    1,727;    0,773
920,256;14804,288;    0,727;    0,045
920,812;14429,197;   -0,727;   -1,045
921,368;14403,652;   -1,727;   -1,045
921,924;14013,742;    0,182;   -0,136
922,480;13603,742;   -0,545;    1,227
923,036;14228,379;    1,273;    1,955
923,592;14152,106;    0,455;    0,318
924,148;14052,924;    0,455;   -0,955
924,704;13315,470;   -1,364;   -0,409
925,259;13586,742;   -0,273;    0,591
925,815;13330,833;    1,455;    0,500
926,371;12851,833;    2,909;    1,409
926,926;12738,561;    2,091;    0,591
927,482;12373,470;   -1,364;    0,773
928,037;12220,470;    0,909;    2,045
928,593;12495,288;    1,636;    1,045
929,148;12307,742;   -1,818;   -1,500
929,704;11765,742;   -1,455;   -0,500
930,259;11967,288;    0,091;   -0,136
930,814;11006,652;   -0,818;    1,955
931,369;10678,833;    1,091;   -0,773
931,925;10541,833;   -0,091;    0,136
932,480;10448,652;   -2,818;   -2,591
933,035;10308,742;    0,545;   -0,318
933,590;10092,561;    0,364;   -1,773
934,145; 9657,561;   -1,364;   -0,318
934,700; 9991,833;    0,455;   -0,591
935,255; 9792,288;   -0,091;    0,045
935,809; 9037,015;    3,182;    0,864
936,364; 8135,742;   -0,455;   -0,136
936,919; 8068,924;    0,455;   -1,773
937,474; 7962,197;    1,455;    0,136
938,028; 7700,288;   -1,636;    1,136
938,583; 7147,833;    1,818;    4,682
939,138; 7426,652;    2,091;    2,136
939,692; 6812,015;    1,636;   -1,136
940,247; 6516,379;   -0,727;   -1,045
940,801; 6027,197;   -0,636;    0,227
941,355; 5894,015;   -0,364;    2,591
941,910; 5496,652;   -0,273;   -2,136
942,464; 5613,379;   -0,818;   -0,318
943,018; 5392,742;    1,000;   -0,227
943,572; 5343,379;    2,545;   -0,682
944,126; 4723,197;    0,091;   -0,409
944,681; 4591,015;    3,091;    0,227
945,235; 4587,470;    1,000;   -0,591
945,789; 4530,924;    0,364;   -1,864
946,342; 4599,015;    0,455;   -0,591
946,896; 4432,288;   -2,273;    0,955
947,450; 4179,742;    1,545;   -0,227
948,004; 4368,288;    1,727;   -0,045
948,558; 4353,742;    0,273;   -0,864
949,111; 4282,106;   -0,273;   -0,318
949,665; 4299,652;    1,636;   -0,682
950,219; 4172,561;   -0,091;   -1,045
950,772; 4257,652;   -1,909;    1,864
951,326; 4156,833;    0,545;   -0,955
951,879; 4270,106;    0,727;   -2,318
952,433; 4284,379;    0,000;    2,227
952,986; 4108,561;    2,909;    0,682
953,539; 4079,742;   -0,273;    0,591
954,093; 3990,470;    0,545;   -1,318
954,646; 4139,288;    0,909;    1,318
955,199; 3939,470;    0,000;   -0,500
955,752; 3811,833;   -0,455;    1,773
956,305; 3771,652;   -0,091;    2,955
956,858; 3947,924;    0,818;   -0,318
957,411; 4108,379;   -0,545;    2,136
957,964; 3955,470;    1,364;    2,136
958,517; 3919,015;   -1,545;    3,136
959,070; 3760,924;   -0,455;    1,955
959,623; 3812,197;    1,091;    1,500
960,176; 3582,561;    1,727;    2,045
960,728; 3561,833;   -2,727;    0,773
961,281; 3615,197;    0,545;    0,500
961,834; 3697,742;   -0,909;    0,864
962,386; 3578,379;    1,727;    1,045
962,939; 3501,742;    0,364;   -0,318
963,491; 3669,652;    0,455;    1,136
964,043; 3514,924;    1,182;    2,409
964,596; 3646,652;   -1,000;    2,227
965,148; 3481,924;   -1,000;    1,773
965,700; 3400,015;    1,091;   -0,227
966,253; 3552,652;   -0,636;    0,318
966,805; 3373,561;   -2,273;    0,773
967,357; 3421,470;    1,091;   -1,500
967,909; 3383,288;    0,455;   -1,227
968,461; 3482,106;    0,545;    3,136
969,013; 3421,015;   -0,182;   -0,864
969,565; 3522,106;   -0,455;   -1,136
970,117; 3544,197;   -0,364;    1,045
970,669; 3390,924;    0,182;   -0,136
971,220; 3260,742;   -0,455;   -1,500
971,772; 3177,561;   -0,636;   -0,318
972,324; 3292,288;    0,091;   -0,500
972,876; 3233,470;    0,818;   -0,045
973,427; 3391,379;    1,909;   -1,045
973,979; 3345,652;   -0,727;   -2,500
974,530; 3401,652;    1,818;    1,318
975,082; 3415,470;   -0,545;    1,682
975,633; 3281,015;    1,091;    1,682
976,184; 3426,561;    0,909;    0,773
976,736; 3193,833;    0,091;    0,227
977,287; 3007,652;   -0,909;   -0,500
977,838; 3194,924;    0,909;   -0,318
978,389; 3250,015;   -1,000;   -0,500
978,940; 3133,379;    0,545;   -0,409
979,491; 3158,379;    0,091;   -0,500
980,042; 3121,924;    0,182;    3,045
980,593; 3176,379;   -2,545;    0,227
981,144; 3204,106;    2,545;   -0,500
981,695; 3153,197;    1,455;    1,500
982,246; 3144,379;   -0,273;    1,045
982,797; 3308,106;   -1,727;    0,682
983,347; 3423,379;    0,364;    0,591
983,898; 3601,742;    3,091;    0,409
984,449; 3394,470;    2,182;    0,773
984,999; 3305,561;    1,455;   -1,136
985,550; 3061,197;    0,182;   -0,318
986,100; 3116,833;   -0,455;   -0,318
986,651; 3142,197;   -0,818;    0,045
987,201; 3113,106;   -1,000;   -0,591
987,751; 3208,561;    0,818;    2,864
988,302; 3211,652;    2,636;    1,500
988,852; 3229,288;    0,455;   -1,136
989,402; 3259,561;    0,091;    0,682
989,952; 3154,652;   -2,182;    0,864
990,502; 3275,197;   -0,091;    0,682
991,052; 3241,470;   -0,727;    0,045
991,602; 3119,106;   -2,909;    1,318
992,152; 3100,561;    0,455;    0,682
992,702; 3068,924;    1,364;   -0,045
993,252; 2998,015;   -3,000;   -0,500
993,802; 3072,924;   -0,273;    1,318
994,352; 3340,015;   -1,545;    1,136
994,901; 3431,833;   -0,182;    3,227
995,451; 3324,924;   -0,182;    0,318
996,000; 3416,470;    1,636;    0,318
996,550; 3132,379;    2,273;    0,227
997,100; 3116,015;    1,273;   -0,045
997,649; 3414,197;    2,182;    0,955
998,198; 3023,470;    1,727;   -1,500
998,748; 3226,742;    1,091;   -2,318
999,297; 3149,924;   -0,818;   -0,409
999,846; 3187,288;    1,000;   -0,773
1000,395; 3238,470;   -0,818;    0,500
1000,945; 3190,742;    1,818;   -0,773
1001,494; 3296,197;    2,364;    0,682
1002,043; 3290,288;    4,636;    0,864
1002,592; 3125,379;   -1,091;    1,955
1003,141; 3272,197;   -0,455;   -0,682
1003,690; 3108,379;    1,727;    0,500
1004,238; 3222,106;    1,455;   -0,045
1004,787; 2850,833;    1,364;    1,227
1005,336; 3084,379;    0,364;    0,682
1005,885; 3241,106;    1,364;   -2,773
1006,433; 3378,197;    0,545;    0,955
1006,982; 3430,197;    0,455;    1,682
1007,531; 3322,833;   -1,818;   -0,227
1008,079; 3292,924;   -2,273;    0,500
1008,627; 3427,470;   -1,455;    0,409
1009,176; 3160,288;    0,000;   -1,955
1009,724; 3204,924;    1,091;    0,864
1010,273; 3248,833;    1,273;    0,500
1010,821; 3384,197;    0,091;    1,409
1011,369; 3106,561;   -1,364;    1,318
1011,917; 3079,288;   -1,364;   -0,591
1012,465; 3364,197;    1,273;   -1,591
1013,013; 3484,561;    2,091;   -1,682
1013,561; 3360,561;    0,455;   -0,773
1014,109; 3409,106;   -1,909;    1,682
1014,657; 3283,106;    0,364;    0,591
1015,205; 3399,197;    1,636;   -0,955
1015,753; 3479,652;   -0,545;   -1,409
1016,301; 3510,106;   -2,636;    3,045
1016,848; 3493,379;   -1,273;    0,409
1017,396; 3538,379;    2,545;    0,045
1017,944; 3672,288;    1,182;    1,864
1018,491; 3432,924;    0,273;    1,409
1019,039; 3563,015;    0,455;    0,591
1019,586; 3492,288;   -1,364;    1,682
1020,134; 3596,742;    0,455;    1,500
1020,681; 3609,470;    0,182;   -1,136
1021,228; 3614,561;    2,909;   -2,227
1021,776; 3438,561;    1,182;   -1,136
1022,323; 3654,288;    0,455;    0,773
1022,870; 3582,561;   -1,000;   -0,045
1023,417; 3474,379;    2,636;    1,864
1023,964; 3643,470;    2,636;    1,227
1024,511; 3471,470;    1,000;    0,773
1025,058; 3260,924;    3,182;   -0,045
1025,605; 3319,652;   -2,273;    3,136
1026,152; 3544,742;    1,727;   -0,591
1026,699; 3262,652;    1,818;    1,318
1027,245; 3445,197;   -0,091;    0,318
1027,792; 3664,833;   -1,000;    1,409
1028,339; 3522,015;    2,364;   -0,045
1028,885; 3372,652;    1,000;   -0,227
1029,432; 3321,652;   -0,091;    0,227
1029,978; 3372,015;   -1,000;   -1,591
1030,525; 3270,288;    1,000;    0,409
1031,071; 3528,197;   -1,364;    1,136
1031,618; 3603,470;    0,364;    1,682
1032,164; 3399,288;   -0,091;    3,045
1032,710; 3449,197;    1,636;   -1,500
1033,256; 3354,379;   -0,636;   -0,136
1033,803; 3358,288;   -0,545;    1,500
1034,349; 3073,924;   -1,364;    0,136
1034,895; 3222,288;    0,000;   -0,318
1035,441; 3192,742;   -0,818;    0,318
1035,987; 3186,924;   -2,364;   -0,682
1036,533; 3188,470;   -1,455;   -0,955
1037,078; 3396,106;    1,455;    1,682
1037,624; 3203,197;    2,455;   -0,955
1038,170; 3248,561;    0,455;   -0,318
1038,716; 3137,742;    1,636;   -0,409
1039,261; 3074,197;   -2,273;   -0,773
1039,807; 2992,197;   -0,091;    3,409
1040,352; 3065,288;   -1,909;   -0,318
1040,898; 3106,924;   -1,545;   -0,682
1041,443; 3007,652;   -1,455;   -2,591
1041,989; 2999,652;    1,091;    1,591
1042,534; 2902,197;   -0,364;    2,591
1043,079; 3038,924;    2,909;    0,955
1043,625; 2806,379;    1,818;    0,500
1044,170; 2846,833;   -1,364;    1,045
1044,715; 3104,288;    2,455;    0,955
1045,260; 2922,379;    2,182;   -0,955
1045,805; 2958,561;    1,182;   -0,591
1046,350; 2901,833;    1,364;   -0,409
1046,895; 2851,197;    2,909;    1,591
1047,440; 2803,470;    5,364;    0,409
1047,985; 2703,561;    2,818;   -0,955
1048,530; 2602,924;    1,545;    1,227
1049,074; 2668,833;    0,000;    0,318
1049,619; 2630,833;   -1,364;    1,955
1050,164; 2426,197;    0,455;    0,227
1050,708; 2490,742;   -0,455;    0,045
1051,253; 2851,106;    1,273;   -2,227
1051,797; 2553,561;    0,818;   -1,318
1052,342; 2588,833;   -1,182;    1,045
1052,886; 2595,652;    0,364;   -1,409
1053,430; 2451,742;   -1,364;    0,136
1053,975; 2467,833;   -0,818;   -0,318
1054,519; 2437,015;   -0,727;    3,227
1055,063; 2440,015;    0,909;    1,318
1055,607; 2312,652;   -0,182;    0,227
1056,151; 2355,288;    2,909;    1,682
1056,695; 2279,742;    2,273;   -1,136
1057,239; 2342,833;   -1,727;   -0,682
1057,783; 2362,470;    0,818;   -1,500
1058,327; 2281,379;    0,000;    1,409
1058,871; 2507,924;   -0,545;    1,318
1059,415; 2215,652;   -0,818;   -0,045
1059,958; 2477,924;    1,455;    2,591
1060,502; 2198,106;   -1,000;   -0,773
1061,046; 2104,561;    0,364;   -0,955
1061,589; 2071,742;   -3,000;   -1,136
1062,133; 1967,742;   -1,273;    1,864
1062,676; 1894,470;    1,182;    0,864
1063,220; 1897,924;    1,091;    0,500
1063,763; 1918,288;    0,909;    1,136
1064,306; 1995,924;   -0,909;    1,864
1064,849; 1881,924;   -0,909;    0,591
1065,393; 1891,470;    2,000;   -1,500
1065,936; 2001,652;    0,182;   -0,409
1066,479; 1890,652;   -1,455;    1,318
1067,022; 1902,015;   -0,273;   -0,227
1067,565; 1798,742;   -0,091;   -1,318
1068,108; 1835,106;    0,727;   -0,591
1068,651; 1808,924;   -0,636;    1,409
1069,194; 1740,106;   -0,455;   -1,682
1069,736; 1749,106;   -1,273;    0,955
1070,279; 1707,652;   -1,364;   -0,500
1070,822; 1754,470;   -2,000;   -0,318
1071,364; 1833,288;   -0,364;    1,318
1071,907; 1662,379;   -0,727;    3,227
1072,450; 1582,652;    0,000;   -0,045
1072,992; 1571,561;   -0,273;    3,136
1073,535; 1699,106;    2,091;    2,136
1074,077; 1482,106;   -0,727;    2,045
1074,619; 1444,652;   -1,364;    0,591
1075,161; 1493,652;   -1,091;    1,500
1075,704; 1672,833;    1,545;    1,227
1076,246; 1457,288;   -0,182;    0,682
1076,788; 1383,561;   -0,364;    1,773
1077,330; 1452,288;    1,273;    2,136
1077,872; 1415,288;    0,909;    0,955
1078,414; 1653,833;    2,727;    0,773
1078,956; 1377,106;    1,273;   -0,227
1079,498; 1645,015;    1,636;    0,318
1080,040; 1344,197;    1,909;   -1,318
1080,581; 1285,924;    1,636;   -0,318
1081,123; 1209,652;    0,091;   -0,773
1081,665; 1258,379;   -1,182;   -0,955
1082,206; 1559,197;    1,364;   -0,500
1082,748; 1420,106;    0,727;    2,045
1083,289; 1295,470;   -2,000;    1,318
1083,831; 1194,470;   -0,545;    0,227
1084,372; 1228,652;    0,000;    0,591
1084,913; 1232,015;    1,091;    0,864
1085,455; 1211,288;   -1,909;   -2,045
1085,996; 1165,742;   -2,273;    0,136
1086,537; 1191,106;   -0,091;    0,864
1087,078; 1224,742;   -0,909;   -2,136
1087,619; 1274,561;   -1,273;    0,227
1088,160; 1191,106;    0,000;    1,318
1088,701; 1179,742;   -1,091;    0,682
1089,242; 1092,652;    1,364;   -2,227
1089,783; 1201,561;   -0,273;    1,409
1090,324; 1161,561;    0,455;    0,682
1090,865; 1044,470;    2,727;   -0,409
1091,405; 1012,015;    0,727;    2,227
1091,946; 1040,470;    0,182;   -0,955
1092,487;  967,015;    0,818;   -1,409
1093,027; 1137,924;   -1,364;   -1,500
1093,568;  987,742;   -0,364;    1,227
1094,108; 1082,470;    0,273;    1,773
1094,649; 1012,197;   -1,182;    0,136
1095,189;  954,470;   -0,636;   -0,682
1095,729;  904,015;   -0,091;    0,955
1096,269;  901,106;    0,727;   -0,955
1096,810; 1231,015;   -1,364;    0,500
1097,350; 1048,652;    1,364;   -0,773
1097,890;  949,924;    0,364;    1,227
1098,430; 1205,288;    2,364;    2,864
1098,970; 1072,742;    2,182;    1,682
1099,510;  932,742;    0,545;   -2,318
1100,050;  861,197;    1,000;   -1,591
1100,589;  819,015;   -0,727;   -0,318
1101,129;  956,652;    0,818;   -0,955
1101,669; 1112,288;    1,727;    2,136
1102,209;  925,652;   -0,091;    2,227
1102,748;  879,015;    0,000;    0,955
1103,288;  875,015;    1,273;   -1,227
1103,827;  896,833;    3,091;   -2,227
1104,367;  764,652;   -0,091;   -2,409
1104,906;  735,470;    1,364;   -1,136
1105,445;  802,924;    0,636;   -1,136
1105,985;  752,652;   -0,727;    1,500
1106,524;  803,197;   -1,727;   -0,682
1107,063;  776,742;   -2,727;    1,409
1107,602;  756,197;   -1,909;   -1,500
1108,141;  675,288;   -1,909;    1,500
1108,680;  784,288;   -3,455;   -0,591
1109,219;  710,379;   -0,909;   -0,500
1109,758;  705,288;    0,455;    0,682
1110,297;  673,197;    1,000;   -0,682
1110,836;  626,106;   -0,727;    0,955
1111,375;  799,742;   -2,545;    0,409
1111,913;  804,924;   -1,000;    0,773
1112,452;  731,652;   -0,273;    0,136
1112,991;  620,924;    1,091;    1,955
1113,529;  580,652;   -0,818;   -0,045
1114,068;  650,288;   -0,273;    2,955
1114,606;  546,015;   -0,364;   -0,955
1115,144;  720,015;   -1,273;    1,045
1115,683;  650,833;   -0,727;    0,318
1116,221;  703,652;   -0,455;   -0,864
1116,759;  606,742;    0,636;   -0,864
1117,297;  814,379;    0,000;    1,864
1117,836;  615,652;   -2,182;   -1,227
1118,374;  618,652;    0,182;   -0,682
1118,912;  553,288;    0,909;    2,682
1119,450;  538,833;    1,000;    0,864
1119,988;  600,015;    1,545;    2,136
1120,525; 1060,742;    5,091;    3,318
1121,063;  761,833;    1,182;    1,864
1121,601;  559,106;   -0,909;   -1,227
1122,139;  509,197;   -0,727;   -2,045
1122,676;  711,106;   -0,727;    2,773
1123,214;  641,015;   -1,182;    4,409
1123,751;  443,288;    1,727;    2,227
1124,289;  586,924;   -0,091;   -0,409
1124,826;  454,197;    1,727;    0,227
1125,364;  377,561;    1,727;   -0,955
1125,901;  568,015;    1,182;    1,227
1126,438;  687,015;    0,818;    0,955
1126,975;  398,106;   -0,727;   -0,773
1127,513;  471,924;    0,273;    2,136
1128,050;  367,197;    1,636;   -0,682
1128,587;  475,015;    2,000;   -0,227
1129,124;  525,561;    0,091;    1,318
1129,661;  374,561;    0,273;    0,227
1130,198;  553,197;    1,636;    0,773
1130,734;  500,742;    0,182;    1,409
1131,271;  354,924;   -0,909;    0,864
1131,808;  531,288;    2,909;    3,045
1132,345;  400,470;    1,545;    0,318
1132,881;  262,924;   -1,545;   -1,864
1133,418;  415,015;    0,727;   -1,136
1133,954;  347,833;    2,455;   -2,682
1134,491;  421,833;    1,364;   -0,773
1135,027;  320,015;    2,364;    0,864
1135,564;  419,379;    0,273;    2,955
1136,100;  391,288;    0,364;    2,136
1136,636;  268,561;   -1,273;   -1,045
1137,172;  377,742;    0,000;   -1,045
1137,708;  286,015;   -1,364;   -1,045
1138,245;  296,924;    1,273;   -1,227
1138,781;  251,470;    1,091;   -3,318
1139,317;  316,833;    1,273;   -1,409
1139,852;  306,924;    3,091;    0,136
1140,388;  435,652;   -1,182;   -0,409
1140,924;  311,106;   -1,091;   -2,227
1141,460;  246,379;   -1,636;    0,136
1141,996;  174,742;   -1,364;    2,682
1142,531;  224,742;    1,364;    3,318
1143,067;  443,288;    1,182;    1,045
1143,602;  516,106;   -0,091;   -0,318
1144,138;  347,015;   -2,636;    1,045
1144,673;  201,833;   -1,455;    1,409
1145,209;  271,470;   -1,909;   -0,318
1145,744;  187,742;   -0,727;    0,864
1146,279;  329,288;    1,818;   -0,136
1146,815;  245,106;    1,545;   -2,682
1147,350;  284,924;   -1,364;    0,045
1147,885;  202,015;   -0,818;   -1,318
1148,420;  190,924;   -2,273;    0,773
1148,955;  169,379;   -1,727;    1,864
1149,490;  202,561;   -0,909;   -1,591
1150,025;  190,106;    0,455;   -1,773
1150,560;  312,197;    1,091;   -0,955
1151,094;  279,470;    1,455;   -0,591
1151,629;  276,379;    1,636;    0,864
1152,164;  194,742;    1,364;    1,318
1152,698;  153,833;   -0,182;   -0,136
1153,233;  104,288;    0,091;   -0,682
1153,767;  158,833;   -3,000;   -2,318
1154,302;  216,652;   -1,455;    1,773
1154,836;  213,288;   -0,455;   -2,136
1155,371;  271,561;   -1,364;    3,682
1155,905;  223,561;   -0,636;    1,682
1156,439;  186,015;   -0,636;   -0,500
1156,973;  220,652;    0,364;    0,318
1157,507;  147,924;   -0,364;    0,682
1158,042;  173,106;   -0,727;    1,045
1158,576;  237,288;    0,182;    1,773
1159,110;  220,470;   -0,818;    2,409
1159,643;  187,652;    0,636;   -0,045
1160,177;  123,379;   -1,545;    1,500

