
Integration time [ms]:   0,040
Averaging Nr. [scans]: 11
Smoothing Nr. [pixels]: 0
Data measured with spectrometer [name]: 7318044SP
Wave   ;Sample   ;Dark     ;Reference
[nm]   ;[counts] ;[counts] ;[counts] 

186,757;   33,243;   31,551;    1,318
187,357;   37,606;   22,551;    0,955
187,958;   24,462;   15,460;   -1,591
188,558;   40,404;    8,915;   -1,227
189,159;   26,819;    6,733;   -4,500
189,759;   15,351;    7,278;   -3,591
190,360;   14,725;    2,824;   -2,136
190,960;   25,537;    2,915;   -4,136
191,560;   31,083;    3,189;   -6,591
192,161;  138,634;    4,372;   -3,500
192,761;   74,759;    4,010;   -3,227
193,361;   46,750;    1,556;   -3,773
193,962;   74,061;    2,010;   -2,682
194,562;   32,049;    1,189;   -3,955
195,162;   40,168;   -2,448;   -2,227
195,762;  112,684;   -3,176;   -0,045
196,362;   83,353;    1,370;   -2,500
196,963;   33,348;    2,006;   -0,864
197,563;   64,506;    1,551;   -0,955
198,163;   32,504;    0,096;   -0,682
198,763;   39,333;    1,733;   -0,500
199,363;   85,360;    3,096;   -0,500
199,963;   62,234;    0,369;    0,409
200,563;   53,461;    2,823;   -1,409
201,163;   40,355;    3,277;   -0,227
201,763;   73,395;    3,732;    0,318
202,363;   49,120;    1,459;    1,500
202,963;   79,655;    1,459;    1,045
203,563;  136,727;    0,277;    0,500
204,162;   71,223;    2,096;   -1,864
204,762;   61,572;    0,550;    0,591
205,362;   46,213;    3,004;    1,955
205,962;   85,163;    3,096;    1,955
206,562;   77,215;    1,823;    2,318
207,161;   58,136;   -0,087;    0,318
207,761;  156,491;    1,277;    2,409
208,361;   79,789;   -0,268;    1,409
208,960;  115,807;    0,459;    1,500
209,560;  118,512;    1,277;    1,591
210,160;  135,096;    0,550;    1,864
210,759;  106,815;    4,186;    1,227
211,359;   95,029;    1,459;    1,045
211,958;  242,581;    1,277;    2,045
212,558;  269,610;    1,732;    1,864
213,157;  178,834;    1,822;    1,500
213,757;  396,363;    3,822;   -0,227
214,356;  223,385;    1,277;   -0,409
214,956;  394,448;    3,095;    0,409
215,555;  191,414;    2,095;    2,136
216,154;  154,781;   -2,723;   -0,591
216,754;  151,125;    0,277;    0,773
217,353;  192,179;   -0,268;   -1,045
217,952;   91,808;   -0,178;    0,318
218,552;  243,545;    1,368;   -0,773
219,151;  170,853;    0,277;    0,955
219,750;  159,600;    0,004;   -0,227
220,349;  141,139;   -0,451;    1,045
220,948;  265,464;   -1,360;    1,136
221,548;  178,938;    0,913;    1,227
222,147;  233,163;   -0,087;   -0,409
222,746;  405,888;   -0,451;   -0,955
223,345;  281,302;    0,731;    0,500
223,944;  296,468;   -0,451;    0,773
224,543;  320,608;    1,004;   -1,409
225,142;  353,140;    0,094;    0,136
225,741;  324,173;   -0,814;    1,045
226,340;  305,227;   -0,451;   -0,955
226,939;  481,597;   -0,996;   -0,136
227,538;  305,873;   -0,360;   -0,773
228,137;  486,058;   -0,814;    0,864
228,735;  423,684;   -0,541;    1,227
229,334;  279,390;   -0,905;   -0,227
229,933;  528,872;    0,459;    0,591
230,532;  568,204;    1,186;   -0,409
231,131;  665,853;    1,732;    0,318
231,729;  516,276;   -2,450;   -2,318
232,328;  423,151;   -0,723;   -1,500
232,927;  438,697;    1,004;   -0,500
233,525;  421,040;    3,640;    0,045
234,124;  499,201;    2,368;   -1,591
234,723;  395,737;    0,913;   -1,045
235,321;  401,988;    2,277;    0,136
235,920;  476,740;    1,186;   -1,227
236,518;  687,628;    3,459;    0,318
237,117;  483,491;    0,004;   -0,227
237,715;  495,034;    0,640;   -0,500
238,314;  584,326;   -0,087;   -2,318
238,912;  769,693;   -0,723;   -1,409
239,510;  610,015;    0,459;   -1,227
240,109;  773,709;    0,004;    3,773
240,707;  706,030;   -0,996;    1,227
241,305;  534,196;    0,550;    0,136
241,904;  687,832;   -0,178;   -2,045
242,502;  806,772;   -0,632;   -0,227
243,100;  667,740;   -0,087;   -0,955
243,698;  620,465;    0,732;    1,682
244,297;  665,310;   -0,632;    0,682
244,895;  655,422;   -0,269;   -2,318
245,493;  898,703;    2,186;   -0,591
246,091;  874,750;    1,368;   -1,318
246,689;  807,376;    1,004;    0,591
247,287;  742,908;    0,822;   -1,136
247,885;  716,022;   -1,451;    1,227
248,483;  671,712;    1,822;   -0,500
249,081;  772,576;    0,185;    1,591
249,679;  845,902;   -0,178;    1,682
250,277;  687,586;   -1,723;    0,864
250,875;  856,842;   -1,087;   -1,045
251,473;  723,868;   -1,178;    0,500
252,071;  842,712;    1,459;    1,045
252,669;  762,468;   -1,814;    0,318
253,267;  688,362;   -0,087;    0,773
253,864;  726,271;   -0,360;    0,682
254,462;  944,991;    1,640;    1,591
255,060;  676,576;   -0,269;    1,318
255,658;  654,013;    0,822;   -0,136
256,255;  796,261;    0,186;   -2,045
256,853;  836,112;   -0,269;    1,409
257,451;  797,865;    0,822;    1,864
258,048; 1327,541;    1,822;    1,864
258,646;  934,253;    1,731;   -1,045
259,243; 1061,294;   -0,087;    2,227
259,841;  923,566;   -0,814;    0,318
260,438;  743,392;   -0,087;    0,864
261,036;  911,233;   -1,905;    1,409
261,633;  808,216;   -0,087;    2,227
262,231;  743,623;    2,731;   -0,045
262,828;  767,252;   -0,905;    1,136
263,425;  830,066;    0,913;   -0,591
264,023;  832,394;    0,186;    0,045
264,620;  990,415;   -0,360;   -0,318
265,217; 1145,842;   -2,087;    3,136
265,815;  813,010;   -1,905;    2,136
266,412;  974,408;    0,731;    0,136
267,009; 1017,945;   -1,451;    0,773
267,606; 1118,708;    0,822;   -0,955
268,203;  851,822;   -0,269;   -0,591
268,801;  928,643;    1,731;    0,591
269,398;  836,328;   -0,360;    2,500
269,995; 1003,797;    0,277;    1,591
270,592;  890,848;   -0,632;   -0,500
271,189;  820,786;    0,186;    0,409
271,786;  803,443;   -0,632;    1,227
272,383; 1119,253;   -1,087;    0,227
272,980;  917,962;    0,277;    0,318
273,577;  883,362;    0,004;    1,227
274,174;  796,952;    0,822;    2,591
274,771;  943,650;   -0,814;   -0,773
275,367; 1434,079;    2,277;    1,409
275,964; 1223,209;    0,731;   -0,500
276,561;  970,317;    1,549;   -1,045
277,158;  885,084;    0,095;   -1,773
277,755; 1174,394;    2,185;    0,409
278,351;  983,243;   -0,451;   -1,500
278,948; 1086,926;   -0,815;    0,045
279,545;  973,170;   -1,360;    2,318
280,141; 1299,005;   -1,723;   -2,045
280,738; 1156,902;   -0,451;   -0,136
281,334;  928,056;   -1,633;    0,591
281,931;  952,299;   -0,087;   -1,318
282,528; 1062,888;    0,822;   -0,500
283,124; 1211,264;   -1,087;   -0,500
283,721; 1183,258;   -0,451;    1,409
284,317;  993,862;    0,185;    2,500
284,913; 1264,275;   -1,360;    0,591
285,510; 1596,366;    0,640;   -0,318
286,106; 1364,957;   -2,269;   -0,955
286,703; 1013,710;   -0,360;    1,955
287,299;  976,475;   -1,451;   -0,591
287,895; 1000,145;    0,822;   -1,045
288,491; 1034,056;    0,186;    2,136
289,088; 1147,235;   -2,360;    2,409
289,684; 1195,377;   -1,723;    1,500
290,280; 1371,429;    0,368;    0,682
290,876; 1338,856;    1,822;    5,500
291,472; 1205,451;    1,276;    2,227
292,068; 1220,614;    1,367;    0,227
292,665; 1037,384;    2,095;    0,773
293,261;  902,807;    0,276;    2,136
293,857; 1126,500;    2,913;    2,136
294,453; 1046,498;    3,550;    0,955
295,049; 1286,488;   -0,268;    1,955
295,644; 1090,044;    0,095;    0,136
296,240;  936,048;   -0,905;   -0,136
296,836; 1107,914;   -0,995;    0,318
297,432; 1290,824;    1,096;   -0,500
298,028; 1359,649;    0,732;    0,773
298,624; 1169,399;    1,459;    1,864
299,220; 1131,212;    2,368;    0,591
299,815; 1078,615;    1,005;   -0,409
300,411; 1198,033;    0,914;    1,773
301,007; 1355,709;    1,368;    0,227
301,602; 1144,749;   -0,541;   -2,318
302,198; 1276,606;    0,732;   -0,773
302,794; 1111,360;    1,187;   -0,500
303,389; 1093,664;   -1,177;    1,045
303,985; 1152,054;    0,550;    1,409
304,580; 1258,986;    1,459;    1,591
305,176; 1135,302;   -3,086;    0,136
305,771; 1000,852;   -1,268;   -1,227
306,367; 1452,830;    4,095;    0,136
306,962; 1207,294;    0,641;    1,500
307,558; 1184,287;   -0,450;    0,136
308,153; 1296,949;    1,095;   -1,136
308,748; 1070,884;   -0,814;    1,682
309,344; 1505,833;   -0,632;   -1,318
309,939; 1540,199;   -1,905;   -1,318
310,534; 1176,243;   -0,086;   -1,682
311,130; 1111,083;    0,459;   -2,500
311,725; 1019,165;    1,004;   -0,500
312,320; 1125,220;    2,459;    0,045
312,915; 1270,890;    1,459;   -1,045
313,510; 1504,633;    1,550;   -0,500
314,105; 1263,932;    1,096;    1,409
314,700; 1007,195;   -3,086;   -1,045
315,295; 1075,895;   -0,904;    0,045
315,890;  965,365;    1,277;    0,864
316,485; 1105,822;   -0,359;   -0,318
317,080; 1041,406;   -3,086;    1,591
317,675; 1418,867;    2,005;   -0,682
318,270; 1606,930;    5,550;    3,318
318,865; 1516,284;    3,278;    3,045
319,460; 1287,564;   -0,904;    0,591
320,055; 1150,006;   -0,541;   -1,227
320,650; 1107,134;   -1,995;   -0,591
321,244; 1119,785;   -0,177;   -1,409
321,839; 1264,499;   -1,541;   -0,227
322,434; 1305,584;   -1,086;   -1,591
323,029; 1160,803;    1,732;    1,591
323,623; 1109,520;    1,550;    0,773
324,218; 1260,368;    2,368;    1,409
324,812; 1195,189;    1,096;    1,591
325,407; 1209,564;   -0,814;    2,045
326,002; 1303,944;    0,277;   -0,409
326,596; 1253,983;    0,914;    1,318
327,191; 1114,257;    0,823;   -1,045
327,785; 1024,801;   -0,813;   -0,227
328,379; 1131,987;    1,368;    0,136
328,974; 1137,536;    0,914;   -3,955
329,568; 1187,020;    0,186;   -2,409
330,163; 1250,736;    2,096;    1,045
330,757; 1130,122;    2,459;    1,591
331,351; 1043,103;    0,459;    0,682
331,945; 1039,986;    0,914;    1,409
332,540; 1194,932;   -1,723;   -0,591
333,134; 1172,775;   -1,086;    0,773
333,728; 1147,110;    0,005;    0,318
334,322; 1064,970;   -1,177;   -0,864
334,916;  977,521;    0,277;    0,955
335,510; 1207,177;   -0,450;   -0,136
336,105; 1233,166;   -1,086;    1,591
336,699; 1060,054;   -1,086;    0,591
337,293; 1085,861;   -1,723;    0,318
337,887; 1033,224;   -2,723;    1,955
338,481; 1222,289;    0,459;    0,591
339,074; 1356,329;   -0,359;    2,682
339,668; 1303,001;   -1,632;    1,227
340,262; 1979,062;    1,732;    3,227
340,856; 1483,892;    1,822;   -0,682
341,450; 1047,709;    1,004;    1,864
342,044; 1162,315;    1,459;    0,136
342,637; 1321,528;    0,913;   -2,136
343,231; 1345,144;   -2,360;    0,682
343,825; 1126,134;   -1,086;   -0,591
344,419; 1107,593;   -1,995;    0,500
345,012; 1731,504;    2,459;    4,045
345,606; 1512,076;    4,641;    1,591
346,199; 1137,855;   -1,813;   -0,227
346,793; 1287,073;    1,914;    2,045
347,386; 1059,538;   -0,813;   -1,136
347,980;  902,318;   -0,268;   -0,045
348,573; 1040,969;    2,278;    0,409
349,167; 1353,963;    5,278;    4,773
349,760; 1282,623;    2,914;    2,682
350,354; 1177,781;   -0,813;    1,136
350,947; 1246,636;    1,096;    1,682
351,540; 1024,346;   -0,358;   -1,409
352,134;  858,626;    1,096;    1,136
352,727;  919,721;   -0,086;    1,136
353,320;  950,681;    0,005;    0,591
353,913;  847,291;   -1,995;    1,864
354,507; 1115,524;    0,823;   -1,227
355,100;  982,645;    0,460;    0,864
355,693; 1428,811;    2,005;    2,409
356,286; 1137,162;    0,823;    2,773
356,879;  964,825;   -0,722;    1,227
357,472;  907,678;   -0,904;    1,500
358,065;  999,328;   -0,722;    2,500
358,658;  840,997;   -0,540;    2,318
359,251;  758,108;   -1,631;   -0,591
359,844;  975,025;   -1,904;   -1,136
360,437; 1090,389;   -2,995;    0,045
361,030;  917,741;    1,369;   -0,682
361,623;  898,832;    2,824;    0,318
362,215; 1171,483;   -0,086;    2,045
362,808;  985,272;   -2,358;   -1,682
363,401;  906,746;   -2,449;    0,136
363,994; 1177,560;   -0,631;   -1,500
364,586;  898,994;    0,824;   -1,500
365,179;  837,358;   -0,449;   -1,136
365,772;  647,778;   -1,995;    2,045
366,364;  830,373;    1,915;   -3,227
366,957;  958,448;    2,279;   -0,045
367,549;  856,510;    2,188;   -0,864
368,142;  860,618;    1,825;   -1,500
368,734;  816,018;    0,734;   -2,136
369,327;  721,096;    1,643;   -0,500
369,919;  771,937;   -1,538;    0,409
370,512;  819,540;   -1,083;   -0,500
371,104; 1111,747;   -0,901;    1,591
371,696; 1171,524;    1,191;   -0,955
372,289; 1007,603;    0,373;    1,136
372,881;  932,624;   -2,080;    1,318
373,473;  777,127;   -2,170;    1,136
374,066;  901,618;   -0,169;    0,500
374,658;  861,920;    0,378;    1,136
375,250;  795,971;    0,653;   -1,409
375,842;  863,270;    0,473;   -0,045
376,434;  814,099;   -0,435;   -0,409
377,026;  841,648;    0,204;   -2,500
377,618;  882,768;   -0,158;   -0,682
378,210;  787,094;   -0,338;   -1,955
378,802;  732,462;    0,754;   -0,591
379,394; 1252,579;    1,846;    0,682
379,986;  979,754;    1,393;   -0,955
380,578;  870,100;   -0,153;    0,773
381,170; 1138,370;   -0,972;    0,045
381,762; 1000,963;    0,755;    1,409
382,354;  961,281;   -0,065;   -1,318
382,945;  846,452;   -2,976;    0,318
383,537;  780,096;   -2,705;   -1,955
384,129;  793,209;   -2,160;   -1,136
384,721;  941,335;   -0,252;    0,955
385,312;  833,010;   -0,161;   -0,955
385,904;  985,245;   -2,706;    1,591
386,496;  817,806;   -0,979;    1,045
387,087; 1004,454;    1,022;    2,500
387,679;  929,794;   -1,160;    0,045
388,270;  950,013;    2,840;    2,045
388,862;  898,816;    1,295;   -0,318
389,453;  830,168;   -0,887;    1,045
390,045;  875,438;   -0,705;   -2,682
390,636;  771,249;    0,204;   -0,591
391,227;  816,051;   -0,523;   -0,045
391,819;  830,589;    0,204;    0,773
392,410; 1130,468;    1,022;    0,045
393,001;  910,380;   -0,979;   -1,591
393,593; 1002,082;    1,930;   -0,045
394,184; 1058,946;    1,385;   -0,409
394,775;  855,051;    1,839;    2,136
395,366;  819,406;    1,385;    0,773
395,957; 1067,310;    0,113;    0,136
396,548;  936,303;   -0,342;    2,682
397,139; 1125,530;   -2,433;    0,591
397,730;  977,746;   -1,888;    0,955
398,321;  974,537;   -1,252;    0,955
398,912;  895,440;   -0,615;    0,136
399,503;  933,514;   -3,524;   -1,409
400,094;  945,136;    0,294;    1,682
400,685;  941,499;   -0,433;    0,045
401,276;  835,326;    0,930;   -0,955
401,867;  848,612;   -0,888;    0,773
402,458;  824,302;   -2,251;   -2,318
403,048; 1018,593;    1,112;    0,591
403,639;  890,002;    0,840;    0,864
404,230; 1103,071;    2,476;    0,318
404,821; 1166,150;   -0,615;    0,045
405,411; 1030,338;    1,203;   -2,591
406,002;  879,162;   -1,252;   -1,136
406,592; 1185,600;    2,294;    0,045
407,183; 1010,668;    0,566;   -1,500
407,774;  963,804;    3,475;   -0,136
408,364;  933,436;    0,930;    0,409
408,954; 1087,000;    0,384;    1,227
409,545; 1087,333;    1,021;    1,045
410,135;  970,256;    1,293;    0,500
410,726;  931,771;    1,838;    0,318
411,316; 1194,399;    0,111;    0,773
411,906;  935,173;   -0,253;   -0,409
412,497;  920,616;   -1,070;   -0,045
413,087;  880,825;   -1,980;   -0,227
413,677;  848,956;   -0,707;    3,864
414,267;  814,821;    0,656;    1,409
414,857;  787,064;   -2,980;    4,227
415,448;  819,062;    0,839;    0,500
416,038;  830,844;    0,020;   -0,591
416,628;  876,198;   -0,889;    0,409
417,218;  992,157;    0,565;    3,318
417,808; 1192,582;    0,202;   -0,409
418,398; 1004,413;    0,020;    2,682
418,988;  857,007;    2,020;    0,591
419,578;  981,287;   -0,707;    1,409
420,168;  981,467;   -1,343;   -0,955
420,757; 1160,611;   -1,343;   -1,500
421,347;  987,050;    0,111;   -0,227
421,937;  931,932;    2,292;    1,409
422,527; 1108,701;    0,838;   -0,773
423,116; 1282,588;   -0,253;   -0,045
423,706;  930,536;   -1,889;    0,318
424,296;  825,607;    1,384;    0,682
424,885; 1085,880;   -0,071;   -3,045
425,475; 1043,306;    1,474;   -2,864
426,065;  867,834;   -0,980;   -0,318
426,654;  841,079;   -0,435;   -0,318
427,244; 1252,532;    0,020;    1,409
427,833; 1192,915;    1,383;   -0,500
428,423; 1012,054;   -0,526;    1,136
429,012; 1063,058;   -0,344;   -1,136
429,601; 1192,113;   -1,344;    0,136
430,191; 1036,123;    1,292;    4,318
430,780;  852,253;   -0,344;   -0,409
431,369; 1184,851;    0,746;   -0,045
431,959; 1099,178;   -1,254;    0,500
432,548;  952,758;   -1,163;   -0,045
433,137;  851,335;   -1,254;   -1,318
433,726; 1030,243;    0,292;    0,500
434,315;  999,332;   -0,526;    2,409
434,905; 1164,927;   -1,254;    1,409
435,494; 1228,998;    0,746;    0,955
436,083; 1030,200;   -0,981;   -0,955
436,672; 1091,414;    0,110;    0,500
437,261; 1024,999;    0,292;   -1,955
437,850; 1444,075;    1,383;    0,682
438,439; 1476,996;    3,291;    1,955
439,027; 1592,987;    3,655;    1,773
439,616; 1553,832;    2,927;    1,227
440,205; 1199,997;    0,200;   -2,136
440,794; 1080,974;    2,109;   -0,045
441,383;  993,226;   -1,346;   -0,591
441,971;  883,185;   -2,436;    0,591
442,560;  907,980;    0,563;   -1,773
443,149;  774,598;    0,379;   -1,318
443,737;  907,671;   -0,074;   -2,318
444,326;  929,011;    0,018;    0,318
444,915; 1018,690;   -1,982;    0,864
445,503; 1042,123;   -2,891;   -0,318
446,092; 1371,932;    0,382;    2,136
446,680; 1319,904;    0,382;    0,318
447,269; 1240,902;   -0,346;   -0,318
447,857; 1157,197;    0,018;   -1,773
448,445; 1096,818;    0,563;    1,318
449,034; 1045,396;   -1,528;   -1,136
449,622; 1014,043;   -1,073;    3,500
450,210; 1508,392;    2,017;    2,227
450,799; 1389,918;    0,290;   -0,591
451,387; 1233,004;    1,381;   -0,591
451,975; 1244,346;    2,654;    0,864
452,563; 1415,885;    3,472;    2,318
453,151; 1063,182;   -0,528;   -1,227
453,739; 1148,780;   -1,347;    0,136
454,328; 1382,735;    2,381;   -2,136
454,916; 1221,084;    2,562;   -0,136
455,504; 1212,206;    1,017;    1,227
456,092; 1075,440;    0,017;   -1,591
456,679;  966,831;    1,472;    0,682
457,267; 1698,127;    4,017;    1,045
457,855; 1158,792;    1,017;    1,409
458,443;  865,947;   -0,165;    1,682
459,031; 1274,429;    0,108;    2,409
459,619; 1200,657;   -1,801;    2,864
460,206; 1006,479;    0,835;    2,045
460,794; 1018,081;   -2,983;   -0,227
461,382; 1130,391;   -0,529;   -0,864
461,970; 1057,748;    1,198;    1,864
462,557;  973,277;   -0,711;   -0,682
463,145; 1226,615;   -3,165;   -1,682
463,732; 1574,488;    2,016;   -1,045
464,320; 1205,374;   -0,075;   -3,045
464,907; 1438,642;    2,743;   -0,773
465,495; 1295,312;    0,743;   -1,227
466,082; 1136,255;   -1,984;   -0,045
466,670; 1117,842;   -2,529;    1,227
467,257;  999,308;   -1,711;    2,045
467,844; 1203,585;   -0,075;    0,045
468,432; 1201,811;    0,834;    3,500
469,019; 1059,549;    0,925;   -1,773
469,606; 1188,746;    0,470;    3,682
470,193; 1246,929;   -1,439;    0,227
470,780; 1213,720;   -2,075;    0,864
471,368; 1095,180;   -1,257;   -0,773
471,955; 1250,542;    1,379;   -0,682
472,542; 1151,267;    0,652;   -1,136
473,129;  953,782;   -0,166;    0,136
473,716;  935,525;    1,470;    0,591
474,303; 1024,455;    0,652;   -0,864
474,890; 1060,485;   -1,439;   -0,500
475,477; 1225,069;   -1,621;    0,409
476,064; 1051,366;    1,106;   -1,591
476,650; 1219,827;    0,288;    0,318
477,237; 1105,191;   -0,258;    0,955
477,824; 1057,710;   -1,076;    0,864
478,411;  899,033;   -1,894;   -0,318
478,997;  909,359;    0,560;   -0,773
479,584;  817,027;    1,196;   -0,409
480,171; 1230,540;   -0,440;   -0,773
480,757; 1343,820;    2,651;    0,773
481,344; 1132,284;    0,469;    0,409
481,931;  897,201;    1,105;    1,045
482,517; 1261,671;   -1,258;    0,318
483,104; 1421,387;    1,106;    2,864
483,690; 1262,145;   -1,804;    0,045
484,276; 1221,737;   -0,895;    0,227
484,863; 1602,422;    2,469;    1,136
485,449; 1343,285;   -0,077;    0,318
486,035; 1230,966;   -1,986;   -0,136
486,622; 1463,569;   -0,895;    0,045
487,208; 1309,073;    1,378;    1,500
487,794; 1164,180;    0,741;    0,318
488,380; 1198,352;    0,105;   -1,409
488,967; 1201,570;   -1,168;   -0,409
489,553; 1234,410;   -1,895;   -1,409
490,139; 1391,063;    1,559;    0,773
490,725; 1191,932;    0,741;   -0,227
491,311; 1219,332;    3,287;    3,045
491,897; 1067,908;   -0,986;    1,500
492,483; 1091,721;    0,105;    1,227
493,069; 1889,037;    3,923;    0,864
493,655; 1352,326;    1,650;    0,682
494,241; 1153,726;    1,377;   -0,955
494,826; 1238,217;    0,287;   -1,045
495,412; 1310,221;    2,559;   -0,682
495,998; 1162,925;   -0,805;   -0,318
496,584; 1241,886;    0,377;    1,045
497,169; 1186,268;    1,014;   -0,682
497,755; 1045,542;    0,650;    1,227
498,341; 1453,440;    0,559;    0,318
498,926; 1620,055;    1,832;    1,955
499,512; 1195,867;    1,286;    2,955
500,097; 1141,246;    0,195;   -0,318
500,683; 1162,214;   -0,350;    2,136
501,268; 1115,874;   -0,169;   -0,955
501,854; 1152,266;   -0,169;    1,227
502,439; 1075,917;   -0,624;   -1,773
503,024; 1204,799;    0,195;    0,500
503,610; 1275,136;   -0,078;   -0,682
504,195; 1067,888;    0,558;    1,955
504,780; 1235,552;    2,922;    1,227
505,366; 1427,945;    3,013;    2,864
505,951; 1254,715;    0,740;    1,045
506,536; 1153,657;   -3,260;   -3,682
507,121; 1214,446;    0,285;   -0,318
507,706; 1179,841;    2,376;    1,045
508,291; 1086,452;    2,649;    1,136
508,876; 1054,292;   -0,988;    2,591
509,461; 1133,349;   -0,169;   -0,773
510,046; 1220,584;    0,194;    0,318
510,631; 1188,865;   -0,351;   -0,773
511,216; 1072,096;    2,467;   -0,500
511,801; 1224,684;   -0,442;    2,591
512,386; 1248,307;    0,740;    0,500
512,971; 1282,048;   -2,988;    0,955
513,555; 1339,941;   -0,897;   -1,500
514,140; 1339,198;   -0,442;   -3,136
514,725; 1437,977;   -0,715;   -1,136
515,309; 1311,461;   -0,533;    0,318
515,894; 1167,084;   -0,624;   -2,227
516,479; 1214,095;   -0,624;   -0,955
517,063; 1191,821;    0,376;    1,227
517,648; 1166,953;    1,012;   -1,136
518,232; 1083,094;   -0,261;   -1,409
518,817; 1208,475;   -0,079;    1,682
519,401; 1426,229;    2,194;    0,591
519,985; 1237,692;    1,103;    1,136
520,570; 1081,425;    0,830;   -1,955
521,154; 1276,020;    2,102;    0,591
521,738; 1561,579;   -2,352;    2,409
522,323; 1396,958;   -0,170;    1,682
522,907; 1312,454;    0,466;   -0,136
523,491; 1184,667;    0,557;    0,955
524,075; 1116,956;    2,284;    0,591
524,659; 1351,877;    1,466;    0,591
525,243; 1235,830;    1,739;    0,409
525,827; 1162,418;    0,648;   -0,045
526,411; 1224,786;   -1,989;   -0,136
526,995; 1410,430;   -0,352;    1,409
527,579; 1438,900;   -0,443;   -1,045
528,163; 1356,158;    0,375;   -1,500
528,747; 1546,925;    2,466;   -0,773
529,331; 1486,695;   -0,080;   -1,409
529,915; 1234,182;    1,738;    0,955
530,499; 1353,724;   -0,807;    1,227
531,082; 1488,334;   -0,534;    1,591
531,666; 1540,519;    1,374;    0,773
532,250; 1455,397;    1,284;    2,682
532,833; 1624,828;    0,920;    2,773
533,417; 1385,306;   -1,807;    0,864
534,001; 1507,413;    1,647;   -0,318
534,584; 1460,813;    0,374;    0,500
535,168; 1258,702;    0,465;    1,409
535,751; 1707,078;    0,647;    0,045
536,334; 1319,261;   -0,898;   -0,409
536,918; 1269,052;    0,011;    1,591
537,501; 1254,468;   -0,899;    1,318
538,085; 1304,721;   -0,444;    1,045
538,668; 1334,829;    0,829;    2,409
539,251; 1720,846;    1,829;    3,773
539,834; 1456,442;    0,101;    0,773
540,418; 1573,277;   -1,990;    4,318
541,001; 1755,283;   -0,990;    1,773
541,584; 1477,215;    2,101;    2,227
542,167; 1569,231;    1,374;    2,955
542,750; 1421,326;    1,919;   -0,773
543,333; 1197,842;    0,555;    2,136
543,916; 1536,712;    0,192;    2,500
544,499; 1407,992;   -1,354;    0,227
545,082; 1518,656;    1,374;    3,591
545,665; 1424,214;    1,919;    1,500
546,248; 1575,024;    1,010;   -0,318
546,830; 1534,152;   -0,445;    1,955
547,413; 1560,202;    1,010;   -0,773
547,996; 1631,877;    0,555;    0,500
548,579; 1444,229;    0,919;    0,955
549,161; 1696,257;    1,828;    2,682
549,744; 1578,609;   -0,809;    0,409
550,326; 1510,811;   -0,809;   -1,136
550,909; 2005,860;    2,737;    0,591
551,492; 1689,386;   -0,263;    0,227
552,074; 1753,582;   -0,173;   -1,318
552,657; 1803,407;    2,373;    0,045
553,239; 1627,095;   -0,173;   -0,773
553,821; 1542,163;   -1,082;    1,045
554,404; 1748,393;    1,282;    1,136
554,986; 1877,789;    0,464;    1,045
555,568; 1765,840;    1,191;   -0,955
556,151; 1961,039;    1,191;   -0,227
556,733; 1630,283;   -0,264;   -0,864
557,315; 1645,611;    0,100;    0,500
557,897; 1427,658;    0,554;   -0,500
558,479; 1448,590;   -1,991;    1,318
559,061; 1602,898;   -0,719;   -0,864
559,643; 1724,296;   -0,264;    0,045
560,225; 1750,958;    1,645;    2,864
560,807; 1634,660;    0,918;    0,318
561,389; 1555,718;    0,554;    2,318
561,971; 1633,653;    0,463;    2,136
562,553; 1632,729;   -1,628;    1,591
563,135; 1717,702;   -0,537;    1,136
563,717; 2059,416;    3,372;    1,136
564,298; 1945,431;    3,645;   -0,045
564,880; 1667,413;    0,645;   -1,409
565,462; 1549,140;    0,645;    1,318
566,043; 1893,715;   -0,446;    2,318
566,625; 2035,886;    1,918;    1,227
567,207; 1792,253;    1,099;    1,682
567,788; 1801,667;   -1,264;    1,500
568,370; 1918,556;    1,917;   -0,500
568,951; 1781,281;    0,190;    0,227
569,533; 1980,245;   -0,628;   -0,500
570,114; 2095,629;   -0,446;    0,682
570,695; 2118,028;   -0,174;   -1,318
571,277; 2075,333;   -0,265;   -1,682
571,858; 2304,052;    2,008;   -1,136
572,439; 2337,552;    1,554;   -1,045
573,021; 2313,007;    2,099;   -2,773
573,602; 2436,874;   -1,265;    0,318
574,183; 2471,549;   -2,083;    2,227
574,764; 2465,515;   -1,629;    0,409
575,345; 2583,627;    0,917;   -0,136
575,926; 2570,735;   -0,356;    0,136
576,507; 2645,682;    1,099;   -0,227
577,088; 2768,860;    3,099;    1,682
577,669; 2907,142;    0,735;    1,955
578,250; 3145,094;    0,644;   -1,045
578,831; 2968,621;   -1,356;   -2,227
579,412; 2837,250;   -0,810;    0,955
579,993; 3128,096;    1,008;    0,227
580,573; 3133,927;   -0,629;   -0,955
581,154; 2856,338;    0,735;   -0,591
581,735; 3018,856;    0,644;    0,773
582,315; 2914,219;   -0,629;    2,136
582,896; 3064,878;   -0,174;    1,227
583,477; 2883,760;    0,189;    1,227
584,057; 2977,365;    0,553;    0,955
584,638; 3070,096;    2,553;    2,318
585,218; 3247,708;   -0,538;    2,682
585,799; 3140,084;    0,281;   -0,227
586,379; 3044,678;    0,372;    1,591
586,959; 2896,101;    0,735;    0,318
587,540; 2748,034;   -0,629;    2,227
588,120; 2665,506;    1,007;   -0,045
588,700; 2543,002;    2,553;    2,136
589,281; 2802,830;    0,462;   -0,955
589,861; 2691,622;    0,099;   -1,682
590,441; 2602,487;    2,371;   -2,682
591,021; 2422,813;   -0,265;   -2,591
591,601; 2514,519;   -0,537;    0,500
592,181; 2605,845;   -0,719;   -0,773
592,761; 2315,710;    0,007;    1,409
593,341; 2481,906;   -0,901;    0,045
593,921; 2436,766;   -0,265;    1,591
594,501; 2327,559;   -0,538;    1,318
595,081; 2292,567;    0,917;   -0,318
595,661; 2524,858;   -1,447;    0,955
596,240; 2594,432;   -0,537;    0,136
596,820; 2743,968;    0,372;    1,955
597,400; 2459,285;    2,008;    0,773
597,980; 2471,535;    2,008;    1,045
598,559; 2501,982;    2,735;   -0,227
599,139; 2437,316;   -0,174;   -1,227
599,718; 2408,770;   -0,174;   -0,409
600,298; 2494,258;    0,735;    0,682
600,877; 2870,657;    2,917;    1,409
601,457; 2765,920;    2,281;    1,136
602,036; 2615,600;    0,190;    2,045
602,616; 2592,616;    0,644;    1,682
603,195; 2740,182;   -0,355;    3,500
603,774; 2659,240;   -0,901;    2,045
604,354; 2563,076;    0,826;   -0,500
604,933; 2469,216;    0,463;    1,864
605,512; 2661,467;    3,554;    0,591
606,091; 2667,653;   -0,537;    3,773
606,671; 2720,745;    0,281;    0,773
607,250; 2722,493;    1,644;    3,136
607,829; 2735,257;    2,372;    3,227
608,408; 2604,993;    1,190;    2,591
608,987; 2549,584;    1,281;    3,409
609,566; 2431,595;   -1,265;   -2,500
610,145; 2519,258;   -1,082;    0,682
610,723; 2667,212;    4,372;    6,864
611,302; 2422,583;   -0,446;    1,682
611,881; 2551,574;    5,008;   11,227
612,460; 2434,238;    1,645;    3,955
613,039; 2508,036;   -0,082;    2,045
613,617; 2246,393;    1,736;    4,773
614,196; 2264,059;    1,099;    1,227
614,775; 2439,831;    1,009;    2,409
615,353; 2444,078;    0,736;    0,864
615,932; 2370,833;    0,100;    2,409
616,510; 2520,275;    0,554;    0,591
617,089; 2890,860;    7,100;   17,591
617,667; 2554,207;    2,372;    6,136
618,246; 2210,633;   -1,537;    1,318
618,824; 2344,216;   -3,355;   -0,955
619,402; 2287,590;   -2,900;   -1,773
619,981; 2434,456;   -0,173;   -1,045
620,559; 2417,725;    0,009;    1,682
621,137; 2428,964;   -0,718;    1,864
621,715; 2124,918;   -1,173;   -0,682
622,293; 2166,860;   -0,537;   -0,773
622,871; 2430,066;   -0,718;    0,500
623,450; 2270,921;    0,373;   -0,864
624,028; 2375,263;    0,191;   -0,955
624,606; 2308,790;   -1,718;    1,682
625,183; 2221,462;   -1,536;   -1,136
625,761; 2235,815;    1,009;    1,136
626,339; 2605,474;    1,373;    2,591
626,917; 2354,782;   -0,172;   -0,045
627,495; 2369,634;   -0,354;    1,318
628,073; 2314,302;   -0,263;    2,864
628,650; 2272,181;    0,100;    2,136
629,228; 2359,338;    0,373;    4,409
629,806; 2084,474;    2,282;    1,136
630,383; 2193,479;    1,464;   -0,318
630,961; 2179,114;    2,555;   -0,955
631,539; 2115,364;    2,464;    0,227
632,116; 2756,750;   11,373;   15,409
632,694; 2445,044;    2,555;    6,500
633,271; 2252,447;    0,828;    2,682
633,848; 2382,318;    1,828;    2,045
634,426; 2183,796;   -1,081;    1,773
635,003; 2016,242;    1,101;   -0,409
635,580; 2377,929;    1,192;    3,682
636,158; 2226,576;    3,737;    1,227
636,735; 2087,724;    0,555;   -0,500
637,312; 2093,275;   -0,809;   -0,682
637,889; 2103,014;   -4,354;   -0,682
638,466; 2060,958;   -3,990;   -0,409
639,043; 2049,301;    2,101;   -1,136
639,620; 2051,833;   -2,262;   -0,955
640,197; 2214,177;    1,100;    1,682
640,774; 2197,657;   -0,172;    1,136
641,351; 2269,500;    0,737;    1,136
641,928; 2302,799;   -0,627;    1,409
642,505; 2429,824;    0,828;   -0,500
643,082; 2324,850;   -1,718;    1,227
643,658; 1985,148;   -0,718;    1,500
644,235; 2105,628;    1,191;    2,500
644,812; 2267,017;    1,918;    0,773
645,388; 2192,043;   -0,991;    1,409
645,965; 1981,341;   -0,809;    1,682
646,542; 2017,458;   -1,445;   -0,227
647,118; 2461,938;    1,009;   -0,955
647,695; 2297,236;   -0,263;    1,136
648,271; 2107,716;   -0,536;    0,500
648,848; 2236,742;    0,736;    2,227
649,424; 2341,222;    0,827;    1,318
650,000; 2052,793;   -0,354;   -1,045
650,577; 2125,182;   -0,627;   -0,955
651,153; 2246,571;   -1,809;    0,955
651,729; 2237,052;    1,191;    0,864
652,305; 2511,350;    0,645;    2,773
652,881; 2916,012;   -0,082;    1,136
653,458; 3793,401;    1,100;    0,227
654,034; 4307,427;    0,282;    1,591
654,610; 4364,452;    0,554;    0,773
655,186; 4764,932;    0,645;    3,045
655,762; 4448,776;   -0,991;    0,409
656,338; 4439,074;    0,100;    0,136
656,913; 4751,736;   -0,082;    0,409
657,489; 4480,125;    0,827;   -0,318
658,065; 4575,060;   -0,173;   -1,591
658,641; 4823,995;   -0,900;   -0,864
659,217; 4555,566;   -0,991;    0,409
659,792; 4315,500;    0,645;   -0,409
660,368; 4447,708;   -2,173;   -0,682
660,944; 4649,915;   -2,082;    1,227
661,519; 3947,486;   -0,628;    0,409
662,095; 3085,603;   -1,719;    0,591
662,670; 2426,628;    1,281;   -0,136
663,246; 2418,472;    1,009;   -0,409
663,821; 2491,498;    0,281;    1,682
664,396; 2226,251;    0,009;    1,864
664,972; 2277,458;    0,009;   -0,500
665,547; 2424,665;    1,372;    0,136
666,122; 2361,600;   -1,082;    0,318
666,698; 2522,444;   -0,173;    0,318
667,273; 2174,560;   -0,173;    0,136
667,848; 2365,949;    2,372;    1,500
668,423; 2435,339;    2,190;    2,318
668,998; 2383,273;    2,827;   -0,682
669,573; 2449,117;   -3,264;   -1,500
670,148; 2591,870;   -1,446;   -0,682
670,723; 2299,350;   -1,810;    0,318
671,298; 2650,103;    2,372;    1,045
671,873; 2525,674;   -0,082;   -0,136
672,448; 2523,972;    0,645;    0,136
673,023; 2550,543;   -1,992;   -0,227
673,597; 2734,751;    0,827;    2,318
674,172; 2718,231;   -0,355;    0,318
674,747; 2559,256;    0,372;   -1,045
675,321; 2332,282;   -0,628;    3,318
675,896; 2217,489;    0,645;    1,045
676,471; 2472,787;    2,645;    1,591
677,045; 2369,086;   -1,264;    0,682
677,620; 2396,657;    0,190;    1,136
678,194; 2432,319;   -2,628;    1,136
678,769; 2406,344;   -1,083;   -0,318
679,343; 2505,915;   -0,628;    1,773
679,917; 2562,486;   -1,446;    1,955
680,492; 2401,603;    0,826;    3,227
681,066; 2445,083;    3,372;    0,409
681,640; 2426,654;    1,463;   -0,318
682,214; 2561,680;    0,735;    0,500
682,788; 2493,614;   -1,356;   -0,773
683,363; 2523,276;   -1,810;    1,682
683,937; 2383,756;   -1,719;   -0,318
684,511; 2626,055;    0,463;   -0,591
685,085; 2555,171;   -1,356;    0,318
685,659; 2414,833;   -2,538;    0,864
686,232; 2645,495;   -0,356;   -0,318
686,806; 2530,611;   -0,901;    0,409
687,380; 2604,182;   -0,174;    0,591
687,954; 2635,208;   -1,174;    1,136
688,528; 2732,324;   -0,719;    1,955
689,101; 2820,168;   -3,992;    1,045
689,675; 2595,467;   -0,356;   -0,136
690,249; 2656,401;   -0,719;    0,409
690,822; 2718,790;    0,280;    0,318
691,396; 2601,452;   -0,265;    1,227
691,969; 2459,023;    1,280;    0,136
692,543; 2574,867;   -0,447;   -1,955
693,116; 2381,256;   -0,265;   -1,409
693,690; 2446,464;    0,099;    0,500
694,263; 2583,398;   -1,083;    2,955
694,836; 2817,242;    1,371;    3,591
695,410; 2524,540;   -0,265;    1,773
695,983; 2538,384;    0,189;    0,591
696,556; 2435,592;   -0,447;   -1,045
697,129; 2502,072;   -0,356;    1,409
697,703; 2475,825;   -1,629;    1,955
698,276; 2492,214;    1,462;   -0,773
698,849; 2533,330;    1,280;    1,409
699,422; 2407,447;   -1,083;    0,591
699,995; 2304,381;    0,007;    0,136
700,568; 2501,771;   -0,629;    3,045
701,140; 2511,069;   -2,811;    1,682
701,713; 2612,458;   -0,174;    2,409
702,286; 2522,847;   -0,538;    0,864
702,859; 2493,873;   -0,902;   -0,591
703,432; 2422,717;    0,825;    0,682
704,004; 2412,288;    0,462;    0,318
704,577; 2264,131;   -0,629;    0,136
705,150; 2377,339;    0,189;    2,500
705,722; 2459,819;   -0,356;   -3,227
706,295; 2472,299;   -0,175;   -0,591
706,867; 2305,961;   -0,175;    1,955
707,440; 2513,077;   -1,720;   -0,409
708,012; 2577,467;    0,462;    0,591
708,584; 2438,947;    2,462;    0,227
709,157; 2423,154;    1,825;   -0,591
709,729; 2538,180;    2,280;    2,045
710,301; 2682,933;    0,734;    0,045
710,874; 2642,322;   -1,447;   -0,227
711,446; 2249,711;    0,371;    0,864
712,018; 2347,555;    0,098;    0,500
712,590; 2277,308;   -1,993;    1,682
713,162; 2582,969;    0,825;    1,318
713,734; 2473,722;    1,825;   -2,045
714,306; 2413,566;   -1,902;   -0,409
714,878; 2225,046;    0,825;    0,864
715,450; 2404,526;    0,643;    0,864
716,022; 2452,552;    1,552;    1,318
716,593; 2455,123;    0,189;    0,591
717,165; 2500,694;   -3,175;   -1,227
717,737; 2628,447;    0,280;    0,409
718,309; 2451,200;    0,280;   -0,045
718,880; 2381,134;   -0,539;   -1,409
719,452; 2500,160;   -0,175;   -1,591
720,024; 2481,276;    0,734;   -0,591
720,595; 2478,211;   -2,902;    0,955
721,167; 2379,327;    0,370;   -2,045
721,738; 2350,717;   -0,812;   -1,045
722,309; 2428,924;   -0,993;   -1,227
722,881; 2281,041;   -1,357;    0,773
723,452; 2462,157;   -2,630;    2,864
724,023; 2541,273;   -0,721;    2,682
724,595; 2549,481;    0,007;    0,682
725,166; 2345,961;    0,007;   -0,409
725,737; 2504,168;    1,734;    0,227
726,308; 2426,921;   -0,266;    0,318
726,879; 2364,310;   -1,630;    1,227
727,450; 2482,427;    0,552;   -0,045
728,021; 2362,362;    3,097;    0,682
728,592; 2499,205;    0,734;    0,500
729,163; 2649,049;    0,643;   -0,136
729,734; 2673,893;    0,188;   -0,227
730,305; 2537,009;    1,734;    0,136
730,876; 2531,580;    0,188;    2,955
731,447; 2832,606;    2,188;    2,682
732,017; 2720,359;    1,097;    1,864
732,588; 2595,566;    0,734;    1,227
733,159; 2752,592;    0,643;   -1,045
733,729; 2509,617;    0,006;    0,409
734,300; 2533,825;    0,915;    0,864
734,870; 2493,123;    3,461;    0,591
735,441; 2522,149;    0,370;   -0,591
736,011; 2418,265;    0,643;   -1,591
736,582; 2475,654;   -0,812;    0,045
737,152; 2432,407;   -1,721;   -2,045
737,722; 2529,978;   -0,267;   -0,682
738,293; 2360,549;   -1,358;    1,318
738,863; 2513,120;    2,461;    2,318
739,433; 2735,237;    5,279;    0,318
740,003; 2650,717;   -0,994;   -0,682
740,573; 2662,379;    2,097;   -1,591
741,143; 2605,586;   -1,085;    0,318
741,713; 2589,066;    1,188;   -0,500
742,283; 2573,364;    0,915;    1,591
742,853; 2483,299;    1,915;    1,591
743,423; 2295,234;    1,733;    0,045
743,993; 2377,714;   -0,358;    1,500
744,563; 2236,285;    0,097;   -0,864
745,133; 2293,583;   -0,812;   -0,864
745,702; 2404,427;   -0,267;    1,773
746,272; 2405,362;   -0,176;    0,591
746,842; 2415,205;   -1,358;   -0,591
747,411; 2359,322;   -0,267;   -0,318
747,981; 2301,075;    0,097;    0,500
748,551; 2325,282;    2,278;   -1,045
749,120; 2397,580;    0,642;   -0,227
749,690; 2443,515;   -0,631;    2,409
750,259; 2587,813;    1,369;    2,955
750,828; 2568,657;    1,551;   -1,955
751,398; 2461,955;    1,278;   -0,045
751,967; 2752,708;    2,187;    0,409
752,536; 2531,007;   -0,813;   -0,227
753,105; 2680,578;    0,096;    0,227
753,675; 2479,240;    0,096;    1,773
754,244; 2469,901;   -0,904;    3,591
754,813; 2495,472;    0,551;    1,227
755,382; 2375,680;    0,460;    0,955
755,951; 2539,251;    1,551;    3,682
756,520; 2582,004;   -0,085;    1,864
757,089; 2821,757;    0,278;    0,500
757,658; 2564,328;    1,733;    1,227
758,227; 2449,990;    1,096;    0,318
758,795; 2545,470;    1,187;    1,136
759,364; 2700,859;   -0,086;   -0,591
759,933; 2372,612;   -1,176;   -0,045
760,501; 2309,274;    0,733;   -1,318
761,070; 2456,572;   -2,813;   -1,409
761,639; 2702,143;   -1,904;    1,318
762,207; 2505,350;    1,551;   -0,955
762,776; 2567,558;    0,369;    0,864
763,344; 2462,674;   -0,995;    0,591
763,913; 2108,700;   -0,722;    1,409
764,481; 2734,180;    1,005;   -0,136
765,049; 2665,296;   -1,358;    1,409
765,618; 2571,231;   -0,086;    0,318
766,186; 2491,166;    0,278;    0,136
766,754; 2506,919;    0,005;    1,864
767,322; 2199,308;   -1,995;    0,409
767,890; 2158,697;   -0,722;   -1,773
768,459; 2358,723;   -2,177;   -0,318
769,027; 2539,839;    1,641;    3,409
769,595; 2263,501;    3,278;    2,591
770,163; 2318,890;    3,823;    2,955
770,730; 2317,188;    0,732;   -0,136
771,298; 2287,941;    0,187;   -1,409
771,866; 2275,967;   -1,541;    4,955
772,434; 2310,265;   -0,631;   -1,864
773,002; 2578,200;    0,005;    0,682
773,569; 2444,407;    0,914;    1,682
774,137; 2491,796;   -0,268;   -0,045
774,705; 2490,277;    0,278;   -0,136
775,272; 2311,757;    0,641;    0,682
775,840; 2421,873;   -0,177;    2,682
776,407; 2371,081;    0,277;    1,955
776,975; 2117,561;   -0,632;    0,318
777,542; 2322,404;   -1,086;   -0,045
778,110; 2314,794;   -1,268;   -0,045
778,677; 2174,819;   -2,359;   -0,864
779,244; 2200,390;    2,186;    1,045
779,812; 2335,598;    1,823;    0,864
780,379; 2377,169;    0,005;    1,136
780,946; 2271,649;    1,005;   -0,773
781,513; 2308,947;   -1,450;    0,318
782,080; 2141,427;   -0,086;    2,864
782,647; 2290,180;   -0,268;    3,045
783,214; 2194,660;   -0,177;    3,864
783,781; 2314,777;   -0,723;   -0,682
784,348; 2291,984;   -0,632;    1,500
784,915; 2182,282;   -3,177;    0,318
785,482; 2311,581;    1,368;    2,591
786,049; 2398,606;    0,186;   -0,591
786,615; 2340,814;    0,277;   -0,955
787,182; 2224,930;    0,186;   -0,682
787,749; 2191,865;   -2,814;    1,409
788,315; 2185,981;   -1,632;   -0,409
788,882; 2224,007;    1,550;   -1,227
789,448; 2507,305;    1,732;   -0,955
790,015; 2338,967;    1,095;    3,227
790,581; 2430,356;    1,459;    0,227
791,148; 2232,018;    0,641;    1,045
791,714; 2215,771;   -0,541;    3,136
792,280; 2177,797;    0,186;    1,591
792,847; 2091,822;    0,550;    2,500
793,413; 2198,939;   -0,269;   -0,318
793,979; 2237,419;    3,459;   -1,318
794,545; 2584,535;    4,459;    2,682
795,111; 2367,106;    2,186;    1,318
795,678; 2225,223;    0,731;   -1,682
796,244; 2405,430;    3,368;    0,136
796,810; 2368,819;    1,731;    0,773
797,375; 2342,663;    0,549;   -2,136
797,941; 1990,416;   -0,541;    0,591
798,507; 1965,896;   -0,451;   -0,955
799,073; 1959,740;   -0,360;    0,591
799,639; 2064,402;   -2,632;    3,136
800,205; 1984,609;    0,095;    2,682
800,770; 1926,453;    0,640;    1,773
801,336; 1870,751;    1,368;   -0,955
801,901; 2489,322;    4,549;    3,136
802,467; 2249,711;   -0,542;    2,045
803,033; 1896,464;   -0,087;    0,864
803,598; 1918,217;    1,913;   -1,045
804,163; 1995,152;    1,095;   -0,318
804,729; 2086,450;   -0,178;    1,136
805,294; 2015,930;    0,822;    2,227
805,859; 1877,501;    0,731;   -0,409
806,425; 2244,163;    1,186;    2,682
806,990; 2206,552;    2,186;    4,318
807,555; 2041,396;   -1,451;    2,591
808,120; 2188,149;    0,822;   -0,409
808,685; 1922,811;    0,185;   -2,500
809,250; 1756,473;    0,004;   -0,500
809,815; 1853,135;    1,913;    0,682
810,380; 2069,524;   -0,269;    1,591
810,945; 2210,731;   -1,087;    2,045
811,510; 2049,393;    2,094;    1,591
812,075; 1953,419;   -0,633;   -1,409
812,640; 2242,263;    2,003;    1,409
813,204; 2065,470;    0,822;   -0,227
813,769; 2270,314;    2,094;   -0,045
814,334; 2198,703;    0,458;    0,864
814,898; 1975,274;    0,367;    0,591
815,463; 1978,390;    1,276;   -0,773
816,027; 1911,870;   -0,724;   -2,318
816,592; 1940,169;    0,640;   -2,045
817,156; 1955,922;    2,094;    1,136
817,721; 2007,674;    4,276;    2,318
818,285; 1834,791;    2,912;    1,500
818,849; 1967,544;   -1,451;    1,682
819,414; 1864,297;   -0,269;    2,955
819,978; 1792,504;   -1,269;    1,773
820,542; 2203,348;    2,003;    0,500
821,106; 2040,646;   -0,815;    0,682
821,670; 2183,672;   -0,815;    2,591
822,234; 1941,970;   -0,270;    1,409
822,798; 1779,541;    0,003;    0,500
823,362; 2107,203;   -0,633;    4,227
823,926; 1823,592;    0,094;    1,136
824,490; 2025,345;   -0,997;   -0,682
825,054; 1936,916;   -0,088;   -1,136
825,618; 1792,123;   -1,542;   -1,500
826,181; 1822,876;    0,458;   -1,318
826,745; 1883,356;    1,367;   -1,045
827,309; 2181,927;    1,185;    1,318
827,872; 2026,135;    1,367;    0,955
828,436; 2025,160;    1,185;   -0,773
828,999; 2007,277;   -0,997;    1,227
829,563; 1904,666;   -0,179;    1,136
830,126; 1848,328;   -0,179;   -0,591
830,690; 1836,899;   -1,997;    2,864
831,253; 1721,652;   -0,543;    2,227
831,816; 1789,496;   -1,906;    0,500
832,380; 1716,703;    0,185;    0,864
832,943; 1765,819;   -1,361;   -0,500
833,506; 1754,390;    2,639;   -1,227
834,069; 2007,598;    3,912;   -0,955
834,632; 1907,987;    1,730;    1,318
835,195; 1889,740;    1,003;    0,955
835,758; 1773,129;   -0,997;    1,955
836,321; 1706,064;    0,730;   -1,045
836,884; 1738,271;   -0,725;   -0,955
837,447; 1752,479;   -2,816;    1,773
838,010; 1879,868;    0,366;    3,227
838,573; 1962,075;   -1,179;    0,773
839,135; 1866,828;   -1,361;   -0,955
839,698; 1780,308;    1,275;    0,409
840,261; 1716,243;    1,003;   -0,227
840,823; 1687,268;   -0,543;    0,864
841,386; 1668,203;   -0,452;   -2,409
841,948; 2018,501;   -1,361;    1,773
842,511; 1727,254;    0,912;    1,682
843,073; 1984,462;    1,912;    0,227
843,636; 1729,487;   -0,361;   -0,227
844,198; 1931,149;    0,911;    0,591
844,760; 1914,356;    1,093;    1,955
845,322; 1649,018;    0,548;    1,136
845,885; 1816,135;    0,730;    0,591
846,447; 1814,888;   -1,998;    0,227
847,009; 2126,913;    1,911;   -0,682
847,571; 1844,212;    0,820;   -2,045
848,133; 1799,964;   -1,089;   -1,864
848,695; 1667,354;   -0,543;    1,409
849,257; 1726,743;   -1,089;   -1,682
849,819; 1897,859;   -0,998;   -0,409
850,381; 1753,976;   -0,725;   -0,864
850,942; 1819,910;    1,093;   -0,591
851,504; 1842,845;    1,184;    0,227
852,066; 1780,962;    1,275;   -1,591
852,628; 1787,442;   -0,180;    1,955
853,189; 1579,558;    1,638;    2,682
853,751; 1662,675;   -0,907;    1,409
854,312; 1816,064;   -0,453;   -1,682
854,874; 1991,544;   -2,089;   -0,773
855,435; 1823,206;   -0,907;   -1,682
855,997; 1940,868;   -1,816;   -0,136
856,558; 1912,621;    0,366;    1,773
857,119; 1762,555;    0,820;    2,864
857,681; 1620,035;    0,002;    0,318
858,242; 1827,061;    1,911;   -2,136
858,803; 1935,087;    0,456;   -0,773
859,364; 1907,930;    0,184;   -4,773
859,925; 1905,501;   -2,453;   -0,955
860,486; 1801,800;   -0,453;   -0,955
861,047; 1687,371;   -0,544;   -1,227
861,608; 1694,669;   -1,089;   -0,773
862,169; 1657,513;    0,638;   -0,045
862,730; 1688,447;    0,456;    1,409
863,291; 1765,473;   -0,635;   -0,500
863,852; 1755,317;   -0,635;    1,955
864,412; 1672,342;   -0,271;   -0,864
864,973; 1802,731;   -0,089;    0,500
865,534; 1962,030;   -1,726;    0,227
866,094; 1837,419;    1,820;    0,227
866,655; 1911,717;    1,274;    3,318
867,215; 1795,834;    0,274;    0,136
867,776; 1688,132;    0,547;   -0,136
868,336; 1736,976;   -1,453;    0,136
868,897; 2083,910;    2,638;    1,682
869,457; 1868,118;    1,365;    0,318
870,017; 1736,325;    0,547;   -1,227
870,578; 1759,714;   -0,817;    0,773
871,138; 1674,922;   -2,089;   -0,955
871,698; 1544,766;   -0,817;   -1,318
872,258; 1679,155;   -0,453;   -2,864
872,818; 1935,271;    2,729;    0,045
873,378; 1740,388;    0,638;    1,045
873,938; 1660,959;    0,547;    0,500
874,498; 1596,257;    0,274;   -1,955
875,058; 1647,555;    2,183;    1,773
875,618; 1627,945;    1,910;   -2,682
876,177; 1678,061;    1,274;    0,136
876,737; 1444,450;   -0,090;    1,955
877,297; 1890,567;    0,183;    1,955
877,856; 1793,411;   -0,362;    0,318
878,416; 1547,891;    1,183;   -0,136
878,976; 1562,916;   -1,817;    0,409
879,535; 1625,305;    0,092;    3,136
880,095; 1614,604;   -0,544;    0,045
880,654; 1502,084;   -1,090;    1,318
881,213; 1841,564;    2,456;    1,500
881,773; 1646,317;    2,637;    2,682
882,332; 2275,797;    3,365;    5,136
882,891; 1703,459;    3,092;    2,136
883,451; 1724,212;   -1,272;    1,682
884,010; 1581,510;   -2,908;   -0,409
884,569; 1564,808;   -0,999;   -0,045
885,128; 1806,107;    2,819;   -1,864
885,687; 2101,132;    4,455;    0,682
886,246; 2250,067;    1,455;    2,136
886,805; 1931,092;    2,455;    2,045
887,364; 1626,936;   -0,999;   -0,500
887,922; 1575,325;   -1,181;    0,045
888,481; 1670,533;   -1,545;    0,591
889,040; 1843,558;    1,183;    2,136
889,599; 1738,220;    2,455;    1,409
890,157; 1740,973;    1,455;    2,409
890,716; 1649,453;   -0,090;    0,227
891,274; 1735,751;    0,092;   -1,136
891,833; 1839,323;    1,546;    0,864
892,391; 1629,257;   -0,454;    0,500
892,950; 1856,919;    1,819;   -0,773
893,508; 1691,127;    0,455;   -0,409
894,067; 1497,243;    0,637;    0,136
894,625; 1614,450;   -0,636;   -1,500
895,183; 1608,021;   -0,363;   -0,682
895,741; 1904,229;    1,728;   -1,773
896,299; 1687,163;   -0,545;   -2,409
896,858; 1597,098;    0,819;   -1,591
897,416; 1730,669;    2,728;   -1,318
897,974; 1669,422;    1,819;    0,318
898,532; 2154,811;    6,091;    2,682
899,089; 1803,837;    2,091;   -0,682
899,647; 1681,771;   -1,454;    1,318
900,205; 1743,979;    1,182;    1,045
900,763; 1754,004;   -0,454;    0,227
901,321; 1712,939;    2,364;   -1,409
901,878; 1484,601;   -1,000;   -0,773
902,436; 1565,081;   -1,363;    1,318
902,994; 2394,925;    4,728;    3,682
903,551; 1849,769;    0,728;    0,409
904,109; 1754,249;    0,182;   -1,409
904,666; 1693,820;    2,455;    1,045
905,224; 1556,663;    0,182;   -0,409
905,781; 1689,416;    0,727;   -0,318
906,338; 1611,806;   -1,363;    1,045
906,895; 1514,467;    0,637;    2,045
907,453; 1779,766;    1,727;    1,136
908,010; 1642,428;   -0,909;    0,409
908,567; 1550,817;    1,273;    0,591
909,124; 1345,752;    0,364;   -1,500
909,681; 1403,959;   -2,909;    0,682
910,238; 1520,257;    0,636;   -1,318
910,795; 1532,374;   -0,273;   -1,136
911,352; 1505,283;   -2,909;   -2,682
911,909; 1459,556;   -1,364;   -0,864
912,466; 1551,101;   -3,182;    1,500
913,022; 1515,556;   -1,636;    0,500
913,579; 1652,374;   -0,909;    2,045
914,136; 1525,010;    1,636;    0,955
914,692; 1615,283;    0,091;   -1,227
915,249; 1508,192;    1,455;    0,409
915,806; 1595,010;    0,182;    1,955
916,362; 1535,737;    1,909;    1,864
916,918; 1398,465;    2,000;    1,045
917,475; 1636,192;   -1,182;    0,955
918,031; 1434,919;    3,364;   -0,045
918,587; 1503,828;   -0,909;   -0,318
919,144; 1445,828;   -2,273;    0,227
919,700; 1421,010;    1,727;    0,773
920,256; 1364,737;    0,727;    0,045
920,812; 1379,465;   -0,727;   -1,045
921,368; 1364,737;   -1,727;   -1,045
921,924; 1304,192;    0,182;   -0,136
922,480; 1393,101;   -0,545;    1,227
923,036; 1474,556;    1,273;    1,955
923,592; 1396,283;    0,455;    0,318
924,148; 1412,465;    0,455;   -0,955
924,704; 1534,919;   -1,364;   -0,409
925,259; 1430,101;   -0,273;    0,591
925,815; 1350,556;    1,455;    0,500
926,371; 1285,101;    2,909;    1,409
926,926; 1434,374;    2,091;    0,591
927,482; 1396,010;   -1,364;    0,773
928,037; 1341,010;    0,909;    2,045
928,593; 1576,283;    1,636;    1,045
929,148; 1339,646;   -1,818;   -1,500
929,704; 1363,737;   -1,455;   -0,500
930,259; 1244,465;    0,091;   -0,136
930,814; 1427,828;   -0,818;    1,955
931,369; 1354,465;    1,091;   -0,773
931,925; 1135,828;   -0,091;    0,136
932,480; 1232,192;   -2,818;   -2,591
933,035; 1668,646;    0,545;   -0,318
933,590; 1530,374;    0,364;   -1,773
934,145; 1089,101;   -1,364;   -0,318
934,700; 1037,010;    0,455;   -0,591
935,255; 1114,465;   -0,091;    0,045
935,809; 1427,192;    3,182;    0,864
936,364;  985,283;   -0,455;   -0,136
936,919; 1017,828;    0,455;   -1,773
937,474;  933,374;    1,455;    0,136
938,028;  959,556;   -1,636;    1,136
938,583; 1352,465;    1,818;    4,682
939,138; 1012,465;    2,091;    2,136
939,692;  838,828;    1,636;   -1,136
940,247;  861,465;   -0,727;   -1,045
940,801;  941,101;   -0,636;    0,227
941,355;  852,192;   -0,364;    2,591
941,910;  698,737;   -0,273;   -2,136
942,464;  767,556;   -0,818;   -0,318
943,018; 1065,010;    1,000;   -0,227
943,572;  862,010;    2,545;   -0,682
944,126;  894,101;    0,091;   -0,409
944,681;  762,465;    3,091;    0,227
945,235;  704,919;    1,000;   -0,591
945,789;  654,010;    0,364;   -1,864
946,342; 1037,101;    0,455;   -0,591
946,896;  742,828;   -2,273;    0,955
947,450;  691,101;    1,545;   -0,227
948,004; 1014,283;    1,727;   -0,045
948,558;  794,919;    0,273;   -0,864
949,111;  792,828;   -0,273;   -0,318
949,665; 1064,646;    1,636;   -0,682
950,219; 1001,828;   -0,091;   -1,045
950,772;  923,283;   -1,909;    1,864
951,326;  928,101;    0,545;   -0,955
951,879;  842,101;    0,727;   -2,318
952,433; 1016,919;    0,000;    2,227
952,986;  812,010;    2,909;    0,682
953,539;  764,828;   -0,273;    0,591
954,093;  716,556;    0,545;   -1,318
954,646;  931,465;    0,909;    1,318
955,199;  828,828;    0,000;   -0,500
955,752; 1056,646;   -0,455;    1,773
956,305;  883,010;   -0,091;    2,955
956,858;  976,646;    0,818;   -0,318
957,411; 1086,646;   -0,545;    2,136
957,964;  932,828;    1,364;    2,136
958,517;  856,828;   -1,545;    3,136
959,070;  815,556;   -0,455;    1,955
959,623; 1177,919;    1,091;    1,500
960,176; 1074,283;    1,727;    2,045
960,728; 1053,646;   -2,727;    0,773
961,281; 1021,737;    0,545;    0,500
961,834;  948,374;   -0,909;    0,864
962,386;  929,283;    1,727;    1,045
962,939;  868,374;    0,364;   -0,318
963,491;  955,101;    0,455;    1,136
964,043;  875,374;    1,182;    2,409
964,596; 1102,283;   -1,000;    2,227
965,148;  969,192;   -1,000;    1,773
965,700;  866,283;    1,091;   -0,227
966,253; 1069,192;   -0,636;    0,318
966,805; 1010,556;   -2,273;    0,773
967,357;  938,556;    1,091;   -1,500
967,909; 1080,556;    0,455;   -1,227
968,461;  947,465;    0,545;    3,136
969,013;  886,646;   -0,182;   -0,864
969,565; 1059,374;   -0,455;   -1,136
970,117; 1396,374;   -0,364;    1,045
970,669; 1064,737;    0,182;   -0,136
971,220;  804,646;   -0,455;   -1,500
971,772;  896,192;   -0,636;   -0,318
972,324; 1047,010;    0,091;   -0,500
972,876;  935,646;    0,818;   -0,045
973,427; 1110,101;    1,909;   -1,045
973,979; 1167,010;   -0,727;   -2,500
974,530;  921,737;    1,818;    1,318
975,082;  996,283;   -0,545;    1,682
975,633;  932,374;    1,091;    1,682
976,184; 1067,646;    0,909;    0,773
976,736; 1017,737;    0,091;    0,227
977,287;  980,101;   -0,909;   -0,500
977,838;  977,919;    0,909;   -0,318
978,389; 1004,283;   -1,000;   -0,500
978,940;  818,556;    0,545;   -0,409
979,491;  814,283;    0,091;   -0,500
980,042;  920,646;    0,182;    3,045
980,593;  908,646;   -2,545;    0,227
981,144; 1061,646;    2,545;   -0,500
981,695; 1134,737;    1,455;    1,500
982,246; 1050,374;   -0,273;    1,045
982,797;  916,737;   -1,727;    0,682
983,347; 1096,919;    0,364;    0,591
983,898; 1342,101;    3,091;    0,409
984,449; 1255,374;    2,182;    0,773
984,999; 1025,646;    1,455;   -1,136
985,550;  974,010;    0,182;   -0,318
986,100;  791,283;   -0,455;   -0,318
986,651;  784,101;   -0,818;    0,045
987,201;  833,101;   -1,000;   -0,591
987,751;  861,919;    0,818;    2,864
988,302;  929,192;    2,636;    1,500
988,852;  955,828;    0,455;   -1,136
989,402; 1047,101;    0,091;    0,682
989,952; 1056,828;   -2,182;    0,864
990,502;  900,101;   -0,091;    0,682
991,052;  767,465;   -0,727;    0,045
991,602;  783,646;   -2,909;    1,318
992,152;  870,828;    0,455;    0,682
992,702;  888,465;    1,364;   -0,045
993,252;  823,828;   -3,000;   -0,500
993,802;  943,010;   -0,273;    1,318
994,352;  927,465;   -1,545;    1,136
994,901;  823,737;   -0,182;    3,227
995,451;  814,283;   -0,182;    0,318
996,000;  856,192;    1,636;    0,318
996,550;  804,010;    2,273;    0,227
997,100;  853,010;    1,273;   -0,045
997,649; 1054,283;    2,182;    0,955
998,198;  800,828;    1,727;   -1,500
998,748;  965,283;    1,091;   -2,318
999,297;  852,737;   -0,818;   -0,409
999,846; 1014,556;    1,000;   -0,773
1000,395;  911,919;   -0,818;    0,500
1000,945; 1036,374;    1,818;   -0,773
1001,494; 1047,283;    2,364;    0,682
1002,043; 1004,737;    4,636;    0,864
1002,592;  774,919;   -1,091;    1,955
1003,141;  795,737;   -0,455;   -0,682
1003,690;  939,101;    1,727;    0,500
1004,238;  800,101;    1,455;   -0,045
1004,787;  650,556;    1,364;    1,227
1005,336;  922,919;    0,364;    0,682
1005,885;  861,737;    1,364;   -2,773
1006,433;  844,010;    0,545;    0,955
1006,982; 1099,010;    0,455;    1,682
1007,531;  886,737;   -1,818;   -0,227
1008,079;  806,556;   -2,273;    0,500
1008,627;  752,101;   -1,455;    0,409
1009,176;  742,283;    0,000;   -1,955
1009,724;  697,374;    1,091;    0,864
1010,273;  891,010;    1,273;    0,500
1010,821;  743,919;    0,091;    1,409
1011,369;  659,737;   -1,364;    1,318
1011,917;  692,283;   -1,364;   -0,591
1012,465;  820,374;    1,273;   -1,591
1013,013;  806,465;    2,091;   -1,682
1013,561;  910,465;    0,455;   -0,773
1014,109; 1028,737;   -1,909;    1,682
1014,657;  864,737;    0,364;    0,591
1015,205;  722,737;    1,636;   -0,955
1015,753;  666,010;   -0,545;   -1,409
1016,301;  760,101;   -2,636;    3,045
1016,848;  840,828;   -1,273;    0,409
1017,396;  855,283;    2,545;    0,045
1017,944;  858,556;    1,182;    1,864
1018,491;  708,828;    0,273;    1,409
1019,039; 1102,646;    0,455;    0,591
1019,586;  801,283;   -1,364;    1,682
1020,134;  773,919;    0,455;    1,500
1020,681;  857,646;    0,182;   -1,136
1021,228;  736,010;    2,909;   -2,227
1021,776;  710,010;    1,182;   -1,136
1022,323;  987,646;    0,455;    0,773
1022,870;  882,192;   -1,000;   -0,045
1023,417;  945,465;    2,636;    1,864
1023,964;  724,737;    2,636;    1,227
1024,511;  706,737;    1,000;    0,773
1025,058;  690,101;    3,182;   -0,045
1025,605;  654,465;   -2,273;    3,136
1026,152;  932,192;    1,727;   -0,591
1026,699;  737,828;    1,818;    1,318
1027,245;  718,919;   -0,091;    0,318
1027,792;  657,919;   -1,000;    1,409
1028,339;  900,737;    2,364;   -0,045
1028,885;  725,919;    1,000;   -0,227
1029,432;  667,828;   -0,091;    0,227
1029,978;  805,101;   -1,000;   -1,591
1030,525;  758,556;    1,000;    0,409
1031,071;  622,646;   -1,364;    1,136
1031,618;  974,374;    0,364;    1,682
1032,164;  753,646;   -0,091;    3,045
1032,710;  808,192;    1,636;   -1,500
1033,256;  755,101;   -0,636;   -0,136
1033,803;  577,556;   -0,545;    1,500
1034,349;  410,919;   -1,364;    0,136
1034,895;  474,465;    0,000;   -0,318
1035,441;  558,737;   -0,818;    0,318
1035,987;  618,737;   -2,364;   -0,682
1036,533;  703,101;   -1,455;   -0,955
1037,078;  930,101;    1,455;    1,682
1037,624;  748,010;    2,455;   -0,955
1038,170;  590,828;    0,455;   -0,318
1038,716;  684,283;    1,636;   -0,409
1039,261;  525,465;   -2,273;   -0,773
1039,807;  538,737;   -0,091;    3,409
1040,352;  593,556;   -1,909;   -0,318
1040,898;  581,556;   -1,545;   -0,682
1041,443;  481,919;   -1,455;   -2,591
1041,989;  831,919;    1,091;    1,591
1042,534;  585,737;   -0,364;    2,591
1043,079;  458,646;    2,909;    0,955
1043,625;  580,374;    1,818;    0,500
1044,170;  611,010;   -1,364;    1,045
1044,715;  840,556;    2,455;    0,955
1045,260;  707,283;    2,182;   -0,955
1045,805;  534,828;    1,182;   -0,591
1046,350;  483,919;    1,364;   -0,409
1046,895;  705,556;    2,909;    1,591
1047,440;  701,010;    5,364;    0,409
1047,985;  542,101;    2,818;   -0,955
1048,530;  489,192;    1,545;    1,227
1049,074;  568,465;    0,000;    0,318
1049,619;  480,828;   -1,364;    1,955
1050,164;  462,646;    0,455;    0,227
1050,708;  560,374;   -0,455;    0,045
1051,253;  857,192;    1,273;   -2,227
1051,797;  619,283;    0,818;   -1,318
1052,342;  430,283;   -1,182;    1,045
1052,886;  541,646;    0,364;   -1,409
1053,430;  393,374;   -1,364;    0,136
1053,975;  496,192;   -0,818;   -0,318
1054,519;  522,283;   -0,727;    3,227
1055,063;  601,374;    0,909;    1,318
1055,607;  575,556;   -0,182;    0,227
1056,151;  566,374;    2,909;    1,682
1056,695;  460,374;    2,273;   -1,136
1057,239;  458,828;   -1,727;   -0,682
1057,783;  502,919;    0,818;   -1,500
1058,327;  583,737;    0,000;    1,409
1058,871;  753,737;   -0,545;    1,318
1059,415;  597,828;   -0,818;   -0,045
1059,958;  786,919;    1,455;    2,591
1060,502;  528,828;   -1,000;   -0,773
1061,046;  393,646;    0,364;   -0,955
1061,589;  358,919;   -3,000;   -1,136
1062,133;  325,465;   -1,273;    1,864
1062,676;  378,465;    1,182;    0,864
1063,220;  426,646;    1,091;    0,500
1063,763;  456,101;    0,909;    1,136
1064,306;  488,919;   -0,909;    1,864
1064,849;  480,646;   -0,909;    0,591
1065,393;  456,010;    2,000;   -1,500
1065,936;  467,919;    0,182;   -0,409
1066,479;  361,010;   -1,455;    1,318
1067,022;  390,465;   -0,273;   -0,227
1067,565;  355,828;   -0,091;   -1,318
1068,108;  321,919;    0,727;   -0,591
1068,651;  295,646;   -0,636;    1,409
1069,194;  304,283;   -0,455;   -1,682
1069,736;  336,919;   -1,273;    0,955
1070,279;  292,192;   -1,364;   -0,500
1070,822;  404,283;   -2,000;   -0,318
1071,364;  547,737;   -0,364;    1,318
1071,907;  377,374;   -0,727;    3,227
1072,450;  210,283;    0,000;   -0,045
1072,992;  296,465;   -0,273;    3,136
1073,535;  401,465;    2,091;    2,136
1074,077;  291,101;   -0,727;    2,045
1074,619;  293,192;   -1,364;    0,591
1075,161;  322,828;   -1,091;    1,500
1075,704;  470,919;    1,545;    1,227
1076,246;  300,465;   -0,182;    0,682
1076,788;  227,010;   -0,364;    1,773
1077,330;  237,646;    1,273;    2,136
1077,872;  288,374;    0,909;    0,955
1078,414;  492,737;    2,727;    0,773
1078,956;  315,919;    1,273;   -0,227
1079,498;  492,374;    1,636;    0,318
1080,040;  319,465;    1,909;   -1,318
1080,581;  267,465;    1,636;   -0,318
1081,123;  192,010;    0,091;   -0,773
1081,665;  214,556;   -1,182;   -0,955
1082,206;  450,556;    1,364;   -0,500
1082,748;  352,556;    0,727;    2,045
1083,289;  241,283;   -2,000;    1,318
1083,831;  231,283;   -0,545;    0,227
1084,372;  289,828;    0,000;    0,591
1084,913;  290,374;    1,091;    0,864
1085,455;  216,919;   -1,909;   -2,045
1085,996;  226,919;   -2,273;    0,136
1086,537;  270,101;   -0,091;    0,864
1087,078;  272,374;   -0,909;   -2,136
1087,619;  327,919;   -1,273;    0,227
1088,160;  277,646;    0,000;    1,318
1088,701;  254,919;   -1,091;    0,682
1089,242;  234,283;    1,364;   -2,227
1089,783;  306,737;   -0,273;    1,409
1090,324;  274,192;    0,455;    0,682
1090,865;  201,919;    2,727;   -0,409
1091,405;  164,828;    0,727;    2,227
1091,946;  217,737;    0,182;   -0,955
1092,487;  158,192;    0,818;   -1,409
1093,027;  304,101;   -1,364;   -1,500
1093,568;  217,192;   -0,364;    1,227
1094,108;  263,556;    0,273;    1,773
1094,649;  224,737;   -1,182;    0,136
1095,189;  186,101;   -0,636;   -0,682
1095,729;  182,556;   -0,091;    0,955
1096,269;  167,283;    0,727;   -0,955
1096,810;  365,465;   -1,364;    0,500
1097,350;  286,192;    1,364;   -0,773
1097,890;  220,283;    0,364;    1,227
1098,430;  413,919;    2,364;    2,864
1098,970;  335,010;    2,182;    1,682
1099,510;  201,374;    0,545;   -2,318
1100,050;  185,010;    1,000;   -1,591
1100,589;  193,101;   -0,727;   -0,318
1101,129;  258,465;    0,818;   -0,955
1101,669;  363,010;    1,727;    2,136
1102,209;  259,828;   -0,091;    2,227
1102,748;  222,374;    0,000;    0,955
1103,288;  232,646;    1,273;   -1,227
1103,827;  223,556;    3,091;   -2,227
1104,367;  166,828;   -0,091;   -2,409
1104,906;  164,283;    1,364;   -1,136
1105,445;  224,828;    0,636;   -1,136
1105,985;  193,101;   -0,727;    1,500
1106,524;  211,646;   -1,727;   -0,682
1107,063;  195,010;   -2,727;    1,409
1107,602;  162,465;   -1,909;   -1,500
1108,141;  142,828;   -1,909;    1,500
1108,680;  227,101;   -3,455;   -0,591
1109,219;  183,283;   -0,909;   -0,500
1109,758;  175,556;    0,455;    0,682
1110,297;  172,374;    1,000;   -0,682
1110,836;  134,010;   -0,727;    0,955
1111,375;  201,646;   -2,545;    0,409
1111,913;  236,646;   -1,000;    0,773
1112,452;  201,828;   -0,273;    0,136
1112,991;  133,828;    1,091;    1,955
1113,529;  128,556;   -0,818;   -0,045
1114,068;  170,101;   -0,273;    2,955
1114,606;  121,465;   -0,364;   -0,955
1115,144;  214,101;   -1,273;    1,045
1115,683;  181,374;   -0,727;    0,318
1116,221;  216,283;   -0,455;   -0,864
1116,759;  151,465;    0,636;   -0,864
1117,297;  264,010;    0,000;    1,864
1117,836;  157,556;   -2,182;   -1,227
1118,374;  160,919;    0,182;   -0,682
1118,912;  155,010;    0,909;    2,682
1119,450;  148,646;    1,000;    0,864
1119,988;  157,101;    1,545;    2,136
1120,525;  483,646;    5,091;    3,318
1121,063;  272,828;    1,182;    1,864
1121,601;  157,556;   -0,909;   -1,227
1122,139;  135,374;   -0,727;   -2,045
1122,676;  264,374;   -0,727;    2,773
1123,214;  226,737;   -1,182;    4,409
1123,751;  123,010;    1,727;    2,227
1124,289;  178,646;   -0,091;   -0,409
1124,826;  134,828;    1,727;    0,227
1125,364;   77,828;    1,727;   -0,955
1125,901;  205,919;    1,182;    1,227
1126,438;  238,101;    0,818;    0,955
1126,975;   88,192;   -0,727;   -0,773
1127,513;  125,465;    0,273;    2,136
1128,050;   87,010;    1,636;   -0,682
1128,587;  141,556;    2,000;   -0,227
1129,124;  172,101;    0,091;    1,318
1129,661;  102,283;    0,273;    0,227
1130,198;  202,101;    1,636;    0,773
1130,734;  157,283;    0,182;    1,409
1131,271;   88,283;   -0,909;    0,864
1131,808;  183,646;    2,909;    3,045
1132,345;  120,465;    1,545;    0,318
1132,881;   53,646;   -1,545;   -1,864
1133,418;  137,465;    0,727;   -1,136
1133,954;   95,374;    2,455;   -2,682
1134,491;  142,192;    1,364;   -0,773
1135,027;   93,010;    2,364;    0,864
1135,564;  140,283;    0,273;    2,955
1136,100;  124,465;    0,364;    2,136
1136,636;   71,465;   -1,273;   -1,045
1137,172;  120,283;    0,000;   -1,045
1137,708;   90,737;   -1,364;   -1,045
1138,245;   80,465;    1,273;   -1,227
1138,781;   62,010;    1,091;   -3,318
1139,317;  102,010;    1,273;   -1,409
1139,852;  106,828;    3,091;    0,136
1140,388;  159,646;   -1,182;   -0,409
1140,924;  100,465;   -1,091;   -2,227
1141,460;   64,192;   -1,636;    0,136
1141,996;   38,556;   -1,364;    2,682
1142,531;   66,010;    1,364;    3,318
1143,067;  191,101;    1,182;    1,045
1143,602;  235,101;   -0,091;   -0,318
1144,138;  131,919;   -2,636;    1,045
1144,673;   59,646;   -1,455;    1,409
1145,209;   96,283;   -1,909;   -0,318
1145,744;   53,828;   -0,727;    0,864
1146,279;  129,646;    1,818;   -0,136
1146,815;   84,828;    1,545;   -2,682
1147,350;  109,192;   -1,364;    0,045
1147,885;   64,101;   -0,818;   -1,318
1148,420;   60,465;   -2,273;    0,773
1148,955;   55,101;   -1,727;    1,864
1149,490;   61,828;   -0,909;   -1,591
1150,025;   50,283;    0,455;   -1,773
1150,560;  120,101;    1,091;   -0,955
1151,094;  100,828;    1,455;   -0,591
1151,629;  103,919;    1,636;    0,864
1152,164;   67,465;    1,364;    1,318
1152,698;   45,374;   -0,182;   -0,136
1153,233;   22,283;    0,091;   -0,682
1153,767;   49,919;   -3,000;   -2,318
1154,302;   75,465;   -1,455;    1,773
1154,836;   73,283;   -0,455;   -2,136
1155,371;  101,101;   -1,364;    3,682
1155,905;   70,737;   -0,636;    1,682
1156,439;   62,828;   -0,636;   -0,500
1156,973;   81,919;    0,364;    0,318
1157,507;   47,283;   -0,364;    0,682
1158,042;   60,374;   -0,727;    1,045
1158,576;   77,283;    0,182;    1,773
1159,110;   81,283;   -0,818;    2,409
1159,643;   63,374;    0,636;   -0,045
1160,177;   39,283;   -1,545;    1,500

