
Integration time [ms]:   0,040
Averaging Nr. [scans]: 11
Smoothing Nr. [pixels]: 0
Data measured with spectrometer [name]: 7318044SP
Wave   ;Sample   ;Dark     ;Reference
[nm]   ;[counts] ;[counts] ;[counts] 

186,757;   33,517;   31,551;    1,318
187,357;   34,448;   22,551;    0,955
187,958;   20,015;   15,460;   -1,591
188,558;   34,960;    8,915;   -1,227
189,159;   15,284;    6,733;   -4,500
189,759;   13,276;    7,278;   -3,591
190,360;   11,106;    2,824;   -2,136
190,960;   20,563;    2,915;   -4,136
191,560;   20,793;    3,189;   -6,591
192,161;   96,659;    4,372;   -3,500
192,761;   52,594;    4,010;   -3,227
193,361;   29,573;    1,556;   -3,773
193,962;   49,055;    2,010;   -2,682
194,562;   21,779;    1,189;   -3,955
195,162;   20,907;   -2,448;   -2,227
195,762;   71,991;   -3,176;   -0,045
196,362;   50,245;    1,370;   -2,500
196,963;   17,713;    2,006;   -0,864
197,563;   37,875;    1,551;   -0,955
198,163;   17,542;    0,096;   -0,682
198,763;   21,805;    1,733;   -0,500
199,363;   46,821;    3,096;   -0,500
199,963;   37,469;    0,369;    0,409
200,563;   30,003;    2,823;   -1,409
201,163;   22,556;    3,277;   -0,227
201,763;   41,617;    3,732;    0,318
202,363;   22,760;    1,459;    1,500
202,963;   42,042;    1,459;    1,045
203,563;   80,705;    0,277;    0,500
204,162;   36,729;    2,096;   -1,864
204,762;   30,897;    0,550;    0,591
205,362;   19,520;    3,004;    1,955
205,962;   42,914;    3,096;    1,955
206,562;   44,013;    1,823;    2,318
207,161;   32,689;   -0,087;    0,318
207,761;  100,288;    1,277;    2,409
208,361;   45,014;   -0,268;    1,409
208,960;   67,624;    0,459;    1,500
209,560;   64,006;    1,277;    1,591
210,160;   79,831;    0,550;    1,864
210,759;   59,046;    4,186;    1,227
211,359;   47,369;    1,459;    1,045
211,958;  158,213;    1,277;    2,045
212,558;  171,358;    1,732;    1,864
213,157;   99,800;    1,822;    1,500
213,757;  263,587;    3,822;   -0,227
214,356;  136,675;    1,277;   -0,409
214,956;  261,589;    3,095;    0,409
215,555;  115,253;    2,095;    2,136
216,154;   80,983;   -2,723;   -0,591
216,754;   86,062;    0,277;    0,773
217,353;  116,115;   -0,268;   -1,045
217,952;   46,560;   -0,178;    0,318
218,552;  150,384;    1,368;   -0,773
219,151;   98,913;    0,277;    0,955
219,750;   85,940;    0,004;   -0,227
220,349;   73,412;   -0,451;    1,045
220,948;  178,314;   -1,360;    1,136
221,548;  102,257;    0,913;    1,227
222,147;  137,411;   -0,087;   -0,409
222,746;  270,205;   -0,451;   -0,955
223,345;  175,963;    0,731;    0,500
223,944;  180,574;   -0,451;    0,773
224,543;  204,950;    1,004;   -1,409
225,142;  206,717;    0,094;    0,136
225,741;  196,068;   -0,814;    1,045
226,340;  181,919;   -0,451;   -0,955
226,939;  313,489;   -0,996;   -0,136
227,538;  182,052;   -0,360;   -0,773
228,137;  331,621;   -0,814;    0,864
228,735;  279,070;   -0,541;    1,227
229,334;  151,330;   -0,905;   -0,227
229,933;  348,710;    0,459;    0,591
230,532;  377,456;    1,186;   -0,409
231,131;  462,773;    1,732;    0,318
231,729;  335,225;   -2,450;   -2,318
232,328;  263,024;   -0,723;   -1,500
232,927;  280,372;    1,004;   -0,500
233,525;  259,081;    3,640;    0,045
234,124;  321,818;    2,368;   -1,591
234,723;  230,957;    0,913;   -1,045
235,321;  232,505;    2,277;    0,136
235,920;  281,959;    1,186;   -1,227
236,518;  459,962;    3,459;    0,318
237,117;  284,715;    0,004;   -0,227
237,715;  304,243;    0,640;   -0,500
238,314;  365,656;   -0,087;   -2,318
238,912;  517,749;   -0,723;   -1,409
239,510;  387,452;    0,459;   -1,227
240,109;  525,053;    0,004;    3,773
240,707;  479,717;   -0,996;    1,227
241,305;  321,671;    0,550;    0,136
241,904;  439,852;   -0,178;   -2,045
242,502;  552,689;   -0,632;   -0,227
243,100;  443,140;   -0,087;   -0,955
243,698;  373,396;    0,732;    1,682
244,297;  417,700;   -0,632;    0,682
244,895;  414,130;   -0,269;   -2,318
245,493;  623,552;    2,186;   -0,591
246,091;  607,707;    1,368;   -1,318
246,689;  542,520;    1,004;    0,591
247,287;  495,148;    0,822;   -1,136
247,885;  454,723;   -1,451;    1,227
248,483;  413,503;    1,822;   -0,500
249,081;  507,926;    0,185;    1,591
249,679;  559,268;   -0,178;    1,682
250,277;  403,044;   -1,723;    0,864
250,875;  556,874;   -1,087;   -1,045
251,473;  443,451;   -1,178;    0,500
252,071;  559,685;    1,459;    1,045
252,669;  463,937;   -1,814;    0,318
253,267;  402,596;   -0,087;    0,773
253,864;  455,693;   -0,360;    0,682
254,462;  640,159;    1,640;    1,591
255,060;  392,584;   -0,269;    1,318
255,658;  384,119;    0,822;   -0,136
256,255;  486,869;    0,186;   -2,045
256,853;  526,268;   -0,269;    1,409
257,451;  503,449;    0,822;    1,864
258,048;  954,964;    1,822;    1,864
258,646;  635,062;    1,731;   -1,045
259,243;  748,905;   -0,087;    2,227
259,841;  613,123;   -0,814;    0,318
260,438;  442,999;   -0,087;    0,864
261,036;  579,890;   -1,905;    1,409
261,633;  465,495;   -0,087;    2,227
262,231;  409,649;    2,731;   -0,045
262,828;  429,030;   -0,905;    1,136
263,425;  499,225;    0,913;   -0,591
264,023;  497,766;    0,186;    0,045
264,620;  660,050;   -0,360;   -0,318
265,217;  794,398;   -2,087;    3,136
265,815;  491,278;   -1,905;    2,136
266,412;  640,501;    0,731;    0,136
267,009;  684,079;   -1,451;    0,773
267,606;  767,699;    0,822;   -0,955
268,203;  529,461;   -0,269;   -0,591
268,801;  584,933;    1,731;    0,591
269,398;  485,016;   -0,360;    2,500
269,995;  658,848;    0,277;    1,591
270,592;  575,241;   -0,632;   -0,500
271,189;  485,472;    0,186;    0,409
271,786;  460,051;   -0,632;    1,227
272,383;  742,993;   -1,087;    0,227
272,980;  573,544;    0,277;    0,318
273,577;  520,351;    0,004;    1,227
274,174;  466,013;    0,822;    2,591
274,771;  626,483;   -0,814;   -0,773
275,367; 1055,436;    2,277;    1,409
275,964;  851,512;    0,731;   -0,500
276,561;  621,228;    1,549;   -1,045
277,158;  525,540;    0,095;   -1,773
277,755;  790,108;    2,185;    0,409
278,351;  653,420;   -0,451;   -1,500
278,948;  737,009;   -0,815;    0,045
279,545;  659,302;   -1,360;    2,318
280,141;  893,425;   -1,723;   -2,045
280,738;  815,289;   -0,451;   -0,136
281,334;  588,016;   -1,633;    0,591
281,931;  613,303;   -0,087;   -1,318
282,528;  734,820;    0,822;   -0,500
283,124;  840,159;   -1,087;   -0,500
283,721;  822,552;   -0,451;    1,409
284,317;  643,495;    0,185;    2,500
284,913;  863,016;   -1,360;    0,591
285,510; 1155,834;    0,640;   -0,318
286,106;  943,027;   -2,269;   -0,955
286,703;  677,262;   -0,360;    1,955
287,299;  615,669;   -1,451;   -0,591
287,895;  608,689;    0,822;   -1,045
288,491;  600,652;    0,186;    2,136
289,088;  745,886;   -2,360;    2,409
289,684;  798,937;   -1,723;    1,500
290,280;  964,952;    0,368;    0,682
290,876;  926,315;    1,822;    5,500
291,472;  799,997;    1,276;    2,227
292,068;  819,403;    1,367;    0,227
292,665;  663,850;    2,095;    0,773
293,261;  535,393;    0,276;    2,136
293,857;  760,122;    2,913;    2,136
294,453;  674,431;    3,550;    0,955
295,049;  917,195;   -0,268;    1,955
295,644;  714,544;    0,095;    0,136
296,240;  564,803;   -0,905;   -0,136
296,836;  716,580;   -0,995;    0,318
297,432;  870,019;    1,096;   -0,500
298,028;  921,477;    0,732;    0,773
298,624;  743,598;    1,459;    1,864
299,220;  706,723;    2,368;    0,591
299,815;  695,163;    1,005;   -0,409
300,411;  808,650;    0,914;    1,773
301,007;  949,005;    1,368;    0,227
301,602;  748,135;   -0,541;   -2,318
302,198;  882,672;    0,732;   -0,773
302,794;  690,794;    1,187;   -0,500
303,389;  649,812;   -1,177;    1,045
303,985;  726,101;    0,550;    1,409
304,580;  846,061;    1,459;    1,591
305,176;  732,648;   -3,086;    0,136
305,771;  600,613;   -1,268;   -1,227
306,367; 1030,017;    4,095;    0,136
306,962;  779,408;    0,641;    1,500
307,558;  815,040;   -0,450;    0,136
308,153;  904,108;    1,095;   -1,136
308,748;  665,707;   -0,814;    1,682
309,344; 1092,655;   -0,632;   -1,318
309,939; 1106,421;   -1,905;   -1,318
310,534;  738,175;   -0,086;   -1,682
311,130;  694,898;    0,459;   -2,500
311,725;  635,856;    1,004;   -0,500
312,320;  710,600;    2,459;    0,045
312,915;  844,271;    1,459;   -1,045
313,510; 1075,227;    1,550;   -0,500
314,105;  784,483;    1,096;    1,409
314,700;  590,986;   -3,086;   -1,045
315,295;  678,515;   -0,904;    0,045
315,890;  604,578;    1,277;    0,864
316,485;  740,686;   -0,359;   -0,318
317,080;  641,056;   -3,086;    1,591
317,675;  994,060;    2,005;   -0,682
318,270; 1214,066;    5,550;    3,318
318,865; 1113,878;    3,278;    3,045
319,460;  910,769;   -0,904;    0,591
320,055;  738,003;   -0,541;   -1,227
320,650;  721,426;   -1,995;   -0,591
321,244;  734,488;   -0,177;   -1,409
321,839;  789,277;   -1,541;   -0,227
322,434;  845,963;   -1,086;   -1,591
323,029;  731,279;    1,732;    1,591
323,623;  680,888;    1,550;    0,773
324,218;  876,692;    2,368;    1,409
324,812;  807,346;    1,096;    1,591
325,407;  817,860;   -0,814;    2,045
326,002;  933,143;    0,277;   -0,409
326,596;  869,059;    0,914;    1,318
327,191;  692,386;    0,823;   -1,045
327,785;  670,059;   -0,813;   -0,227
328,379;  715,570;    1,368;    0,136
328,974;  762,662;    0,914;   -3,955
329,568;  788,717;    0,186;   -2,409
330,163;  865,657;    2,096;    1,045
330,757;  693,793;    2,459;    1,591
331,351;  626,365;    0,459;    0,682
331,945;  623,061;    0,914;    1,409
332,540;  793,917;   -1,723;   -0,591
333,134;  761,439;   -1,086;    0,773
333,728;  754,187;    0,005;    0,318
334,322;  646,741;   -1,177;   -0,864
334,916;  602,322;    0,277;    0,955
335,510;  813,900;   -0,450;   -0,136
336,105;  817,386;   -1,086;    1,591
336,699;  678,935;   -1,086;    0,591
337,293;  717,035;   -1,723;    0,318
337,887;  645,693;   -2,723;    1,955
338,481;  826,185;    0,459;    0,591
339,074;  948,497;   -0,359;    2,682
339,668;  917,011;   -1,632;    1,227
340,262; 1553,356;    1,732;    3,227
340,856; 1097,289;    1,822;   -0,682
341,450;  695,614;    1,004;    1,864
342,044;  772,580;    1,459;    0,136
342,637;  935,780;    0,913;   -2,136
343,231;  947,271;   -2,360;    0,682
343,825;  767,747;   -1,086;   -0,591
344,419;  736,279;   -1,995;    0,500
345,012; 1327,772;    2,459;    4,045
345,606; 1113,825;    4,641;    1,591
346,199;  756,021;   -1,813;   -0,227
346,793;  911,353;    1,914;    2,045
347,386;  673,519;   -0,813;   -1,136
347,980;  541,101;   -0,268;   -0,045
348,573;  675,275;    2,278;    0,409
349,167;  987,801;    5,278;    4,773
349,760;  880,361;    2,914;    2,682
350,354;  825,989;   -0,813;    1,136
350,947;  888,572;    1,096;    1,682
351,540;  700,744;   -0,358;   -1,409
352,134;  532,817;    1,096;    1,136
352,727;  585,344;   -0,086;    1,136
353,320;  611,850;    0,005;    0,591
353,913;  531,524;   -1,995;    1,864
354,507;  775,463;    0,823;   -1,227
355,100;  628,154;    0,460;    0,864
355,693; 1094,568;    2,005;    2,409
356,286;  818,084;    0,823;    2,773
356,879;  640,373;   -0,722;    1,227
357,472;  612,211;   -0,904;    1,500
358,065;  686,567;   -0,722;    2,500
358,658;  512,276;   -0,540;    2,318
359,251;  458,834;   -1,631;   -0,591
359,844;  694,368;   -1,904;   -1,136
360,437;  796,074;   -2,995;    0,045
361,030;  607,922;    1,369;   -0,682
361,623;  602,307;    2,824;    0,318
362,215;  877,461;   -0,086;    2,045
362,808;  701,860;   -2,358;   -1,682
363,401;  609,166;   -2,449;    0,136
363,994;  868,928;   -0,631;   -1,500
364,586;  612,847;    0,824;   -1,500
365,179;  549,741;   -0,449;   -1,136
365,772;  379,329;   -1,995;    2,045
366,364;  581,530;    1,915;   -3,227
366,957;  665,980;    2,279;   -0,045
367,549;  587,365;    2,188;   -0,864
368,142;  586,669;    1,825;   -1,500
368,734;  542,097;    0,734;   -2,136
369,327;  447,892;    1,643;   -0,500
369,919;  505,692;   -1,538;    0,409
370,512;  540,950;   -1,083;   -0,500
371,104;  842,522;   -0,901;    1,591
371,696;  895,728;    1,191;   -0,955
372,289;  723,529;    0,373;    1,136
372,881;  658,483;   -2,080;    1,318
373,473;  509,833;   -2,170;    1,136
374,066;  634,513;   -0,169;    0,500
374,658;  598,232;    0,378;    1,136
375,250;  519,290;    0,653;   -1,409
375,842;  604,992;    0,473;   -0,045
376,434;  547,731;   -0,435;   -0,409
377,026;  541,676;    0,204;   -2,500
377,618;  593,780;   -0,158;   -0,682
378,210;  510,150;   -0,338;   -1,955
378,802;  480,191;    0,754;   -0,591
379,394;  979,223;    1,846;    0,682
379,986;  694,450;    1,393;   -0,955
380,578;  585,279;   -0,153;    0,773
381,170;  864,592;   -0,972;    0,045
381,762;  739,095;    0,755;    1,409
382,354;  692,281;   -0,065;   -1,318
382,945;  579,578;   -2,976;    0,318
383,537;  503,994;   -2,705;   -1,955
384,129;  499,878;   -2,160;   -1,136
384,721;  648,673;   -0,252;    0,955
385,312;  553,819;   -0,161;   -0,955
385,904;  685,636;   -2,706;    1,591
386,496;  574,977;   -0,979;    1,045
387,087;  742,610;    1,022;    2,500
387,679;  672,617;   -1,160;    0,045
388,270;  667,570;    2,840;    2,045
388,862;  617,032;    1,295;   -0,318
389,453;  574,790;   -0,887;    1,045
390,045;  606,242;   -0,705;   -2,682
390,636;  477,805;    0,204;   -0,591
391,227;  550,101;   -0,523;   -0,045
391,819;  546,839;    0,204;    0,773
392,410;  848,618;    1,022;    0,045
393,001;  623,593;   -0,979;   -1,591
393,593;  716,140;    1,930;   -0,045
394,184;  780,423;    1,385;   -0,409
394,775;  592,522;    1,839;    2,136
395,366;  522,485;    1,385;    0,773
395,957;  776,269;    0,113;    0,136
396,548;  631,243;   -0,342;    2,682
397,139;  806,548;   -2,433;    0,591
397,730;  679,380;   -1,888;    0,955
398,321;  675,252;   -1,252;    0,955
398,912;  598,757;   -0,615;    0,136
399,503;  615,383;   -3,524;   -1,409
400,094;  665,663;    0,294;    1,682
400,685;  658,321;   -0,433;    0,045
401,276;  572,909;    0,930;   -0,955
401,867;  555,296;   -0,888;    0,773
402,458;  513,804;   -2,251;   -2,318
403,048;  720,065;    1,112;    0,591
403,639;  624,061;    0,840;    0,864
404,230;  799,170;    2,476;    0,318
404,821;  859,565;   -0,615;    0,045
405,411;  732,221;    1,203;   -2,591
406,002;  607,261;   -1,252;   -1,136
406,592;  901,048;    2,294;    0,045
407,183;  717,794;    0,566;   -1,500
407,774;  682,441;    3,475;   -0,136
408,364;  636,840;    0,930;    0,409
408,954;  790,631;    0,384;    1,227
409,545;  788,340;    1,021;    1,045
410,135;  713,600;    1,293;    0,500
410,726;  659,902;    1,838;    0,318
411,316;  911,229;    0,111;    0,773
411,906;  675,273;   -0,253;   -0,409
412,497;  675,779;   -1,070;   -0,045
413,087;  608,886;   -1,980;   -0,227
413,677;  537,723;   -0,707;    3,864
414,267;  522,878;    0,656;    1,409
414,857;  494,096;   -2,980;    4,227
415,448;  512,646;    0,839;    0,500
416,038;  550,132;    0,020;   -0,591
416,628;  611,977;   -0,889;    0,409
417,218;  706,878;    0,565;    3,318
417,808;  905,005;    0,202;   -0,409
418,398;  715,376;    0,020;    2,682
418,988;  563,950;    2,020;    0,591
419,578;  681,575;   -0,707;    1,409
420,168;  647,012;   -1,343;   -0,955
420,757;  852,739;   -1,343;   -1,500
421,347;  702,537;    0,111;   -0,227
421,937;  647,248;    2,292;    1,409
422,527;  818,235;    0,838;   -0,773
423,116; 1000,827;   -0,253;   -0,045
423,706;  628,630;   -1,889;    0,318
424,296;  556,437;    1,384;    0,682
424,885;  775,891;   -0,071;   -3,045
425,475;  729,345;    1,474;   -2,864
426,065;  570,971;   -0,980;   -0,318
426,654;  543,313;   -0,435;   -0,318
427,244;  927,280;    0,020;    1,409
427,833;  895,329;    1,383;   -0,500
428,423;  711,518;   -0,526;    1,136
429,012;  731,771;   -0,344;   -1,136
429,601;  889,039;   -1,344;    0,136
430,191;  735,794;    1,292;    4,318
430,780;  577,528;   -0,344;   -0,409
431,369;  884,954;    0,746;   -0,045
431,959;  750,259;   -1,254;    0,500
432,548;  635,097;   -1,163;   -0,045
433,137;  532,624;   -1,254;   -1,318
433,726;  677,024;    0,292;    0,500
434,315;  677,167;   -0,526;    2,409
434,905;  833,228;   -1,254;    1,409
435,494;  880,292;    0,746;    0,955
436,083;  670,052;   -0,981;   -0,955
436,672;  764,670;    0,110;    0,500
437,261;  694,073;    0,292;   -1,955
437,850; 1085,011;    1,383;    0,682
438,439; 1132,777;    3,291;    1,955
439,027; 1265,643;    3,655;    1,773
439,616; 1200,220;    2,927;    1,227
440,205;  876,195;    0,200;   -2,136
440,794;  765,887;    2,109;   -0,045
441,383;  660,308;   -1,346;   -0,591
441,971;  579,829;   -2,436;    0,591
442,560;  604,885;    0,563;   -1,773
443,149;  477,493;    0,379;   -1,318
443,737;  586,071;   -0,074;   -2,318
444,326;  601,539;    0,018;    0,318
444,915;  689,238;   -1,982;    0,864
445,503;  711,899;   -2,891;   -0,318
446,092; 1062,675;    0,382;    2,136
446,680;  986,674;    0,382;    0,318
447,269;  881,363;   -0,346;   -0,318
447,857;  822,119;    0,018;   -1,773
448,445;  745,527;    0,563;    1,318
449,034;  672,311;   -1,528;   -1,136
449,622;  663,681;   -1,073;    3,500
450,210; 1139,849;    2,017;    2,227
450,799; 1023,800;    0,290;   -0,591
451,387;  909,032;    1,381;   -0,591
451,975;  892,875;    2,654;    0,864
452,563; 1041,855;    3,472;    2,318
453,151;  716,848;   -0,528;   -1,227
453,739;  811,729;   -1,347;    0,136
454,328; 1017,285;    2,381;   -2,136
454,916;  873,747;    2,562;   -0,136
455,504;  874,023;    1,017;    1,227
456,092;  713,128;    0,017;   -1,591
456,679;  625,690;    1,472;    0,682
457,267; 1313,537;    4,017;    1,045
457,855;  797,244;    1,017;    1,409
458,443;  538,025;   -0,165;    1,682
459,031;  894,389;    0,108;    2,409
459,619;  814,036;   -1,801;    2,864
460,206;  628,183;    0,835;    2,045
460,794;  630,269;   -2,983;   -0,227
461,382;  735,452;   -0,529;   -0,864
461,970;  695,175;    1,198;    1,864
462,557;  588,438;   -0,711;   -0,682
463,145;  839,824;   -3,165;   -1,682
463,732; 1191,835;    2,016;   -1,045
464,320;  832,163;   -0,075;   -3,045
464,907; 1065,380;    2,743;   -0,773
465,495;  920,757;    0,743;   -1,227
466,082;  771,602;   -1,984;   -0,045
466,670;  790,717;   -2,529;    1,227
467,257;  621,413;   -1,711;    2,045
467,844;  812,378;   -0,075;    0,045
468,432;  787,859;    0,834;    3,500
469,019;  678,389;    0,925;   -1,773
469,606;  794,473;    0,470;    3,682
470,193;  870,051;   -1,439;    0,227
470,780;  824,056;   -2,075;    0,864
471,368;  687,803;   -1,257;   -0,773
471,955;  870,567;    1,379;   -0,682
472,542;  786,453;    0,652;   -1,136
473,129;  573,601;   -0,166;    0,136
473,716;  592,557;    1,470;    0,591
474,303;  666,205;    0,652;   -0,864
474,890;  676,672;   -1,439;   -0,500
475,477;  837,748;   -1,621;    0,409
476,064;  674,104;    1,106;   -1,591
476,650;  863,857;    0,288;    0,318
477,237;  740,221;   -0,258;    0,955
477,824;  693,259;   -1,076;    0,864
478,411;  525,598;   -1,894;   -0,318
478,997;  533,555;    0,560;   -0,773
479,584;  435,552;    1,196;   -0,409
480,171;  802,207;   -0,440;   -0,773
480,757;  924,553;    2,651;    0,773
481,344;  712,944;    0,469;    0,409
481,931;  515,884;    1,105;    1,045
482,517;  827,043;   -1,258;    0,318
483,104;  989,550;    1,106;    2,864
483,690;  801,568;   -1,804;    0,045
484,276;  756,702;   -0,895;    0,227
484,863; 1155,715;    2,469;    1,136
485,449;  874,719;   -0,077;    0,318
486,035;  781,473;   -1,986;   -0,136
486,622;  991,074;   -0,895;    0,045
487,208;  829,065;    1,378;    1,500
487,794;  672,999;    0,741;    0,318
488,380;  682,684;    0,105;   -1,409
488,967;  701,282;   -1,168;   -0,409
489,553;  716,643;   -1,895;   -1,409
490,139;  884,744;    1,559;    0,773
490,725;  695,046;    0,741;   -0,227
491,311;  762,105;    3,287;    3,045
491,897;  649,669;   -0,986;    1,500
492,483;  644,082;    0,105;    1,227
493,069; 1400,418;    3,923;    0,864
493,655;  902,171;    1,650;    0,682
494,241;  701,320;    1,377;   -0,955
494,826;  752,727;    0,287;   -1,045
495,412;  865,820;    2,559;   -0,682
495,998;  692,309;   -0,805;   -0,318
496,584;  801,324;    0,377;    1,045
497,169;  778,115;    1,014;   -0,682
497,755;  642,057;    0,650;    1,227
498,341;  979,200;    0,559;    0,318
498,926; 1177,203;    1,832;    1,955
499,512;  725,226;    1,286;    2,955
500,097;  710,113;    0,195;   -0,318
500,683;  739,040;   -0,350;    2,136
501,268;  641,873;   -0,169;   -0,955
501,854;  678,216;   -0,169;    1,227
502,439;  617,384;   -0,624;   -1,773
503,024;  747,989;    0,195;    0,500
503,610;  801,518;   -0,078;   -0,682
504,195;  627,950;    0,558;    1,955
504,780;  786,533;    2,922;    1,227
505,366;  959,861;    3,013;    2,864
505,951;  813,351;    0,740;    1,045
506,536;  681,771;   -3,260;   -3,682
507,121;  777,792;    0,285;   -0,318
507,706;  686,173;    2,376;    1,045
508,291;  591,811;    2,649;    1,136
508,876;  589,599;   -0,988;    2,591
509,461;  687,381;   -0,169;   -0,773
510,046;  761,450;    0,194;    0,318
510,631;  741,712;   -0,351;   -0,773
511,216;  623,248;    2,467;   -0,500
511,801;  738,423;   -0,442;    2,591
512,386;  774,212;    0,740;    0,500
512,971;  785,835;   -2,988;    0,955
513,555;  860,901;   -0,897;   -1,500
514,140;  804,218;   -0,442;   -3,136
514,725;  950,135;   -0,715;   -1,136
515,309;  810,463;   -0,533;    0,318
515,894;  652,728;   -0,624;   -2,227
516,479;  701,242;   -0,624;   -0,955
517,063;  702,825;    0,376;    1,227
517,648;  644,031;    1,012;   -1,136
518,232;  606,418;   -0,261;   -1,409
518,817;  718,519;   -0,079;    1,682
519,401;  898,299;    2,194;    0,591
519,985;  804,888;    1,103;    1,136
520,570;  610,361;    0,830;   -1,955
521,154;  781,807;    2,102;    0,591
521,738; 1042,703;   -2,352;    2,409
522,323;  818,589;   -0,170;    1,682
522,907;  785,319;    0,466;   -0,136
523,491;  659,337;    0,557;    0,955
524,075;  597,984;    2,284;    0,591
524,659;  852,065;    1,466;    0,591
525,243;  759,819;    1,739;    0,409
525,827;  672,806;    0,648;   -0,045
526,411;  700,611;   -1,989;   -0,136
526,995;  853,396;   -0,352;    1,409
527,579;  919,346;   -0,443;   -1,045
528,163;  825,081;    0,375;   -1,500
528,747;  987,596;    2,466;   -0,773
529,331;  906,750;   -0,080;   -1,409
529,915;  675,368;    1,738;    0,955
530,499;  796,911;   -0,807;    1,227
531,082;  973,789;   -0,534;    1,591
531,666; 1051,785;    1,374;    0,773
532,250;  932,243;    1,284;    2,682
532,833; 1076,116;    0,920;    2,773
533,417;  843,585;   -1,807;    0,864
534,001;  994,065;    1,647;   -0,318
534,584;  897,920;    0,374;    0,500
535,168;  680,636;    0,465;    1,409
535,751; 1125,065;    0,647;    0,045
536,334;  795,756;   -0,898;   -0,409
536,918;  644,649;    0,011;    1,591
537,501;  652,551;   -0,899;    1,318
538,085;  705,957;   -0,444;    1,045
538,668;  780,149;    0,829;    2,409
539,251; 1151,341;    1,829;    3,773
539,834;  817,953;    0,101;    0,773
540,418;  970,215;   -1,990;    4,318
541,001; 1175,710;   -0,990;    1,773
541,584;  884,172;    2,101;    2,227
542,167; 1005,422;    1,374;    2,955
542,750;  808,024;    1,919;   -0,773
543,333;  639,493;    0,555;    2,136
543,916;  932,818;    0,192;    2,500
544,499;  814,239;   -1,354;    0,227
545,082;  923,619;    1,374;    3,591
545,665;  825,300;    1,919;    1,500
546,248;  975,221;    1,010;   -0,318
546,830;  949,916;   -0,445;    1,955
547,413;  922,507;    1,010;   -0,773
547,996;  909,310;    0,555;    0,500
548,579;  818,411;    0,919;    0,955
549,161; 1085,790;    1,828;    2,682
549,744;  965,800;   -0,809;    0,409
550,326;  817,812;   -0,809;   -1,136
550,909; 1363,257;    2,737;    0,591
551,492;  959,685;   -0,263;    0,227
552,074; 1087,308;   -0,173;   -1,318
552,657; 1127,130;    2,373;    0,045
553,239;  952,160;   -0,173;   -0,773
553,821;  814,494;   -1,082;    1,045
554,404; 1101,485;    1,282;    1,136
554,986; 1232,467;    0,464;    1,045
555,568; 1063,679;    1,191;   -0,955
556,151; 1305,052;    1,191;   -0,227
556,733;  915,528;   -0,264;   -0,864
557,315;  922,084;    0,100;    0,500
557,897;  761,421;    0,554;   -0,500
558,479;  768,981;   -1,991;    1,318
559,061;  892,707;   -0,719;   -0,864
559,643;  984,348;   -0,264;    0,045
560,225; 1029,695;    1,645;    2,864
560,807;  858,893;    0,918;    0,318
561,389;  808,018;    0,554;    2,318
561,971;  917,247;    0,463;    2,136
562,553;  858,169;   -1,628;    1,591
563,135;  960,790;   -0,537;    1,136
563,717; 1381,691;    3,372;    1,136
564,298; 1246,480;    3,645;   -0,045
564,880;  972,555;    0,645;   -1,409
565,462;  783,646;    0,645;    1,318
566,043; 1007,086;   -0,446;    2,318
566,625; 1320,352;    1,918;    1,227
567,207; 1071,370;    1,099;    1,682
567,788;  943,127;   -1,264;    1,500
568,370;  997,639;    1,917;   -0,500
568,951;  945,622;    0,190;    0,227
569,533; 1087,724;   -0,628;   -0,500
570,114; 1166,051;   -0,446;    0,682
570,695; 1201,013;   -0,174;   -1,318
571,277; 1170,085;   -0,265;   -1,682
571,858; 1410,663;    2,008;   -1,136
572,439; 1302,129;    1,554;   -1,045
573,021; 1320,540;    2,099;   -2,773
573,602; 1457,008;   -1,265;    0,318
574,183; 1412,357;   -2,083;    2,227
574,764; 1393,700;   -1,629;    0,409
575,345; 1584,766;    0,917;   -0,136
575,926; 1452,616;   -0,356;    0,136
576,507; 1540,820;    1,099;   -0,227
577,088; 1541,636;    3,099;    1,682
577,669; 1727,021;    0,735;    1,955
578,250; 1961,902;    0,644;   -1,045
578,831; 1759,650;   -1,356;   -2,227
579,412; 1658,304;   -0,810;    0,955
579,993; 1777,593;    1,008;    0,227
580,573; 1749,691;   -0,629;   -0,955
581,154; 1700,484;    0,735;   -0,591
581,735; 1734,104;    0,644;    0,773
582,315; 1786,377;   -0,629;    2,136
582,896; 1761,427;   -0,174;    1,227
583,477; 1593,117;    0,189;    1,227
584,057; 1695,045;    0,553;    0,955
584,638; 1811,502;    2,553;    2,318
585,218; 2054,397;   -0,538;    2,682
585,799; 1897,260;    0,281;   -0,227
586,379; 1745,181;    0,372;    1,591
586,959; 1673,270;    0,735;    0,318
587,540; 1534,171;   -0,629;    2,227
588,120; 1516,887;    1,007;   -0,045
588,700; 1459,206;    2,553;    2,136
589,281; 1684,869;    0,462;   -0,955
589,861; 1560,907;    0,099;   -1,682
590,441; 1438,063;    2,371;   -2,682
591,021; 1446,859;   -0,265;   -2,591
591,601; 1422,687;   -0,537;    0,500
592,181; 1460,665;   -0,719;   -0,773
592,761; 1248,702;    0,007;    1,409
593,341; 1405,353;   -0,901;    0,045
593,921; 1395,634;   -0,265;    1,591
594,501; 1278,181;   -0,538;    1,318
595,081; 1266,715;    0,917;   -0,318
595,661; 1423,325;   -1,447;    0,955
596,240; 1369,689;   -0,537;    0,136
596,820; 1751,122;    0,372;    1,955
597,400; 1438,308;    2,008;    0,773
597,980; 1377,643;    2,008;    1,045
598,559; 1339,109;    2,735;   -0,227
599,139; 1297,417;   -0,174;   -1,227
599,718; 1297,599;   -0,174;   -0,409
600,298; 1322,838;    0,735;    0,682
600,877; 1803,933;    2,917;    1,409
601,457; 1560,548;    2,281;    1,136
602,036; 1408,590;    0,190;    2,045
602,616; 1427,455;    0,644;    1,682
603,195; 1568,906;   -0,355;    3,500
603,774; 1592,667;   -0,901;    2,045
604,354; 1502,859;    0,826;   -0,500
604,933; 1408,396;    0,463;    1,864
605,512; 1569,057;    3,554;    0,591
606,091; 1563,680;   -0,537;    3,773
606,671; 1527,189;    0,281;    0,773
607,250; 1667,383;    1,644;    3,136
607,829; 1633,426;    2,372;    3,227
608,408; 1472,666;    1,190;    2,591
608,987; 1543,389;    1,281;    3,409
609,566; 1357,512;   -1,265;   -2,500
610,145; 1455,774;   -1,082;    0,682
610,723; 1521,255;    4,372;    6,864
611,302; 1384,698;   -0,446;    1,682
611,881; 1665,746;    5,008;   11,227
612,460; 1386,671;    1,645;    3,955
613,039; 1334,098;   -0,082;    2,045
613,617; 1227,816;    1,736;    4,773
614,196; 1252,310;    1,099;    1,227
614,775; 1371,630;    1,009;    2,409
615,353; 1410,834;    0,736;    0,864
615,932; 1345,578;    0,100;    2,409
616,510; 1387,442;    0,554;    0,591
617,089; 1922,139;    7,100;   17,591
617,667; 1480,038;    2,372;    6,136
618,246; 1162,241;   -1,537;    1,318
618,824; 1274,808;   -3,355;   -0,955
619,402; 1287,996;   -2,900;   -1,773
619,981; 1384,373;   -0,173;   -1,045
620,559; 1302,771;    0,009;    1,682
621,137; 1335,805;   -0,718;    1,864
621,715; 1131,195;   -1,173;   -0,682
622,293; 1159,070;   -0,537;   -0,773
622,871; 1278,993;   -0,718;    0,500
623,450; 1160,400;    0,373;   -0,864
624,028; 1366,131;    0,191;   -0,955
624,606; 1319,794;   -1,718;    1,682
625,183; 1141,616;   -1,536;   -1,136
625,761; 1223,520;    1,009;    1,136
626,339; 1619,640;    1,373;    2,591
626,917; 1250,848;   -0,172;   -0,045
627,495; 1213,050;   -0,354;    1,318
628,073; 1297,416;   -0,263;    2,864
628,650; 1286,740;    0,100;    2,136
629,228; 1312,014;    0,373;    4,409
629,806; 1081,389;    2,282;    1,136
630,383; 1150,193;    1,464;   -0,318
630,961; 1147,572;    2,555;   -0,955
631,539; 1171,634;    2,464;    0,227
632,116; 1941,936;   11,373;   15,409
632,694; 1543,114;    2,555;    6,500
633,271; 1343,651;    0,828;    2,682
633,848; 1468,099;    1,828;    2,045
634,426; 1179,316;   -1,081;    1,773
635,003; 1035,098;    1,101;   -0,409
635,580; 1492,801;    1,192;    3,682
636,158; 1312,513;    3,737;    1,227
636,735; 1088,380;    0,555;   -0,500
637,312; 1105,945;   -0,809;   -0,682
637,889; 1102,284;   -4,354;   -0,682
638,466; 1102,310;   -3,990;   -0,409
639,043; 1124,047;    2,101;   -1,136
639,620; 1072,221;   -2,262;   -0,955
640,197; 1231,978;    1,100;    1,682
640,774; 1074,266;   -0,172;    1,136
641,351; 1156,827;    0,737;    1,136
641,928; 1337,842;   -0,627;    1,409
642,505; 1476,311;    0,828;   -0,500
643,082; 1293,872;   -1,718;    1,227
643,658; 1055,159;   -0,718;    1,500
644,235; 1093,447;    1,191;    2,500
644,812; 1303,917;    1,918;    0,773
645,388; 1261,841;   -0,991;    1,409
645,965; 1015,765;   -0,809;    1,682
646,542; 1016,053;   -1,445;   -0,227
647,118; 1494,886;    1,009;   -0,955
647,695; 1267,901;   -0,263;    1,136
648,271; 1021,825;   -0,536;    0,500
648,848; 1222,113;    0,736;    2,227
649,424; 1370,219;    0,827;    1,318
650,000; 1126,688;   -0,354;   -1,045
650,577; 1171,431;   -0,627;   -0,955
651,153; 1236,809;   -1,809;    0,955
651,729; 1167,915;    1,191;    0,864
652,305; 1543,385;    0,645;    2,773
652,881; 1701,127;   -0,082;    1,136
653,458; 2247,324;    1,100;    0,227
654,034; 2625,884;    0,282;    1,591
654,610; 2708,627;    0,554;    0,773
655,186; 3156,824;    0,645;    3,045
655,762; 2772,202;   -0,991;    0,409
656,338; 2725,126;    0,100;    0,136
656,913; 2921,687;   -0,082;    0,409
657,489; 2680,793;    0,827;   -0,318
658,065; 2765,717;   -0,173;   -1,591
658,641; 2925,368;   -0,900;   -0,864
659,217; 2720,292;   -0,991;    0,409
659,792; 2635,853;    0,645;   -0,409
660,368; 2591,686;   -2,173;   -0,682
660,944; 2732,065;   -2,082;    1,227
661,519; 2300,534;   -0,628;    0,409
662,095; 1674,640;   -1,719;    0,591
662,670; 1259,110;    1,281;   -0,136
663,246; 1204,852;    1,009;   -0,409
663,821; 1349,594;    0,281;    1,682
664,396; 1233,882;    0,009;    1,864
664,972; 1161,170;    0,009;   -0,500
665,547; 1277,094;    1,372;    0,136
666,122; 1225,836;   -1,082;    0,318
666,698; 1439,033;   -0,173;    0,318
667,273; 1141,139;   -0,173;    0,136
667,848; 1226,245;    2,372;    1,500
668,423; 1405,442;    2,190;    2,318
668,998; 1266,275;    2,827;   -0,682
669,573; 1237,199;   -3,264;   -1,500
670,148; 1457,214;   -1,446;   -0,682
670,723; 1187,684;   -1,810;    0,318
671,298; 1539,881;    2,372;    1,045
671,873; 1406,623;   -0,082;   -0,136
672,448; 1398,002;    0,645;    0,136
673,023; 1391,471;   -1,992;   -0,227
673,597; 1543,668;    0,827;    2,318
674,172; 1566,320;   -0,355;    0,318
674,747; 1440,244;    0,372;   -1,045
675,321; 1191,622;   -0,628;    3,318
675,896; 1080,274;    0,645;    1,045
676,471; 1338,380;    2,645;    1,591
677,045; 1244,395;   -1,264;    0,682
677,620; 1324,501;    0,190;    1,136
678,194; 1218,697;   -2,628;    1,136
678,769; 1258,167;   -1,083;   -0,318
679,343; 1344,909;   -0,628;    1,773
679,917; 1475,015;   -1,446;    1,955
680,492; 1283,485;    0,826;    3,227
681,066; 1327,773;    3,372;    0,409
681,640; 1266,879;    1,463;   -0,318
682,214; 1309,439;    0,735;    0,500
682,788; 1299,545;   -1,356;   -0,773
683,363; 1441,196;   -1,810;    1,682
683,937; 1279,848;   -1,719;   -0,318
684,511; 1388,499;    0,463;   -0,591
685,085; 1382,969;   -1,356;    0,318
685,659; 1254,620;   -2,538;    0,864
686,232; 1540,817;   -0,356;   -0,318
686,806; 1401,650;   -0,901;    0,409
687,380; 1339,756;   -0,174;    0,591
687,954; 1295,135;   -1,174;    1,136
688,528; 1590,786;   -0,719;    1,955
689,101; 1483,438;   -3,992;    1,045
689,675; 1328,362;   -0,356;   -0,136
690,249; 1556,831;   -0,719;    0,409
690,822; 1552,119;    0,280;    0,318
691,396; 1412,770;   -0,265;    1,227
691,969; 1311,240;    1,280;    0,136
692,543; 1271,709;   -0,447;   -1,955
693,116; 1149,270;   -0,265;   -1,409
693,690; 1247,103;    0,099;    0,500
694,263; 1271,482;   -1,083;    2,955
694,836; 1647,133;    1,371;    3,591
695,410; 1467,876;   -0,265;    1,773
695,983; 1472,254;    0,189;    0,591
696,556; 1264,087;   -0,447;   -1,045
697,129; 1232,375;   -0,356;    1,409
697,703; 1401,754;   -1,629;    1,955
698,276; 1321,587;    1,462;   -0,773
698,849; 1469,238;    1,280;    1,409
699,422; 1215,344;   -1,083;    0,591
699,995; 1097,268;    0,007;    0,136
700,568; 1287,011;   -0,629;    3,045
701,140; 1321,480;   -2,811;    1,682
701,713; 1482,223;   -0,174;    2,409
702,286; 1360,238;   -0,538;    0,864
702,859; 1434,344;   -0,902;   -0,591
703,432; 1469,177;    0,825;    0,682
704,004; 1365,283;    0,462;    0,318
704,577; 1220,934;   -0,629;    0,136
705,150; 1264,404;    0,189;    2,500
705,722; 1364,328;   -0,356;   -3,227
706,295; 1438,434;   -0,175;   -0,591
706,867; 1269,176;   -0,175;    1,955
707,440; 1421,009;   -1,720;   -0,409
708,012; 1507,661;    0,462;    0,591
708,584; 1374,858;    2,462;    0,227
709,157; 1208,782;    1,825;   -0,591
709,729; 1431,251;    2,280;    2,045
710,301; 1382,357;    0,734;    0,045
710,874; 1362,918;   -1,447;   -0,227
711,446; 1131,296;    0,371;    0,864
712,018; 1240,039;    0,098;    0,500
712,590; 1167,872;   -1,993;    1,682
713,162; 1506,705;    0,825;    1,318
713,734; 1285,902;    1,825;   -2,045
714,306; 1218,553;   -1,902;   -0,409
714,878; 1200,568;    0,825;    0,864
715,450; 1208,947;    0,643;    0,864
716,022; 1227,871;    1,552;    1,318
716,593; 1209,613;    0,189;    0,591
717,165; 1274,810;   -3,175;   -1,227
717,737; 1533,462;    0,280;    0,409
718,309; 1301,386;    0,280;   -0,045
718,880; 1214,855;   -0,539;   -1,409
719,452; 1300,507;   -0,175;   -1,591
720,024; 1350,249;    0,734;   -0,591
720,595; 1286,264;   -2,902;    0,955
721,167; 1242,552;    0,370;   -2,045
721,738; 1330,385;   -0,812;   -1,045
722,309; 1457,127;   -0,993;   -1,227
722,881; 1211,960;   -1,357;    0,773
723,452; 1353,066;   -2,630;    2,864
724,023; 1385,081;   -0,721;    2,682
724,595; 1436,278;    0,007;    0,682
725,166; 1242,202;    0,007;   -0,409
725,737; 1485,581;    1,734;    0,227
726,308; 1287,960;   -0,266;    0,318
726,879; 1189,975;   -1,630;    1,227
727,450; 1395,899;    0,552;   -0,045
728,021; 1269,550;    3,097;    0,682
728,592; 1481,202;    0,734;    0,500
729,163; 1598,762;    0,643;   -0,136
729,734; 1595,141;    0,188;   -0,227
730,305; 1388,883;    1,734;    0,136
730,876; 1347,535;    0,188;    2,955
731,447; 1745,731;    2,188;    2,682
732,017; 1618,201;    1,097;    1,864
732,588; 1436,671;    0,734;    1,227
733,159; 1683,231;    0,643;   -1,045
733,729; 1374,337;    0,006;    0,409
734,300; 1521,170;    0,915;    0,864
734,870; 1375,549;    3,461;    0,591
735,441; 1352,109;    0,370;   -0,591
736,011; 1283,761;    0,643;   -1,591
736,582; 1328,048;   -0,812;    0,045
737,152; 1441,791;   -1,721;   -2,045
737,722; 1410,988;   -0,267;   -0,682
738,293; 1245,094;   -1,358;    1,318
738,863; 1465,745;    2,461;    2,318
739,433; 1765,214;    5,279;    0,318
740,003; 1498,229;   -0,994;   -0,682
740,573; 1623,063;    2,097;   -1,591
741,143; 1487,532;   -1,085;    0,318
741,713; 1385,002;    1,188;   -0,500
742,283; 1424,471;    0,915;    1,591
742,853; 1333,850;    1,915;    1,591
743,423; 1161,229;    1,733;    0,045
743,993; 1273,880;   -0,358;    1,500
744,563; 1259,259;    0,097;   -0,864
745,133; 1308,728;   -0,812;   -0,864
745,702; 1248,289;   -0,267;    1,773
746,272; 1447,758;   -0,176;    0,591
746,842; 1464,319;   -1,358;   -0,591
747,411; 1259,788;   -0,267;   -0,318
747,981; 1154,894;    0,097;    0,500
748,551; 1162,546;    2,278;   -1,045
749,120; 1344,470;    0,642;   -0,227
749,690; 1309,758;   -0,631;    2,409
750,259; 1448,045;    1,369;    2,955
750,828; 1514,242;    1,551;   -1,955
751,398; 1277,621;    1,278;   -0,045
751,967; 1767,272;    2,187;    0,409
752,536; 1404,015;   -0,813;   -0,227
753,105; 1537,848;    0,096;    0,227
753,675; 1347,681;    0,096;    1,773
754,244; 1360,060;   -0,904;    3,591
754,813; 1387,166;    0,551;    1,227
755,382; 1334,817;    0,460;    0,955
755,951; 1499,196;    1,551;    3,682
756,520; 1582,574;   -0,085;    1,864
757,089; 1774,499;    0,278;    0,500
757,658; 1458,150;    1,733;    1,227
758,227; 1278,165;    1,096;    0,318
758,795; 1366,998;    1,187;    1,136
759,364; 1438,468;   -0,086;   -0,591
759,933; 1256,574;   -1,176;   -0,045
760,501; 1201,316;    0,733;   -1,318
761,070; 1383,240;   -2,813;   -1,409
761,639; 1470,891;   -1,904;    1,318
762,207; 1473,543;    1,551;   -0,955
762,776; 1515,467;    0,369;    0,864
763,344; 1355,846;   -0,995;    0,591
763,913; 1075,588;   -0,722;    1,409
764,481; 1726,694;    1,005;   -0,136
765,049; 1694,163;   -1,358;    1,409
765,618; 1584,360;   -0,086;    0,318
766,186; 1420,830;    0,278;    0,136
766,754; 1447,118;    0,005;    1,864
767,322; 1240,860;   -1,995;    0,409
767,890; 1193,966;   -0,722;   -1,773
768,459; 1272,617;   -2,177;   -0,318
769,027; 1523,178;    1,641;    3,409
769,595; 1279,647;    3,278;    2,591
770,163; 1339,844;    3,823;    2,955
770,730; 1339,586;    0,732;   -0,136
771,298; 1312,874;    0,187;   -1,409
771,866; 1253,526;   -1,541;    4,955
772,434; 1295,177;   -0,631;   -1,864
773,002; 1550,647;    0,005;    0,682
773,569; 1397,480;    0,914;    1,682
774,137; 1536,858;   -0,268;   -0,045
774,705; 1353,237;    0,278;   -0,136
775,272; 1253,252;    0,641;    0,682
775,840; 1327,449;   -0,177;    2,682
776,407; 1407,828;    0,277;    1,955
776,975; 1213,843;   -0,632;    0,318
777,542; 1222,039;   -1,086;   -0,045
778,110; 1251,327;   -1,268;   -0,045
778,677; 1108,888;   -2,359;   -0,864
779,244; 1178,721;    2,186;    1,045
779,812; 1378,009;    1,823;    0,864
780,379; 1445,660;    0,005;    1,136
780,946; 1284,130;    1,005;   -0,773
781,513; 1240,690;   -1,450;    0,318
782,080; 1153,342;   -0,086;    2,864
782,647; 1213,084;   -0,268;    3,045
783,214; 1177,735;   -0,177;    3,864
783,781; 1392,568;   -0,723;   -0,682
784,348; 1325,402;   -0,632;    1,500
784,915; 1105,053;   -3,177;    0,318
785,482; 1348,977;    1,368;    2,591
786,049; 1336,538;    0,186;   -0,591
786,615; 1201,916;    0,277;   -0,955
787,182; 1127,022;    0,186;   -0,682
787,749; 1120,855;   -2,814;    1,409
788,315; 1298,052;   -1,632;   -0,409
788,882; 1222,067;    1,550;   -1,227
789,448; 1533,901;    1,732;   -0,955
790,015; 1292,097;    1,095;    3,227
790,581; 1483,567;    1,459;    0,227
791,148; 1253,946;    0,641;    1,045
791,714; 1154,961;   -0,541;    3,136
792,280; 1154,248;    0,186;    1,591
792,847; 1092,173;    0,550;    2,500
793,413; 1183,551;   -0,269;   -0,318
793,979; 1362,475;    3,459;   -1,318
794,545; 1714,945;    4,459;    2,682
795,111; 1555,687;    2,186;    1,318
795,678; 1371,066;    0,731;   -1,682
796,244; 1565,263;    3,368;    0,136
796,810; 1443,914;    1,731;    0,773
797,375; 1439,475;    0,549;   -2,136
797,941; 1036,762;   -0,541;    0,591
798,507; 1024,323;   -0,451;   -0,955
799,073; 1066,611;   -0,360;    0,591
799,639; 1093,626;   -2,632;    3,136
800,205; 1037,186;    0,095;    2,682
800,770; 1037,019;    0,640;    1,773
801,336; 1026,489;    1,368;   -0,955
801,901; 1721,777;    4,549;    3,136
802,467; 1344,701;   -0,542;    2,045
803,033; 1068,352;   -0,087;    0,864
803,598; 1065,003;    1,913;   -1,045
804,163; 1096,109;    1,095;   -0,318
804,729; 1215,943;   -0,178;    1,136
805,294; 1106,685;    0,822;    2,227
805,859; 1015,700;    0,731;   -0,409
806,425; 1462,260;    1,186;    2,682
806,990; 1439,275;    2,186;    4,318
807,555; 1172,018;   -1,451;    2,591
808,120; 1357,124;    0,822;   -0,409
808,685; 1073,411;    0,185;   -2,500
809,250;  943,517;    0,004;   -0,500
809,815;  982,805;    1,913;    0,682
810,380; 1169,093;   -0,269;    1,591
810,945; 1337,290;   -1,087;    2,045
811,510; 1158,487;    2,094;    1,591
812,075; 1189,865;   -0,633;   -1,409
812,640; 1483,426;    2,003;    1,409
813,204; 1195,168;    0,822;   -0,227
813,769; 1392,547;    2,094;   -0,045
814,334; 1374,289;    0,458;    0,864
814,898; 1051,304;    0,367;    0,591
815,463; 1149,410;    1,276;   -0,773
816,027; 1083,243;   -0,724;   -2,318
816,592; 1020,531;    0,640;   -2,045
817,156; 1179,182;    2,094;    1,136
817,721; 1292,016;    4,276;    2,318
818,285;  995,303;    2,912;    1,500
818,849; 1087,682;   -1,451;    1,682
819,414;  990,788;   -0,269;    2,955
819,978;  936,985;   -1,269;    1,773
820,542; 1322,545;    2,003;    0,500
821,106; 1127,924;   -0,815;    0,682
821,670; 1347,393;   -0,815;    2,591
822,234; 1096,863;   -0,270;    1,409
822,798;  955,696;    0,003;    0,500
823,362; 1257,802;   -0,633;    4,227
823,926; 1032,817;    0,094;    1,136
824,490; 1275,741;   -0,997;   -0,682
825,054; 1142,302;   -0,088;   -1,136
825,618;  993,499;   -1,542;   -1,500
826,181; 1052,241;    0,458;   -1,318
826,745; 1170,892;    1,367;   -1,045
827,309; 1432,816;    1,185;    1,318
827,872; 1289,013;    1,367;    0,955
828,436; 1173,301;    1,185;   -0,773
828,999; 1065,225;   -0,997;    1,227
829,563; 1036,786;   -0,179;    1,136
830,126;  999,255;   -0,179;   -0,591
830,690; 1080,634;   -1,997;    2,864
831,253;  988,013;   -0,543;    2,227
831,816; 1059,755;   -1,906;    0,500
832,380;  982,952;    0,185;    0,864
832,943;  962,967;   -1,361;   -0,500
833,506;  997,618;    2,639;   -1,227
834,069; 1185,906;    3,912;   -0,955
834,632; 1028,830;    1,730;    1,318
835,195; 1073,572;    1,003;    0,955
835,758;  990,860;   -0,997;    1,955
836,321;  961,330;    0,730;   -1,045
836,884;  936,345;   -0,725;   -0,955
837,447;  892,905;   -2,816;    1,773
838,010; 1095,284;    0,366;    3,227
838,573; 1143,753;   -1,179;    0,773
839,135; 1003,223;   -1,361;   -0,955
839,698; 1024,965;    1,275;    0,409
840,261;  962,071;    1,003;   -0,227
840,823;  894,541;   -0,543;    0,864
841,386;  877,556;   -0,452;   -2,409
841,948; 1258,116;   -1,361;    1,773
842,511;  963,949;    0,912;    1,682
843,073; 1244,237;    1,912;    0,227
843,636;  954,980;   -0,361;   -0,227
844,198; 1211,176;    0,911;    0,591
844,760; 1163,828;    1,093;    1,955
845,322;  925,206;    0,548;    1,136
845,885; 1085,221;    0,730;    0,591
846,447; 1007,600;   -1,998;    0,227
847,009; 1400,252;    1,911;   -0,682
847,571; 1050,812;    0,820;   -2,045
848,133; 1007,736;   -1,089;   -1,864
848,695;  851,115;   -0,543;    1,409
849,257;  947,675;   -1,089;   -1,682
849,819; 1129,963;   -0,998;   -0,409
850,381;  965,433;   -0,725;   -0,864
850,942; 1064,357;    1,093;   -0,591
851,504; 1118,735;    1,184;    0,227
852,066;  984,296;    1,275;   -1,591
852,628; 1012,129;   -0,180;    1,955
853,189;  857,235;    1,638;    2,682
853,751;  890,705;   -0,907;    1,409
854,312; 1098,538;   -0,453;   -1,682
854,874; 1263,189;   -2,089;   -0,773
855,435; 1033,386;   -0,907;   -1,682
855,997; 1116,310;   -1,816;   -0,136
856,558; 1205,416;    0,366;    1,773
857,119; 1074,431;    0,820;    2,864
857,681;  889,537;    0,002;    0,318
858,242; 1187,279;    1,911;   -2,136
858,803; 1192,658;    0,456;   -0,773
859,364; 1062,128;    0,184;   -4,773
859,925; 1140,688;   -2,453;   -0,955
860,486;  998,521;   -0,453;   -0,955
861,047;  905,173;   -0,544;   -1,227
861,608;  955,915;   -1,089;   -0,773
862,169;  837,930;    0,638;   -0,045
862,730;  945,763;    0,456;    1,409
863,291; 1001,415;   -0,635;   -0,500
863,852;  975,339;   -0,635;    1,955
864,412;  945,717;   -0,271;   -0,864
864,973; 1196,551;   -0,089;    0,500
865,534; 1364,293;   -1,726;    0,227
866,094; 1118,672;    1,820;    0,227
866,655; 1259,050;    1,274;    3,318
867,215; 1066,247;    0,274;    0,136
867,776;  912,898;    0,547;   -0,136
868,336;  992,095;   -1,453;    0,136
868,897; 1429,747;    2,638;    1,682
869,457; 1193,762;    1,365;    0,318
870,017;  968,595;    0,547;   -1,227
870,578;  953,701;   -0,817;    0,773
871,138; 1013,989;   -2,089;   -0,955
871,698;  895,095;   -0,817;   -1,318
872,258; 1048,928;   -0,453;   -2,864
872,818; 1266,306;    2,729;    0,045
873,378; 1042,958;    0,638;    1,045
873,938;  988,973;    0,547;    0,500
874,498;  877,170;    0,274;   -1,955
875,058;  982,457;    2,183;    1,773
875,618;  984,745;    1,910;   -2,682
876,177; 1037,669;    1,274;    0,136
876,737;  809,957;   -0,090;    1,955
877,297; 1265,154;    0,183;    1,955
877,856; 1196,533;   -0,362;    0,318
878,416;  900,548;    1,183;   -0,136
878,976;  872,199;   -1,817;    0,409
879,535;  922,941;    0,092;    3,136
880,095;  905,229;   -0,544;    0,045
880,654;  823,244;   -1,090;    1,318
881,213; 1193,077;    2,456;    1,500
881,773; 1001,092;    2,637;    2,682
882,332; 1601,926;    3,365;    5,136
882,891;  983,850;    3,092;    2,136
883,451;  993,956;   -1,272;    1,682
884,010;  918,698;   -2,908;   -0,409
884,569;  855,440;   -0,999;   -0,045
885,128; 1088,910;    2,819;   -1,864
885,687; 1396,743;    4,455;    0,682
886,246; 1579,576;    1,455;    2,136
886,805; 1313,955;    2,455;    2,045
887,364;  925,697;   -0,999;   -0,500
887,922;  828,167;   -1,181;    0,045
888,481; 1034,909;   -1,545;    0,591
889,040; 1184,106;    1,183;    2,136
889,599; 1026,030;    2,455;    1,409
890,157; 1018,500;    1,455;    2,409
890,716;  958,787;   -0,090;    0,227
891,274; 1073,893;    0,092;   -1,136
891,833; 1161,908;    1,546;    0,864
892,391; 1002,923;   -0,454;    0,500
892,950; 1161,756;    1,819;   -0,773
893,508;  925,862;    0,455;   -0,409
894,067;  804,787;    0,637;    0,136
894,625;  940,802;   -0,636;   -1,500
895,183;  882,544;   -0,363;   -0,682
895,741; 1228,195;    1,728;   -1,773
896,299;  991,483;   -0,545;   -2,409
896,858;  899,771;    0,819;   -1,591
897,416; 1049,059;    2,728;   -1,318
897,974;  963,164;    1,819;    0,318
898,532; 1477,725;    6,091;    2,682
899,089; 1121,285;    2,091;   -0,682
899,647; 1005,391;   -1,454;    1,318
900,205; 1037,497;    1,182;    1,045
900,763; 1024,694;   -0,454;    0,227
901,321;  967,527;    2,364;   -1,409
901,878;  772,451;   -1,000;   -0,773
902,436;  854,467;   -1,363;    1,318
902,994; 1692,027;    4,728;    3,682
903,551; 1179,406;    0,728;    0,409
904,109; 1034,693;    0,182;   -1,409
904,666;  976,799;    2,455;    1,045
905,224;  838,451;    0,182;   -0,409
905,781; 1034,466;    0,727;   -0,318
906,338;  944,754;   -1,363;    1,045
906,895;  815,132;    0,637;    2,045
907,453; 1142,056;    1,727;    1,136
908,010;  958,708;   -0,909;    0,409
908,567;  912,359;    1,273;    0,591
909,124;  734,647;    0,364;   -1,500
909,681;  821,026;   -2,909;    0,682
910,238;  872,677;    0,636;   -1,318
910,795;  801,510;   -0,273;   -1,136
911,352;  801,328;   -2,909;   -2,682
911,909;  836,146;   -1,364;   -0,864
912,466;  865,146;   -3,182;    1,500
913,022;  938,237;   -1,636;    0,500
913,579; 1041,419;   -0,909;    2,045
914,136;  895,601;    1,636;    0,955
914,692;  926,237;    0,091;   -1,227
915,249;  919,874;    1,455;    0,409
915,806; 1008,510;    0,182;    1,955
916,362;  896,328;    1,909;    1,864
916,918;  837,328;    2,000;    1,045
917,475; 1043,419;   -1,182;    0,955
918,031;  848,692;    3,364;   -0,045
918,587;  926,874;   -0,909;   -0,318
919,144;  814,328;   -2,273;    0,227
919,700;  744,874;    1,727;    0,773
920,256;  736,783;    0,727;    0,045
920,812;  799,146;   -0,727;   -1,045
921,368;  751,328;   -1,727;   -1,045
921,924;  764,237;    0,182;   -0,136
922,480;  887,601;   -0,545;    1,227
923,036;  903,328;    1,273;    1,955
923,592;  785,783;    0,455;    0,318
924,148;  820,692;    0,455;   -0,955
924,704;  989,146;   -1,364;   -0,409
925,259;  799,601;   -0,273;    0,591
925,815;  777,237;    1,455;    0,500
926,371;  736,237;    2,909;    1,409
926,926;  909,874;    2,091;    0,591
927,482;  885,056;   -1,364;    0,773
928,037;  808,965;    0,909;    2,045
928,593; 1026,056;    1,636;    1,045
929,148;  759,783;   -1,818;   -1,500
929,704;  847,874;   -1,455;   -0,500
930,259;  731,237;    0,091;   -0,136
930,814;  962,146;   -0,818;    1,955
931,369;  885,056;    1,091;   -0,773
931,925;  662,056;   -0,091;    0,136
932,480;  784,510;   -2,818;   -2,591
933,035; 1200,146;    0,545;   -0,318
933,590; 1073,328;    0,364;   -1,773
934,145;  651,237;   -1,364;   -0,318
934,700;  555,419;    0,455;   -0,591
935,255;  638,692;   -0,091;    0,045
935,809;  989,874;    3,182;    0,864
936,364;  601,146;   -0,455;   -0,136
936,919;  610,510;    0,455;   -1,773
937,474;  519,874;    1,455;    0,136
938,028;  557,965;   -1,636;    1,136
938,583;  981,692;    1,818;    4,682
939,138;  618,692;    2,091;    2,136
939,692;  484,692;    1,636;   -1,136
940,247;  538,692;   -0,727;   -1,045
940,801;  606,874;   -0,636;    0,227
941,355;  506,056;   -0,364;    2,591
941,910;  408,237;   -0,273;   -2,136
942,464;  452,419;   -0,818;   -0,318
943,018;  732,874;    1,000;   -0,227
943,572;  543,146;    2,545;   -0,682
944,126;  607,874;    0,091;   -0,409
944,681;  482,056;    3,091;    0,227
945,235;  428,601;    1,000;   -0,591
945,789;  383,328;    0,364;   -1,864
946,342;  712,419;    0,455;   -0,591
946,896;  444,237;   -2,273;    0,955
947,450;  428,328;    1,545;   -0,227
948,004;  708,874;    1,727;   -0,045
948,558;  504,419;    0,273;   -0,864
949,111;  507,419;   -0,273;   -0,318
949,665;  733,692;    1,636;   -0,682
950,219;  687,783;   -0,091;   -1,045
950,772;  611,874;   -1,909;    1,864
951,326;  621,692;    0,545;   -0,955
951,879;  528,419;    0,727;   -2,318
952,433;  693,419;    0,000;    2,227
952,986;  504,328;    2,909;    0,682
953,539;  456,601;   -0,273;    0,591
954,093;  410,874;    0,545;   -1,318
954,646;  587,237;    0,909;    1,318
955,199;  500,056;    0,000;   -0,500
955,752;  724,692;   -0,455;    1,773
956,305;  569,874;   -0,091;    2,955
956,858;  639,510;    0,818;   -0,318
957,411;  717,874;   -0,545;    2,136
957,964;  596,965;    1,364;    2,136
958,517;  515,601;   -1,545;    3,136
959,070;  469,692;   -0,455;    1,955
959,623;  815,692;    1,091;    1,500
960,176;  752,328;    1,727;    2,045
960,728;  717,328;   -2,727;    0,773
961,281;  654,419;    0,545;    0,500
961,834;  565,601;   -0,909;    0,864
962,386;  566,874;    1,727;    1,045
962,939;  521,419;    0,364;   -0,318
963,491;  586,783;    0,455;    1,136
964,043;  515,874;    1,182;    2,409
964,596;  730,510;   -1,000;    2,227
965,148;  617,056;   -1,000;    1,773
965,700;  515,783;    1,091;   -0,227
966,253;  710,783;   -0,636;    0,318
966,805;  671,419;   -2,273;    0,773
967,357;  581,783;    1,091;   -1,500
967,909;  720,328;    0,455;   -1,227
968,461;  581,601;    0,545;    3,136
969,013;  523,783;   -0,182;   -0,864
969,565;  705,601;   -0,455;   -1,136
970,117; 1001,510;   -0,364;    1,045
970,669;  706,510;    0,182;   -0,136
971,220;  468,965;   -0,455;   -1,500
971,772;  564,965;   -0,636;   -0,318
972,324;  693,783;    0,091;   -0,500
972,876;  593,237;    0,818;   -0,045
973,427;  746,874;    1,909;   -1,045
973,979;  809,783;   -0,727;   -2,500
974,530;  566,146;    1,818;    1,318
975,082;  647,328;   -0,545;    1,682
975,633;  578,692;    1,091;    1,682
976,184;  676,328;    0,909;    0,773
976,736;  660,783;    0,091;    0,227
977,287;  658,146;   -0,909;   -0,500
977,838;  622,146;    0,909;   -0,318
978,389;  641,874;   -1,000;   -0,500
978,940;  464,056;    0,545;   -0,409
979,491;  461,601;    0,091;   -0,500
980,042;  580,601;    0,182;    3,045
980,593;  580,237;   -2,545;    0,227
981,144;  704,965;    2,545;   -0,500
981,695;  777,965;    1,455;    1,500
982,246;  695,783;   -0,273;    1,045
982,797;  542,783;   -1,727;    0,682
983,347;  721,692;    0,364;    0,591
983,898;  959,965;    3,091;    0,409
984,449;  890,056;    2,182;    0,773
984,999;  683,965;    1,455;   -1,136
985,550;  635,510;    0,182;   -0,318
986,100;  459,146;   -0,455;   -0,318
986,651;  454,328;   -0,818;    0,045
987,201;  499,874;   -1,000;   -0,591
987,751;  524,419;    0,818;    2,864
988,302;  588,328;    2,636;    1,500
988,852;  620,692;    0,455;   -1,136
989,402;  695,692;    0,091;    0,682
989,952;  716,601;   -2,182;    0,864
990,502;  539,237;   -0,091;    0,682
991,052;  422,965;   -0,727;    0,045
991,602;  469,328;   -2,909;    1,318
992,152;  539,328;    0,455;    0,682
992,702;  570,419;    1,364;   -0,045
993,252;  501,510;   -3,000;   -0,500
993,802;  624,601;   -0,273;    1,318
994,352;  575,874;   -1,545;    1,136
994,901;  466,874;   -0,182;    3,227
995,451;  453,783;   -0,182;    0,318
996,000;  500,056;    1,636;    0,318
996,550;  491,510;    2,273;    0,227
997,100;  540,601;    1,273;   -0,045
997,649;  707,692;    2,182;    0,955
998,198;  487,601;    1,727;   -1,500
998,748;  630,601;    1,091;   -2,318
999,297;  537,237;   -0,818;   -0,409
999,846;  688,783;    1,000;   -0,773
1000,395;  586,874;   -0,818;    0,500
1000,945;  715,237;    1,818;   -0,773
1001,494;  720,510;    2,364;    0,682
1002,043;  686,056;    4,636;    0,864
1002,592;  464,419;   -1,091;    1,955
1003,141;  470,328;   -0,455;   -0,682
1003,690;  637,783;    1,727;    0,500
1004,238;  505,874;    1,455;   -0,045
1004,787;  389,692;    1,364;    1,227
1005,336;  615,328;    0,364;    0,682
1005,885;  547,237;    1,364;   -2,773
1006,433;  541,419;    0,545;    0,955
1006,982;  773,146;    0,455;    1,682
1007,531;  579,783;   -1,818;   -0,227
1008,079;  506,965;   -2,273;    0,500
1008,627;  442,146;   -1,455;    0,409
1009,176;  462,874;    0,000;   -1,955
1009,724;  409,146;    1,091;    0,864
1010,273;  586,874;    1,273;    0,500
1010,821;  448,510;    0,091;    1,409
1011,369;  395,146;   -1,364;    1,318
1011,917;  419,965;   -1,364;   -0,591
1012,465;  517,692;    1,273;   -1,591
1013,013;  497,056;    2,091;   -1,682
1013,561;  616,146;    0,455;   -0,773
1014,109;  719,874;   -1,909;    1,682
1014,657;  569,056;    0,364;    0,591
1015,205;  448,056;    1,636;   -0,955
1015,753;  380,328;   -0,545;   -1,409
1016,301;  470,419;   -2,636;    3,045
1016,848;  556,601;   -1,273;    0,409
1017,396;  561,874;    2,545;    0,045
1017,944;  549,237;    1,182;    1,864
1018,491;  444,874;    0,273;    1,409
1019,039;  784,874;    0,455;    0,591
1019,586;  503,146;   -1,364;    1,682
1020,134;  489,510;    0,455;    1,500
1020,681;  570,328;    0,182;   -1,136
1021,228;  469,510;    2,909;   -2,227
1021,776;  450,783;    1,182;   -1,136
1022,323;  683,692;    0,455;    0,773
1022,870;  588,601;   -1,000;   -0,045
1023,417;  639,237;    2,636;    1,864
1023,964;  445,056;    2,636;    1,227
1024,511;  422,146;    1,000;    0,773
1025,058;  452,146;    3,182;   -0,045
1025,605;  401,783;   -2,273;    3,136
1026,152;  637,056;    1,727;   -0,591
1026,699;  475,965;    1,818;    1,318
1027,245;  453,237;   -0,091;    0,318
1027,792;  380,783;   -1,000;    1,409
1028,339;  616,510;    2,364;   -0,045
1028,885;  466,056;    1,000;   -0,227
1029,432;  415,965;   -0,091;    0,227
1029,978;  535,601;   -1,000;   -1,591
1030,525;  517,783;    1,000;    0,409
1031,071;  380,783;   -1,364;    1,136
1031,618;  691,419;    0,364;    1,682
1032,164;  500,874;   -0,091;    3,045
1032,710;  539,965;    1,636;   -1,500
1033,256;  502,692;   -0,636;   -0,136
1033,803;  351,965;   -0,545;    1,500
1034,349;  211,692;   -1,364;    0,136
1034,895;  258,783;    0,000;   -0,318
1035,441;  333,146;   -0,818;    0,318
1035,987;  386,510;   -2,364;   -0,682
1036,533;  466,874;   -1,455;   -0,955
1037,078;  662,965;    1,455;    1,682
1037,624;  507,419;    2,455;   -0,955
1038,170;  370,692;    0,455;   -0,318
1038,716;  452,965;    1,636;   -0,409
1039,261;  320,328;   -2,273;   -0,773
1039,807;  340,783;   -0,091;    3,409
1040,352;  368,056;   -1,909;   -0,318
1040,898;  358,419;   -1,545;   -0,682
1041,443;  279,601;   -1,455;   -2,591
1041,989;  595,510;    1,091;    1,591
1042,534;  383,237;   -0,364;    2,591
1043,079;  267,965;    2,909;    0,955
1043,625;  382,328;    1,818;    0,500
1044,170;  397,510;   -1,364;    1,045
1044,715;  596,146;    2,455;    0,955
1045,260;  492,510;    2,182;   -0,955
1045,805;  330,965;    1,182;   -0,591
1046,350;  299,146;    1,364;   -0,409
1046,895;  481,419;    2,909;    1,591
1047,440;  475,146;    5,364;    0,409
1047,985;  339,510;    2,818;   -0,955
1048,530;  304,965;    1,545;    1,227
1049,074;  368,146;    0,000;    0,318
1049,619;  299,783;   -1,364;    1,955
1050,164;  291,146;    0,455;    0,227
1050,708;  378,419;   -0,455;    0,045
1051,253;  631,146;    1,273;   -2,227
1051,797;  418,874;    0,818;   -1,318
1052,342;  251,692;   -1,182;    1,045
1052,886;  355,510;    0,364;   -1,409
1053,430;  237,965;   -1,364;    0,136
1053,975;  335,146;   -0,818;   -0,318
1054,519;  340,783;   -0,727;    3,227
1055,063;  403,783;    0,909;    1,318
1055,607;  390,146;   -0,182;    0,227
1056,151;  383,692;    2,909;    1,682
1056,695;  296,783;    2,273;   -1,136
1057,239;  287,965;   -1,727;   -0,682
1057,783;  336,237;    0,818;   -1,500
1058,327;  405,419;    0,000;    1,409
1058,871;  542,692;   -0,545;    1,318
1059,415;  419,965;   -0,818;   -0,045
1059,958;  566,146;    1,455;    2,591
1060,502;  335,328;   -1,000;   -0,773
1061,046;  235,510;    0,364;   -0,955
1061,589;  222,601;   -3,000;   -1,136
1062,133;  191,692;   -1,273;    1,864
1062,676;  241,692;    1,182;    0,864
1063,220;  276,965;    1,091;    0,500
1063,763;  302,056;    0,909;    1,136
1064,306;  321,965;   -0,909;    1,864
1064,849;  321,419;   -0,909;    0,591
1065,393;  303,419;    2,000;   -1,500
1065,936;  304,601;    0,182;   -0,409
1066,479;  227,965;   -1,455;    1,318
1067,022;  247,874;   -0,273;   -0,227
1067,565;  218,965;   -0,091;   -1,318
1068,108;  194,237;    0,727;   -0,591
1068,651;  176,965;   -0,636;    1,409
1069,194;  189,601;   -0,455;   -1,682
1069,736;  205,419;   -1,273;    0,955
1070,279;  176,874;   -1,364;   -0,500
1070,822;  268,419;   -2,000;   -0,318
1071,364;  392,874;   -0,364;    1,318
1071,907;  254,601;   -0,727;    3,227
1072,450;  114,965;    0,000;   -0,045
1072,992;  186,328;   -0,273;    3,136
1073,535;  258,783;    2,091;    2,136
1074,077;  180,601;   -0,727;    2,045
1074,619;  176,601;   -1,364;    0,591
1075,161;  207,874;   -1,091;    1,500
1075,704;  332,510;    1,545;    1,227
1076,246;  196,510;   -0,182;    0,682
1076,788;  134,601;   -0,364;    1,773
1077,330;  138,419;    1,273;    2,136
1077,872;  183,601;    0,909;    0,955
1078,414;  350,237;    2,727;    0,773
1078,956;  213,510;    1,273;   -0,227
1079,498;  347,510;    1,636;    0,318
1080,040;  213,056;    1,909;   -1,318
1080,581;  165,056;    1,636;   -0,318
1081,123;  107,056;    0,091;   -0,773
1081,665;  120,692;   -1,182;   -0,955
1082,206;  306,146;    1,364;   -0,500
1082,748;  228,419;    0,727;    2,045
1083,289;  141,237;   -2,000;    1,318
1083,831;  139,601;   -0,545;    0,227
1084,372;  179,328;    0,000;    0,591
1084,913;  174,965;    1,091;    0,864
1085,455;  126,510;   -1,909;   -2,045
1085,996;  125,328;   -2,273;    0,136
1086,537;  162,237;   -0,091;    0,864
1087,078;  171,237;   -0,909;   -2,136
1087,619;  221,692;   -1,273;    0,227
1088,160;  181,601;    0,000;    1,318
1088,701;  162,419;   -1,091;    0,682
1089,242;  145,783;    1,364;   -2,227
1089,783;  194,419;   -0,273;    1,409
1090,324;  171,510;    0,455;    0,682
1090,865;  120,419;    2,727;   -0,409
1091,405;   97,056;    0,727;    2,227
1091,946;  140,783;    0,182;   -0,955
1092,487;   90,783;    0,818;   -1,409
1093,027;  201,237;   -1,364;   -1,500
1093,568;  131,874;   -0,364;    1,227
1094,108;  166,237;    0,273;    1,773
1094,649;  139,419;   -1,182;    0,136
1095,189;  108,783;   -0,636;   -0,682
1095,729;  109,146;   -0,091;    0,955
1096,269;   94,510;    0,727;   -0,955
1096,810;  252,874;   -1,364;    0,500
1097,350;  189,056;    1,364;   -0,773
1097,890;  140,419;    0,364;    1,227
1098,430;  298,419;    2,364;    2,864
1098,970;  233,328;    2,182;    1,682
1099,510;  126,965;    0,545;   -2,318
1100,050;  112,601;    1,000;   -1,591
1100,589;  124,783;   -0,727;   -0,318
1101,129;  170,601;    0,818;   -0,955
1101,669;  251,692;    1,727;    2,136
1102,209;  173,237;   -0,091;    2,227
1102,748;  141,510;    0,000;    0,955
1103,288;  152,056;    1,273;   -1,227
1103,827;  144,419;    3,091;   -2,227
1104,367;  103,237;   -0,091;   -2,409
1104,906;  101,783;    1,364;   -1,136
1105,445;  146,965;    0,636;   -1,136
1105,985;  124,419;   -0,727;    1,500
1106,524;  141,146;   -1,727;   -0,682
1107,063;  130,692;   -2,727;    1,409
1107,602;  100,965;   -1,909;   -1,500
1108,141;   82,419;   -1,909;    1,500
1108,680;  145,510;   -3,455;   -0,591
1109,219;  120,874;   -0,909;   -0,500
1109,758;  111,874;    0,455;    0,682
1110,297;  107,510;    1,000;   -0,682
1110,836;   81,419;   -0,727;    0,955
1111,375;  118,510;   -2,545;    0,409
1111,913;  153,510;   -1,000;    0,773
1112,452;  126,328;   -0,273;    0,136
1112,991;   81,237;    1,091;    1,955
1113,529;   85,237;   -0,818;   -0,045
1114,068;  104,510;   -0,273;    2,955
1114,606;   75,783;   -0,364;   -0,955
1115,144;  139,510;   -1,273;    1,045
1115,683;  110,510;   -0,727;    0,318
1116,221;  140,328;   -0,455;   -0,864
1116,759;   96,237;    0,636;   -0,864
1117,297;  175,510;    0,000;    1,864
1117,836;   99,783;   -2,182;   -1,227
1118,374;  101,692;    0,182;   -0,682
1118,912;   97,783;    0,909;    2,682
1119,450;   97,328;    1,000;    0,864
1119,988;  101,965;    1,545;    2,136
1120,525;  367,601;    5,091;    3,318
1121,063;  198,601;    1,182;    1,864
1121,601;  102,601;   -0,909;   -1,227
1122,139;   84,783;   -0,727;   -2,045
1122,676;  190,237;   -0,727;    2,773
1123,214;  159,328;   -1,182;    4,409
1123,751;   75,692;    1,727;    2,227
1124,289;  117,056;   -0,091;   -0,409
1124,826;   81,874;    1,727;    0,227
1125,364;   45,874;    1,727;   -0,955
1125,901;  152,965;    1,182;    1,227
1126,438;  165,692;    0,818;    0,955
1126,975;   54,419;   -0,727;   -0,773
1127,513;   77,056;    0,273;    2,136
1128,050;   52,056;    1,636;   -0,682
1128,587;   88,056;    2,000;   -0,227
1129,124;  115,056;    0,091;    1,318
1129,661;   64,056;    0,273;    0,227
1130,198;  143,692;    1,636;    0,773
1130,734;  105,692;    0,182;    1,409
1131,271;   55,237;   -0,909;    0,864
1131,808;  131,510;    2,909;    3,045
1132,345;   81,328;    1,545;    0,318
1132,881;   27,601;   -1,545;   -1,864
1133,418;   86,237;    0,727;   -1,136
1133,954;   61,328;    2,455;   -2,682
1134,491;   97,146;    1,364;   -0,773
1135,027;   55,419;    2,364;    0,864
1135,564;   91,146;    0,273;    2,955
1136,100;   85,510;    0,364;    2,136
1136,636;   43,510;   -1,273;   -1,045
1137,172;   71,874;    0,000;   -1,045
1137,708;   53,056;   -1,364;   -1,045
1138,245;   47,419;    1,273;   -1,227
1138,781;   38,419;    1,091;   -3,318
1139,317;   56,419;    1,273;   -1,409
1139,852;   66,874;    3,091;    0,136
1140,388;  102,783;   -1,182;   -0,409
1140,924;   59,419;   -1,091;   -2,227
1141,460;   30,328;   -1,636;    0,136
1141,996;   18,419;   -1,364;    2,682
1142,531;   38,965;    1,364;    3,318
1143,067;  130,692;    1,182;    1,045
1143,602;  164,510;   -0,091;   -0,318
1144,138;   85,237;   -2,636;    1,045
1144,673;   37,056;   -1,455;    1,409
1145,209;   56,419;   -1,909;   -0,318
1145,744;   28,237;   -0,727;    0,864
1146,279;   87,419;    1,818;   -0,136
1146,815;   56,237;    1,545;   -2,682
1147,350;   72,874;   -1,364;    0,045
1147,885;   36,601;   -0,818;   -1,318
1148,420;   36,328;   -2,273;    0,773
1148,955;   33,237;   -1,727;    1,864
1149,490;   38,874;   -0,909;   -1,591
1150,025;   27,965;    0,455;   -1,773
1150,560;   78,874;    1,091;   -0,955
1151,094;   62,692;    1,455;   -0,591
1151,629;   63,328;    1,636;    0,864
1152,164;   41,601;    1,364;    1,318
1152,698;   25,510;   -0,182;   -0,136
1153,233;   15,419;    0,091;   -0,682
1153,767;   26,510;   -3,000;   -2,318
1154,302;   46,419;   -1,455;    1,773
1154,836;   45,783;   -0,455;   -2,136
1155,371;   65,237;   -1,364;    3,682
1155,905;   41,510;   -0,636;    1,682
1156,439;   40,328;   -0,636;   -0,500
1156,973;   51,783;    0,364;    0,318
1157,507;   25,419;   -0,364;    0,682
1158,042;   39,874;   -0,727;    1,045
1158,576;   48,692;    0,182;    1,773
1159,110;   51,419;   -0,818;    2,409
1159,643;   41,601;    0,636;   -0,045
1160,177;   18,510;   -1,545;    1,500

