
Integration time [ms]:   0,040
Averaging Nr. [scans]: 11
Smoothing Nr. [pixels]: 0
Data measured with spectrometer [name]: 7318044SP
Wave   ;Sample   ;Dark     ;Reference
[nm]   ;[counts] ;[counts] ;[counts] 

186,757;   40,350;   31,551;    1,318
187,357;   42,749;   22,551;    0,955
187,958;   31,690;   15,460;   -1,591
188,558;   44,150;    8,915;   -1,227
189,159;   25,230;    6,733;   -4,500
189,759;   17,763;    7,278;   -3,591
190,360;   15,923;    2,824;   -2,136
190,960;   27,522;    2,915;   -4,136
191,560;   32,471;    3,189;   -6,591
192,161;  153,293;    4,372;   -3,500
192,761;   85,674;    4,010;   -3,227
193,361;   48,144;    1,556;   -3,773
193,962;   75,036;    2,010;   -2,682
194,562;   31,773;    1,189;   -3,955
195,162;   31,450;   -2,448;   -2,227
195,762;  103,342;   -3,176;   -0,045
196,362;   72,540;    1,370;   -2,500
196,963;   26,694;    2,006;   -0,864
197,563;   54,159;    1,551;   -0,955
198,163;   26,746;    0,096;   -0,682
198,763;   32,598;    1,733;   -0,500
199,363;   69,167;    3,096;   -0,500
199,963;   45,634;    0,369;    0,409
200,563;   42,844;    2,823;   -1,409
201,163;   32,444;    3,277;   -0,227
201,763;   55,126;    3,732;    0,318
202,363;   34,203;    1,459;    1,500
202,963;   62,261;    1,459;    1,045
203,563;  111,439;    0,277;    0,500
204,162;   54,656;    2,096;   -1,864
204,762;   47,676;    0,550;    0,591
205,362;   35,067;    3,004;    1,955
205,962;   65,798;    3,096;    1,955
206,562;   61,717;    1,823;    2,318
207,161;   41,952;   -0,087;    0,318
207,761;  128,992;    1,277;    2,409
208,361;   60,401;   -0,268;    1,409
208,960;   89,951;    0,459;    1,500
209,560;   89,793;    1,277;    1,591
210,160;  105,941;    0,550;    1,864
210,759;   82,037;    4,186;    1,227
211,359;   70,836;    1,459;    1,045
211,958;  206,877;    1,277;    2,045
212,558;  227,005;    1,732;    1,864
213,157;  138,758;    1,822;    1,500
213,757;  335,798;    3,822;   -0,227
214,356;  187,568;    1,277;   -0,409
214,956;  339,579;    3,095;    0,409
215,555;  158,025;    2,095;    2,136
216,154;  115,664;   -2,723;   -0,591
216,754;  123,464;    0,277;    0,773
217,353;  155,002;   -0,268;   -1,045
217,952;   68,845;   -0,178;    0,318
218,552;  198,218;    1,368;   -0,773
219,151;  137,237;    0,277;    0,955
219,750;  124,412;    0,004;   -0,227
220,349;  103,532;   -0,451;    1,045
220,948;  224,929;   -1,360;    1,136
221,548;  149,073;    0,913;    1,227
222,147;  191,577;   -0,087;   -0,409
222,746;  353,357;   -0,451;   -0,955
223,345;  238,038;    0,731;    0,500
223,944;  245,139;   -0,451;    0,773
224,543;  271,296;    1,004;   -1,409
225,142;  297,940;    0,094;    0,136
225,741;  279,562;   -0,814;    1,045
226,340;  260,427;   -0,451;   -0,955
226,939;  425,105;   -0,996;   -0,136
227,538;  262,083;   -0,360;   -0,773
228,137;  430,212;   -0,814;    0,864
228,735;  372,658;   -0,541;    1,227
229,334;  243,186;   -0,905;   -0,227
229,933;  475,664;    0,459;    0,591
230,532;  507,739;    1,186;   -0,409
231,131;  595,853;    1,732;    0,318
231,729;  459,438;   -2,450;   -2,318
232,328;  375,408;   -0,723;   -1,500
232,927;  386,342;    1,004;   -0,500
233,525;  370,355;    3,640;    0,045
234,124;  446,463;    2,368;   -1,591
234,723;  346,807;    0,913;   -1,045
235,321;  348,219;    2,277;    0,136
235,920;  414,174;    1,186;   -1,227
236,518;  621,859;    3,459;    0,318
237,117;  427,079;    0,004;   -0,227
237,715;  443,283;    0,640;   -0,500
238,314;  526,129;   -0,087;   -2,318
238,912;  699,405;   -0,723;   -1,409
239,510;  544,824;    0,459;   -1,227
240,109;  701,728;    0,004;    3,773
240,707;  651,769;   -0,996;    1,227
241,305;  479,744;    0,550;    0,136
241,904;  640,744;   -0,178;   -2,045
242,502;  753,225;   -0,632;   -0,227
243,100;  620,537;   -0,087;   -0,955
243,698;  569,014;    0,732;    1,682
244,297;  606,376;   -0,632;    0,682
244,895;  608,202;   -0,269;   -2,318
245,493;  845,379;    2,186;   -0,591
246,091;  821,431;    1,368;   -1,318
246,689;  757,968;    1,004;    0,591
247,287;  702,683;    0,822;   -1,136
247,885;  669,407;   -1,451;    1,227
248,483;  629,762;    1,822;   -0,500
249,081;  732,664;    0,185;    1,591
249,679;  792,086;   -0,178;    1,682
250,277;  631,071;   -1,723;    0,864
250,875;  801,728;   -1,087;   -1,045
251,473;  674,455;   -1,178;    0,500
252,071;  800,126;    1,459;    1,045
252,669;  719,957;   -1,814;    0,318
253,267;  650,441;   -0,087;    0,773
253,864;  688,410;   -0,360;    0,682
254,462;  899,471;    1,640;    1,591
255,060;  625,972;   -0,269;    1,318
255,658;  614,320;    0,822;   -0,136
256,255;  758,310;    0,186;   -2,045
256,853;  799,043;   -0,269;    1,409
257,451;  758,179;    0,822;    1,864
258,048; 1290,498;    1,822;    1,864
258,646;  893,735;    1,731;   -1,045
259,243; 1026,679;   -0,087;    2,227
259,841;  892,690;   -0,814;    0,318
260,438;  712,140;   -0,087;    0,864
261,036;  873,479;   -1,905;    1,409
261,633;  776,247;   -0,087;    2,227
262,231;  709,660;    2,731;   -0,045
262,828;  741,599;   -0,905;    1,136
263,425;  795,299;    0,913;   -0,591
264,023;  802,608;    0,186;    0,045
264,620;  966,444;   -0,360;   -0,318
265,217; 1116,875;   -2,087;    3,136
265,815;  795,100;   -1,905;    2,136
266,412;  940,529;    0,731;    0,136
267,009;  977,261;   -1,451;    0,773
267,606; 1099,735;    0,822;   -0,955
268,203;  827,972;   -0,269;   -0,591
268,801;  910,860;    1,731;    0,591
269,398;  813,254;   -0,360;    2,500
269,995;  990,326;    0,277;    1,591
270,592;  874,643;   -0,632;   -0,500
271,189;  804,894;    0,186;    0,409
271,786;  791,947;   -0,632;    1,227
272,383; 1104,952;   -1,087;    0,227
272,980;  907,821;    0,277;    0,318
273,577;  866,900;    0,004;    1,227
274,174;  795,848;    0,822;    2,591
274,771;  944,411;   -0,814;   -0,773
275,367; 1419,437;    2,277;    1,409
275,964; 1223,004;    0,731;   -0,500
276,561;  973,529;    1,549;   -1,045
277,158;  886,540;    0,095;   -1,773
277,755; 1168,845;    2,185;    0,409
278,351;  977,453;   -0,451;   -1,500
278,948; 1084,561;   -0,815;    0,045
279,545;  973,639;   -1,360;    2,318
280,141; 1287,234;   -1,723;   -2,045
280,738; 1156,394;   -0,451;   -0,136
281,334;  928,254;   -1,633;    0,591
281,931;  946,909;   -0,087;   -1,318
282,528; 1068,049;    0,822;   -0,500
283,124; 1210,471;   -1,087;   -0,500
283,721; 1184,146;   -0,451;    1,409
284,317;  995,378;    0,185;    2,500
284,913; 1266,888;   -1,360;    0,591
285,510; 1591,888;    0,640;   -0,318
286,106; 1367,679;   -2,269;   -0,955
286,703; 1020,622;   -0,360;    1,955
287,299;  976,417;   -1,451;   -0,591
287,895;  996,992;    0,822;   -1,045
288,491; 1039,527;    0,186;    2,136
289,088; 1166,150;   -2,360;    2,409
289,684; 1186,957;   -1,723;    1,500
290,280; 1360,753;    0,368;    0,682
290,876; 1344,250;    1,822;    5,500
291,472; 1199,725;    1,276;    2,227
292,068; 1214,333;    1,367;    0,227
292,665; 1033,508;    2,095;    0,773
293,261;  899,548;    0,276;    2,136
293,857; 1130,190;    2,913;    2,136
294,453; 1037,564;    3,550;    0,955
295,049; 1270,626;   -0,268;    1,955
295,644; 1079,599;    0,095;    0,136
296,240;  929,263;   -0,905;   -0,136
296,836; 1099,886;   -0,995;    0,318
297,432; 1273,001;    1,096;   -0,500
298,028; 1347,552;    0,732;    0,773
298,624; 1172,185;    1,459;    1,864
299,220; 1140,829;    2,368;    0,591
299,815; 1096,669;    1,005;   -0,409
300,411; 1209,626;    0,914;    1,773
301,007; 1369,071;    1,368;    0,227
301,602; 1161,809;   -0,541;   -2,318
302,198; 1303,527;    0,732;   -0,773
302,794; 1137,890;    1,187;   -0,500
303,389; 1130,281;   -1,177;    1,045
303,985; 1201,577;    0,550;    1,409
304,580; 1302,700;    1,459;    1,591
305,176; 1183,986;   -3,086;    0,136
305,771; 1046,070;   -1,268;   -1,227
306,367; 1490,402;    4,095;    0,136
306,962; 1250,537;    0,641;    1,500
307,558; 1231,258;   -0,450;    0,136
308,153; 1347,359;    1,095;   -1,136
308,748; 1147,848;   -0,814;    1,682
309,344; 1579,132;   -0,632;   -1,318
309,939; 1615,873;   -1,905;   -1,318
310,534; 1256,093;   -0,086;   -1,682
311,130; 1177,772;    0,459;   -2,500
311,725; 1082,934;    1,004;   -0,500
312,320; 1196,552;    2,459;    0,045
312,915; 1353,193;    1,459;   -1,045
313,510; 1576,491;    1,550;   -0,500
314,105; 1330,107;    1,096;    1,409
314,700; 1072,996;   -3,086;   -1,045
315,295; 1153,154;   -0,904;    0,045
315,890; 1050,246;    1,277;    0,864
316,485; 1173,588;   -0,359;   -0,318
317,080; 1124,827;   -3,086;    1,591
317,675; 1488,470;    2,005;   -0,682
318,270; 1664,936;    5,550;    3,318
318,865; 1573,108;    3,278;    3,045
319,460; 1340,170;   -0,904;    0,591
320,055; 1212,844;   -0,541;   -1,227
320,650; 1168,978;   -1,995;   -0,591
321,244; 1185,615;   -0,177;   -1,409
321,839; 1341,386;   -1,541;   -0,227
322,434; 1378,188;   -1,086;   -1,591
323,029; 1236,529;    1,732;    1,591
323,623; 1174,848;    1,550;    0,773
324,218; 1321,284;    2,368;    1,409
324,812; 1258,263;    1,096;    1,591
325,407; 1267,625;   -0,814;    2,045
326,002; 1355,730;    0,277;   -0,409
326,596; 1305,151;    0,914;    1,318
327,191; 1171,868;    0,823;   -1,045
327,785; 1088,333;   -0,813;   -0,227
328,379; 1207,325;    1,368;    0,136
328,974; 1194,692;    0,914;   -3,955
329,568; 1260,820;    0,186;   -2,409
330,163; 1324,277;    2,096;    1,045
330,757; 1196,067;    2,459;    1,591
331,351; 1113,426;    0,459;    0,682
331,945; 1109,972;    0,914;    1,409
332,540; 1254,617;   -1,723;   -0,591
333,134; 1225,445;   -1,086;    0,773
333,728; 1195,614;    0,005;    0,318
334,322; 1138,219;   -1,177;   -0,864
334,916; 1048,176;    0,277;    0,955
335,510; 1260,502;   -0,450;   -0,136
336,105; 1303,777;   -1,086;    1,591
336,699; 1141,007;   -1,086;    0,591
337,293; 1164,428;   -1,723;    0,318
337,887; 1093,100;   -2,723;    1,955
338,481; 1275,429;    0,459;    0,591
339,074; 1426,440;   -0,359;    2,682
339,668; 1387,120;   -1,632;    1,227
340,262; 2055,366;    1,732;    3,227
340,856; 1555,990;    1,822;   -0,682
341,450; 1112,158;    1,004;    1,864
342,044; 1249,156;    1,459;    0,136
342,637; 1404,910;    0,913;   -2,136
343,231; 1431,730;   -2,360;    0,682
343,825; 1199,544;   -1,086;   -0,591
344,419; 1187,389;   -1,995;    0,500
345,012; 1816,312;    2,459;    4,045
345,606; 1588,074;    4,641;    1,591
346,199; 1221,961;   -1,813;   -0,227
346,793; 1357,550;    1,914;    2,045
347,386; 1142,433;   -0,813;   -1,136
347,980;  996,992;   -0,268;   -0,045
348,573; 1137,755;    2,278;    0,409
349,167; 1435,501;    5,278;    4,773
349,760; 1379,976;    2,914;    2,682
350,354; 1295,833;   -0,813;    1,136
350,947; 1340,387;    1,096;    1,682
351,540; 1107,736;   -0,358;   -1,409
352,134;  948,707;    1,096;    1,136
352,727; 1016,038;   -0,086;    1,136
353,320; 1045,754;    0,005;    0,591
353,913;  927,629;   -1,995;    1,864
354,507; 1192,401;    0,823;   -1,227
355,100; 1077,256;    0,460;    0,864
355,693; 1502,199;    2,005;    2,409
356,286; 1210,607;    0,823;    2,773
356,879; 1041,903;   -0,722;    1,227
357,472;  984,569;   -0,904;    1,500
358,065; 1093,151;   -0,722;    2,500
358,658;  924,985;   -0,540;    2,318
359,251;  836,094;   -1,631;   -0,591
359,844; 1050,943;   -1,904;   -1,136
360,437; 1163,907;   -2,995;    0,045
361,030; 1004,636;    1,369;   -0,682
361,623;  969,399;    2,824;    0,318
362,215; 1243,855;   -0,086;    2,045
362,808; 1065,090;   -2,358;   -1,682
363,401;  985,052;   -2,449;    0,136
363,994; 1248,605;   -0,631;   -1,500
364,586;  979,895;    0,824;   -1,500
365,179;  922,465;   -0,449;   -1,136
365,772;  715,250;   -1,995;    2,045
366,364;  902,467;    1,915;   -3,227
366,957; 1035,511;    2,279;   -0,045
367,549;  936,317;    2,188;   -0,864
368,142;  932,003;    1,825;   -1,500
368,734;  896,106;    0,734;   -2,136
369,327;  796,846;    1,643;   -0,500
369,919;  852,095;   -1,538;    0,409
370,512;  902,034;   -1,083;   -0,500
371,104; 1192,719;   -0,901;    1,591
371,696; 1249,359;    1,191;   -0,955
372,289; 1078,614;    0,373;    1,136
372,881; 1006,150;   -2,080;    1,318
373,473;  854,049;   -2,170;    1,136
374,066;  987,045;   -0,169;    0,500
374,658;  939,650;    0,378;    1,136
375,250;  882,627;    0,653;   -1,409
375,842;  946,254;    0,473;   -0,045
376,434;  885,342;   -0,435;   -0,409
377,026;  923,700;    0,204;   -2,500
377,618;  960,250;   -0,158;   -0,682
378,210;  859,422;   -0,338;   -1,955
378,802;  797,549;    0,754;   -0,591
379,394; 1332,203;    1,846;    0,682
379,986; 1067,418;    1,393;   -0,955
380,578;  958,711;   -0,153;    0,773
381,170; 1218,669;   -0,972;    0,045
381,762; 1077,454;    0,755;    1,409
382,354; 1027,530;   -0,065;   -1,318
382,945;  918,817;   -2,976;    0,318
383,537;  876,552;   -2,705;   -1,955
384,129;  889,449;   -2,160;   -1,136
384,721; 1036,317;   -0,252;    0,955
385,312;  919,940;   -0,161;   -0,955
385,904; 1080,397;   -2,706;    1,591
386,496;  895,094;   -0,979;    1,045
387,087; 1085,369;    1,022;    2,500
387,679; 1015,020;   -1,160;    0,045
388,270; 1037,543;    2,840;    2,045
388,862;  968,688;    1,295;   -0,318
389,453;  887,963;   -0,887;    1,045
390,045;  949,687;   -0,705;   -2,682
390,636;  857,898;    0,204;   -0,591
391,227;  897,383;   -0,523;   -0,045
391,819;  912,352;    0,204;    0,773
392,410; 1217,654;    1,022;    0,045
393,001;  996,017;   -0,979;   -1,591
393,593; 1082,517;    1,930;   -0,045
394,184; 1143,489;    1,385;   -0,409
394,775;  932,137;    1,839;    2,136
395,366;  910,723;    1,385;    0,773
395,957; 1142,584;    0,113;    0,136
396,548; 1016,361;   -0,342;    2,682
397,139; 1225,641;   -2,433;    0,591
397,730; 1066,156;   -1,888;    0,955
398,321; 1064,461;   -1,252;    0,955
398,912;  997,626;   -0,615;    0,136
399,503; 1037,520;   -3,524;   -1,409
400,094; 1031,666;    0,294;    1,682
400,685; 1024,519;   -0,433;    0,045
401,276;  920,994;    0,930;   -0,955
401,867;  933,254;   -0,888;    0,773
402,458;  909,791;   -2,251;   -2,318
403,048; 1100,043;    1,112;    0,591
403,639;  966,131;    0,840;    0,864
404,230; 1205,428;    2,476;    0,318
404,821; 1261,611;   -0,615;    0,045
405,411; 1116,866;    1,203;   -2,591
406,002;  967,973;   -1,252;   -1,136
406,592; 1266,196;    2,294;    0,045
407,183; 1097,129;    0,566;   -1,500
407,774; 1037,465;    3,475;   -0,136
408,364; 1019,018;    0,930;    0,409
408,954; 1155,113;    0,384;    1,227
409,545; 1156,905;    1,021;    1,045
410,135; 1040,336;    1,293;    0,500
410,726; 1011,875;    1,838;    0,318
411,316; 1275,097;    0,111;    0,773
411,906; 1018,477;   -0,253;   -0,409
412,497;  990,151;   -1,070;   -0,045
413,087;  964,356;   -1,980;   -0,227
413,677;  940,423;   -0,707;    3,864
414,267;  912,567;    0,656;    1,409
414,857;  867,347;   -2,980;    4,227
415,448;  905,495;    0,839;    0,500
416,038;  917,451;    0,020;   -0,591
416,628;  972,124;   -0,889;    0,409
417,218; 1063,973;    0,565;    3,318
417,808; 1260,754;    0,202;   -0,409
418,398; 1080,675;    0,020;    2,682
418,988;  937,716;    2,020;    0,591
419,578; 1048,110;   -0,707;    1,409
420,168; 1071,768;   -1,343;   -0,955
420,757; 1237,952;   -1,343;   -1,500
421,347; 1052,185;    0,111;   -0,227
421,937;  999,888;    2,292;    1,409
422,527; 1186,459;    0,838;   -0,773
423,116; 1353,032;   -0,253;   -0,045
423,706; 1008,236;   -1,889;    0,318
424,296;  907,400;    1,384;    0,682
424,885; 1164,854;   -0,071;   -3,045
425,475; 1121,261;    1,474;   -2,864
426,065;  956,882;   -0,980;   -0,318
426,654;  927,526;   -0,435;   -0,318
427,244; 1342,481;    0,020;    1,409
427,833; 1280,419;    1,383;   -0,500
428,423; 1087,152;   -0,526;    1,136
429,012; 1156,938;   -0,344;   -1,136
429,601; 1275,066;   -1,344;    0,136
430,191; 1123,383;    1,292;    4,318
430,780;  939,531;   -0,344;   -0,409
431,369; 1278,348;    0,746;   -0,045
431,959; 1204,213;   -1,254;    0,500
432,548; 1046,152;   -1,163;   -0,045
433,137;  947,623;   -1,254;   -1,318
433,726; 1130,088;    0,292;    0,500
434,315; 1088,165;   -0,526;    2,409
434,905; 1252,161;   -1,254;    1,409
435,494; 1314,895;    0,746;    0,955
436,083; 1114,584;   -0,981;   -0,955
436,672; 1172,055;    0,110;    0,500
437,261; 1123,884;    0,292;   -1,955
437,850; 1527,792;    1,383;    0,682
438,439; 1562,755;    3,291;    1,955
439,027; 1687,735;    3,655;    1,773
439,616; 1644,098;    2,927;    1,227
440,205; 1290,199;    0,200;   -2,136
440,794; 1167,415;    2,109;   -0,045
441,383; 1074,635;   -1,346;   -0,591
441,971;  967,599;   -2,436;    0,591
442,560;  989,361;    0,563;   -1,773
443,149;  865,149;    0,379;   -1,318
443,737;  993,132;   -0,074;   -2,318
444,326; 1018,297;    0,018;    0,318
444,915; 1098,801;   -1,982;    0,864
445,503; 1127,794;   -2,891;   -0,318
446,092; 1446,320;    0,382;    2,136
446,680; 1399,454;    0,382;    0,318
447,269; 1304,440;   -0,346;   -0,318
447,857; 1222,436;    0,018;   -1,773
448,445; 1170,774;    0,563;    1,318
449,034; 1135,178;   -1,528;   -1,136
449,622; 1101,369;   -1,073;    3,500
450,210; 1579,297;    2,017;    2,227
450,799; 1470,178;    0,290;   -0,591
451,387; 1315,798;    1,381;   -0,591
451,975; 1296,972;    2,654;    0,864
452,563; 1474,718;    3,472;    2,318
453,151; 1144,067;   -0,528;   -1,227
453,739; 1209,157;   -1,347;    0,136
454,328; 1443,856;    2,381;   -2,136
454,916; 1284,002;    2,562;   -0,136
455,504; 1272,235;    1,017;    1,227
456,092; 1141,395;    0,017;   -1,591
456,679; 1032,691;    1,472;    0,682
457,267; 1759,051;    4,017;    1,045
457,855; 1232,155;    1,017;    1,409
458,443;  935,550;   -0,165;    1,682
459,031; 1346,690;    0,108;    2,409
459,619; 1279,662;   -1,801;    2,864
460,206; 1075,018;    0,835;    2,045
460,794; 1092,327;   -2,983;   -0,227
461,382; 1208,961;   -0,529;   -0,864
461,970; 1119,409;    1,198;    1,864
462,557; 1049,031;   -0,711;   -0,682
463,145; 1306,475;   -3,165;   -1,682
463,732; 1656,124;    2,016;   -1,045
464,320; 1274,432;   -0,075;   -3,045
464,907; 1506,440;    2,743;   -0,773
465,495; 1352,500;    0,743;   -1,227
466,082; 1204,863;   -1,984;   -0,045
466,670; 1180,080;   -2,529;    1,227
467,257; 1074,533;   -1,711;    2,045
467,844; 1272,707;   -0,075;    0,045
468,432; 1262,473;    0,834;    3,500
469,019; 1125,628;    0,925;   -1,773
469,606; 1240,664;    0,470;    3,682
470,193; 1308,709;   -1,439;    0,227
470,780; 1278,721;   -2,075;    0,864
471,368; 1154,339;   -1,257;   -0,773
471,955; 1313,077;    1,379;   -0,682
472,542; 1205,220;    0,652;   -1,136
473,129; 1008,945;   -0,166;    0,136
473,716; 1002,425;    1,470;    0,591
474,303; 1072,716;    0,652;   -0,864
474,890; 1110,228;   -1,439;   -0,500
475,477; 1269,069;   -1,621;    0,409
476,064; 1102,600;    1,106;   -1,591
476,650; 1256,641;    0,288;    0,318
477,237; 1153,913;   -0,258;    0,955
477,824; 1107,424;   -1,076;    0,864
478,411;  950,389;   -1,894;   -0,318
478,997;  960,684;    0,560;   -0,773
479,584;  867,767;    1,196;   -0,409
480,171; 1288,024;   -0,440;   -0,773
480,757; 1397,813;    2,651;    0,773
481,344; 1191,220;    0,469;    0,409
481,931;  953,121;    1,105;    1,045
482,517; 1337,363;   -1,258;    0,318
483,104; 1486,673;    1,106;    2,864
483,690; 1347,245;   -1,804;    0,045
484,276; 1313,080;   -0,895;    0,227
484,863; 1684,328;    2,469;    1,136
485,449; 1438,423;   -0,077;    0,318
486,035; 1321,552;   -1,986;   -0,136
486,622; 1546,910;   -0,895;    0,045
487,208; 1401,305;    1,378;    1,500
487,794; 1256,932;    0,741;    0,318
488,380; 1284,730;    0,105;   -1,409
488,967; 1285,532;   -1,168;   -0,409
489,553; 1310,393;   -1,895;   -1,409
490,139; 1469,044;    1,559;    0,773
490,725; 1285,906;    0,741;   -0,227
491,311; 1300,859;    3,287;    3,045
491,897; 1121,340;   -0,986;    1,500
492,483; 1139,960;    0,105;    1,227
493,069; 1941,555;    3,923;    0,864
493,655; 1396,181;    1,650;    0,682
494,241; 1202,770;    1,377;   -0,955
494,826; 1285,929;    0,287;   -1,045
495,412; 1342,659;    2,559;   -0,682
495,998; 1207,477;   -0,805;   -0,318
496,584; 1279,273;    0,377;    1,045
497,169; 1231,914;    1,014;   -0,682
497,755; 1093,413;    0,650;    1,227
498,341; 1497,723;    0,559;    0,318
498,926; 1673,317;    1,832;    1,955
499,512; 1261,569;    1,286;    2,955
500,097; 1188,266;    0,195;   -0,318
500,683; 1214,432;   -0,350;    2,136
501,268; 1171,908;   -0,169;   -0,955
501,854; 1203,466;   -0,169;    1,227
502,439; 1134,261;   -0,624;   -1,773
503,024; 1259,171;    0,195;    0,500
503,610; 1324,965;   -0,078;   -0,682
504,195; 1124,430;    0,558;    1,955
504,780; 1296,125;    2,922;    1,227
505,366; 1470,526;    3,013;    2,864
505,951; 1303,753;    0,740;    1,045
506,536; 1213,885;   -3,260;   -3,682
507,121; 1252,053;    0,285;   -0,318
507,706; 1227,535;    2,376;    1,045
508,291; 1134,399;    2,649;    1,136
508,876; 1107,982;   -0,988;    2,591
509,461; 1169,704;   -0,169;   -0,773
510,046; 1264,035;    0,194;    0,318
510,631; 1238,338;   -0,351;   -0,773
511,216; 1120,187;    2,467;   -0,500
511,801; 1277,363;   -0,442;    2,591
512,386; 1296,225;    0,740;    0,500
512,971; 1316,838;   -2,988;    0,955
513,555; 1378,848;   -0,897;   -1,500
514,140; 1379,913;   -0,442;   -3,136
514,725; 1485,922;   -0,715;   -1,136
515,309; 1356,051;   -0,533;    0,318
515,894; 1216,220;   -0,624;   -2,227
516,479; 1263,673;   -0,624;   -0,955
517,063; 1242,957;    0,376;    1,227
517,648; 1217,174;    1,012;   -1,136
518,232; 1126,523;   -0,261;   -1,409
518,817; 1252,719;   -0,079;    1,682
519,401; 1467,754;    2,194;    0,591
519,985; 1279,682;    1,103;    1,136
520,570; 1116,209;    0,830;   -1,955
521,154; 1308,058;    2,102;    0,591
521,738; 1593,671;   -2,352;    2,409
522,323; 1449,005;   -0,170;    1,682
522,907; 1350,642;    0,466;   -0,136
523,491; 1224,396;    0,557;    0,955
524,075; 1152,229;    2,284;    0,591
524,659; 1395,535;    1,466;    0,591
525,243; 1269,301;    1,739;    0,409
525,827; 1201,780;    0,648;   -0,045
526,411; 1274,080;   -1,989;   -0,136
526,995; 1459,530;   -0,352;    1,409
527,579; 1475,950;   -0,443;   -1,045
528,163; 1405,550;    0,375;   -1,500
528,747; 1601,688;    2,466;   -0,773
529,331; 1539,464;   -0,080;   -1,409
529,915; 1281,298;    1,738;    0,955
530,499; 1394,841;   -0,807;    1,227
531,082; 1535,478;   -0,534;    1,591
531,666; 1588,149;    1,374;    0,773
532,250; 1502,339;    1,284;    2,682
532,833; 1670,374;    0,920;    2,773
533,417; 1427,031;   -1,807;    0,864
534,001; 1549,294;    1,647;   -0,318
534,584; 1502,211;    0,374;    0,500
535,168; 1308,284;    0,465;    1,409
535,751; 1737,342;    0,647;    0,045
536,334; 1356,695;   -0,898;   -0,409
536,918; 1327,126;    0,011;    1,591
537,501; 1313,705;   -0,899;    1,318
538,085; 1353,222;   -0,444;    1,045
538,668; 1378,237;    0,829;    2,409
539,251; 1779,706;    1,829;    3,773
539,834; 1507,034;    0,101;    0,773
540,418; 1622,832;   -1,990;    4,318
541,001; 1800,940;   -0,990;    1,773
541,584; 1528,173;    2,101;    2,227
542,167; 1602,325;    1,374;    2,955
542,750; 1468,772;    1,919;   -0,773
543,333; 1243,608;    0,555;    2,136
543,916; 1586,324;    0,192;    2,500
544,499; 1462,138;   -1,354;    0,227
545,082; 1574,162;    1,374;    3,591
545,665; 1476,002;    1,919;    1,500
546,248; 1625,154;    1,010;   -0,318
546,830; 1582,106;   -0,445;    1,955
547,413; 1611,854;    1,010;   -0,773
547,996; 1687,876;    0,555;    0,500
548,579; 1486,933;    0,919;    0,955
549,161; 1745,502;    1,828;    2,682
549,744; 1622,014;   -0,809;    0,409
550,326; 1576,214;   -0,809;   -1,136
550,909; 2055,245;    2,737;    0,591
551,492; 1744,524;   -0,263;    0,227
552,074; 1800,228;   -0,173;   -1,318
552,657; 1859,416;    2,373;    0,045
553,239; 1678,915;   -0,173;   -0,773
553,821; 1617,282;   -1,082;    1,045
554,404; 1795,131;    1,282;    1,136
554,986; 1926,056;    0,464;    1,045
555,568; 1833,010;    1,191;   -0,955
556,151; 2011,297;    1,191;   -0,227
556,733; 1692,830;   -0,264;   -0,864
557,315; 1692,297;    0,100;    0,500
557,897; 1488,622;    0,554;   -0,500
558,479; 1520,097;   -1,991;    1,318
559,061; 1663,001;   -0,719;   -0,864
559,643; 1789,691;   -0,264;    0,045
560,225; 1815,579;    1,645;    2,864
560,807; 1682,691;    0,918;    0,318
561,389; 1602,833;    0,554;    2,318
561,971; 1678,444;    0,463;    2,136
562,553; 1695,922;   -1,628;    1,591
563,135; 1781,534;   -0,537;    1,136
563,717; 2111,068;    3,372;    1,136
564,298; 2018,705;    3,645;   -0,045
564,880; 1732,631;    0,645;   -1,409
565,462; 1609,903;    0,645;    1,318
566,043; 1967,249;   -0,446;    2,318
566,625; 2108,058;    1,918;    1,227
567,207; 1870,764;    1,099;    1,682
567,788; 1890,808;   -1,264;    1,500
568,370; 2029,665;    1,917;   -0,500
568,951; 1885,595;    0,190;    0,227
569,533; 2079,335;   -0,628;   -0,500
570,114; 2217,696;   -0,446;    0,682
570,695; 2256,770;   -0,174;   -1,318
571,277; 2214,150;   -0,265;   -1,682
571,858; 2457,609;    2,008;   -1,136
572,439; 2497,672;    1,554;   -1,045
573,021; 2472,056;    2,099;   -2,773
573,602; 2593,122;   -1,265;    0,318
574,183; 2652,690;   -2,083;    2,227
574,764; 2659,933;   -1,629;    0,409
575,345; 2755,758;    0,917;   -0,136
575,926; 2768,899;   -0,356;    0,136
576,507; 2853,114;    1,099;   -0,227
577,088; 2979,474;    3,099;    1,682
577,669; 3100,550;    0,735;    1,955
578,250; 3345,235;    0,644;   -1,045
578,831; 3192,990;   -1,356;   -2,227
579,412; 3072,473;   -0,810;    0,955
579,993; 3392,861;    1,008;    0,227
580,573; 3389,145;   -0,629;   -0,955
581,154; 3061,198;    0,735;   -0,591
581,735; 3271,992;    0,644;    0,773
582,315; 3125,265;   -0,629;    2,136
582,896; 3292,296;   -0,174;    1,227
583,477; 3103,874;    0,189;    1,227
584,057; 3208,585;    0,553;    0,955
584,638; 3274,497;    2,553;    2,318
585,218; 3451,840;   -0,538;    2,682
585,799; 3384,135;    0,281;   -0,227
586,379; 3278,201;    0,372;    1,591
586,959; 3117,059;    0,735;    0,318
587,540; 2947,045;   -0,629;    2,227
588,120; 2846,115;    1,007;   -0,045
588,700; 2715,277;    2,553;    2,136
589,281; 2972,139;    0,462;   -0,955
589,861; 2851,378;    0,099;   -1,682
590,441; 2765,612;    2,371;   -2,682
591,021; 2569,216;   -0,265;   -2,591
591,601; 2679,688;   -0,537;    0,500
592,181; 2771,655;   -0,719;   -0,773
592,761; 2469,067;    0,007;    1,409
593,341; 2602,684;   -0,901;    0,045
593,921; 2559,926;   -0,265;    1,591
594,501; 2453,699;   -0,538;    1,318
595,081; 2417,638;    0,917;   -0,318
595,661; 2665,370;   -1,447;    0,955
596,240; 2736,327;   -0,537;    0,136
596,820; 2861,979;    0,372;    1,955
597,400; 2585,437;    2,008;    0,773
597,980; 2621,077;    2,008;    1,045
598,559; 2616,592;    2,735;   -0,227
599,139; 2573,827;   -0,174;   -1,227
599,718; 2552,463;   -0,174;   -0,409
600,298; 2632,867;    0,735;    0,682
600,877; 2972,467;    2,917;    1,409
601,457; 2899,210;    2,281;    1,136
602,036; 2768,042;    0,190;    2,045
602,616; 2704,795;    0,644;    1,682
603,195; 2877,383;   -0,355;    3,500
603,774; 2778,888;   -0,901;    2,045
604,354; 2703,357;    0,826;   -0,500
604,933; 2592,206;    0,463;    1,864
605,512; 2805,654;    3,554;    0,591
606,091; 2805,681;   -0,537;    3,773
606,671; 2842,670;    0,281;    0,773
607,250; 2835,597;    1,644;    3,136
607,829; 2844,120;    2,372;    3,227
608,408; 2742,024;    1,190;    2,591
608,987; 2664,566;    1,281;    3,409
609,566; 2534,469;   -1,265;   -2,500
610,145; 2628,781;   -1,082;    0,682
610,723; 2786,637;    4,372;    6,864
611,302; 2533,213;   -0,446;    1,682
611,881; 2636,739;    5,008;   11,227
612,460; 2562,399;    1,645;    3,955
613,039; 2633,769;   -0,082;    2,045
613,617; 2338,704;    1,736;    4,773
614,196; 2360,948;    1,099;    1,227
614,775; 2532,476;    1,009;    2,409
615,353; 2534,193;    0,736;    0,864
615,932; 2466,308;    0,100;    2,409
616,510; 2604,467;    0,554;    0,591
617,089; 2955,241;    7,100;   17,591
617,667; 2643,135;    2,372;    6,136
618,246; 2303,667;   -1,537;    1,318
618,824; 2430,973;   -3,355;   -0,955
619,402; 2369,164;   -2,900;   -1,773
619,981; 2542,502;   -0,173;   -1,045
620,559; 2501,783;    0,009;    1,682
621,137; 2494,742;   -0,718;    1,864
621,715; 2192,872;   -1,173;   -0,682
622,293; 2234,367;   -0,537;   -0,773
622,871; 2519,660;   -0,718;    0,500
623,450; 2339,546;    0,373;   -0,864
624,028; 2459,413;    0,191;   -0,955
624,606; 2369,227;   -1,718;    1,682
625,183; 2276,736;   -1,536;   -1,136
625,761; 2287,727;    1,009;    1,136
626,339; 2678,178;    1,373;    2,591
626,917; 2422,540;   -0,172;   -0,045
627,495; 2433,479;   -0,354;    1,318
628,073; 2374,621;   -0,263;    2,864
628,650; 2328,923;    0,100;    2,136
629,228; 2434,787;    0,373;    4,409
629,806; 2155,668;    2,282;    1,136
630,383; 2236,332;    1,464;   -0,318
630,961; 2229,125;    2,555;   -0,955
631,539; 2165,311;    2,464;    0,227
632,116; 2805,762;   11,373;   15,409
632,694; 2499,440;    2,555;    6,500
633,271; 2309,886;    0,828;    2,682
633,848; 2430,919;    1,828;    2,045
634,426; 2226,703;   -1,081;    1,773
635,003; 2081,379;    1,101;   -0,409
635,580; 2419,525;    1,192;    3,682
636,158; 2267,681;    3,737;    1,227
636,735; 2129,889;    0,555;   -0,500
637,312; 2151,415;   -0,809;   -0,682
637,889; 2158,746;   -4,354;   -0,682
638,466; 2122,017;   -3,990;   -0,409
639,043; 2110,489;    2,101;   -1,136
639,620; 2120,296;   -2,262;   -0,955
640,197; 2260,239;    1,100;    1,682
640,774; 2259,988;   -0,172;    1,136
641,351; 2321,829;    0,737;    1,136
641,928; 2357,306;   -0,627;    1,409
642,505; 2473,873;    0,828;   -0,500
643,082; 2368,896;   -1,718;    1,227
643,658; 2030,100;   -0,718;    1,500
644,235; 2140,486;    1,191;    2,500
644,812; 2304,690;    1,918;    0,773
645,388; 2223,075;   -0,991;    1,409
645,965; 2016,916;   -0,809;    1,682
646,542; 2063,938;   -1,445;   -0,227
647,118; 2506,233;    1,009;   -0,955
647,695; 2331,437;   -0,263;    1,136
648,271; 2145,823;   -0,536;    0,500
648,848; 2267,209;    0,736;    2,227
649,424; 2384,322;    0,827;    1,318
650,000; 2099,162;   -0,354;   -1,045
650,577; 2172,639;   -0,627;   -0,955
651,153; 2306,571;   -1,809;    0,955
651,729; 2310,411;    1,191;    0,864
652,305; 2584,342;    0,645;    2,773
652,881; 3081,274;   -0,082;    1,136
653,458; 4033,569;    1,100;    0,227
654,034; 4607,682;    0,282;    1,591
654,610; 4674,250;    0,554;    0,773
655,186; 5090,272;    0,645;    3,045
655,762; 4767,112;   -0,991;    0,409
656,338; 4703,862;    0,100;    0,136
656,913; 5040,975;   -0,082;    0,409
657,489; 4758,633;    0,827;   -0,318
658,065; 4835,201;   -0,173;   -1,591
658,641; 5098,678;   -0,900;   -0,864
659,217; 4835,791;   -0,991;    0,409
659,792; 4585,177;    0,645;   -0,409
660,368; 4688,381;   -2,173;   -0,682
660,944; 4877,585;   -2,082;    1,227
661,519; 4174,880;   -0,628;    0,409
662,095; 3258,539;   -1,719;    0,591
662,670; 2541,743;    1,281;   -0,136
663,246; 2501,765;    1,009;   -0,409
663,821; 2548,696;    0,281;    1,682
664,396; 2274,537;    0,009;    1,864
664,972; 2303,923;    0,009;   -0,500
665,547; 2486,308;    1,372;    0,136
666,122; 2400,058;   -1,082;    0,318
666,698; 2564,717;   -0,173;    0,318
667,273; 2213,102;   -0,173;    0,136
667,848; 2412,943;    2,372;    1,500
668,423; 2480,874;    2,190;    2,318
668,998; 2435,442;    2,827;   -0,682
669,573; 2497,282;   -3,264;   -1,500
670,148; 2617,486;   -1,446;   -0,682
670,723; 2345,690;   -1,810;    0,318
671,298; 2697,985;    2,372;    1,045
671,873; 2565,280;   -0,082;   -0,136
672,448; 2567,030;    0,645;    0,136
673,023; 2598,143;   -1,992;   -0,227
673,597; 2771,529;    0,827;    2,318
674,172; 2749,824;   -0,355;    0,318
674,747; 2608,392;    0,372;   -1,045
675,321; 2387,596;   -0,628;    3,318
675,896; 2254,618;    0,645;    1,045
676,471; 2487,277;    2,645;    1,591
677,045; 2404,753;   -1,264;    0,682
677,620; 2421,503;    0,190;    1,136
678,194; 2453,071;   -2,628;    1,136
678,769; 2433,729;   -1,083;   -0,318
679,343; 2530,933;   -0,628;    1,773
679,917; 2582,137;   -1,446;    1,955
680,492; 2435,796;    0,826;    3,227
681,066; 2484,818;    3,372;    0,409
681,640; 2466,295;    1,463;   -0,318
682,214; 2620,135;    0,735;    0,500
682,788; 2548,521;   -1,356;   -0,773
683,363; 2552,271;   -1,810;    1,682
683,937; 2409,020;   -1,719;   -0,318
684,511; 2645,679;    0,463;   -0,591
685,085; 2583,519;   -1,356;    0,318
685,659; 2432,087;   -2,538;    0,864
686,232; 2673,382;   -0,356;   -0,318
686,806; 2558,859;   -0,901;    0,409
687,380; 2642,790;   -0,174;    0,591
687,954; 2666,358;   -1,174;    1,136
688,528; 2755,653;   -0,719;    1,955
689,101; 2849,675;   -3,992;    1,045
689,675; 2625,788;   -0,356;   -0,136
690,249; 2680,629;   -0,719;    0,409
690,822; 2745,378;    0,280;    0,318
691,396; 2636,855;   -0,265;    1,227
691,969; 2502,695;    1,280;    0,136
692,543; 2590,081;   -0,447;   -1,955
693,116; 2389,285;   -0,265;   -1,409
693,690; 2447,762;    0,099;    0,500
694,263; 2592,421;   -1,083;    2,955
694,836; 2843,806;    1,371;    3,591
695,410; 2547,283;   -0,265;    1,773
695,983; 2559,669;    0,189;    0,591
696,556; 2457,600;   -0,447;   -1,045
697,129; 2514,350;   -0,356;    1,409
697,703; 2482,009;   -1,629;    1,955
698,276; 2513,485;    1,462;   -0,773
698,849; 2549,780;    1,280;    1,409
699,422; 2421,439;   -1,083;    0,591
699,995; 2309,734;    0,007;    0,136
700,568; 2509,938;   -0,629;    3,045
701,140; 2531,415;   -2,811;    1,682
701,713; 2635,255;   -0,174;    2,409
702,286; 2539,187;   -0,538;    0,864
702,859; 2517,209;   -0,902;   -0,591
703,432; 2435,322;    0,825;    0,682
704,004; 2422,708;    0,462;    0,318
704,577; 2267,094;   -0,629;    0,136
705,150; 2382,298;    0,189;    2,500
705,722; 2460,047;   -0,356;   -3,227
706,295; 2494,070;   -0,175;   -0,591
706,867; 2311,910;   -0,175;    1,955
707,440; 2517,114;   -1,720;   -0,409
708,012; 2587,500;    0,462;    0,591
708,584; 2450,795;    2,462;    0,227
709,157; 2455,544;    1,825;   -0,591
709,729; 2547,294;    2,280;    2,045
710,301; 2701,862;    0,734;    0,045
710,874; 2675,975;   -1,447;   -0,227
711,446; 2276,452;    0,371;    0,864
712,018; 2353,837;    0,098;    0,500
712,590; 2286,041;   -1,993;    1,682
713,162; 2587,700;    0,825;    1,318
713,734; 2462,540;    1,825;   -2,045
714,306; 2421,835;   -1,902;   -0,409
714,878; 2259,494;    0,825;    0,864
715,450; 2407,607;    0,643;    0,864
716,022; 2441,539;    1,552;    1,318
716,593; 2461,197;    0,189;    0,591
717,165; 2496,401;   -3,175;   -1,227
717,737; 2614,605;    0,280;    0,409
718,309; 2455,446;    0,280;   -0,045
718,880; 2375,832;   -0,539;   -1,409
719,452; 2504,308;   -0,175;   -1,591
720,024; 2468,240;    0,734;   -0,591
720,595; 2479,444;   -2,902;    0,955
721,167; 2372,921;    0,370;   -2,045
721,738; 2343,943;   -0,812;   -1,045
722,309; 2404,510;   -0,993;   -1,227
722,881; 2246,624;   -1,357;    0,773
723,452; 2445,010;   -2,630;    2,864
724,023; 2495,486;   -0,721;    2,682
724,595; 2532,236;    0,007;    0,682
725,166; 2317,349;    0,007;   -0,409
725,737; 2469,098;    1,734;    0,227
726,308; 2389,939;   -0,266;    0,318
726,879; 2330,052;   -1,630;    1,227
727,450; 2454,983;    0,552;   -0,045
728,021; 2327,097;    3,097;    0,682
728,592; 2487,301;    0,734;    0,500
729,163; 2627,868;    0,643;   -0,136
729,734; 2616,254;    0,188;   -0,227
730,305; 2497,549;    1,734;    0,136
730,876; 2459,208;    0,188;    2,955
731,447; 2763,685;    2,188;    2,682
732,017; 2654,343;    1,097;    1,864
732,588; 2538,820;    0,734;    1,227
733,159; 2680,024;    0,643;   -1,045
733,729; 2413,228;    0,006;    0,409
734,300; 2450,068;    0,915;    0,864
734,870; 2414,545;    3,461;    0,591
735,441; 2454,840;    0,370;   -0,591
736,011; 2340,499;    0,643;   -1,591
736,582; 2375,976;   -0,812;    0,045
737,152; 2329,180;   -1,721;   -2,045
737,722; 2428,475;   -0,267;   -0,682
738,293; 2260,406;   -1,358;    1,318
738,863; 2406,065;    2,461;    2,318
739,433; 2638,178;    5,279;    0,318
740,003; 2541,200;   -0,994;   -0,682
740,573; 2561,859;    2,097;   -1,591
741,143; 2509,699;   -1,085;    0,318
741,713; 2494,721;    1,188;   -0,500
742,283; 2463,289;    0,915;    1,591
742,853; 2377,584;    1,915;    1,591
743,423; 2187,788;    1,733;    0,045
743,993; 2281,901;   -0,358;    1,500
744,563; 2150,196;    0,097;   -0,864
745,133; 2183,127;   -0,812;   -0,864
745,702; 2301,968;   -0,267;    1,773
746,272; 2316,445;   -0,176;    0,591
746,842; 2313,649;   -1,358;   -0,591
747,411; 2247,035;   -0,267;   -0,318
747,981; 2174,057;    0,097;    0,500
748,551; 2219,806;    2,278;   -1,045
749,120; 2292,556;    0,642;   -0,227
749,690; 2312,305;   -0,631;    2,409
750,259; 2450,328;    1,369;    2,955
750,828; 2458,077;    1,551;   -1,955
751,398; 2334,645;    1,278;   -0,045
751,967; 2650,213;    2,187;    0,409
752,536; 2418,507;   -0,813;   -0,227
753,105; 2562,530;    0,096;    0,227
753,675; 2354,461;    0,096;    1,773
754,244; 2354,847;   -0,904;    3,591
754,813; 2380,869;    0,551;    1,227
755,382; 2288,073;    0,460;    0,955
755,951; 2443,186;    1,551;    3,682
756,520; 2478,209;   -0,085;    1,864
757,089; 2722,413;    0,278;    0,500
757,658; 2439,617;    1,733;    1,227
758,227; 2345,730;    1,096;    0,318
758,795; 2419,843;    1,187;    1,136
759,364; 2553,865;   -0,086;   -0,591
759,933; 2254,251;   -1,176;   -0,045
760,501; 2213,092;    0,733;   -1,318
761,070; 2353,205;   -2,813;   -1,409
761,639; 2620,136;   -1,904;    1,318
762,207; 2427,067;    1,551;   -0,955
762,776; 2481,181;    0,369;    0,864
763,344; 2356,748;   -0,995;    0,591
763,913; 1985,952;   -0,722;    1,409
764,481; 2629,793;    1,005;   -0,136
765,049; 2562,906;   -1,358;    1,409
765,618; 2440,655;   -0,086;    0,318
766,186; 2375,769;    0,278;    0,136
766,754; 2394,882;    0,005;    1,864
767,322; 2085,086;   -1,995;    0,409
767,890; 2047,563;   -0,722;   -1,773
768,459; 2241,585;   -2,177;   -0,318
769,027; 2446,425;    1,641;    3,409
769,595; 2168,993;    3,278;    2,591
770,163; 2205,924;    3,823;    2,955
770,730; 2207,947;    0,732;   -0,136
771,298; 2171,696;    0,187;   -1,409
771,866; 2178,718;   -1,541;    4,955
772,434; 2207,741;   -0,631;   -1,864
773,002; 2469,217;    0,005;    0,682
773,569; 2328,058;    0,914;    1,682
774,137; 2398,080;   -0,268;   -0,045
774,705; 2383,466;    0,278;   -0,136
775,272; 2199,852;    0,641;    0,682
775,840; 2318,965;   -0,177;    2,682
776,407; 2278,351;    0,277;    1,955
776,975; 2043,464;   -0,632;    0,318
777,542; 2207,577;   -1,086;   -0,045
778,110; 2197,054;   -1,268;   -0,045
778,677; 2075,985;   -2,359;   -0,864
779,244; 2109,007;    2,186;    1,045
779,812; 2253,211;    1,823;    0,864
780,379; 2279,052;    0,005;    1,136
780,946; 2188,165;    1,005;   -0,773
781,513; 2203,096;   -1,450;    0,318
782,080; 2051,664;   -0,086;    2,864
782,647; 2174,959;   -0,268;    3,045
783,214; 2084,163;   -0,177;    3,864
783,781; 2215,004;   -0,723;   -0,682
784,348; 2201,571;   -0,632;    1,500
784,915; 2064,593;   -3,177;    0,318
785,482; 2211,525;    1,368;    2,591
786,049; 2296,183;    0,186;   -0,591
786,615; 2231,933;    0,277;   -0,955
787,182; 2122,228;    0,186;   -0,682
787,749; 2095,341;   -2,814;    1,409
788,315; 2099,727;   -1,632;   -0,409
788,882; 2141,022;    1,550;   -1,227
789,448; 2431,681;    1,732;   -0,955
790,015; 2248,521;    1,095;    3,227
790,581; 2336,089;    1,459;    0,227
791,148; 2122,838;    0,641;    1,045
791,714; 2104,497;   -0,541;    3,136
792,280; 2082,064;    0,186;    1,591
792,847; 2015,359;    0,550;    2,500
793,413; 2107,836;   -0,269;   -0,318
793,979; 2168,949;    3,459;   -1,318
794,545; 2503,426;    4,459;    2,682
795,111; 2290,721;    2,186;    1,318
795,678; 2163,471;    0,731;   -1,682
796,244; 2341,220;    3,368;    0,136
796,810; 2296,879;    1,731;    0,773
797,375; 2266,628;    0,549;   -2,136
797,941; 1898,105;   -0,541;    0,591
798,507; 1881,036;   -0,451;   -0,955
799,073; 1882,604;   -0,360;    0,591
799,639; 1979,808;   -2,632;    3,136
800,205; 1905,103;    0,095;    2,682
800,770; 1857,853;    0,640;    1,773
801,336; 1818,239;    1,368;   -0,955
801,901; 2436,715;    4,549;    3,136
802,467; 2175,283;   -0,542;    2,045
803,033; 1839,305;   -0,087;    0,864
803,598; 1855,146;    1,913;   -1,045
804,163; 1917,895;    1,095;   -0,318
804,729; 2010,827;   -0,178;    1,136
805,294; 1936,849;    0,822;    2,227
805,859; 1800,780;    0,731;   -0,409
806,425; 2179,621;    1,186;    2,682
806,990; 2150,279;    2,186;    4,318
807,555; 1971,029;   -1,451;    2,591
808,120; 2122,960;    0,822;   -0,409
808,685; 1868,891;    0,185;   -2,500
809,250; 1702,914;    0,004;   -0,500
809,815; 1788,663;    1,913;    0,682
810,380; 2003,685;   -0,269;    1,591
810,945; 2149,798;   -1,087;    2,045
811,510; 1979,730;    2,094;    1,591
812,075; 1894,570;   -0,633;   -1,409
812,640; 2166,320;    2,003;    1,409
813,204; 2000,342;    0,822;   -0,227
813,769; 2202,001;    2,094;   -0,045
814,334; 2125,023;    0,458;    0,864
814,898; 1889,772;    0,367;    0,591
815,463; 1909,704;    1,276;   -0,773
816,027; 1844,544;   -0,724;   -2,318
816,592; 1860,748;    0,640;   -2,045
817,156; 1886,407;    2,094;    1,136
817,721; 1957,974;    4,276;    2,318
818,285; 1764,633;    2,912;    1,500
818,849; 1888,201;   -1,451;    1,682
819,414; 1771,405;   -0,269;    2,955
819,978; 1700,518;   -1,269;    1,773
820,542; 2116,449;    2,003;    0,500
821,106; 1946,926;   -0,815;    0,682
821,670; 2093,312;   -0,815;    2,591
822,234; 1867,971;   -0,270;    1,409
822,798; 1711,084;    0,003;    0,500
823,362; 2023,015;   -0,633;    4,227
823,926; 1745,037;    0,094;    1,136
824,490; 1947,969;   -0,997;   -0,682
825,054; 1870,536;   -0,088;   -1,136
825,618; 1700,104;   -1,542;   -1,500
826,181; 1724,944;    0,458;   -1,318
826,745; 1790,785;    1,367;   -1,045
827,309; 2082,262;    1,185;    1,318
827,872; 1935,011;    1,367;    0,955
828,436; 1913,670;    1,185;   -0,773
828,999; 1863,783;   -0,997;    1,227
829,563; 1785,805;   -0,179;    1,136
830,126; 1726,373;   -0,179;   -0,591
830,690; 1729,486;   -1,997;    2,864
831,253; 1617,690;   -0,543;    2,227
831,816; 1681,440;   -1,906;    0,500
832,380; 1593,007;    0,185;    0,864
832,943; 1627,575;   -1,361;   -0,500
833,506; 1635,415;    2,639;   -1,227
834,069; 1875,892;    3,912;   -0,955
834,632; 1780,733;    1,730;    1,318
835,195; 1769,937;    1,003;    0,955
835,758; 1650,232;   -0,997;    1,955
836,321; 1584,890;    0,730;   -1,045
836,884; 1595,458;   -0,725;   -0,955
837,447; 1601,571;   -2,816;    1,773
838,010; 1734,048;    0,366;    3,227
838,573; 1811,979;   -1,179;    0,773
839,135; 1727,456;   -1,361;   -0,955
839,698; 1645,296;    1,275;    0,409
840,261; 1585,682;    1,003;   -0,227
840,823; 1541,977;   -0,543;    0,864
841,386; 1539,454;   -0,452;   -2,409
841,948; 1891,749;   -1,361;    1,773
842,511; 1578,680;    0,912;    1,682
843,073; 1859,794;    1,912;    0,227
843,636; 1600,725;   -0,361;   -0,227
844,198; 1802,383;    0,911;    0,591
844,760; 1769,860;    1,093;    1,955
845,322; 1520,701;    0,548;    1,136
845,885; 1674,632;    0,730;    0,591
846,447; 1675,109;   -1,998;    0,227
847,009; 1985,495;    1,911;   -0,682
847,571; 1678,790;    0,820;   -2,045
848,133; 1651,448;   -1,089;   -1,864
848,695; 1518,743;   -0,543;    1,409
849,257; 1558,038;   -1,089;   -1,682
849,819; 1733,515;   -0,998;   -0,409
850,381; 1590,355;   -0,725;   -0,864
850,942; 1668,469;    1,093;   -0,591
851,504; 1691,491;    1,184;    0,227
852,066; 1617,240;    1,275;   -1,591
852,628; 1626,263;   -0,180;    1,955
853,189; 1441,739;    1,638;    2,682
853,751; 1515,398;   -0,907;    1,409
854,312; 1677,602;   -0,453;   -1,682
854,874; 1842,624;   -2,089;   -0,773
855,435; 1661,737;   -0,907;   -1,682
855,997; 1783,305;   -1,816;   -0,136
856,558; 1776,146;    0,366;    1,773
857,119; 1634,713;    0,820;    2,864
857,681; 1485,735;    0,002;    0,318
858,242; 1705,303;    1,911;   -2,136
858,803; 1795,962;    0,456;   -0,773
859,364; 1731,075;    0,184;   -4,773
859,925; 1744,552;   -2,453;   -0,955
860,486; 1642,301;   -0,453;   -0,955
861,047; 1513,505;   -0,544;   -1,227
861,608; 1545,800;   -1,089;   -0,773
862,169; 1474,641;    0,638;   -0,045
862,730; 1531,027;    0,456;    1,409
863,291; 1592,412;   -0,635;   -0,500
863,852; 1595,616;   -0,635;    1,955
864,412; 1516,911;   -0,271;   -0,864
864,973; 1673,206;   -0,089;    0,500
865,534; 1850,229;   -1,726;    0,227
866,094; 1682,342;    1,820;    0,227
866,655; 1765,910;    1,274;    3,318
867,215; 1642,023;    0,274;    0,136
867,776; 1524,318;    0,547;   -0,136
868,336; 1572,067;   -1,453;    0,136
868,897; 1957,271;    2,638;    1,682
869,457; 1721,112;    1,365;    0,318
870,017; 1558,679;    0,547;   -1,227
870,578; 1584,883;   -0,817;    0,773
871,138; 1530,724;   -2,089;   -0,955
871,698; 1418,928;   -0,817;   -1,318
872,258; 1539,677;   -0,453;   -2,864
872,818; 1784,972;    2,729;    0,045
873,378; 1584,995;    0,638;    1,045
873,938; 1513,290;    0,547;    0,500
874,498; 1427,675;    0,274;   -1,955
875,058; 1479,789;    2,183;    1,773
875,618; 1477,811;    1,910;   -2,682
876,177; 1514,197;    1,274;    0,136
876,737; 1287,401;   -0,090;    1,955
877,297; 1744,241;    0,183;    1,955
877,856; 1655,718;   -0,362;    0,318
878,416; 1394,831;    1,183;   -0,136
878,976; 1390,126;   -1,817;    0,409
879,535; 1458,239;    0,092;    3,136
880,095; 1434,171;   -0,544;    0,045
880,654; 1319,647;   -1,090;    1,318
881,213; 1673,033;    2,456;    1,500
881,773; 1469,419;    2,637;    2,682
882,332; 2103,260;    3,365;    5,136
882,891; 1512,645;    3,092;    2,136
883,451; 1538,577;   -1,272;    1,682
884,010; 1407,508;   -2,908;   -0,409
884,569; 1380,167;   -0,999;   -0,045
885,128; 1611,007;    2,819;   -1,864
885,687; 1914,757;    4,455;    0,682
886,246; 2085,688;    1,455;    2,136
886,805; 1758,801;    2,455;    2,045
887,364; 1428,460;   -0,999;   -0,500
887,922; 1365,937;   -1,181;    0,045
888,481; 1506,777;   -1,545;    0,591
889,040; 1679,526;    1,183;    2,136
889,599; 1546,458;    2,455;    1,409
890,157; 1537,844;    1,455;    2,409
890,716; 1454,139;   -0,090;    0,227
891,274; 1547,797;    0,092;   -1,136
891,833; 1650,365;    1,546;    0,864
892,391; 1446,933;   -0,454;    0,500
892,950; 1648,591;    1,819;   -0,773
893,508; 1457,250;    0,455;   -0,409
894,067; 1298,636;    0,637;    0,136
894,625; 1415,294;   -0,636;   -1,500
895,183; 1387,317;   -0,363;   -0,682
895,741; 1713,884;    1,728;   -1,773
896,299; 1466,725;   -0,545;   -2,409
896,858; 1373,929;    0,819;   -1,591
897,416; 1521,951;    2,728;   -1,318
897,974; 1455,337;    1,819;    0,318
898,532; 1965,359;    6,091;    2,682
899,089; 1587,745;    2,091;   -0,682
899,647; 1469,676;   -1,454;    1,318
900,205; 1520,517;    1,182;    1,045
900,763; 1527,903;   -0,454;    0,227
901,321; 1491,289;    2,364;   -1,409
901,878; 1265,674;   -1,000;   -0,773
902,436; 1323,515;   -1,363;    1,318
902,994; 2170,810;    4,728;    3,682
903,551; 1643,650;    0,728;    0,409
904,109; 1528,036;    0,182;   -1,409
904,666; 1459,695;    2,455;    1,045
905,224; 1321,899;    0,182;   -0,409
905,781; 1471,830;    0,727;   -0,318
906,338; 1408,852;   -1,363;    1,045
906,895; 1273,966;    0,637;    2,045
907,453; 1566,897;    1,727;    1,136
908,010; 1420,192;   -0,909;    0,409
908,567; 1349,396;    1,273;    0,591
909,124; 1140,418;    0,364;   -1,500
909,681; 1199,895;   -2,909;    0,682
910,238; 1287,644;    0,636;   -1,318
910,795; 1289,758;   -0,273;   -1,136
911,352; 1264,394;   -2,909;   -2,682
911,909; 1252,303;   -1,364;   -0,864
912,466; 1313,030;   -3,182;    1,500
913,022; 1314,212;   -1,636;    0,500
913,579; 1441,576;   -0,909;    2,045
914,136; 1298,848;    1,636;    0,955
914,692; 1372,303;    0,091;   -1,227
915,249; 1287,758;    1,455;    0,409
915,806; 1386,758;    0,182;    1,955
916,362; 1296,212;    1,909;    1,864
916,918; 1186,576;    2,000;    1,045
917,475; 1420,394;   -1,182;    0,955
918,031; 1204,212;    3,364;   -0,045
918,587; 1271,848;   -0,909;   -0,318
919,144; 1192,758;   -2,273;    0,227
919,700; 1150,667;    1,727;    0,773
920,256; 1114,485;    0,727;    0,045
920,812; 1145,758;   -0,727;   -1,045
921,368; 1114,939;   -1,727;   -1,045
921,924; 1074,394;    0,182;   -0,136
922,480; 1176,758;   -0,545;    1,227
923,036; 1233,030;    1,273;    1,955
923,592; 1120,030;    0,455;    0,318
924,148; 1153,121;    0,455;   -0,955
924,704; 1289,848;   -1,364;   -0,409
925,259; 1142,485;   -0,273;    0,591
925,815; 1075,485;    1,455;    0,500
926,371; 1031,939;    2,909;    1,409
926,926; 1192,394;    2,091;    0,591
927,482; 1149,576;   -1,364;    0,773
928,037; 1080,212;    0,909;    2,045
928,593; 1296,394;    1,636;    1,045
929,148; 1028,303;   -1,818;   -1,500
929,704; 1092,848;   -1,455;   -0,500
930,259;  970,394;    0,091;   -0,136
930,814; 1187,121;   -0,818;    1,955
931,369; 1097,121;    1,091;   -0,773
931,925;  881,303;   -0,091;    0,136
932,480;  993,939;   -2,818;   -2,591
933,035; 1395,576;    0,545;   -0,318
933,590; 1251,576;    0,364;   -1,773
934,145;  823,030;   -1,364;   -0,318
934,700;  725,212;    0,455;   -0,591
935,255;  816,303;   -0,091;    0,045
935,809; 1158,485;    3,182;    0,864
936,364;  738,939;   -0,455;   -0,136
936,919;  757,758;    0,455;   -1,773
937,474;  665,758;    1,455;    0,136
938,028;  698,030;   -1,636;    1,136
938,583; 1111,303;    1,818;    4,682
939,138;  744,303;    2,091;    2,136
939,692;  590,121;    1,636;   -1,136
940,247;  633,394;   -0,727;   -1,045
940,801;  704,212;   -0,636;    0,227
941,355;  599,212;   -0,364;    2,591
941,910;  477,576;   -0,273;   -2,136
942,464;  528,848;   -0,818;   -0,318
943,018;  801,667;    1,000;   -0,227
943,572;  604,485;    2,545;   -0,682
944,126;  661,939;    0,091;   -0,409
944,681;  529,758;    3,091;    0,227
945,235;  464,394;    1,000;   -0,591
945,789;  415,394;    0,364;   -1,864
946,342;  750,939;    0,455;   -0,591
946,896;  483,212;   -2,273;    0,955
947,450;  449,667;    1,545;   -0,227
948,004;  718,303;    1,727;   -0,045
948,558;  508,303;    0,273;   -0,864
949,111;  511,485;   -0,273;   -0,318
949,665;  731,758;    1,636;   -0,682
950,219;  672,394;   -0,091;   -1,045
950,772;  592,303;   -1,909;    1,864
951,326;  587,758;    0,545;   -0,955
951,879;  500,121;    0,727;   -2,318
952,433;  654,303;    0,000;    2,227
952,986;  463,576;    2,909;    0,682
953,539;  409,303;   -0,273;    0,591
954,093;  353,576;    0,545;   -1,318
954,646;  520,121;    0,909;    1,318
955,199;  438,667;    0,000;   -0,500
955,752;  650,667;   -0,455;    1,773
956,305;  492,121;   -0,091;    2,955
956,858;  544,485;    0,818;   -0,318
957,411;  617,485;   -0,545;    2,136
957,964;  506,576;    1,364;    2,136
958,517;  418,121;   -1,545;    3,136
959,070;  370,212;   -0,455;    1,955
959,623;  676,848;    1,091;    1,500
960,176;  617,394;    1,727;    2,045
960,728;  584,576;   -2,727;    0,773
961,281;  522,121;    0,545;    0,500
961,834;  428,758;   -0,909;    0,864
962,386;  435,939;    1,727;    1,045
962,939;  397,758;    0,364;   -0,318
963,491;  451,667;    0,455;    1,136
964,043;  384,939;    1,182;    2,409
964,596;  575,576;   -1,000;    2,227
965,148;  477,758;   -1,000;    1,773
965,700;  380,848;    1,091;   -0,227
966,253;  551,667;   -0,636;    0,318
966,805;  510,394;   -2,273;    0,773
967,357;  428,667;    1,091;   -1,500
967,909;  562,394;    0,455;   -1,227
968,461;  424,576;    0,545;    3,136
969,013;  371,394;   -0,182;   -0,864
969,565;  541,576;   -0,455;   -1,136
970,117;  802,485;   -0,364;    1,045
970,669;  537,848;    0,182;   -0,136
971,220;  323,576;   -0,455;   -1,500
971,772;  419,485;   -0,636;   -0,318
972,324;  525,576;    0,091;   -0,500
972,876;  433,485;    0,818;   -0,045
973,427;  561,121;    1,909;   -1,045
973,979;  623,939;   -0,727;   -2,500
974,530;  402,848;    1,818;    1,318
975,082;  478,939;   -0,545;    1,682
975,633;  427,212;    1,091;    1,682
976,184;  488,303;    0,909;    0,773
976,736;  484,939;    0,091;    0,227
977,287;  494,212;   -0,909;   -0,500
977,838;  452,848;    0,909;   -0,318
978,389;  460,030;   -1,000;   -0,500
978,940;  316,485;    0,545;   -0,409
979,491;  309,848;    0,091;   -0,500
980,042;  416,212;    0,182;    3,045
980,593;  422,667;   -2,545;    0,227
981,144;  530,667;    2,545;   -0,500
981,695;  575,121;    1,455;    1,500
982,246;  516,485;   -0,273;    1,045
982,797;  364,394;   -1,727;    0,682
983,347;  528,485;    0,364;    0,591
983,898;  738,576;    3,091;    0,409
984,449;  693,758;    2,182;    0,773
984,999;  516,667;    1,455;   -1,136
985,550;  476,576;    0,182;   -0,318
986,100;  327,030;   -0,455;   -0,318
986,651;  314,576;   -0,818;    0,045
987,201;  356,121;   -1,000;   -0,591
987,751;  374,030;    0,818;    2,864
988,302;  424,667;    2,636;    1,500
988,852;  466,303;    0,455;   -1,136
989,402;  543,485;    0,091;    0,682
989,952;  563,667;   -2,182;    0,864
990,502;  400,212;   -0,091;    0,682
991,052;  291,394;   -0,727;    0,045
991,602;  346,758;   -2,909;    1,318
992,152;  410,485;    0,455;    0,682
992,702;  438,394;    1,364;   -0,045
993,252;  383,030;   -3,000;   -0,500
993,802;  484,303;   -0,273;    1,318
994,352;  436,758;   -1,545;    1,136
994,901;  339,758;   -0,182;    3,227
995,451;  325,939;   -0,182;    0,318
996,000;  368,939;    1,636;    0,318
996,550;  376,848;    2,273;    0,227
997,100;  415,394;    1,273;   -0,045
997,649;  568,303;    2,182;    0,955
998,198;  370,121;    1,727;   -1,500
998,748;  500,939;    1,091;   -2,318
999,297;  424,667;   -0,818;   -0,409
999,846;  560,939;    1,000;   -0,773
1000,395;  468,303;   -0,818;    0,500
1000,945;  593,485;    1,818;   -0,773
1001,494;  589,030;    2,364;    0,682
1002,043;  566,758;    4,636;    0,864
1002,592;  364,121;   -1,091;    1,955
1003,141;  371,212;   -0,455;   -0,682
1003,690;  541,848;    1,727;    0,500
1004,238;  405,121;    1,455;   -0,045
1004,787;  320,303;    1,364;    1,227
1005,336;  514,485;    0,364;    0,682
1005,885;  455,848;    1,364;   -2,773
1006,433;  448,485;    0,545;    0,955
1006,982;  659,758;    0,455;    1,682
1007,531;  491,303;   -1,818;   -0,227
1008,079;  430,939;   -2,273;    0,500
1008,627;  367,303;   -1,455;    0,409
1009,176;  390,848;    0,000;   -1,955
1009,724;  342,758;    1,091;    0,864
1010,273;  508,758;    1,273;    0,500
1010,821;  378,848;    0,091;    1,409
1011,369;  341,758;   -1,364;    1,318
1011,917;  368,667;   -1,364;   -0,591
1012,465;  454,030;    1,273;   -1,591
1013,013;  436,303;    2,091;   -1,682
1013,561;  556,758;    0,455;   -0,773
1014,109;  649,758;   -1,909;    1,682
1014,657;  515,030;    0,364;    0,591
1015,205;  396,121;    1,636;   -0,955
1015,753;  337,212;   -0,545;   -1,409
1016,301;  425,121;   -2,636;    3,045
1016,848;  508,030;   -1,273;    0,409
1017,396;  506,394;    2,545;    0,045
1017,944;  496,939;    1,182;    1,864
1018,491;  398,667;    0,273;    1,409
1019,039;  734,121;    0,455;    0,591
1019,586;  469,576;   -1,364;    1,682
1020,134;  459,576;    0,455;    1,500
1020,681;  537,939;    0,182;   -1,136
1021,228;  441,939;    2,909;   -2,227
1021,776;  419,848;    1,182;   -1,136
1022,323;  651,303;    0,455;    0,773
1022,870;  557,485;   -1,000;   -0,045
1023,417;  612,848;    2,636;    1,864
1023,964;  424,394;    2,636;    1,227
1024,511;  408,303;    1,000;    0,773
1025,058;  432,758;    3,182;   -0,045
1025,605;  394,394;   -2,273;    3,136
1026,152;  623,576;    1,727;   -0,591
1026,699;  469,667;    1,818;    1,318
1027,245;  446,939;   -0,091;    0,318
1027,792;  376,848;   -1,000;    1,409
1028,339;  613,030;    2,364;   -0,045
1028,885;  462,394;    1,000;   -0,227
1029,432;  412,667;   -0,091;    0,227
1029,978;  533,576;   -1,000;   -1,591
1030,525;  519,121;    1,000;    0,409
1031,071;  387,758;   -1,364;    1,136
1031,618;  687,667;    0,364;    1,682
1032,164;  507,758;   -0,091;    3,045
1032,710;  549,394;    1,636;   -1,500
1033,256;  513,667;   -0,636;   -0,136
1033,803;  357,758;   -0,545;    1,500
1034,349;  215,758;   -1,364;    0,136
1034,895;  269,212;    0,000;   -0,318
1035,441;  348,667;   -0,818;    0,318
1035,987;  409,667;   -2,364;   -0,682
1036,533;  478,848;   -1,455;   -0,955
1037,078;  685,848;    1,455;    1,682
1037,624;  527,121;    2,455;   -0,955
1038,170;  391,394;    0,455;   -0,318
1038,716;  483,030;    1,636;   -0,409
1039,261;  348,121;   -2,273;   -0,773
1039,807;  370,030;   -0,091;    3,409
1040,352;  400,667;   -1,909;   -0,318
1040,898;  395,394;   -1,545;   -0,682
1041,443;  310,121;   -1,455;   -2,591
1041,989;  629,576;    1,091;    1,591
1042,534;  407,667;   -0,364;    2,591
1043,079;  295,667;    2,909;    0,955
1043,625;  419,485;    1,818;    0,500
1044,170;  438,212;   -1,364;    1,045
1044,715;  635,485;    2,455;    0,955
1045,260;  519,939;    2,182;   -0,955
1045,805;  369,939;    1,182;   -0,591
1046,350;  331,212;    1,364;   -0,409
1046,895;  529,303;    2,909;    1,591
1047,440;  518,576;    5,364;    0,409
1047,985;  384,303;    2,818;   -0,955
1048,530;  349,758;    1,545;    1,227
1049,074;  412,667;    0,000;    0,318
1049,619;  342,212;   -1,364;    1,955
1050,164;  328,212;    0,455;    0,227
1050,708;  419,212;   -0,455;    0,045
1051,253;  681,667;    1,273;   -2,227
1051,797;  465,576;    0,818;   -1,318
1052,342;  293,030;   -1,182;    1,045
1052,886;  401,030;    0,364;   -1,409
1053,430;  274,758;   -1,364;    0,136
1053,975;  372,939;   -0,818;   -0,318
1054,519;  390,758;   -0,727;    3,227
1055,063;  455,030;    0,909;    1,318
1055,607;  438,758;   -0,182;    0,227
1056,151;  434,030;    2,909;    1,682
1056,695;  337,848;    2,273;   -1,136
1057,239;  332,848;   -1,727;   -0,682
1057,783;  382,576;    0,818;   -1,500
1058,327;  451,212;    0,000;    1,409
1058,871;  605,212;   -0,545;    1,318
1059,415;  470,667;   -0,818;   -0,045
1059,958;  630,121;    1,455;    2,591
1060,502;  386,485;   -1,000;   -0,773
1061,046;  276,848;    0,364;   -0,955
1061,589;  259,576;   -3,000;   -1,136
1062,133;  230,212;   -1,273;    1,864
1062,676;  278,667;    1,182;    0,864
1063,220;  319,121;    1,091;    0,500
1063,763;  349,667;    0,909;    1,136
1064,306;  376,939;   -0,909;    1,864
1064,849;  363,758;   -0,909;    0,591
1065,393;  339,848;    2,000;   -1,500
1065,936;  352,212;    0,182;   -0,409
1066,479;  264,394;   -1,455;    1,318
1067,022;  288,667;   -0,273;   -0,227
1067,565;  264,212;   -0,091;   -1,318
1068,108;  235,485;    0,727;   -0,591
1068,651;  204,030;   -0,636;    1,409
1069,194;  220,212;   -0,455;   -1,682
1069,736;  241,485;   -1,273;    0,955
1070,279;  208,848;   -1,364;   -0,500
1070,822;  309,848;   -2,000;   -0,318
1071,364;  440,576;   -0,364;    1,318
1071,907;  287,939;   -0,727;    3,227
1072,450;  132,394;    0,000;   -0,045
1072,992;  215,030;   -0,273;    3,136
1073,535;  307,212;    2,091;    2,136
1074,077;  208,303;   -0,727;    2,045
1074,619;  213,848;   -1,364;    0,591
1075,161;  240,576;   -1,091;    1,500
1075,704;  369,121;    1,545;    1,227
1076,246;  223,576;   -0,182;    0,682
1076,788;  158,848;   -0,364;    1,773
1077,330;  159,485;    1,273;    2,136
1077,872;  210,212;    0,909;    0,955
1078,414;  384,667;    2,727;    0,773
1078,956;  235,030;    1,273;   -0,227
1079,498;  384,667;    1,636;    0,318
1080,040;  244,303;    1,909;   -1,318
1080,581;  203,848;    1,636;   -0,318
1081,123;  140,758;    0,091;   -0,773
1081,665;  149,758;   -1,182;   -0,955
1082,206;  349,394;    1,364;   -0,500
1082,748;  262,848;    0,727;    2,045
1083,289;  166,394;   -2,000;    1,318
1083,831;  162,212;   -0,545;    0,227
1084,372;  211,758;    0,000;    0,591
1084,913;  203,212;    1,091;    0,864
1085,455;  150,121;   -1,909;   -2,045
1085,996;  154,758;   -2,273;    0,136
1086,537;  188,303;   -0,091;    0,864
1087,078;  198,848;   -0,909;   -2,136
1087,619;  249,030;   -1,273;    0,227
1088,160;  206,939;    0,000;    1,318
1088,701;  188,758;   -1,091;    0,682
1089,242;  161,485;    1,364;   -2,227
1089,783;  218,667;   -0,273;    1,409
1090,324;  195,848;    0,455;    0,682
1090,865;  138,121;    2,727;   -0,409
1091,405;  108,848;    0,727;    2,227
1091,946;  150,848;    0,182;   -0,955
1092,487;  107,394;    0,818;   -1,409
1093,027;  224,212;   -1,364;   -1,500
1093,568;  152,394;   -0,364;    1,227
1094,108;  194,212;    0,273;    1,773
1094,649;  158,485;   -1,182;    0,136
1095,189;  123,848;   -0,636;   -0,682
1095,729;  120,667;   -0,091;    0,955
1096,269;  109,939;    0,727;   -0,955
1096,810;  279,667;   -1,364;    0,500
1097,350;  211,576;    1,364;   -0,773
1097,890;  164,212;    0,364;    1,227
1098,430;  333,848;    2,364;    2,864
1098,970;  259,939;    2,182;    1,682
1099,510;  143,030;    0,545;   -2,318
1100,050;  121,030;    1,000;   -1,591
1100,589;  134,030;   -0,727;   -0,318
1101,129;  183,394;    0,818;   -0,955
1101,669;  271,030;    1,727;    2,136
1102,209;  189,848;   -0,091;    2,227
1102,748;  157,030;    0,000;    0,955
1103,288;  162,939;    1,273;   -1,227
1103,827;  152,576;    3,091;   -2,227
1104,367;  116,121;   -0,091;   -2,409
1104,906;  111,758;    1,364;   -1,136
1105,445;  159,576;    0,636;   -1,136
1105,985;  136,121;   -0,727;    1,500
1106,524;  148,576;   -1,727;   -0,682
1107,063;  140,303;   -2,727;    1,409
1107,602;  103,667;   -1,909;   -1,500
1108,141;   93,212;   -1,909;    1,500
1108,680;  164,758;   -3,455;   -0,591
1109,219;  133,303;   -0,909;   -0,500
1109,758;  119,576;    0,455;    0,682
1110,297;  116,121;    1,000;   -0,682
1110,836;   89,394;   -0,727;    0,955
1111,375;  137,667;   -2,545;    0,409
1111,913;  168,758;   -1,000;    0,773
1112,452;  132,394;   -0,273;    0,136
1112,991;   82,485;    1,091;    1,955
1113,529;   82,576;   -0,818;   -0,045
1114,068;  112,758;   -0,273;    2,955
1114,606;   81,212;   -0,364;   -0,955
1115,144;  147,121;   -1,273;    1,045
1115,683;  117,848;   -0,727;    0,318
1116,221;  153,394;   -0,455;   -0,864
1116,759;  102,576;    0,636;   -0,864
1117,297;  184,030;    0,000;    1,864
1117,836;  104,667;   -2,182;   -1,227
1118,374;  107,576;    0,182;   -0,682
1118,912;  104,485;    0,909;    2,682
1119,450;  101,303;    1,000;    0,864
1119,988;  102,303;    1,545;    2,136
1120,525;  376,485;    5,091;    3,318
1121,063;  197,121;    1,182;    1,864
1121,601;  101,939;   -0,909;   -1,227
1122,139;   82,758;   -0,727;   -2,045
1122,676;  190,576;   -0,727;    2,773
1123,214;  161,394;   -1,182;    4,409
1123,751;   77,939;    1,727;    2,227
1124,289;  118,939;   -0,091;   -0,409
1124,826;   87,121;    1,727;    0,227
1125,364;   44,485;    1,727;   -0,955
1125,901;  154,485;    1,182;    1,227
1126,438;  164,212;    0,818;    0,955
1126,975;   50,758;   -0,727;   -0,773
1127,513;   78,576;    0,273;    2,136
1128,050;   53,576;    1,636;   -0,682
1128,587;   87,758;    2,000;   -0,227
1129,124;  113,394;    0,091;    1,318
1129,661;   58,030;    0,273;    0,227
1130,198;  136,121;    1,636;    0,773
1130,734;   95,848;    0,182;    1,409
1131,271;   51,848;   -0,909;    0,864
1131,808;  117,030;    2,909;    3,045
1132,345;   67,758;    1,545;    0,318
1132,881;   26,485;   -1,545;   -1,864
1133,418;   82,667;    0,727;   -1,136
1133,954;   53,939;    2,455;   -2,682
1134,491;   86,394;    1,364;   -0,773
1135,027;   48,576;    2,364;    0,864
1135,564;   86,394;    0,273;    2,955
1136,100;   77,758;    0,364;    2,136
1136,636;   40,121;   -1,273;   -1,045
1137,172;   63,848;    0,000;   -1,045
1137,708;   43,576;   -1,364;   -1,045
1138,245;   39,030;    1,273;   -1,227
1138,781;   29,394;    1,091;   -3,318
1139,317;   52,485;    1,273;   -1,409
1139,852;   58,576;    3,091;    0,136
1140,388;   90,212;   -1,182;   -0,409
1140,924;   53,394;   -1,091;   -2,227
1141,460;   30,303;   -1,636;    0,136
1141,996;   15,848;   -1,364;    2,682
1142,531;   30,212;    1,364;    3,318
1143,067;  113,667;    1,182;    1,045
1143,602;  137,394;   -0,091;   -0,318
1144,138;   70,030;   -2,636;    1,045
1144,673;   32,303;   -1,455;    1,409
1145,209;   48,485;   -1,909;   -0,318
1145,744;   26,121;   -0,727;    0,864
1146,279;   67,485;    1,818;   -0,136
1146,815;   41,848;    1,545;   -2,682
1147,350;   58,303;   -1,364;    0,045
1147,885;   27,303;   -0,818;   -1,318
1148,420;   27,576;   -2,273;    0,773
1148,955;   27,030;   -1,727;    1,864
1149,490;   29,394;   -0,909;   -1,591
1150,025;   26,939;    0,455;   -1,773
1150,560;   66,394;    1,091;   -0,955
1151,094;   50,758;    1,455;   -0,591
1151,629;   49,394;    1,636;    0,864
1152,164;   34,939;    1,364;    1,318
1152,698;   22,576;   -0,182;   -0,136
1153,233;   11,212;    0,091;   -0,682
1153,767;   22,394;   -3,000;   -2,318
1154,302;   34,576;   -1,455;    1,773
1154,836;   37,485;   -0,455;   -2,136
1155,371;   43,212;   -1,364;    3,682
1155,905;   31,576;   -0,636;    1,682
1156,439;   33,030;   -0,636;   -0,500
1156,973;   37,212;    0,364;    0,318
1157,507;   24,485;   -0,364;    0,682
1158,042;   30,667;   -0,727;    1,045
1158,576;   42,303;    0,182;    1,773
1159,110;   37,303;   -0,818;    2,409
1159,643;   29,485;    0,636;   -0,045
1160,177;   14,667;   -1,545;    1,500

