
Integration time [ms]:   0,040
Averaging Nr. [scans]: 11
Smoothing Nr. [pixels]: 0
Data measured with spectrometer [name]: 7318044SP
Wave   ;Sample   ;Dark     ;Reference
[nm]   ;[counts] ;[counts] ;[counts] 

186,757;   40,235;   31,551;    1,318
187,357;   42,725;   22,551;    0,955
187,958;   33,030;   15,460;   -1,591
188,558;   49,671;    8,915;   -1,227
189,159;   31,115;    6,733;   -4,500
189,759;   14,285;    7,278;   -3,591
190,360;   15,264;    2,824;   -2,136
190,960;   28,228;    2,915;   -4,136
191,560;   35,451;    3,189;   -6,591
192,161;  151,461;    4,372;   -3,500
192,761;   82,301;    4,010;   -3,227
193,361;   53,590;    1,556;   -3,773
193,962;   76,660;    2,010;   -2,682
194,562;   35,483;    1,189;   -3,955
195,162;   34,883;   -2,448;   -2,227
195,762;  102,592;   -3,176;   -0,045
196,362;   74,244;    1,370;   -2,500
196,963;   25,580;    2,006;   -0,864
197,563;   56,953;    1,551;   -0,955
198,163;   27,630;    0,096;   -0,682
198,763;   33,301;    1,733;   -0,500
199,363;   68,324;    3,096;   -0,500
199,963;   46,427;    0,369;    0,409
200,563;   41,818;    2,823;   -1,409
201,163;   30,417;    3,277;   -0,227
201,763;   58,555;    3,732;    0,318
202,363;   38,995;    1,459;    1,500
202,963;   63,598;    1,459;    1,045
203,563;  110,049;    0,277;    0,500
204,162;   56,266;    2,096;   -1,864
204,762;   50,103;    0,550;    0,591
205,362;   34,494;    3,004;    1,955
205,962;   65,772;    3,096;    1,955
206,562;   59,417;    1,823;    2,318
207,161;   44,561;   -0,087;    0,318
207,761;  130,602;    1,277;    2,409
208,361;   60,284;   -0,268;    1,409
208,960;   89,833;    0,459;    1,500
209,560;   90,947;    1,277;    1,591
210,160;  106,187;    0,550;    1,864
210,759;   83,101;    4,186;    1,227
211,359;   71,899;    1,459;    1,045
211,958;  205,213;    1,277;    2,045
212,558;  224,524;    1,732;    1,864
213,157;  140,821;    1,822;    1,500
213,757;  338,588;    3,822;   -0,227
214,356;  184,813;    1,277;   -0,409
214,956;  334,916;    3,095;    0,409
215,555;  157,269;    2,095;    2,136
216,154;  117,181;   -2,723;   -0,591
216,754;  123,527;    0,277;    0,773
217,353;  165,247;   -0,268;   -1,045
217,952;   69,180;   -0,178;    0,318
218,552;  203,644;    1,368;   -0,773
219,151;  136,026;    0,277;    0,955
219,750;  128,473;    0,004;   -0,227
220,349;  107,685;   -0,451;    1,045
220,948;  225,991;   -1,360;    1,136
221,548;  146,227;    0,913;    1,227
222,147;  195,912;   -0,087;   -0,409
222,746;  352,874;   -0,451;   -0,955
223,345;  241,100;    0,731;    0,500
223,944;  246,746;   -0,451;    0,773
224,543;  280,358;    1,004;   -1,409
225,142;  304,093;    0,094;    0,136
225,741;  279,442;   -0,814;    1,045
226,340;  256,853;   -0,451;   -0,955
226,939;  424,622;   -0,996;   -0,136
227,538;  263,418;   -0,360;   -0,773
228,137;  436,912;   -0,814;    0,864
228,735;  374,994;   -0,541;    1,227
229,334;  241,885;   -0,905;   -0,227
229,933;  474,727;    0,459;    0,591
230,532;  518,075;    1,186;   -0,409
231,131;  595,188;    1,732;    0,318
231,729;  453,228;   -2,450;   -2,318
232,328;  383,835;   -0,723;   -1,500
232,927;  394,041;    1,004;   -0,500
233,525;  371,872;    3,640;    0,045
234,124;  440,254;    2,368;   -1,591
234,723;  344,325;    0,913;   -1,045
235,321;  352,646;    2,277;    0,136
235,920;  425,146;    1,186;   -1,227
236,518;  624,739;    3,459;    0,318
237,117;  421,687;    0,004;   -0,227
237,715;  445,073;    0,640;   -0,500
238,314;  519,738;   -0,087;   -2,318
238,912;  711,377;   -0,723;   -1,409
239,510;  554,887;    0,459;   -1,227
240,109;  714,155;    0,004;    3,773
240,707;  657,651;   -0,996;    1,227
241,305;  488,171;    0,550;    0,136
241,904;  628,534;   -0,178;   -2,045
242,502;  745,561;   -0,632;   -0,227
243,100;  616,509;   -0,087;   -0,955
243,698;  563,531;    0,732;    1,682
244,297;  610,076;   -0,632;    0,682
244,895;  608,628;   -0,269;   -2,318
245,493;  846,896;    2,186;   -0,591
246,091;  828,039;    1,368;   -1,318
246,689;  766,030;    1,004;    0,591
247,287;  705,018;    0,822;   -1,136
247,885;  672,741;   -1,451;    1,227
248,483;  629,552;    1,822;   -0,500
249,081;  730,543;    0,185;    1,591
249,679;  795,238;   -0,178;    1,682
250,277;  632,770;   -1,723;    0,864
250,875;  806,064;   -1,087;   -1,045
251,473;  672,972;   -1,178;    0,500
252,071;  801,643;    1,459;    1,045
252,669;  720,292;   -1,814;    0,318
253,267;  643,139;   -0,087;    0,773
253,864;  687,473;   -0,360;    0,682
254,462;  894,624;    1,640;    1,591
255,060;  630,852;   -0,269;    1,318
255,658;  624,201;    0,822;   -0,136
256,255;  754,827;    0,186;   -2,045
256,853;  790,832;   -0,269;    1,409
257,451;  759,787;    0,822;    1,864
258,048; 1275,833;    1,822;    1,864
258,646;  892,887;    1,731;   -1,045
259,243; 1030,287;   -0,087;    2,227
259,841;  885,752;   -0,814;    0,318
260,438;  707,111;   -0,087;    0,864
261,036;  885,997;   -1,905;    1,409
261,633;  781,309;   -0,087;    2,227
262,231;  715,268;    2,731;   -0,045
262,828;  732,934;   -0,905;    1,136
263,425;  788,634;    0,913;   -0,591
264,023;  795,579;    0,186;    0,045
264,620;  959,233;   -0,360;   -0,318
265,217; 1103,937;   -2,087;    3,136
265,815;  781,798;   -1,905;    2,136
266,412;  941,137;    0,731;    0,136
267,009;  989,960;   -1,451;    0,773
267,606; 1100,160;    0,822;   -0,955
268,203;  829,853;   -0,269;   -0,591
268,801;  900,013;    1,731;    0,591
269,398;  816,044;   -0,360;    2,500
269,995;  996,389;    0,277;    1,591
270,592;  882,433;   -0,632;   -0,500
271,189;  802,410;    0,186;    0,409
271,786;  783,827;   -0,632;    1,227
272,383; 1097,469;   -1,087;    0,227
272,980;  911,156;    0,277;    0,318
273,577;  879,872;    0,004;    1,227
274,174;  786,183;    0,822;    2,591
274,771;  937,110;   -0,814;   -0,773
275,367; 1410,409;    2,277;    1,409
275,964; 1209,612;    0,731;   -0,500
276,561;  970,864;    1,549;   -1,045
277,158;  885,056;    0,095;   -1,773
277,755; 1176,180;    2,185;    0,409
278,351;  981,333;   -0,451;   -1,500
278,948; 1077,168;   -0,815;    0,045
279,545;  975,337;   -1,360;    2,318
280,141; 1286,933;   -1,723;   -2,045
280,738; 1149,638;   -0,451;   -0,136
281,334;  936,498;   -1,633;    0,591
281,931;  946,061;   -0,087;   -1,318
282,528; 1056,383;    0,822;   -0,500
283,124; 1215,533;   -1,087;   -0,500
283,721; 1184,844;   -0,451;    1,409
284,317;  989,894;    0,185;    2,500
284,913; 1266,131;   -1,360;    0,591
285,510; 1604,586;    0,640;   -0,318
286,106; 1370,104;   -2,269;   -0,955
286,703; 1014,684;   -0,360;    1,955
287,299;  981,116;   -1,451;   -0,591
287,895; 1000,691;    0,822;   -1,045
288,491; 1033,680;    0,186;    2,136
289,088; 1158,393;   -2,360;    2,409
289,684; 1193,837;   -1,723;    1,500
290,280; 1362,088;    0,368;    0,682
290,876; 1339,131;    1,822;    5,500
291,472; 1194,241;    1,276;    2,227
292,068; 1218,303;    1,367;    0,227
292,665; 1033,025;    2,095;    0,773
293,261;  898,792;    0,276;    2,136
293,857; 1124,252;    2,913;    2,136
294,453; 1043,809;    3,550;    0,955
295,049; 1272,872;   -0,268;    1,955
295,644; 1080,299;    0,095;    0,136
296,240;  930,054;   -0,905;   -0,136
296,836; 1109,041;   -0,995;    0,318
297,432; 1284,520;    1,096;   -0,500
298,028; 1350,526;    0,732;    0,773
298,624; 1166,704;    1,459;    1,864
299,220; 1137,257;    2,368;    0,591
299,815; 1098,552;    1,005;   -0,409
300,411; 1213,235;    0,914;    1,773
301,007; 1366,863;    1,368;    0,227
301,602; 1165,146;   -0,541;   -2,318
302,198; 1298,774;    0,732;   -0,773
302,794; 1133,409;    1,187;   -0,500
303,389; 1116,709;   -1,177;    1,045
303,985; 1206,278;    0,550;    1,409
304,580; 1302,219;    1,459;    1,591
305,176; 1177,323;   -3,086;    0,136
305,771; 1039,588;   -1,268;   -1,227
306,367; 1494,556;    4,095;    0,136
306,962; 1261,783;    0,641;    1,500
307,558; 1228,141;   -0,450;    0,136
308,153; 1341,514;    1,095;   -1,136
308,748; 1140,549;   -0,814;    1,682
309,344; 1574,559;   -0,632;   -1,318
309,939; 1602,755;   -1,905;   -1,318
310,534; 1254,066;   -0,086;   -1,682
311,130; 1172,836;    0,459;   -2,500
311,725; 1084,180;    1,004;   -0,500
312,320; 1183,161;    2,459;    0,045
312,915; 1345,166;    1,459;   -1,045
313,510; 1583,555;    1,550;   -0,500
314,105; 1341,080;    1,096;    1,409
314,700; 1071,515;   -3,086;   -1,045
315,295; 1149,491;   -0,904;    0,045
315,890; 1039,947;    1,277;    0,864
316,485; 1168,379;   -0,359;   -0,318
317,080; 1114,619;   -3,086;    1,591
317,675; 1468,625;    2,005;   -0,682
318,270; 1658,910;    5,550;    3,318
318,865; 1574,628;    3,278;    3,045
319,460; 1344,053;   -0,904;    0,591
320,055; 1207,091;   -0,541;   -1,227
320,650; 1173,043;   -1,995;   -0,591
321,244; 1183,590;   -0,177;   -1,409
321,839; 1338,451;   -1,541;   -0,227
322,434; 1386,707;   -1,086;   -1,591
323,029; 1237,593;    1,732;    1,591
323,623; 1165,276;    1,550;    0,773
324,218; 1309,986;    2,368;    1,409
324,812; 1251,873;    1,096;    1,591
325,407; 1256,689;   -0,814;    2,045
326,002; 1349,886;    0,277;   -0,409
326,596; 1308,489;    0,914;    1,318
327,191; 1168,114;    0,823;   -1,045
327,785; 1095,125;   -0,813;   -0,227
328,379; 1196,390;    1,368;    0,136
328,974; 1189,393;    0,914;   -3,955
329,568; 1254,430;    0,186;   -2,409
330,163; 1313,887;    2,096;    1,045
330,757; 1191,130;    2,459;    1,591
331,351; 1090,581;    0,459;    0,682
331,945; 1112,037;    0,914;    1,409
332,540; 1255,681;   -1,723;   -0,591
333,134; 1225,236;   -1,086;    0,773
333,728; 1200,042;    0,005;    0,318
334,322; 1130,466;   -1,177;   -0,864
334,916; 1039,785;    0,277;    0,955
335,510; 1264,021;   -0,450;   -0,136
336,105; 1300,114;   -1,086;    1,591
336,699; 1132,435;   -1,086;    0,591
337,293; 1160,583;   -1,723;    0,318
337,887; 1103,982;   -2,723;    1,955
338,481; 1280,493;    0,459;    0,591
339,074; 1424,322;   -0,359;    2,682
339,668; 1388,184;   -1,632;    1,227
340,262; 2056,703;    1,732;    3,227
340,856; 1559,235;    1,822;   -0,682
341,450; 1116,312;    1,004;    1,864
342,044; 1239,037;    1,459;    0,136
342,637; 1396,155;    0,913;   -2,136
343,231; 1425,975;   -2,360;    0,682
343,825; 1207,790;   -1,086;   -0,591
344,419; 1185,181;   -1,995;    0,500
345,012; 1807,741;    2,459;    4,045
345,606; 1595,684;    4,641;    1,591
346,199; 1230,117;   -1,813;   -0,227
346,793; 1355,797;    1,914;    2,045
347,386; 1147,497;   -0,813;   -1,136
347,980;  989,693;   -0,268;   -0,045
348,573; 1137,367;    2,278;    0,409
349,167; 1424,476;    5,278;    4,773
349,760; 1382,588;    2,914;    2,682
350,354; 1289,628;   -0,813;    1,136
350,947; 1337,545;    1,096;    1,682
351,540; 1111,439;   -0,358;   -1,409
352,134;  938,591;    1,096;    1,136
352,727; 1012,195;   -0,086;    1,136
353,320; 1047,457;    0,005;    0,591
353,913;  921,877;   -1,995;    1,864
354,507; 1196,739;    0,823;   -1,227
355,100; 1075,231;    0,460;    0,864
355,693; 1502,630;    2,005;    2,409
356,286; 1212,219;    0,823;    2,773
356,879; 1041,970;   -0,722;    1,227
357,472;  987,090;   -0,904;    1,500
358,065; 1083,218;   -0,722;    2,500
358,658;  912,870;   -0,540;    2,318
359,251;  833,160;   -1,631;   -0,591
359,844; 1050,827;   -1,904;   -1,136
360,437; 1164,246;   -2,995;    0,045
361,030; 1007,521;    1,369;   -0,682
361,623;  973,193;    2,824;    0,318
362,215; 1229,285;   -0,086;    2,045
362,808; 1057,338;   -2,358;   -1,682
363,401;  977,665;   -2,449;    0,136
363,994; 1241,582;   -0,631;   -1,500
364,586;  976,782;    0,824;   -1,500
365,179;  917,897;   -0,449;   -1,136
365,772;  718,044;   -1,995;    2,045
366,364;  904,807;    1,915;   -3,227
366,957; 1030,217;    2,279;   -0,045
367,549;  922,113;    2,188;   -0,864
368,142;  928,891;    1,825;   -1,500
368,734;  888,632;    0,734;   -2,136
369,327;  793,918;    1,643;   -0,500
369,919;  850,440;   -1,538;    0,409
370,512;  900,289;   -1,083;   -0,500
371,104; 1183,977;   -0,901;    1,591
371,696; 1245,983;    1,191;   -0,955
372,289; 1072,330;    0,373;    1,136
372,881; 1008,596;   -2,080;    1,318
373,473;  846,406;   -2,170;    1,136
374,066;  980,133;   -0,169;    0,500
374,658;  940,472;    0,378;    1,136
375,250;  880,908;    0,653;   -1,409
375,842;  942,360;    0,473;   -0,045
376,434;  886,997;   -0,435;   -0,409
377,026;  936,907;    0,204;   -2,500
377,618;  963,100;   -0,158;   -0,682
378,210;  865,005;   -0,338;   -1,955
378,802;  797,680;    0,754;   -0,591
379,394; 1314,338;    1,846;    0,682
379,986; 1062,192;    1,393;   -0,955
380,578;  960,849;   -0,153;    0,773
381,170; 1219,077;   -0,972;    0,045
381,762; 1074,223;    0,755;    1,409
382,354; 1029,112;   -0,065;   -1,318
382,945;  921,849;   -2,976;    0,318
383,537;  871,216;   -2,705;   -1,955
384,129;  875,473;   -2,160;   -1,136
384,721; 1022,794;   -0,252;    0,955
385,312;  900,325;   -0,161;   -0,955
385,904; 1062,783;   -2,706;    1,591
386,496;  897,027;   -0,979;    1,045
387,087; 1085,667;    1,022;    2,500
387,679; 1011,864;   -1,160;    0,045
388,270; 1036,114;    2,840;    2,045
388,862;  969,623;    1,295;   -0,318
389,453;  895,716;   -0,887;    1,045
390,045;  954,804;   -0,705;   -2,682
390,636;  864,834;    0,204;   -0,591
391,227;  894,681;   -0,523;   -0,045
391,819;  912,105;    0,204;    0,773
392,410; 1215,315;    1,022;    0,045
393,001;  999,403;   -0,979;   -1,591
393,593; 1095,539;    1,930;   -0,045
394,184; 1151,785;    1,385;   -0,409
394,775;  938,705;    1,839;    2,136
395,366;  918,383;    1,385;    0,773
395,957; 1145,699;    0,113;    0,136
396,548; 1016,294;   -0,342;    2,682
397,139; 1212,666;   -2,433;    0,591
397,730; 1073,271;   -1,888;    0,955
398,321; 1069,848;   -1,252;    0,955
398,912;  991,558;   -0,615;    0,136
399,503; 1030,907;   -3,524;   -1,409
400,094; 1029,507;    0,294;    1,682
400,685; 1033,724;   -0,433;    0,045
401,276;  919,017;    0,930;   -0,955
401,867;  937,640;   -0,888;    0,773
402,458;  903,178;   -2,251;   -2,318
403,048; 1103,430;    1,112;    0,591
403,639;  971,427;    0,840;    0,864
404,230; 1198,996;    2,476;    0,318
404,821; 1258,271;   -0,615;    0,045
405,411; 1118,434;    1,203;   -2,591
406,002;  956,541;   -1,252;   -1,136
406,592; 1263,491;    2,294;    0,045
407,183; 1096,878;    0,566;   -1,500
407,774; 1031,577;    3,475;   -0,136
408,364; 1015,767;    0,930;    0,409
408,954; 1153,589;    0,384;    1,227
409,545; 1159,381;    1,021;    1,045
410,135; 1038,448;    1,293;    0,500
410,726; 1003,440;    1,838;    0,318
411,316; 1262,118;    0,111;    0,773
411,906; 1012,225;   -0,253;   -0,409
412,497; 1000,354;   -1,070;   -0,045
413,087;  962,378;   -1,980;   -0,227
413,677;  933,352;   -0,707;    3,864
414,267;  899,950;    0,656;    1,409
414,857;  858,731;   -2,980;    4,227
415,448;  901,243;    0,839;    0,500
416,038;  909,018;    0,020;   -0,591
416,628;  966,598;   -0,889;    0,409
417,218; 1065,538;    0,565;    3,318
417,808; 1264,046;    0,202;   -0,409
418,398; 1089,149;    0,020;    2,682
418,988;  944,735;    2,020;    0,591
419,578; 1049,312;   -0,707;    1,409
420,168; 1066,152;   -1,343;   -0,955
420,757; 1232,791;   -1,343;   -1,500
421,347; 1047,113;    0,111;   -0,227
421,937; 1010,816;    2,292;    1,409
422,527; 1182,841;    0,838;   -0,773
423,116; 1344,779;   -0,253;   -0,045
423,706; 1000,891;   -1,889;    0,318
424,296;  907,328;    1,384;    0,682
424,885; 1168,419;   -0,071;   -3,045
425,475; 1125,461;    1,474;   -2,864
426,065;  959,174;   -0,980;   -0,318
426,654;  930,453;   -0,435;   -0,318
427,244; 1332,045;    0,020;    1,409
427,833; 1259,801;    1,383;   -0,500
428,423; 1079,625;   -0,526;    1,136
429,012; 1152,410;   -0,344;   -1,136
429,601; 1268,901;   -1,344;    0,136
430,191; 1111,673;    1,292;    4,318
430,780;  931,549;   -0,344;   -0,409
431,369; 1278,183;    0,746;   -0,045
431,959; 1198,867;   -1,254;    0,500
432,548; 1053,260;   -1,163;   -0,045
433,137;  946,730;   -1,254;   -1,318
433,726; 1134,650;    0,292;    0,500
434,315; 1088,091;   -0,526;    2,409
434,905; 1237,267;   -1,254;    1,409
435,494; 1312,093;    0,746;    0,955
436,083; 1106,601;   -0,981;   -0,955
436,672; 1166,616;    0,110;    0,500
437,261; 1107,627;    0,292;   -1,955
437,850; 1517,444;    1,383;    0,682
438,439; 1563,316;    3,291;    1,955
439,027; 1665,841;    3,655;    1,773
439,616; 1635,658;    2,927;    1,227
440,205; 1296,850;    0,200;   -2,136
440,794; 1166,430;    2,109;   -0,045
441,383; 1071,740;   -1,346;   -0,591
441,971;  963,886;   -2,436;    0,591
442,560;  990,375;    0,563;   -1,773
443,149;  847,428;    0,379;   -1,318
443,737;  980,780;   -0,074;   -2,318
444,326; 1007,765;    0,018;    0,318
444,915; 1083,996;   -1,982;    0,864
445,503; 1122,535;   -2,891;   -0,318
446,092; 1454,697;    0,382;    2,136
446,680; 1401,194;    0,382;    0,318
447,269; 1313,726;   -0,346;   -0,318
447,857; 1233,358;    0,018;   -1,773
448,445; 1166,059;    0,563;    1,318
449,034; 1125,918;   -1,528;   -1,136
449,622; 1092,018;   -1,073;    3,500
450,210; 1576,036;    2,017;    2,227
450,799; 1472,735;    0,290;   -0,591
451,387; 1311,536;    1,381;   -0,591
451,975; 1300,256;    2,654;    0,864
452,563; 1469,184;    3,472;    2,318
453,151; 1136,442;   -0,528;   -1,227
453,739; 1214,167;   -1,347;    0,136
454,328; 1438,139;    2,381;   -2,136
454,916; 1272,557;    2,562;   -0,136
455,504; 1266,972;    1,017;    1,227
456,092; 1136,223;    0,017;   -1,591
456,679; 1033,338;    1,472;    0,682
457,267; 1757,516;    4,017;    1,045
457,855; 1226,165;    1,017;    1,409
458,443;  929,560;   -0,165;    1,682
459,031; 1340,517;    0,108;    2,409
459,619; 1274,035;   -1,801;    2,864
460,206; 1073,209;    0,835;    2,045
460,794; 1107,336;   -2,983;   -0,227
461,382; 1209,879;   -0,529;   -0,864
461,970; 1120,418;    1,198;    1,864
462,557; 1043,858;   -0,711;   -0,682
463,145; 1300,484;   -3,165;   -1,682
463,732; 1639,678;    2,016;   -1,045
464,320; 1270,348;   -0,075;   -3,045
464,907; 1500,447;    2,743;   -0,773
465,495; 1346,689;    0,743;   -1,227
466,082; 1205,143;   -1,984;   -0,045
466,670; 1184,997;   -2,529;    1,227
467,257; 1067,449;   -1,711;    2,045
467,844; 1270,259;   -0,075;    0,045
468,432; 1250,207;    0,834;    3,500
469,019; 1128,271;    0,925;   -1,773
469,606; 1239,126;    0,470;    3,682
470,193; 1302,352;   -1,439;    0,227
470,780; 1265,637;   -2,075;    0,864
471,368; 1145,618;   -1,257;   -0,773
471,955; 1304,629;    1,379;   -0,682
472,542; 1192,226;    0,652;   -1,136
473,129; 1011,679;   -0,166;    0,136
473,716;  994,614;    1,470;    0,591
474,303; 1068,904;    0,652;   -0,864
474,890; 1111,870;   -1,439;   -0,500
475,477; 1271,437;   -1,621;    0,409
476,064; 1104,695;    1,106;   -1,591
476,650; 1260,282;    0,288;    0,318
477,237; 1158,009;   -0,258;    0,955
477,824; 1119,247;   -1,076;    0,864
478,411;  957,575;   -1,894;   -0,318
478,997;  963,234;    0,560;   -0,773
479,584;  868,407;    1,196;   -0,409
480,171; 1287,664;   -0,440;   -0,773
480,757; 1396,543;    2,651;    0,773
481,344; 1190,588;    0,469;    0,409
481,931;  952,668;    1,105;    1,045
482,517; 1315,820;   -1,258;    0,318
483,104; 1487,222;    1,106;    2,864
483,690; 1354,430;   -1,804;    0,045
484,276; 1311,902;   -0,895;    0,227
484,863; 1659,968;    2,469;    1,136
485,449; 1422,334;   -0,077;    0,318
486,035; 1314,827;   -1,986;   -0,136
486,622; 1531,641;   -0,895;    0,045
487,208; 1395,398;    1,378;    1,500
487,794; 1256,752;    0,741;    0,318
488,380; 1284,823;    0,105;   -1,409
488,967; 1280,442;   -1,168;   -0,409
489,553; 1309,576;   -1,895;   -1,409
490,139; 1464,500;    1,559;    0,773
490,725; 1285,271;    0,741;   -0,227
491,311; 1282,406;    3,287;    3,045
491,897; 1116,614;   -0,986;    1,500
492,483; 1128,506;    0,105;    1,227
493,069; 1942,192;    3,923;    0,864
493,655; 1395,182;    1,650;    0,682
494,241; 1201,044;    1,377;   -0,955
494,826; 1278,567;    0,287;   -1,045
495,412; 1341,206;    2,559;   -0,682
495,998; 1209,477;   -0,805;   -0,318
496,584; 1289,365;    0,377;    1,045
497,169; 1219,550;    1,014;   -0,682
497,755; 1091,595;    0,650;    1,227
498,341; 1501,087;    0,559;    0,318
498,926; 1670,226;    1,832;    1,955
499,512; 1246,294;    1,286;    2,955
500,097; 1183,083;    0,195;   -0,318
500,683; 1212,340;   -0,350;    2,136
501,268; 1162,452;   -0,169;   -0,955
501,854; 1202,556;   -0,169;    1,227
502,439; 1126,077;   -0,624;   -1,773
503,024; 1252,533;    0,195;    0,500
503,610; 1314,600;   -0,078;   -0,682
504,195; 1113,701;    0,558;    1,955
504,780; 1285,851;    2,922;    1,227
505,366; 1460,889;    3,013;    2,864
505,951; 1296,114;    0,740;    1,045
506,536; 1196,155;   -3,260;   -3,682
507,121; 1251,506;    0,285;   -0,318
507,706; 1230,623;    2,376;    1,045
508,291; 1139,669;    2,649;    1,136
508,876; 1105,433;   -0,988;    2,591
509,461; 1172,156;   -0,169;   -0,773
510,046; 1263,487;    0,194;    0,318
510,631; 1239,517;   -0,351;   -0,773
511,216; 1120,457;    2,467;   -0,500
511,801; 1271,997;   -0,442;    2,591
512,386; 1283,858;    0,740;    0,500
512,971; 1316,925;   -2,988;    0,955
513,555; 1390,390;   -0,897;   -1,500
514,140; 1381,819;   -0,442;   -3,136
514,725; 1475,645;   -0,715;   -1,136
515,309; 1345,683;   -0,533;    0,318
515,894; 1215,307;   -0,624;   -2,227
516,479; 1257,396;   -0,624;   -0,955
517,063; 1230,862;    0,376;    1,227
517,648; 1219,170;    1,012;   -1,136
518,232; 1125,426;   -0,261;   -1,409
518,817; 1253,623;   -0,079;    1,682
519,401; 1458,203;    2,194;    0,591
519,985; 1270,587;    1,103;    1,136
520,570; 1113,658;    0,830;   -1,955
521,154; 1305,689;    2,102;    0,591
521,738; 1583,210;   -2,352;    2,409
522,323; 1446,999;   -0,170;    1,682
522,907; 1346,181;    0,466;   -0,136
523,491; 1222,844;    0,557;    0,955
524,075; 1166,859;    2,284;    0,591
524,659; 1388,074;    1,466;    0,591
525,243; 1266,476;    1,739;    0,409
525,827; 1197,046;    0,648;   -0,045
526,411; 1259,529;   -1,989;   -0,136
526,995; 1453,615;   -0,352;    1,409
527,579; 1465,670;   -0,443;   -1,045
528,163; 1404,088;    0,375;   -1,500
528,747; 1594,317;    2,466;   -0,773
529,331; 1538,093;   -0,080;   -1,409
529,915; 1294,473;    1,738;    0,955
530,499; 1397,561;   -0,807;    1,227
531,082; 1535,925;   -0,534;    1,591
531,666; 1577,777;    1,374;    0,773
532,250; 1497,695;    1,284;    2,682
532,833; 1673,911;    0,920;    2,773
533,417; 1425,659;   -1,807;    0,864
534,001; 1554,922;    1,647;   -0,318
534,584; 1488,929;    0,374;    0,500
535,168; 1298,548;    0,465;    1,409
535,751; 1722,970;    0,647;    0,045
536,334; 1356,596;   -0,898;   -0,409
536,918; 1322,118;    0,011;    1,591
537,501; 1302,606;   -0,899;    1,318
538,085; 1355,850;   -0,444;    1,045
538,668; 1369,501;    0,829;    2,409
539,251; 1776,970;    1,829;    3,773
539,834; 1499,935;    0,101;    0,773
540,418; 1618,823;   -1,990;    4,318
541,001; 1792,476;   -0,990;    1,773
541,584; 1520,799;    2,101;    2,227
542,167; 1604,770;    1,374;    2,955
542,750; 1469,398;    1,919;   -0,773
543,333; 1233,507;    0,555;    2,136
543,916; 1573,587;    0,192;    2,500
544,499; 1447,309;   -1,354;    0,227
545,082; 1558,606;    1,374;    3,591
545,665; 1458,083;    1,919;    1,500
546,248; 1618,870;    1,010;   -0,318
546,830; 1581,823;   -0,445;    1,955
547,413; 1621,388;    1,010;   -0,773
547,996; 1690,864;    0,555;    0,500
548,579; 1493,194;    0,919;    0,955
549,161; 1735,945;    1,828;    2,682
549,744; 1616,093;   -0,809;    0,409
550,326; 1568,747;   -0,809;   -1,136
550,909; 2041,414;    2,737;    0,591
551,492; 1738,694;   -0,263;    0,227
552,074; 1790,943;   -0,173;   -1,318
552,657; 1859,221;    2,373;    0,045
553,239; 1675,447;   -0,173;   -0,773
553,821; 1596,815;   -1,082;    1,045
554,404; 1794,937;    1,282;    1,136
554,986; 1927,225;    0,464;    1,045
555,568; 1832,542;    1,191;   -0,955
556,151; 2011,102;    1,191;   -0,227
556,733; 1688,908;   -0,264;   -0,864
557,315; 1702,101;    0,100;    0,500
557,897; 1484,063;    0,554;   -0,500
558,479; 1513,265;   -1,991;    1,318
559,061; 1641,259;   -0,719;   -0,864
559,643; 1779,768;   -0,264;    0,045
560,225; 1809,020;    1,645;    2,864
560,807; 1685,768;    0,918;    0,318
561,389; 1615,909;    0,554;    2,318
561,971; 1679,065;    0,463;    2,136
562,553; 1685,544;   -1,628;    1,591
563,135; 1776,793;   -0,537;    1,136
563,717; 2108,326;    3,372;    1,136
564,298; 2003,145;    3,645;   -0,045
564,880; 1721,251;    0,645;   -1,409
565,462; 1618,070;    0,645;    1,318
566,043; 1972,689;   -0,446;    2,318
566,625; 2097,225;    1,918;    1,227
567,207; 1870,112;    1,099;    1,682
567,788; 1878,611;   -1,264;    1,500
568,370; 2016,194;    1,917;   -0,500
568,951; 1876,125;    0,190;    0,227
569,533; 2066,409;   -0,628;   -0,500
570,114; 2193,862;   -0,446;    0,682
570,695; 2233,300;   -0,174;   -1,318
571,277; 2199,497;   -0,265;   -1,682
571,858; 2454,411;    2,008;   -1,136
572,439; 2473,657;    1,554;   -1,045
573,021; 2447,676;    2,099;   -2,773
573,602; 2588,197;   -1,265;    0,318
574,183; 2649,764;   -2,083;    2,227
574,764; 2643,280;   -1,629;    0,409
575,345; 2754,559;    0,917;   -0,136
575,926; 2742,428;   -0,356;    0,136
576,507; 2824,370;    1,099;   -0,227
577,088; 2958,003;    3,099;    1,682
577,669; 3087,987;    0,735;    1,955
578,250; 3329,491;    0,644;   -1,045
578,831; 3189,517;   -1,356;   -2,227
579,412; 3044,911;   -0,810;    0,955
579,993; 3371,480;    1,008;    0,227
580,573; 3362,583;   -0,629;   -0,955
581,154; 3041,999;    0,735;   -0,591
581,735; 3247,884;    0,644;    0,773
582,315; 3108,339;   -0,629;    2,136
582,896; 3284,370;   -0,174;    1,227
583,477; 3082,220;    0,189;    1,227
584,057; 3172,568;    0,553;    0,955
584,638; 3253,935;    2,553;    2,318
585,218; 3441,550;   -0,538;    2,682
585,799; 3353,937;    0,281;   -0,227
586,379; 3253,094;    0,372;    1,591
586,959; 3101,224;    0,735;    0,318
587,540; 2936,027;   -0,629;    2,227
588,120; 2833,552;    1,007;   -0,045
588,700; 2692,623;    2,553;    2,136
589,281; 2944,304;    0,462;   -0,955
589,861; 2832,724;    0,099;   -1,682
590,441; 2750,140;    2,371;   -2,682
591,021; 2562,289;   -0,265;   -2,591
591,601; 2685,216;   -0,537;    0,500
592,181; 2783,093;   -0,719;   -0,773
592,761; 2444,412;    0,007;    1,409
593,341; 2610,121;   -0,901;    0,045
593,921; 2558,818;   -0,265;    1,591
594,501; 2447,500;   -0,538;    1,318
595,081; 2416,712;    0,917;   -0,318
595,661; 2657,625;   -1,447;    0,955
596,240; 2710,038;   -0,537;    0,136
596,820; 2852,508;    0,372;    1,955
597,400; 2581,511;    2,008;    0,773
597,980; 2624,879;    2,008;    1,045
598,559; 2601,848;    2,735;   -0,227
599,139; 2563,265;   -0,174;   -1,227
599,718; 2526,810;   -0,174;   -0,409
600,298; 2614,760;    0,735;    0,682
600,877; 2967,633;    2,917;    1,409
601,457; 2896,194;    2,281;    1,136
602,036; 2744,571;    0,190;    2,045
602,616; 2687,142;    0,644;    1,682
603,195; 2832,912;   -0,355;    3,500
603,774; 2767,417;   -0,901;    2,045
604,354; 2695,523;    0,826;   -0,500
604,933; 2589,190;    0,463;    1,864
605,512; 2768,910;    3,554;    0,591
606,091; 2770,393;   -0,537;    3,773
606,671; 2834,200;    0,281;    0,773
607,250; 2815,400;    1,644;    3,136
607,829; 2823,195;    2,372;    3,227
608,408; 2706,281;    1,190;    2,591
608,987; 2650,369;    1,281;    3,409
609,566; 2526,271;   -1,265;   -2,500
610,145; 2619,402;   -1,082;    0,682
610,723; 2759,713;    4,372;    6,864
611,302; 2505,289;   -0,446;    1,682
611,881; 2628,542;    5,008;   11,227
612,460; 2554,566;    1,645;    3,955
613,039; 2613,209;   -0,082;    2,045
613,617; 2321,779;    1,736;    4,773
614,196; 2352,205;    1,099;    1,227
614,775; 2521,280;    1,009;    2,409
615,353; 2521,452;    0,736;    0,864
615,932; 2457,566;    0,100;    2,409
616,510; 2596,362;    0,554;    0,591
617,089; 2968,863;    7,100;   17,591
617,667; 2644,575;    2,372;    6,136
618,246; 2283,653;   -1,537;    1,318
618,824; 2418,413;   -3,355;   -0,955
619,402; 2348,331;   -2,900;   -1,773
619,981; 2516,761;   -0,173;   -1,045
620,559; 2496,042;    0,009;    1,682
621,137; 2493,547;   -0,718;    1,864
621,715; 2153,040;   -1,173;   -0,682
622,293; 2207,535;   -0,537;   -0,773
622,871; 2494,556;   -0,718;    0,500
623,450; 2319,351;    0,373;   -0,864
624,028; 2444,218;    0,191;   -0,955
624,606; 2364,669;   -1,718;    1,682
625,183; 2280,450;   -1,536;   -1,136
625,761; 2282,260;    1,009;    1,136
626,339; 2646,710;    1,373;    2,591
626,917; 2411,164;   -0,172;   -0,045
627,495; 2425,921;   -0,354;    1,318
628,073; 2367,700;   -0,263;    2,864
628,650; 2329,819;    0,100;    2,136
629,228; 2412,137;    0,373;    4,409
629,806; 2130,655;    2,282;    1,136
630,383; 2225,592;    1,464;   -0,318
630,961; 2205,931;    2,555;   -0,955
631,539; 2154,844;    2,464;    0,227
632,116; 2792,112;   11,373;   15,409
632,694; 2491,246;    2,555;    6,500
633,271; 2297,328;    0,828;    2,682
633,848; 2404,544;    1,828;    2,045
634,426; 2223,146;   -1,081;    1,773
635,003; 2057,550;    1,101;   -0,409
635,580; 2411,788;    1,192;    3,682
636,158; 2251,670;    3,737;    1,227
636,735; 2106,422;    0,555;   -0,500
637,312; 2124,403;   -0,809;   -0,682
637,889; 2139,189;   -4,354;   -0,682
638,466; 2107,280;   -3,990;   -0,409
639,043; 2102,116;    2,101;   -1,136
639,620; 2116,831;   -2,262;   -0,955
640,197; 2258,863;    1,100;    1,682
640,774; 2245,522;   -0,172;    1,136
641,351; 2304,180;    0,737;    1,136
641,928; 2344,657;   -0,627;    1,409
642,505; 2462,043;    0,828;   -0,500
643,082; 2362,429;   -1,718;    1,227
643,658; 2013,178;   -0,718;    1,500
644,235; 2134,655;    1,191;    2,500
644,812; 2292,859;    1,918;    0,773
645,388; 2234,336;   -0,991;    1,409
645,965; 2031,812;   -0,809;    1,682
646,542; 2056,471;   -1,445;   -0,227
647,118; 2487,675;    1,009;   -0,955
647,695; 2314,606;   -0,263;    1,136
648,271; 2139,447;   -0,536;    0,500
648,848; 2264,105;    0,736;    2,227
649,424; 2358,582;    0,827;    1,318
650,000; 2086,786;   -0,354;   -1,045
650,577; 2163,535;   -0,627;   -0,955
651,153; 2288,739;   -1,809;    0,955
651,729; 2295,489;    1,191;    0,864
652,305; 2566,784;    0,645;    2,773
652,881; 3048,442;   -0,082;    1,136
653,458; 4016,646;    1,100;    0,227
654,034; 4592,032;    0,282;    1,591
654,610; 4633,782;    0,554;    0,773
655,186; 5044,167;    0,645;    3,045
655,762; 4728,644;   -0,991;    0,409
656,338; 4686,939;    0,100;    0,136
656,913; 5022,689;   -0,082;    0,409
657,489; 4746,074;    0,827;   -0,318
658,065; 4807,642;   -0,173;   -1,591
658,641; 5060,028;   -0,900;   -0,864
659,217; 4802,868;   -0,991;    0,409
659,792; 4570,436;    0,645;   -0,409
660,368; 4686,367;   -2,173;   -0,682
660,944; 4878,480;   -2,082;    1,227
661,519; 4154,684;   -0,628;    0,409
662,095; 3225,525;   -1,719;    0,591
662,670; 2515,001;    1,281;   -0,136
663,246; 2467,842;    1,009;   -0,409
663,821; 2514,227;    0,281;    1,682
664,396; 2253,068;    0,009;    1,864
664,972; 2300,817;    0,009;   -0,500
665,547; 2459,930;    1,372;    0,136
666,122; 2400,680;   -1,082;    0,318
666,698; 2545,066;   -0,173;    0,318
667,273; 2209,542;   -0,173;    0,136
667,848; 2388,746;    2,372;    1,500
668,423; 2472,769;    2,190;    2,318
668,998; 2419,973;    2,827;   -0,682
669,573; 2479,540;   -3,264;   -1,500
670,148; 2614,835;   -1,446;   -0,682
670,723; 2332,857;   -1,810;    0,318
671,298; 2689,061;    2,372;    1,045
671,873; 2547,265;   -0,082;   -0,136
672,448; 2554,469;    0,645;    0,136
673,023; 2586,037;   -1,992;   -0,227
673,597; 2765,514;    0,827;    2,318
674,172; 2733,354;   -0,355;    0,318
674,747; 2604,558;    0,372;   -1,045
675,321; 2369,853;   -0,628;    3,318
675,896; 2240,239;    0,645;    1,045
676,471; 2501,897;    2,645;    1,591
677,045; 2383,556;   -1,264;    0,682
677,620; 2411,760;    0,190;    1,136
678,194; 2439,055;   -2,628;    1,136
678,769; 2423,441;   -1,083;   -0,318
679,343; 2521,735;   -0,628;    1,773
679,917; 2566,758;   -1,446;    1,955
680,492; 2428,780;    0,826;    3,227
681,066; 2480,802;    3,372;    0,409
681,640; 2458,824;    1,463;   -0,318
682,214; 2612,392;    0,735;    0,500
682,788; 2515,959;   -1,356;   -0,773
683,363; 2558,709;   -1,810;    1,682
683,937; 2400,095;   -1,719;   -0,318
684,511; 2633,844;    0,463;   -0,591
685,085; 2567,230;   -1,356;    0,318
685,659; 2447,252;   -2,538;    0,864
686,232; 2682,456;   -0,356;   -0,318
686,806; 2536,933;   -0,901;    0,409
687,380; 2627,046;   -0,174;    0,591
687,954; 2652,159;   -1,174;    1,136
688,528; 2738,090;   -0,719;    1,955
689,101; 2845,294;   -3,992;    1,045
689,675; 2620,226;   -0,356;   -0,136
690,249; 2664,884;   -0,719;    0,409
690,822; 2725,815;    0,280;    0,318
691,396; 2610,292;   -0,265;    1,227
691,969; 2470,769;    1,280;    0,136
692,543; 2579,337;   -0,447;   -1,955
693,116; 2390,631;   -0,265;   -1,409
693,690; 2449,563;    0,099;    0,500
694,263; 2596,585;   -1,083;    2,955
694,836; 2838,607;    1,371;    3,591
695,410; 2519,720;   -0,265;    1,773
695,983; 2541,197;    0,189;    0,591
696,556; 2458,765;   -0,447;   -1,045
697,129; 2514,514;   -0,356;    1,409
697,703; 2478,354;   -1,629;    1,955
698,276; 2495,831;    1,462;   -0,773
698,849; 2544,490;    1,280;    1,409
699,422; 2413,239;   -1,083;    0,591
699,995; 2316,352;    0,007;    0,136
700,568; 2491,829;   -0,629;    3,045
701,140; 2511,124;   -2,811;    1,682
701,713; 2634,146;   -0,174;    2,409
702,286; 2513,259;   -0,538;    0,864
702,859; 2500,554;   -0,902;   -0,591
703,432; 2438,940;    0,825;    0,682
704,004; 2423,417;    0,462;    0,318
704,577; 2261,348;   -0,629;    0,136
705,150; 2385,915;    0,189;    2,500
705,722; 2466,847;   -0,356;   -3,227
706,295; 2486,142;   -0,175;   -0,591
706,867; 2309,891;   -0,175;    1,955
707,440; 2521,731;   -1,720;   -0,409
708,012; 2590,935;    0,462;    0,591
708,584; 2432,230;    2,462;    0,227
709,157; 2409,889;    1,825;   -0,591
709,729; 2542,002;    2,280;    2,045
710,301; 2674,388;    0,734;    0,045
710,874; 2645,592;   -1,447;   -0,227
711,446; 2253,069;    0,371;    0,864
712,018; 2350,727;    0,098;    0,500
712,590; 2262,567;   -1,993;    1,682
713,162; 2587,681;    0,825;    1,318
713,734; 2463,521;    1,825;   -2,045
714,306; 2409,361;   -1,902;   -0,409
714,878; 2241,929;    0,825;    0,864
715,450; 2386,406;    0,643;    0,864
716,022; 2420,519;    1,552;    1,318
716,593; 2426,632;    0,189;    0,591
717,165; 2487,836;   -3,175;   -1,227
717,737; 2621,040;    0,280;    0,409
718,309; 2448,517;    0,280;   -0,045
718,880; 2370,993;   -0,539;   -1,409
719,452; 2475,561;   -0,175;   -1,591
720,024; 2459,856;    0,734;   -0,591
720,595; 2481,696;   -2,902;    0,955
721,167; 2368,718;    0,370;   -2,045
721,738; 2342,559;   -0,812;   -1,045
722,309; 2395,763;   -0,993;   -1,227
722,881; 2237,967;   -1,357;    0,773
723,452; 2427,989;   -2,630;    2,864
724,023; 2495,011;   -0,721;    2,682
724,595; 2510,851;    0,007;    0,682
725,166; 2318,419;    0,007;   -0,409
725,737; 2457,805;    1,734;    0,227
726,308; 2383,827;   -0,266;    0,318
726,879; 2308,213;   -1,630;    1,227
727,450; 2429,417;    0,552;   -0,045
728,021; 2315,076;    3,097;    0,682
728,592; 2446,098;    0,734;    0,500
729,163; 2617,484;    0,643;   -0,136
729,734; 2600,778;    0,188;   -0,227
730,305; 2480,710;    1,734;    0,136
730,876; 2456,005;    0,188;    2,955
731,447; 2762,027;    2,188;    2,682
732,017; 2630,140;    1,097;    1,864
732,588; 2508,435;    0,734;    1,227
733,159; 2673,912;    0,643;   -1,045
733,729; 2406,116;    0,006;    0,409
734,300; 2445,501;    0,915;    0,864
734,870; 2395,796;    3,461;    0,591
735,441; 2439,637;    0,370;   -0,591
736,011; 2331,295;    0,643;   -1,591
736,582; 2360,045;   -0,812;    0,045
737,152; 2325,340;   -1,721;   -2,045
737,722; 2409,089;   -0,267;   -0,682
738,293; 2255,748;   -1,358;    1,318
738,863; 2415,497;    2,461;    2,318
739,433; 2653,610;    5,279;    0,318
740,003; 2538,632;   -0,994;   -0,682
740,573; 2557,745;    2,097;   -1,591
741,143; 2498,495;   -1,085;    0,318
741,713; 2485,972;    1,188;   -0,500
742,283; 2451,448;    0,915;    1,591
742,853; 2366,470;    1,915;    1,591
743,423; 2185,947;    1,733;    0,045
743,993; 2259,242;   -0,358;    1,500
744,563; 2136,992;    0,097;   -0,864
745,133; 2176,832;   -0,812;   -0,864
745,702; 2291,127;   -0,267;    1,773
746,272; 2309,422;   -0,176;    0,591
746,842; 2318,717;   -1,358;   -0,591
747,411; 2233,830;   -0,267;   -0,318
747,981; 2175,125;    0,097;    0,500
748,551; 2199,965;    2,278;   -1,045
749,120; 2289,260;    0,642;   -0,227
749,690; 2321,282;   -0,631;    2,409
750,259; 2458,213;    1,369;    2,955
750,828; 2454,690;    1,551;   -1,955
751,398; 2332,076;    1,278;   -0,045
751,967; 2645,644;    2,187;    0,409
752,536; 2411,484;   -0,813;   -0,227
753,105; 2566,052;    0,096;    0,227
753,675; 2331,346;    0,096;    1,773
754,244; 2341,914;   -0,904;    3,591
754,813; 2367,936;    0,551;    1,227
755,382; 2274,140;    0,460;    0,955
755,951; 2426,799;    1,551;    3,682
756,520; 2460,912;   -0,085;    1,864
757,089; 2704,207;    0,278;    0,500
757,658; 2432,502;    1,733;    1,227
758,227; 2325,433;    1,096;    0,318
758,795; 2426,182;    1,187;    1,136
759,364; 2561,205;   -0,086;   -0,591
759,933; 2256,409;   -1,176;   -0,045
760,501; 2197,794;    0,733;   -1,318
761,070; 2339,726;   -2,813;   -1,409
761,639; 2586,293;   -1,904;    1,318
762,207; 2397,316;    1,551;   -0,955
762,776; 2463,247;    0,369;    0,864
763,344; 2358,542;   -0,995;    0,591
763,913; 2000,200;   -0,722;    1,409
764,481; 2627,041;    1,005;   -0,136
765,049; 2559,699;   -1,358;    1,409
765,618; 2446,903;   -0,086;    0,318
766,186; 2361,380;    0,278;    0,136
766,754; 2397,493;    0,005;    1,864
767,322; 2085,788;   -1,995;    0,409
767,890; 2050,628;   -0,722;   -1,773
768,459; 2230,469;   -2,177;   -0,318
769,027; 2443,764;    1,641;    3,409
769,595; 2151,422;    3,278;    2,591
770,163; 2214,262;    3,823;    2,955
770,730; 2200,648;    0,732;   -0,136
771,298; 2176,216;    0,187;   -1,409
771,866; 2173,147;   -1,541;    4,955
772,434; 2220,078;   -0,631;   -1,864
773,002; 2453,646;    0,005;    0,682
773,569; 2324,577;    0,914;    1,682
774,137; 2381,600;   -0,268;   -0,045
774,705; 2370,531;    0,278;   -0,136
775,272; 2193,462;    0,641;    0,682
775,840; 2312,666;   -0,177;    2,682
776,407; 2263,961;    0,277;    1,955
776,975; 2017,074;   -0,632;    0,318
777,542; 2199,824;   -1,086;   -0,045
778,110; 2194,937;   -1,268;   -0,045
778,677; 2044,504;   -2,359;   -0,864
779,244; 2083,526;    2,186;    1,045
779,812; 2232,094;    1,823;    0,864
780,379; 2284,571;    0,005;    1,136
780,946; 2193,866;    1,005;   -0,773
781,513; 2192,797;   -1,450;    0,318
782,080; 2032,819;   -0,086;    2,864
782,647; 2167,841;   -0,268;    3,045
783,214; 2099,591;   -0,177;    3,864
783,781; 2212,795;   -0,723;   -0,682
784,348; 2186,544;   -0,632;    1,500
784,915; 2061,839;   -3,177;    0,318
785,482; 2214,043;    1,368;    2,591
786,049; 2298,429;    0,186;   -0,591
786,615; 2217,178;    0,277;   -0,955
787,182; 2111,655;    0,186;   -0,682
787,749; 2085,496;   -2,814;    1,409
788,315; 2091,427;   -1,632;   -0,409
788,882; 2116,722;    1,550;   -1,227
789,448; 2419,198;    1,732;   -0,955
790,015; 2233,402;    1,095;    3,227
790,581; 2327,606;    1,459;    0,227
791,148; 2113,174;    0,641;    1,045
791,714; 2107,924;   -0,541;    3,136
792,280; 2081,309;    0,186;    1,591
792,847; 2001,604;    0,550;    2,500
793,413; 2083,990;   -0,269;   -0,318
793,979; 2145,012;    3,459;   -1,318
794,545; 2492,398;    4,459;    2,682
795,111; 2294,602;    2,186;    1,318
795,678; 2148,170;    0,731;   -1,682
796,244; 2329,192;    3,368;    0,136
796,810; 2293,850;    1,731;    0,773
797,375; 2249,327;    0,549;   -2,136
797,941; 1898,531;   -0,541;    0,591
798,507; 1872,008;   -0,451;   -0,955
799,073; 1864,485;   -0,360;    0,591
799,639; 1952,416;   -2,632;    3,136
800,205; 1899,893;    0,095;    2,682
800,770; 1855,733;    0,640;    1,773
801,336; 1794,846;    1,368;   -0,955
801,901; 2424,959;    4,549;    3,136
802,467; 2170,890;   -0,542;    2,045
803,033; 1818,458;   -0,087;    0,864
803,598; 1839,571;    1,913;   -1,045
804,163; 1911,957;    1,095;   -0,318
804,729; 2001,343;   -0,178;    1,136
805,294; 1926,092;    0,822;    2,227
805,859; 1804,751;    0,731;   -0,409
806,425; 2175,591;    1,186;    2,682
806,990; 2142,341;    2,186;    4,318
807,555; 1953,090;   -1,451;    2,591
808,120; 2110,385;    0,822;   -0,409
808,685; 1860,498;    0,185;   -2,500
809,250; 1700,611;    0,004;   -0,500
809,815; 1780,815;    1,913;    0,682
810,380; 1981,837;   -0,269;    1,591
810,945; 2141,223;   -1,087;    2,045
811,510; 1978,882;    2,094;    1,591
812,075; 1870,086;   -0,633;   -1,409
812,640; 2158,653;    2,003;    1,409
813,204; 1974,585;    0,822;   -0,227
813,769; 2186,516;    2,094;   -0,045
814,334; 2113,084;    0,458;    0,864
814,898; 1880,742;    0,367;    0,591
815,463; 1892,673;    1,276;   -0,773
816,027; 1820,787;   -0,724;   -2,318
816,592; 1857,354;    0,640;   -2,045
817,156; 1886,285;    2,094;    1,136
817,721; 1946,399;    4,276;    2,318
818,285; 1752,784;    2,912;    1,500
818,849; 1877,716;   -1,451;    1,682
819,414; 1766,738;   -0,269;    2,955
819,978; 1700,487;   -1,269;    1,773
820,542; 2117,600;    2,003;    0,500
821,106; 1947,623;   -0,815;    0,682
821,670; 2094,645;   -0,815;    2,591
822,234; 1863,303;   -0,270;    1,409
822,798; 1706,053;    0,003;    0,500
823,362; 2026,711;   -0,633;    4,227
823,926; 1733,733;    0,094;    1,136
824,490; 1937,028;   -0,997;   -0,682
825,054; 1852,232;   -0,088;   -1,136
825,618; 1697,073;   -1,542;   -1,500
826,181; 1720,095;    0,458;   -1,318
826,745; 1791,844;    1,367;   -1,045
827,309; 2082,594;    1,185;    1,318
827,872; 1922,434;    1,367;    0,955
828,436; 1905,820;    1,185;   -0,773
828,999; 1859,479;   -0,997;    1,227
829,563; 1771,319;   -0,179;    1,136
830,126; 1711,159;   -0,179;   -0,591
830,690; 1722,363;   -1,997;    2,864
831,253; 1605,295;   -0,543;    2,227
831,816; 1674,044;   -1,906;    0,500
832,380; 1593,793;    0,185;    0,864
832,943; 1622,543;   -1,361;   -0,500
833,506; 1624,656;    2,639;   -1,227
834,069; 1862,678;    3,912;   -0,955
834,632; 1745,700;    1,730;    1,318
835,195; 1759,450;    1,003;    0,955
835,758; 1649,654;   -0,997;    1,955
836,321; 1579,221;    0,730;   -1,045
836,884; 1599,244;   -0,725;   -0,955
837,447; 1598,448;   -2,816;    1,773
838,010; 1732,197;    0,366;    3,227
838,573; 1812,492;   -1,179;    0,773
839,135; 1726,787;   -1,361;   -0,955
839,698; 1633,264;    1,275;    0,409
840,261; 1585,740;    1,003;   -0,227
840,823; 1551,217;   -0,543;    0,864
841,386; 1535,057;   -0,452;   -2,409
841,948; 1867,261;   -1,361;    1,773
842,511; 1570,102;    0,912;    1,682
843,073; 1834,669;    1,912;    0,227
843,636; 1577,328;   -0,361;   -0,227
844,198; 1797,714;    0,911;    0,591
844,760; 1772,191;    1,093;    1,955
845,322; 1519,304;    0,548;    1,136
845,885; 1676,053;    0,730;    0,591
846,447; 1663,348;   -1,998;    0,227
847,009; 1986,552;    1,911;   -0,682
847,571; 1681,120;    0,820;   -2,045
848,133; 1652,505;   -1,089;   -1,864
848,695; 1505,255;   -0,543;    1,409
849,257; 1549,823;   -1,089;   -1,682
849,819; 1733,299;   -0,998;   -0,409
850,381; 1595,594;   -0,725;   -0,864
850,942; 1660,253;    1,093;   -0,591
851,504; 1688,729;    1,184;    0,227
852,066; 1627,297;    1,275;   -1,591
852,628; 1619,047;   -0,180;    1,955
853,189; 1424,887;    1,638;    2,682
853,751; 1497,545;   -0,907;    1,409
854,312; 1677,659;   -0,453;   -1,682
854,874; 1836,317;   -2,089;   -0,773
855,435; 1661,612;   -0,907;   -1,682
855,997; 1779,998;   -1,816;   -0,136
856,558; 1771,747;    0,366;    1,773
857,119; 1630,406;    0,820;    2,864
857,681; 1484,519;    0,002;    0,318
858,242; 1700,996;    1,911;   -2,136
858,803; 1785,563;    0,456;   -0,773
859,364; 1733,676;    0,184;   -4,773
859,925; 1751,517;   -2,453;   -0,955
860,486; 1635,266;   -0,453;   -0,955
861,047; 1498,470;   -0,544;   -1,227
861,608; 1541,220;   -1,089;   -0,773
862,169; 1487,605;    0,638;   -0,045
862,730; 1514,719;    0,456;    1,409
863,291; 1590,650;   -0,635;   -0,500
863,852; 1582,217;   -0,635;    1,955
864,412; 1515,785;   -0,271;   -0,864
864,973; 1671,716;   -0,089;    0,500
865,534; 1840,284;   -1,726;    0,227
866,094; 1667,397;    1,820;    0,227
866,655; 1750,692;    1,274;    3,318
867,215; 1623,260;    0,274;    0,136
867,776; 1509,191;    0,547;   -0,136
868,336; 1562,122;   -1,453;    0,136
868,897; 1947,235;    2,638;    1,682
869,457; 1729,530;    1,365;    0,318
870,017; 1548,461;    0,547;   -1,227
870,578; 1583,120;   -0,817;    0,773
871,138; 1534,779;   -2,089;   -0,955
871,698; 1408,437;   -0,817;   -1,318
872,258; 1539,459;   -0,453;   -2,864
872,818; 1791,300;    2,729;    0,045
873,378; 1585,504;    0,638;    1,045
873,938; 1511,708;    0,547;    0,500
874,498; 1419,003;    0,274;   -1,955
875,058; 1476,570;    2,183;    1,773
875,618; 1471,865;    1,910;   -2,682
876,177; 1512,615;    1,274;    0,136
876,737; 1287,546;   -0,090;    1,955
877,297; 1740,477;    0,183;    1,955
877,856; 1648,317;   -0,362;    0,318
878,416; 1386,794;    1,183;   -0,136
878,976; 1380,180;   -1,817;    0,409
879,535; 1433,475;    0,092;    3,136
880,095; 1427,588;   -0,544;    0,045
880,654; 1312,428;   -1,090;    1,318
881,213; 1681,814;    2,456;    1,500
881,773; 1469,018;    2,637;    2,682
882,332; 2102,768;    3,365;    5,136
882,891; 1508,335;    3,092;    2,136
883,451; 1515,994;   -1,272;    1,682
884,010; 1399,834;   -2,908;   -0,409
884,569; 1369,856;   -0,999;   -0,045
885,128; 1605,424;    2,819;   -1,864
885,687; 1924,719;    4,455;    0,682
886,246; 2078,105;    1,455;    2,136
886,805; 1761,036;    2,455;    2,045
887,364; 1434,876;   -0,999;   -0,500
887,922; 1353,626;   -1,181;    0,045
888,481; 1492,830;   -1,545;    0,591
889,040; 1659,488;    1,183;    2,136
889,599; 1541,147;    2,455;    1,409
890,157; 1533,351;    1,455;    2,409
890,716; 1439,555;   -0,090;    0,227
891,274; 1528,032;    0,092;   -1,136
891,833; 1642,236;    1,546;    0,864
892,391; 1444,985;   -0,454;    0,500
892,950; 1641,916;    1,819;   -0,773
893,508; 1452,302;    0,455;   -0,409
894,067; 1301,234;    0,637;    0,136
894,625; 1410,256;   -0,636;   -1,500
895,183; 1388,732;   -0,363;   -0,682
895,741; 1716,482;    1,728;   -1,773
896,299; 1473,231;   -0,545;   -2,409
896,858; 1375,526;    0,819;   -1,591
897,416; 1514,003;    2,728;   -1,318
897,974; 1444,480;    1,819;    0,318
898,532; 1948,047;    6,091;    2,682
899,089; 1558,706;    2,091;   -0,682
899,647; 1448,546;   -1,454;    1,318
900,205; 1512,296;    1,182;    1,045
900,763; 1520,682;   -0,454;    0,227
901,321; 1476,795;    2,364;   -1,409
901,878; 1264,635;   -1,000;   -0,773
902,436; 1326,930;   -1,363;    1,318
902,994; 2166,770;    4,728;    3,682
903,551; 1639,338;    0,728;    0,409
904,109; 1526,178;    0,182;   -1,409
904,666; 1444,746;    2,455;    1,045
905,224; 1309,404;    0,182;   -0,409
905,781; 1485,699;    0,727;   -0,318
906,338; 1401,631;   -1,363;    1,045
906,895; 1283,380;    0,637;    2,045
907,453; 1563,766;    1,727;    1,136
908,010; 1407,606;   -0,909;    0,409
908,567; 1334,719;    1,273;    0,591
909,124; 1135,105;    0,364;   -1,500
909,681; 1204,764;   -2,909;    0,682
910,238; 1292,877;    0,636;   -1,318
910,795; 1279,899;   -0,273;   -1,136
911,352; 1258,808;   -2,909;   -2,682
911,909; 1243,172;   -1,364;   -0,864
912,466; 1297,899;   -3,182;    1,500
913,022; 1299,081;   -1,636;    0,500
913,579; 1435,990;   -0,909;    2,045
914,136; 1284,990;    1,636;    0,955
914,692; 1358,808;    0,091;   -1,227
915,249; 1292,899;    1,455;    0,409
915,806; 1381,990;    0,182;    1,955
916,362; 1285,717;    1,909;    1,864
916,918; 1177,354;    2,000;    1,045
917,475; 1415,990;   -1,182;    0,955
918,031; 1209,990;    3,364;   -0,045
918,587; 1281,172;   -0,909;   -0,318
919,144; 1185,444;   -2,273;    0,227
919,700; 1138,808;    1,727;    0,773
920,256; 1111,808;    0,727;    0,045
920,812; 1140,172;   -0,727;   -1,045
921,368; 1099,626;   -1,727;   -1,045
921,924; 1074,990;    0,182;   -0,136
922,480; 1185,717;   -0,545;    1,227
923,036; 1220,263;    1,273;    1,955
923,592; 1116,808;    0,455;    0,318
924,148; 1146,808;    0,455;   -0,955
924,704; 1294,081;   -1,364;   -0,409
925,259; 1127,717;   -0,273;    0,591
925,815; 1076,263;    1,455;    0,500
926,371; 1037,263;    2,909;    1,409
926,926; 1188,626;    2,091;    0,591
927,482; 1141,899;   -1,364;    0,773
928,037; 1073,354;    0,909;    2,045
928,593; 1302,535;    1,636;    1,045
929,148; 1044,081;   -1,818;   -1,500
929,704; 1087,990;   -1,455;   -0,500
930,259;  969,717;    0,091;   -0,136
930,814; 1188,172;   -0,818;    1,955
931,369; 1108,172;    1,091;   -0,773
931,925;  875,081;   -0,091;    0,136
932,480;  984,899;   -2,818;   -2,591
933,035; 1396,990;    0,545;   -0,318
933,590; 1269,717;    0,364;   -1,773
934,145;  829,717;   -1,364;   -0,318
934,700;  734,990;    0,455;   -0,591
935,255;  813,626;   -0,091;    0,045
935,809; 1159,263;    3,182;    0,864
936,364;  738,899;   -0,455;   -0,136
936,919;  743,990;    0,455;   -1,773
937,474;  654,354;    1,455;    0,136
938,028;  694,444;   -1,636;    1,136
938,583; 1105,717;    1,818;    4,682
939,138;  736,899;    2,091;    2,136
939,692;  595,263;    1,636;   -1,136
940,247;  632,626;   -0,727;   -1,045
940,801;  701,172;   -0,636;    0,227
941,355;  596,172;   -0,364;    2,591
941,910;  476,990;   -0,273;   -2,136
942,464;  517,626;   -0,818;   -0,318
943,018;  801,354;    1,000;   -0,227
943,572;  610,990;    2,545;   -0,682
944,126;  658,899;    0,091;   -0,409
944,681;  520,444;    3,091;    0,227
945,235;  468,263;    1,000;   -0,591
945,789;  414,808;    0,364;   -1,864
946,342;  751,263;    0,455;   -0,591
946,896;  473,444;   -2,273;    0,955
947,450;  448,626;    1,545;   -0,227
948,004;  726,717;    1,727;   -0,045
948,558;  514,444;    0,273;   -0,864
949,111;  508,717;   -0,273;   -0,318
949,665;  726,626;    1,636;   -0,682
950,219;  670,717;   -0,091;   -1,045
950,772;  589,626;   -1,909;    1,864
951,326;  583,081;    0,545;   -0,955
951,879;  503,626;    0,727;   -2,318
952,433;  652,899;    0,000;    2,227
952,986;  462,717;    2,909;    0,682
953,539;  417,354;   -0,273;    0,591
954,093;  359,990;    0,545;   -1,318
954,646;  519,263;    0,909;    1,318
955,199;  432,717;    0,000;   -0,500
955,752;  660,535;   -0,455;    1,773
956,305;  492,535;   -0,091;    2,955
956,858;  553,535;    0,818;   -0,318
957,411;  624,172;   -0,545;    2,136
957,964;  505,535;    1,364;    2,136
958,517;  413,444;   -1,545;    3,136
959,070;  369,172;   -0,455;    1,955
959,623;  676,535;    1,091;    1,500
960,176;  617,626;    1,727;    2,045
960,728;  574,535;   -2,727;    0,773
961,281;  518,172;    0,545;    0,500
961,834;  438,990;   -0,909;    0,864
962,386;  443,172;    1,727;    1,045
962,939;  397,444;    0,364;   -0,318
963,491;  447,899;    0,455;    1,136
964,043;  374,172;    1,182;    2,409
964,596;  570,626;   -1,000;    2,227
965,148;  463,626;   -1,000;    1,773
965,700;  371,626;    1,091;   -0,227
966,253;  553,172;   -0,636;    0,318
966,805;  513,444;   -2,273;    0,773
967,357;  435,263;    1,091;   -1,500
967,909;  557,717;    0,455;   -1,227
968,461;  428,990;    0,545;    3,136
969,013;  378,808;   -0,182;   -0,864
969,565;  539,808;   -0,455;   -1,136
970,117;  807,172;   -0,364;    1,045
970,669;  544,808;    0,182;   -0,136
971,220;  324,354;   -0,455;   -1,500
971,772;  425,354;   -0,636;   -0,318
972,324;  525,626;    0,091;   -0,500
972,876;  429,444;    0,818;   -0,045
973,427;  564,081;    1,909;   -1,045
973,979;  624,444;   -0,727;   -2,500
974,530;  410,263;    1,818;    1,318
975,082;  470,717;   -0,545;    1,682
975,633;  415,990;    1,091;    1,682
976,184;  492,626;    0,909;    0,773
976,736;  479,081;    0,091;    0,227
977,287;  491,263;   -0,909;   -0,500
977,838;  451,535;    0,909;   -0,318
978,389;  464,354;   -1,000;   -0,500
978,940;  314,626;    0,545;   -0,409
979,491;  312,535;    0,091;   -0,500
980,042;  418,717;    0,182;    3,045
980,593;  419,263;   -2,545;    0,227
981,144;  530,172;    2,545;   -0,500
981,695;  586,172;    1,455;    1,500
982,246;  519,626;   -0,273;    1,045
982,797;  372,354;   -1,727;    0,682
983,347;  532,535;    0,364;    0,591
983,898;  742,899;    3,091;    0,409
984,449;  695,172;    2,182;    0,773
984,999;  517,808;    1,455;   -1,136
985,550;  476,626;    0,182;   -0,318
986,100;  322,444;   -0,455;   -0,318
986,651;  322,990;   -0,818;    0,045
987,201;  364,444;   -1,000;   -0,591
987,751;  368,081;    0,818;    2,864
988,302;  422,354;    2,636;    1,500
988,852;  472,808;    0,455;   -1,136
989,402;  542,899;    0,091;    0,682
989,952;  565,535;   -2,182;    0,864
990,502;  394,263;   -0,091;    0,682
991,052;  292,172;   -0,727;    0,045
991,602;  344,535;   -2,909;    1,318
992,152;  401,354;    0,455;    0,682
992,702;  442,172;    1,364;   -0,045
993,252;  378,535;   -3,000;   -0,500
993,802;  480,444;   -0,273;    1,318
994,352;  434,263;   -1,545;    1,136
994,901;  338,263;   -0,182;    3,227
995,451;  324,990;   -0,182;    0,318
996,000;  364,626;    1,636;    0,318
996,550;  365,717;    2,273;    0,227
997,100;  408,808;    1,273;   -0,045
997,649;  566,444;    2,182;    0,955
998,198;  370,990;    1,727;   -1,500
998,748;  502,626;    1,091;   -2,318
999,297;  424,717;   -0,818;   -0,409
999,846;  573,081;    1,000;   -0,773
1000,395;  470,990;   -0,818;    0,500
1000,945;  585,717;    1,818;   -0,773
1001,494;  588,899;    2,364;    0,682
1002,043;  570,354;    4,636;    0,864
1002,592;  376,444;   -1,091;    1,955
1003,141;  371,717;   -0,455;   -0,682
1003,690;  538,263;    1,727;    0,500
1004,238;  414,081;    1,455;   -0,045
1004,787;  319,081;    1,364;    1,227
1005,336;  513,444;    0,364;    0,682
1005,885;  457,808;    1,364;   -2,773
1006,433;  450,172;    0,545;    0,955
1006,982;  661,263;    0,455;    1,682
1007,531;  487,626;   -1,818;   -0,227
1008,079;  433,081;   -2,273;    0,500
1008,627;  368,717;   -1,455;    0,409
1009,176;  393,354;    0,000;   -1,955
1009,724;  339,081;    1,091;    0,864
1010,273;  504,717;    1,273;    0,500
1010,821;  369,899;    0,091;    1,409
1011,369;  334,535;   -1,364;    1,318
1011,917;  362,444;   -1,364;   -0,591
1012,465;  452,990;    1,273;   -1,591
1013,013;  433,172;    2,091;   -1,682
1013,561;  554,990;    0,455;   -0,773
1014,109;  648,081;   -1,909;    1,682
1014,657;  503,535;    0,364;    0,591
1015,205;  389,263;    1,636;   -0,955
1015,753;  335,990;   -0,545;   -1,409
1016,301;  427,808;   -2,636;    3,045
1016,848;  507,626;   -1,273;    0,409
1017,396;  505,172;    2,545;    0,045
1017,944;  502,444;    1,182;    1,864
1018,491;  396,626;    0,273;    1,409
1019,039;  733,263;    0,455;    0,591
1019,586;  475,899;   -1,364;    1,682
1020,134;  459,626;    0,455;    1,500
1020,681;  531,899;    0,182;   -1,136
1021,228;  435,899;    2,909;   -2,227
1021,776;  417,899;    1,182;   -1,136
1022,323;  661,990;    0,455;    0,773
1022,870;  559,172;   -1,000;   -0,045
1023,417;  616,172;    2,636;    1,864
1023,964;  428,263;    2,636;    1,227
1024,511;  409,717;    1,000;    0,773
1025,058;  435,899;    3,182;   -0,045
1025,605;  397,263;   -2,273;    3,136
1026,152;  623,354;    1,727;   -0,591
1026,699;  465,990;    1,818;    1,318
1027,245;  445,626;   -0,091;    0,318
1027,792;  372,081;   -1,000;    1,409
1028,339;  609,717;    2,364;   -0,045
1028,885;  465,081;    1,000;   -0,227
1029,432;  407,172;   -0,091;    0,227
1029,978;  525,354;   -1,000;   -1,591
1030,525;  517,717;    1,000;    0,409
1031,071;  378,626;   -1,364;    1,136
1031,618;  694,263;    0,364;    1,682
1032,164;  502,899;   -0,091;    3,045
1032,710;  553,263;    1,636;   -1,500
1033,256;  509,263;   -0,636;   -0,136
1033,803;  359,354;   -0,545;    1,500
1034,349;  220,081;   -1,364;    0,136
1034,895;  271,535;    0,000;   -0,318
1035,441;  350,990;   -0,818;    0,318
1035,987;  403,535;   -2,364;   -0,682
1036,533;  481,990;   -1,455;   -0,955
1037,078;  692,081;    1,455;    1,682
1037,624;  525,081;    2,455;   -0,955
1038,170;  387,172;    0,455;   -0,318
1038,716;  476,626;    1,636;   -0,409
1039,261;  343,626;   -2,273;   -0,773
1039,807;  365,990;   -0,091;    3,409
1040,352;  401,808;   -1,909;   -0,318
1040,898;  394,717;   -1,545;   -0,682
1041,443;  310,990;   -1,455;   -2,591
1041,989;  629,081;    1,091;    1,591
1042,534;  415,990;   -0,364;    2,591
1043,079;  299,990;    2,909;    0,955
1043,625;  416,081;    1,818;    0,500
1044,170;  436,354;   -1,364;    1,045
1044,715;  643,354;    2,455;    0,955
1045,260;  531,354;    2,182;   -0,955
1045,805;  369,444;    1,182;   -0,591
1046,350;  332,717;    1,364;   -0,409
1046,895;  522,263;    2,909;    1,591
1047,440;  514,354;    5,364;    0,409
1047,985;  378,990;    2,818;   -0,955
1048,530;  347,535;    1,545;    1,227
1049,074;  414,717;    0,000;    0,318
1049,619;  337,081;   -1,364;    1,955
1050,164;  334,990;    0,455;    0,227
1050,708;  429,081;   -0,455;    0,045
1051,253;  681,899;    1,273;   -2,227
1051,797;  469,535;    0,818;   -1,318
1052,342;  288,354;   -1,182;    1,045
1052,886;  392,263;    0,364;   -1,409
1053,430;  272,081;   -1,364;    0,136
1053,975;  370,354;   -0,818;   -0,318
1054,519;  375,535;   -0,727;    3,227
1055,063;  452,263;    0,909;    1,318
1055,607;  440,717;   -0,182;    0,227
1056,151;  431,899;    2,909;    1,682
1056,695;  339,263;    2,273;   -1,136
1057,239;  330,535;   -1,727;   -0,682
1057,783;  384,354;    0,818;   -1,500
1058,327;  456,626;    0,000;    1,409
1058,871;  607,263;   -0,545;    1,318
1059,415;  469,990;   -0,818;   -0,045
1059,958;  626,263;    1,455;    2,591
1060,502;  384,899;   -1,000;   -0,773
1061,046;  276,172;    0,364;   -0,955
1061,589;  260,444;   -3,000;   -1,136
1062,133;  229,717;   -1,273;    1,864
1062,676;  274,263;    1,182;    0,864
1063,220;  311,444;    1,091;    0,500
1063,763;  346,899;    0,909;    1,136
1064,306;  374,626;   -0,909;    1,864
1064,849;  374,354;   -0,909;    0,591
1065,393;  347,535;    2,000;   -1,500
1065,936;  350,626;    0,182;   -0,409
1066,479;  263,535;   -1,455;    1,318
1067,022;  287,990;   -0,273;   -0,227
1067,565;  262,263;   -0,091;   -1,318
1068,108;  232,263;    0,727;   -0,591
1068,651;  206,444;   -0,636;    1,409
1069,194;  214,990;   -0,455;   -1,682
1069,736;  241,990;   -1,273;    0,955
1070,279;  213,172;   -1,364;   -0,500
1070,822;  309,899;   -2,000;   -0,318
1071,364;  442,808;   -0,364;    1,318
1071,907;  287,263;   -0,727;    3,227
1072,450;  139,990;    0,000;   -0,045
1072,992;  218,444;   -0,273;    3,136
1073,535;  305,535;    2,091;    2,136
1074,077;  211,717;   -0,727;    2,045
1074,619;  211,172;   -1,364;    0,591
1075,161;  237,717;   -1,091;    1,500
1075,704;  372,717;    1,545;    1,227
1076,246;  234,354;   -0,182;    0,682
1076,788;  164,172;   -0,364;    1,773
1077,330;  162,263;    1,273;    2,136
1077,872;  210,808;    0,909;    0,955
1078,414;  389,354;    2,727;    0,773
1078,956;  239,444;    1,273;   -0,227
1079,498;  385,535;    1,636;    0,318
1080,040;  238,263;    1,909;   -1,318
1080,581;  195,444;    1,636;   -0,318
1081,123;  136,081;    0,091;   -0,773
1081,665;  149,172;   -1,182;   -0,955
1082,206;  349,808;    1,364;   -0,500
1082,748;  263,626;    0,727;    2,045
1083,289;  171,444;   -2,000;    1,318
1083,831;  160,717;   -0,545;    0,227
1084,372;  209,626;    0,000;    0,591
1084,913;  205,444;    1,091;    0,864
1085,455;  151,535;   -1,909;   -2,045
1085,996;  153,717;   -2,273;    0,136
1086,537;  188,990;   -0,091;    0,864
1087,078;  198,172;   -0,909;   -2,136
1087,619;  246,172;   -1,273;    0,227
1088,160;  203,081;    0,000;    1,318
1088,701;  185,535;   -1,091;    0,682
1089,242;  167,717;    1,364;   -2,227
1089,783;  217,626;   -0,273;    1,409
1090,324;  199,172;    0,455;    0,682
1090,865;  142,263;    2,727;   -0,409
1091,405;  115,808;    0,727;    2,227
1091,946;  160,172;    0,182;   -0,955
1092,487;  107,535;    0,818;   -1,409
1093,027;  219,172;   -1,364;   -1,500
1093,568;  144,808;   -0,364;    1,227
1094,108;  192,990;    0,273;    1,773
1094,649;  159,626;   -1,182;    0,136
1095,189;  127,444;   -0,636;   -0,682
1095,729;  124,899;   -0,091;    0,955
1096,269;  108,899;    0,727;   -0,955
1096,810;  278,535;   -1,364;    0,500
1097,350;  210,990;    1,364;   -0,773
1097,890;  155,081;    0,364;    1,227
1098,430;  323,899;    2,364;    2,864
1098,970;  258,354;    2,182;    1,682
1099,510;  143,081;    0,545;   -2,318
1100,050;  118,626;    1,000;   -1,591
1100,589;  133,172;   -0,727;   -0,318
1101,129;  191,535;    0,818;   -0,955
1101,669;  273,535;    1,727;    2,136
1102,209;  189,535;   -0,091;    2,227
1102,748;  154,444;    0,000;    0,955
1103,288;  161,990;    1,273;   -1,227
1103,827;  153,717;    3,091;   -2,227
1104,367;  114,626;   -0,091;   -2,409
1104,906;  114,354;    1,364;   -1,136
1105,445;  162,990;    0,636;   -1,136
1105,985;  134,808;   -0,727;    1,500
1106,524;  149,172;   -1,727;   -0,682
1107,063;  141,444;   -2,727;    1,409
1107,602;  107,172;   -1,909;   -1,500
1108,141;   91,081;   -1,909;    1,500
1108,680;  160,717;   -3,455;   -0,591
1109,219;  127,990;   -0,909;   -0,500
1109,758;  117,354;    0,455;    0,682
1110,297;  117,081;    1,000;   -0,682
1110,836;   90,172;   -0,727;    0,955
1111,375;  132,535;   -2,545;    0,409
1111,913;  167,808;   -1,000;    0,773
1112,452;  136,081;   -0,273;    0,136
1112,991;   84,808;    1,091;    1,955
1113,529;   85,717;   -0,818;   -0,045
1114,068;  112,717;   -0,273;    2,955
1114,606;   79,263;   -0,364;   -0,955
1115,144;  151,990;   -1,273;    1,045
1115,683;  118,990;   -0,727;    0,318
1116,221;  148,808;   -0,455;   -0,864
1116,759;   92,626;    0,636;   -0,864
1117,297;  185,899;    0,000;    1,864
1117,836;  104,899;   -2,182;   -1,227
1118,374;  101,808;    0,182;   -0,682
1118,912;  106,899;    0,909;    2,682
1119,450;  100,535;    1,000;    0,864
1119,988;  103,081;    1,545;    2,136
1120,525;  371,899;    5,091;    3,318
1121,063;  203,263;    1,182;    1,864
1121,601;  102,263;   -0,909;   -1,227
1122,139;   85,444;   -0,727;   -2,045
1122,676;  195,172;   -0,727;    2,773
1123,214;  163,444;   -1,182;    4,409
1123,751;   78,172;    1,727;    2,227
1124,289;  120,444;   -0,091;   -0,409
1124,826;   83,717;    1,727;    0,227
1125,364;   47,081;    1,727;   -0,955
1125,901;  149,990;    1,182;    1,227
1126,438;  163,172;    0,818;    0,955
1126,975;   50,899;   -0,727;   -0,773
1127,513;   78,535;    0,273;    2,136
1128,050;   55,626;    1,636;   -0,682
1128,587;   86,808;    2,000;   -0,227
1129,124;  114,172;    0,091;    1,318
1129,661;   64,172;    0,273;    0,227
1130,198;  142,535;    1,636;    0,773
1130,734;  101,081;    0,182;    1,409
1131,271;   45,808;   -0,909;    0,864
1131,808;  120,172;    2,909;    3,045
1132,345;   71,081;    1,545;    0,318
1132,881;   30,535;   -1,545;   -1,864
1133,418;   84,172;    0,727;   -1,136
1133,954;   57,535;    2,455;   -2,682
1134,491;   89,354;    1,364;   -0,773
1135,027;   50,172;    2,364;    0,864
1135,564;   85,899;    0,273;    2,955
1136,100;   75,808;    0,364;    2,136
1136,636;   37,990;   -1,273;   -1,045
1137,172;   62,626;    0,000;   -1,045
1137,708;   41,354;   -1,364;   -1,045
1138,245;   38,263;    1,273;   -1,227
1138,781;   30,172;    1,091;   -3,318
1139,317;   51,717;    1,273;   -1,409
1139,852;   59,717;    3,091;    0,136
1140,388;   90,899;   -1,182;   -0,409
1140,924;   53,172;   -1,091;   -2,227
1141,460;   35,081;   -1,636;    0,136
1141,996;   16,626;   -1,364;    2,682
1142,531;   31,535;    1,364;    3,318
1143,067;  110,354;    1,182;    1,045
1143,602;  141,899;   -0,091;   -0,318
1144,138;   70,172;   -2,636;    1,045
1144,673;   30,808;   -1,455;    1,409
1145,209;   47,990;   -1,909;   -0,318
1145,744;   25,081;   -0,727;    0,864
1146,279;   71,990;    1,818;   -0,136
1146,815;   40,717;    1,545;   -2,682
1147,350;   57,717;   -1,364;    0,045
1147,885;   30,354;   -0,818;   -1,318
1148,420;   27,081;   -2,273;    0,773
1148,955;   28,535;   -1,727;    1,864
1149,490;   34,081;   -0,909;   -1,591
1150,025;   22,626;    0,455;   -1,773
1150,560;   66,808;    1,091;   -0,955
1151,094;   53,081;    1,455;   -0,591
1151,629;   50,354;    1,636;    0,864
1152,164;   31,899;    1,364;    1,318
1152,698;   20,990;   -0,182;   -0,136
1153,233;   12,172;    0,091;   -0,682
1153,767;   24,990;   -3,000;   -2,318
1154,302;   38,444;   -1,455;    1,773
1154,836;   38,444;   -0,455;   -2,136
1155,371;   49,717;   -1,364;    3,682
1155,905;   30,717;   -0,636;    1,682
1156,439;   29,990;   -0,636;   -0,500
1156,973;   36,172;    0,364;    0,318
1157,507;   19,081;   -0,364;    0,682
1158,042;   27,808;   -0,727;    1,045
1158,576;   41,354;    0,182;    1,773
1159,110;   38,354;   -0,818;    2,409
1159,643;   28,081;    0,636;   -0,045
1160,177;   12,899;   -1,545;    1,500

