
Integration time [ms]:   0,040
Averaging Nr. [scans]: 11
Smoothing Nr. [pixels]: 0
Data measured with spectrometer [name]: 7318044SP
Wave   ;Sample   ;Dark     ;Reference
[nm]   ;[counts] ;[counts] ;[counts] 

186,757;   40,197;   31,551;    1,318
187,357;   41,962;   22,551;    0,955
187,958;   27,994;   15,460;   -1,591
188,558;   42,361;    8,915;   -1,227
189,159;   29,625;    6,733;   -4,500
189,759;   16,795;    7,278;   -3,591
190,360;   16,322;    2,824;   -2,136
190,960;   26,925;    2,915;   -4,136
191,560;   31,700;    3,189;   -6,591
192,161;  134,541;    4,372;   -3,500
192,761;   75,847;    4,010;   -3,227
193,361;   48,137;    1,556;   -3,773
193,962;   66,474;    2,010;   -2,682
194,562;   21,734;    1,189;   -3,955
195,162;   21,127;   -2,448;   -2,227
195,762;   79,377;   -3,176;   -0,045
196,362;   52,301;    1,370;   -2,500
196,963;   15,182;    2,006;   -0,864
197,563;   38,006;    1,551;   -0,955
198,163;   15,682;    0,096;   -0,682
198,763;   23,262;    1,733;   -0,500
199,363;   44,285;    3,096;   -0,500
199,963;   28,840;    0,369;    0,409
200,563;   24,594;    2,823;   -1,409
201,163;   14,920;    3,277;   -0,227
201,763;   29,331;    3,732;    0,318
202,363;   15,134;    1,459;    1,500
202,963;   27,281;    1,459;    1,045
203,563;   59,460;    0,277;    0,500
204,162;   25,495;    2,096;   -1,864
204,762;   21,238;    0,550;    0,591
205,362;   14,267;    3,004;    1,955
205,962;   24,275;    3,096;    1,955
206,562;   21,191;    1,823;    2,318
207,161;   16,150;   -0,087;    0,318
207,761;   71,648;    1,277;    2,409
208,361;   29,149;   -0,268;    1,409
208,960;   39,243;    0,459;    1,500
209,560;   32,810;    1,277;    1,591
210,160;   47,687;    0,550;    1,864
210,759;   33,692;    4,186;    1,227
211,359;   26,488;    1,459;    1,045
211,958;  111,804;    1,277;    2,045
212,558;  108,478;    1,732;    1,864
213,157;   57,411;    1,822;    1,500
213,757;  176,359;    3,822;   -0,227
214,356;   83,130;    1,277;   -0,409
214,956;  168,235;    3,095;    0,409
215,555;   69,221;    2,095;    2,136
216,154;   41,497;   -2,723;   -0,591
216,754;   46,388;    0,277;    0,773
217,353;   61,836;   -0,268;   -1,045
217,952;   19,858;   -0,178;    0,318
218,552;   85,685;    1,368;   -0,773
219,151;   49,339;    0,277;    0,955
219,750;   40,422;    0,004;   -0,227
220,349;   32,090;   -0,451;    1,045
220,948;  106,486;   -1,360;    1,136
221,548;   52,450;    0,913;    1,227
222,147;   74,045;   -0,087;   -0,409
222,746;  159,914;   -0,451;   -0,955
223,345;   93,322;    0,731;    0,500
223,944;   95,878;   -0,451;    0,773
224,543;  106,764;    1,004;   -1,409
225,142;   97,768;    0,094;    0,136
225,741;   97,574;   -0,814;    1,045
226,340;   90,166;   -0,451;   -0,955
226,939;  166,937;   -0,996;   -0,136
227,538;   82,277;   -0,360;   -0,773
228,137;  179,318;   -0,814;    0,864
228,735;  138,036;   -0,541;    1,227
229,334;   57,473;   -0,905;   -0,227
229,933;  182,769;    0,459;    0,591
230,532;  178,936;    1,186;   -0,409
231,131;  240,141;    1,732;    0,318
231,729;  145,634;   -2,450;   -2,318
232,328;  100,605;   -0,723;   -1,500
232,927;  111,177;    1,004;   -0,500
233,525;  102,004;    3,640;    0,045
234,124;  127,843;    2,368;   -1,591
234,723;   84,004;    0,913;   -1,045
235,321;   75,778;    2,277;    0,136
235,920;   99,189;    1,186;   -1,227
236,518;  206,963;    3,459;    0,318
237,117;  100,547;    0,004;   -0,227
237,715;  111,661;    0,640;   -0,500
238,314;  141,326;   -0,087;   -2,318
238,912;  235,693;   -0,723;   -1,409
239,510;  169,385;    0,459;   -1,227
240,109;  254,018;    0,004;    3,773
240,707;  224,605;   -0,996;    1,227
241,305;  119,487;    0,550;    0,136
241,904;  199,033;   -0,178;   -2,045
242,502;  300,787;   -0,632;   -0,227
243,100;  217,643;   -0,087;   -0,955
243,698;  161,666;    0,732;    1,682
244,297;  198,482;   -0,632;    0,682
244,895;  206,034;   -0,269;   -2,318
245,493;  365,573;    2,186;   -0,591
246,091;  371,172;    1,368;   -1,318
246,689;  314,617;    1,004;    0,591
247,287;  296,424;    0,822;   -1,136
247,885;  267,509;   -1,451;    1,227
248,483;  243,685;    1,822;   -0,500
249,081;  330,583;    0,185;    1,591
249,679;  367,460;   -0,178;    1,682
250,277;  253,811;   -1,723;    0,864
250,875;  391,743;   -1,087;   -1,045
251,473;  291,922;   -1,178;    0,500
252,071;  406,866;    1,459;    1,045
252,669;  325,878;   -1,814;    0,318
253,267;  270,815;   -0,087;    0,773
253,864;  336,424;   -0,360;    0,682
254,462;  499,210;    1,640;    1,591
255,060;  281,257;   -0,269;    1,318
255,658;  287,060;    0,822;   -0,136
256,255;  367,051;    0,186;   -2,045
256,853;  420,236;   -0,269;    1,409
257,451;  399,738;    0,822;    1,864
258,048;  812,603;    1,822;    1,864
258,646;  526,201;    1,731;   -1,045
259,243;  627,691;   -0,087;    2,227
259,841;  508,339;   -0,814;    0,318
260,438;  353,515;   -0,087;    0,864
261,036;  490,857;   -1,905;    1,409
261,633;  376,987;   -0,087;    2,227
262,231;  337,219;    2,731;   -0,045
262,828;  343,705;   -0,905;    1,136
263,425;  409,403;    0,913;   -0,591
264,023;  419,984;    0,186;    0,045
264,620;  584,274;   -0,360;   -0,318
265,217;  719,069;   -2,087;    3,136
265,815;  431,474;   -1,905;    2,136
266,412;  567,723;    0,731;    0,136
267,009;  607,729;   -1,451;    0,773
267,606;  694,928;    0,822;   -0,955
268,203;  477,805;   -0,269;   -0,591
268,801;  530,509;    1,731;    0,591
269,398;  429,266;   -0,360;    2,500
269,995;  606,341;    0,277;    1,591
270,592;  527,385;   -0,632;   -0,500
271,189;  431,178;    0,186;    0,409
271,786;  411,051;   -0,632;    1,227
272,383;  689,057;   -1,087;    0,227
272,980;  528,380;    0,277;    0,318
273,577;  471,643;    0,004;    1,227
274,174;  429,136;    0,822;    2,591
274,771;  581,333;   -0,814;   -0,773
275,367;  997,452;    2,277;    1,409
275,964;  800,291;    0,731;   -0,500
276,561;  571,178;    1,549;   -1,045
277,158;  477,369;    0,095;   -1,773
277,755;  742,946;    2,185;    0,409
278,351;  615,374;   -0,451;   -1,500
278,948;  697,844;   -0,815;    0,045
279,545;  621,468;   -1,360;    2,318
280,141;  855,339;   -1,723;   -2,045
280,738;  785,861;   -0,451;   -0,136
281,334;  556,084;   -1,633;    0,591
281,931;  587,190;   -0,087;   -1,318
282,528;  702,422;    0,822;   -0,500
283,124;  801,028;   -1,087;   -0,500
283,721;  787,882;   -0,451;    1,409
284,317;  612,478;    0,185;    2,500
284,913;  838,351;   -1,360;    0,591
285,510; 1129,897;    0,640;   -0,318
286,106;  922,325;   -2,269;   -0,955
286,703;  658,269;   -0,360;    1,955
287,299;  603,521;   -1,451;   -0,591
287,895;  604,641;    0,822;   -1,045
288,491;  598,357;    0,186;    2,136
289,088;  750,706;   -2,360;    2,409
289,684;  805,515;   -1,723;    1,500
290,280;  965,221;    0,368;    0,682
290,876;  930,899;    1,822;    5,500
291,472;  810,735;    1,276;    2,227
292,068;  836,070;    1,367;    0,227
292,665;  688,248;    2,095;    0,773
293,261;  563,650;    0,276;    2,136
293,857;  806,840;    2,913;    2,136
294,453;  724,124;    3,550;    0,955
295,049;  964,736;   -0,268;    1,955
295,644;  770,798;    0,095;    0,136
296,240;  628,009;   -0,905;   -0,136
296,836;  798,906;   -0,995;    0,318
297,432;  965,659;    1,096;   -0,500
298,028; 1035,211;    0,732;    0,773
298,624;  860,569;    1,459;    1,864
299,220;  821,668;    2,368;    0,591
299,815;  808,598;    1,005;   -0,409
300,411;  929,554;    0,914;    1,773
301,007; 1077,730;    1,368;    0,227
301,602;  877,284;   -0,541;   -2,318
302,198; 1025,187;    0,732;   -0,773
302,794;  851,548;    1,187;   -0,500
303,389;  819,483;   -1,177;    1,045
303,985;  888,871;    0,550;    1,409
304,580; 1009,539;    1,459;    1,591
305,176;  899,642;   -3,086;    0,136
305,771;  769,815;   -1,268;   -1,227
306,367; 1212,511;    4,095;    0,136
306,962;  961,102;    0,641;    1,500
307,558;  967,915;   -0,450;    0,136
308,153; 1080,015;    1,095;   -1,136
308,748;  842,050;   -0,814;    1,682
309,344; 1276,423;   -0,632;   -1,318
309,939; 1304,164;   -1,905;   -1,318
310,534;  936,748;   -0,086;   -1,682
311,130;  870,428;    0,459;   -2,500
311,725;  798,499;    1,004;   -0,500
312,320;  896,663;    2,459;    0,045
312,915; 1034,030;    1,459;   -1,045
313,510; 1268,783;    1,550;   -0,500
314,105;  976,128;    1,096;    1,409
314,700;  754,381;   -3,086;   -1,045
315,295;  848,175;   -0,904;    0,045
315,890;  749,903;    1,277;    0,864
316,485;  881,698;   -0,359;   -0,318
317,080;  798,393;   -3,086;    1,591
317,675; 1153,126;    2,005;   -0,682
318,270; 1353,413;    5,550;    3,318
318,865; 1250,222;    3,278;    3,045
319,460; 1036,190;   -0,904;    0,591
320,055;  872,776;   -0,541;   -1,227
320,650;  848,638;   -1,995;   -0,591
321,244;  853,275;   -0,177;   -1,409
321,839;  952,498;   -1,541;   -0,227
322,434; 1002,481;   -1,086;   -1,591
323,029;  877,005;    1,732;    1,591
323,623;  818,777;    1,550;    0,773
324,218;  994,125;    2,368;    1,409
324,812;  919,375;    1,096;    1,591
325,407;  936,827;   -0,814;    2,045
326,002; 1049,932;    0,277;   -0,409
326,596;  997,718;    0,914;    1,318
327,191;  832,616;    0,823;   -1,045
327,785;  782,718;   -0,813;   -0,227
328,379;  858,073;    1,368;    0,136
328,974;  902,894;    0,914;   -3,955
329,568;  938,659;    0,186;   -2,409
330,163; 1013,571;    2,096;    1,045
330,757;  857,631;    2,459;    1,591
331,351;  786,446;    0,459;    0,682
331,945;  789,539;    0,914;    1,409
332,540;  966,000;   -1,723;   -0,591
333,134;  946,827;   -1,086;    0,773
333,728;  920,906;    0,005;    0,318
334,322;  832,786;   -1,177;   -0,864
334,916;  781,739;    0,277;    0,955
335,510; 1003,431;   -0,450;   -0,136
336,105; 1028,434;   -1,086;    1,591
336,699;  886,390;   -1,086;    0,591
337,293;  914,992;   -1,723;    0,318
337,887;  853,302;   -2,723;    1,955
338,481; 1052,267;    0,459;    0,591
339,074; 1193,276;   -0,359;    2,682
339,668; 1159,593;   -1,632;    1,227
340,262; 1825,203;    1,732;    3,227
340,856; 1347,188;    1,822;   -0,682
341,450;  921,537;    1,004;    1,864
342,044; 1028,810;    1,459;    0,136
342,637; 1209,927;    0,913;   -2,136
343,231; 1239,289;   -2,360;    0,682
343,825; 1029,927;   -1,086;   -0,591
344,419; 1008,774;   -1,995;    0,500
345,012; 1641,425;    2,459;    4,045
345,606; 1426,005;    4,641;    1,591
346,199; 1046,439;   -1,813;   -0,227
346,793; 1194,392;    1,914;    2,045
347,386;  988,454;   -0,813;   -1,136
347,980;  835,016;   -0,268;   -0,045
348,573;  980,872;    2,278;    0,409
349,167; 1290,983;    5,278;    4,773
349,760; 1222,549;    2,914;    2,682
350,354; 1137,229;   -0,813;    1,136
350,947; 1191,599;    1,096;    1,682
351,540;  966,948;   -0,358;   -1,409
352,134;  797,461;    1,096;    1,136
352,727;  873,609;   -0,086;    1,136
353,320;  902,145;    0,005;    0,591
353,913;  807,382;   -1,995;    1,864
354,507; 1062,790;    0,823;   -1,227
355,100;  935,192;    0,460;    0,864
355,693; 1383,593;    2,005;    2,409
356,286; 1081,180;    0,823;    2,773
356,879;  904,749;   -0,722;    1,227
357,472;  873,596;   -0,904;    1,500
358,065;  964,180;   -0,722;    2,500
358,658;  789,285;   -0,540;    2,318
359,251;  718,303;   -1,631;   -0,591
359,844;  941,153;   -1,904;   -1,136
360,437; 1048,752;   -2,995;    0,045
361,030;  878,391;    1,369;   -0,682
361,623;  855,520;    2,824;    0,318
362,215; 1115,702;   -0,086;    2,045
362,808;  941,391;   -2,358;   -1,682
363,401;  861,355;   -2,449;    0,136
363,994; 1120,909;   -0,631;   -1,500
364,586;  855,838;    0,824;   -1,500
365,179;  791,955;   -0,449;   -1,136
365,772;  595,370;   -1,995;    2,045
366,364;  783,955;    1,915;   -3,227
366,957;  899,095;    2,279;   -0,045
367,549;  807,901;    2,188;   -0,864
368,142;  812,590;    1,825;   -1,500
368,734;  765,425;    0,734;   -2,136
369,327;  668,530;    1,643;   -0,500
369,919;  722,054;   -1,538;    0,409
370,512;  764,998;   -1,083;   -0,500
371,104; 1061,873;   -0,901;    1,591
371,696; 1126,613;    1,191;   -0,955
372,289;  944,509;    0,373;    1,136
372,881;  876,236;   -2,080;    1,318
373,473;  721,962;   -2,170;    1,136
374,066;  854,155;   -0,169;    0,500
374,658;  814,781;    0,378;    1,136
375,250;  744,322;    0,653;   -1,409
375,842;  809,425;    0,473;   -0,045
376,434;  750,984;   -0,435;   -0,409
377,026;  777,002;    0,204;   -2,500
377,618;  814,575;   -0,158;   -0,682
378,210;  723,494;   -0,338;   -1,955
378,802;  666,634;    0,754;   -0,591
379,394; 1194,300;    1,846;    0,682
379,986;  915,615;    1,393;   -0,955
380,578;  800,092;   -0,153;    0,773
381,170; 1071,678;   -0,972;    0,045
381,762;  942,634;    0,755;    1,409
382,354;  898,239;   -0,065;   -1,318
382,945;  777,055;   -2,976;    0,318
383,537;  713,953;   -2,705;   -1,955
384,129;  721,200;   -2,160;   -1,136
384,721;  873,518;   -0,252;    0,955
385,312;  756,774;   -0,161;   -0,955
385,904;  913,961;   -2,706;    1,591
386,496;  753,388;   -0,979;    1,045
387,087;  946,760;    1,022;    2,500
387,679;  876,686;   -1,160;    0,045
388,270;  889,028;    2,840;    2,045
388,862;  825,627;    1,295;   -0,318
389,453;  757,993;   -0,887;    1,045
390,045;  807,899;   -0,705;   -2,682
390,636;  691,931;    0,204;   -0,591
391,227;  745,231;   -0,523;   -0,045
391,819;  764,744;    0,204;    0,773
392,410; 1063,408;    1,022;    0,045
393,001;  827,400;   -0,979;   -1,591
393,593;  934,172;    1,930;   -0,045
394,184;  992,327;    1,385;   -0,409
394,775;  796,702;    1,839;    2,136
395,366;  743,655;    1,385;    0,773
395,957;  989,883;    0,113;    0,136
396,548;  853,385;   -0,342;    2,682
397,139; 1036,123;   -2,433;    0,591
397,730;  902,998;   -1,888;    0,955
398,321;  905,755;   -1,252;    0,955
398,912;  832,647;   -0,615;    0,136
399,503;  851,996;   -3,524;   -1,409
400,094;  873,049;    0,294;    1,682
400,685;  867,723;   -0,433;    0,045
401,276;  772,379;    0,930;   -0,955
401,867;  770,729;   -0,888;    0,773
402,458;  732,086;   -2,251;   -2,318
403,048;  937,972;    1,112;    0,591
403,639;  828,062;    0,840;    0,864
404,230; 1022,993;    2,476;    0,318
404,821; 1088,268;   -0,615;    0,045
405,411;  940,430;    1,203;   -2,591
406,002;  800,356;   -1,252;   -1,136
406,592; 1120,213;    2,294;    0,045
407,183;  927,507;    0,566;   -1,500
407,774;  864,299;    3,475;   -0,136
408,364;  842,307;    0,930;    0,409
408,954;  993,947;    0,384;    1,227
409,545;  985,648;    1,021;    1,045
410,135;  885,622;    1,293;    0,500
410,726;  839,247;    1,838;    0,318
411,316; 1095,563;    0,111;    0,773
411,906;  840,579;   -0,253;   -0,409
412,497;  828,801;   -1,070;   -0,045
413,087;  780,915;   -1,980;   -0,227
413,677;  715,887;   -0,707;    3,864
414,267;  691,212;    0,656;    1,409
414,857;  658,538;   -2,980;    4,227
415,448;  683,871;    0,839;    0,500
416,038;  706,918;    0,020;   -0,591
416,628;  756,769;   -0,889;    0,409
417,218;  852,072;    0,565;    3,318
417,808; 1048,488;    0,202;   -0,409
418,398;  859,227;    0,020;    2,682
418,988;  699,723;    2,020;    0,591
419,578;  807,846;   -0,707;    1,409
420,168;  786,414;   -1,343;   -0,955
420,757;  980,783;   -1,343;   -1,500
421,347;  811,735;    0,111;   -0,227
421,937;  756,803;    2,292;    1,409
422,527;  928,554;    0,838;   -0,773
423,116; 1089,585;   -0,253;   -0,045
423,706;  722,697;   -1,889;    0,318
424,296;  635,043;    1,384;    0,682
424,885;  860,043;   -0,071;   -3,045
425,475;  814,720;    1,474;   -2,864
426,065;  637,433;   -0,980;   -0,318
426,654;  619,164;   -0,435;   -0,318
427,244; 1006,668;    0,020;    1,409
427,833;  962,242;    1,383;   -0,500
428,423;  761,155;   -0,526;    1,136
429,012;  779,393;   -0,344;   -1,136
429,601;  926,429;   -1,344;    0,136
430,191;  768,657;    1,292;    4,318
430,780;  608,170;   -0,344;   -0,409
431,369;  915,528;    0,746;   -0,045
431,959;  780,212;   -1,254;    0,500
432,548;  649,968;   -1,163;   -0,045
433,137;  539,529;   -1,254;   -1,318
433,726;  682,813;    0,292;    0,500
434,315;  677,799;   -0,526;    2,409
434,905;  827,336;   -1,254;    1,409
435,494;  864,708;    0,746;    0,955
436,083;  642,672;   -0,981;   -0,955
436,672;  736,506;    0,110;    0,500
437,261;  665,060;    0,292;   -1,955
437,850; 1023,605;    1,383;    0,682
438,439; 1073,656;    3,291;    1,955
439,027; 1188,545;    3,655;    1,773
439,616; 1114,088;    2,927;    1,227
440,205;  794,826;    0,200;   -2,136
440,794;  691,132;    2,109;   -0,045
441,383;  573,349;   -1,346;   -0,591
441,971;  489,405;   -2,436;    0,591
442,560;  509,256;    0,563;   -1,773
443,149;  365,200;    0,379;   -1,318
443,737;  455,747;   -0,074;   -2,318
444,326;  473,646;    0,018;    0,318
444,915;  545,968;   -1,982;    0,864
445,503;  555,599;   -2,891;   -0,318
446,092;  887,124;    0,382;    2,136
446,680;  800,620;    0,382;    0,318
447,269;  675,423;   -0,346;   -0,318
447,857;  634,236;    0,018;   -1,773
448,445;  558,846;    0,563;    1,318
449,034;  466,705;   -1,528;   -1,136
449,622;  456,805;   -1,073;    3,500
450,210;  873,002;    2,017;    2,227
450,799;  753,519;    0,290;   -0,591
451,387;  652,320;    1,381;   -0,591
451,975;  633,768;    2,654;    0,864
452,563;  746,424;    3,472;    2,318
453,151;  456,680;   -0,528;   -1,227
453,739;  538,039;   -1,347;    0,136
454,328;  694,012;    2,381;   -2,136
454,916;  581,065;    2,562;   -0,136
455,504;  576,845;    1,017;    1,227
456,092;  419,279;    0,017;   -1,591
456,679;  347,939;    1,472;    0,682
457,267;  907,660;    4,017;    1,045
457,855;  470,127;    1,017;    1,409
458,443;  261,248;   -0,165;    1,682
459,031;  513,388;    0,108;    2,409
459,619;  447,725;   -1,801;    2,864
460,206;  300,898;    0,835;    2,045
460,794;  295,207;   -2,983;   -0,227
461,382;  368,110;   -0,529;   -0,864
461,970;  358,377;    1,198;    1,864
462,557;  250,817;   -0,711;   -0,682
463,145;  429,172;   -3,165;   -1,682
463,732;  731,545;    2,016;   -1,045
464,320;  421,578;   -0,075;   -3,045
464,907;  604,132;    2,743;   -0,773
465,495;  480,825;    0,743;   -1,227
466,082;  376,554;   -1,984;   -0,045
466,670;  400,498;   -2,529;    1,227
467,257;  249,587;   -1,711;    2,045
467,844;  387,851;   -0,075;    0,045
468,432;  357,253;    0,834;    3,500
469,019;  285,678;    0,925;   -1,773
469,606;  382,625;    0,470;    3,682
470,193;  419,576;   -1,439;    0,227
470,780;  363,772;   -2,075;    0,864
471,368;  263,479;   -1,257;   -0,773
471,955;  394,218;    1,379;   -0,682
472,542;  338,177;    0,652;   -1,136
473,129;  185,995;   -0,166;    0,136
473,716;  192,749;    1,470;    0,591
474,303;  229,766;    0,652;   -0,864
474,890;  228,729;   -1,439;   -0,500
475,477;  331,841;   -1,621;    0,409
476,064;  216,915;    1,106;   -1,591
476,650;  348,140;    0,288;    0,318
477,237;  243,049;   -0,258;    0,955
477,824;  212,378;   -1,076;    0,864
478,411;  109,615;   -1,894;   -0,318
478,997;   98,909;    0,560;   -0,773
479,584;   50,080;    1,196;   -0,409
480,171;  229,428;   -0,440;   -0,773
480,757;  285,215;    2,651;    0,773
481,344;  166,170;    0,469;    0,409
481,931;   68,609;    1,105;    1,045
482,517;  194,400;   -1,258;    0,318
483,104;  280,622;    1,106;    2,864
483,690;  144,285;   -1,804;    0,045
484,276;  118,482;   -0,895;    0,227
484,863;  324,822;    2,469;    1,136
485,449;  169,095;   -0,077;    0,318
486,035;  121,952;   -1,986;   -0,136
486,622;  208,857;   -0,895;    0,045
487,208;  127,614;    1,378;    1,500
487,794;   53,785;    0,741;    0,318
488,380;   55,673;    0,105;   -1,409
488,967;   56,290;   -1,168;   -0,409
489,553;   72,334;   -1,895;   -1,409
490,139;  140,985;    1,559;    0,773
490,725;   69,574;    0,741;   -0,227
491,311;  112,345;    3,287;    3,045
491,897;   99,645;   -0,986;    1,500
492,483;  102,354;    0,105;    1,227
493,069;  493,222;    3,923;    0,864
493,655;  239,938;    1,650;    0,682
494,241;  126,346;    1,377;   -0,955
494,826;  140,507;    0,287;   -1,045
495,412;  204,782;    2,559;   -0,682
495,998;  118,868;   -0,805;   -0,318
496,584;  188,029;    0,377;    1,045
497,169;  219,214;    1,014;   -0,682
497,755;  155,711;    0,650;    1,227
498,341;  315,206;    0,559;    0,318
498,926;  473,798;    1,832;    1,955
499,512;  183,498;    1,286;    2,955
500,097;  212,289;    0,195;   -0,318
500,683;  255,274;   -0,350;    2,136
501,268;  188,476;   -0,169;   -0,955
501,854;  236,943;   -0,169;    1,227
502,439;  228,281;   -0,624;   -1,773
503,024;  317,283;    0,195;    0,500
503,610;  375,169;   -0,078;   -0,682
504,195;  293,087;    0,558;    1,955
504,780;  451,966;    2,922;    1,227
505,366;  616,550;    3,013;    2,864
505,951;  534,135;    0,740;    1,045
506,536;  433,085;   -3,260;   -3,682
507,121;  550,800;    0,285;   -0,318
507,706;  493,736;    2,376;    1,045
508,291;  426,962;    2,649;    1,136
508,876;  467,268;   -0,988;    2,591
509,461;  597,628;   -0,169;   -0,773
510,046;  692,050;    0,194;    0,318
510,631;  701,537;   -0,351;   -0,773
511,216;  608,657;    2,467;   -0,500
511,801;  759,926;   -0,442;    2,591
512,386;  822,513;    0,740;    0,500
512,971;  865,851;   -2,988;    0,955
513,555;  967,953;   -0,897;   -1,500
514,140;  946,109;   -0,442;   -3,136
514,725; 1107,843;   -0,715;   -1,136
515,309; 1000,517;   -0,533;    0,318
515,894;  873,051;   -0,624;   -2,227
516,479;  939,957;   -0,624;   -0,955
517,063;  965,151;    0,376;    1,227
517,648;  942,550;    1,012;   -1,136
518,232;  894,348;   -0,261;   -1,409
518,817; 1028,999;   -0,079;    1,682
519,401; 1254,580;    2,194;    0,591
519,985; 1107,782;    1,103;    1,136
520,570;  953,853;    0,830;   -1,955
521,154; 1164,882;    2,102;    0,591
521,738; 1463,129;   -2,352;    2,409
522,323; 1300,284;   -0,170;    1,682
522,907; 1225,009;    0,466;   -0,136
523,491; 1100,944;    0,557;    0,955
524,075; 1045,505;    2,284;    0,591
524,659; 1306,994;    1,466;    0,591
525,243; 1178,850;    1,739;    0,409
525,827; 1115,056;    0,648;   -0,045
526,411; 1189,630;   -1,989;   -0,136
526,995; 1385,806;   -0,352;    1,409
527,579; 1413,224;   -0,443;   -1,045
528,163; 1339,004;    0,375;   -1,500
528,747; 1532,051;    2,466;   -0,773
529,331; 1470,464;   -0,080;   -1,409
529,915; 1230,025;    1,738;    0,955
530,499; 1345,476;   -0,807;    1,227
531,082; 1491,297;   -0,534;    1,591
531,666; 1547,236;    1,374;    0,773
532,250; 1467,156;    1,284;    2,682
532,833; 1637,644;    0,920;    2,773
533,417; 1399,210;   -1,807;    0,864
534,001; 1516,835;    1,647;   -0,318
534,584; 1463,205;    0,374;    0,500
535,168; 1269,187;    0,465;    1,409
535,751; 1698,703;    0,647;    0,045
536,334; 1319,600;   -0,898;   -0,409
536,918; 1302,304;    0,011;    1,591
537,501; 1284,609;   -0,899;    1,318
538,085; 1328,853;   -0,444;    1,045
538,668; 1357,413;    0,829;    2,409
539,251; 1749,609;    1,829;    3,773
539,834; 1475,210;    0,101;    0,773
540,418; 1611,824;   -1,990;    4,318
541,001; 1778,205;   -0,990;    1,773
541,584; 1499,526;    2,101;    2,227
542,167; 1583,771;    1,374;    2,955
542,750; 1441,217;    1,919;   -0,773
543,333; 1216,051;    0,555;    2,136
543,916; 1561,951;    0,192;    2,500
544,499; 1435,672;   -1,354;    0,227
545,082; 1554,150;    1,374;    3,591
545,665; 1441,810;    1,919;    1,500
546,248; 1605,051;    1,010;   -0,318
546,830; 1561,731;   -0,445;    1,955
547,413; 1595,476;    1,010;   -0,773
547,996; 1654,406;    0,555;    0,500
548,579; 1455,371;    0,919;    0,955
549,161; 1729,395;    1,828;    2,682
549,744; 1612,724;   -0,809;    0,409
550,326; 1542,378;   -0,809;   -1,136
550,909; 2037,225;    2,737;    0,591
551,492; 1719,234;   -0,263;    0,227
552,074; 1769,208;   -0,173;   -1,318
552,657; 1837,396;    2,373;    0,045
553,239; 1662,349;   -0,173;   -0,773
553,821; 1591,354;   -1,082;    1,045
554,404; 1771,293;    1,282;    1,136
554,986; 1909,944;    0,464;    1,045
555,568; 1802,807;    1,191;   -0,955
556,151; 1989,639;    1,191;   -0,227
556,733; 1674,900;   -0,264;   -0,864
557,315; 1689,273;    0,100;    0,500
557,897; 1472,508;    0,554;   -0,500
558,479; 1485,892;   -1,991;    1,318
559,061; 1630,884;   -0,719;   -0,864
559,643; 1750,485;   -0,264;    0,045
560,225; 1794,830;    1,645;    2,864
560,807; 1676,757;    0,918;    0,318
561,389; 1600,444;    0,554;    2,318
561,971; 1663,961;    0,463;    2,136
562,553; 1678,532;   -1,628;    1,591
563,135; 1768,963;   -0,537;    1,136
563,717; 2095,497;    3,372;    1,136
564,298; 1995,497;    3,645;   -0,045
564,880; 1714,146;    0,645;   -1,409
565,462; 1591,782;    0,645;    1,318
566,043; 1947,131;   -0,446;    2,318
566,625; 2082,576;    1,918;    1,227
567,207; 1840,189;    1,099;    1,682
567,788; 1856,597;   -1,264;    1,500
568,370; 1989,724;    1,917;   -0,500
568,951; 1868,383;    0,190;    0,227
569,533; 2056,029;   -0,628;   -0,500
570,114; 2192,304;   -0,446;    0,682
570,695; 2220,375;   -0,174;   -1,318
571,277; 2188,572;   -0,265;   -1,682
571,858; 2421,214;    2,008;   -1,136
572,439; 2465,369;    1,554;   -1,045
573,021; 2441,839;    2,099;   -2,773
573,602; 2560,088;   -1,265;    0,318
574,183; 2612,654;   -2,083;    2,227
574,764; 2613,170;   -1,629;    0,409
575,345; 2715,995;    0,917;   -0,136
575,926; 2713,138;   -0,356;    0,136
576,507; 2804,352;    1,099;   -0,227
577,088; 2929,985;    3,099;    1,682
577,669; 3056,605;    0,735;    1,955
578,250; 3312,654;    0,644;   -1,045
578,831; 3174,224;   -1,356;   -2,227
579,412; 3054,983;   -0,810;    0,955
579,993; 3341,552;    1,008;    0,227
580,573; 3341,200;   -0,629;   -0,955
581,154; 3023,071;    0,735;   -0,591
581,735; 3215,138;    0,644;    0,773
582,315; 3085,502;   -0,629;    2,136
582,896; 3263,716;   -0,174;    1,227
583,477; 3054,018;    0,189;    1,227
584,057; 3161,367;    0,553;    0,955
584,638; 3268,734;    2,553;    2,318
585,218; 3425,804;   -0,538;    2,682
585,799; 3329,373;    0,281;   -0,227
586,379; 3237,440;    0,372;    1,591
586,959; 3069,478;    0,735;    0,318
587,540; 2920,098;   -0,629;    2,227
588,120; 2807,439;    1,007;   -0,045
588,700; 2680,784;    2,553;    2,136
589,281; 2954,194;    0,462;   -0,955
589,861; 2840,068;    0,099;   -1,682
590,441; 2747,848;    2,371;   -2,682
591,021; 2537,725;   -0,265;   -2,591
591,601; 2650,745;   -0,537;    0,500
592,181; 2748,985;   -0,719;   -0,773
592,761; 2434,028;    0,007;    1,409
593,341; 2583,285;   -0,901;    0,045
593,921; 2541,255;   -0,265;    1,591
594,501; 2430,027;   -0,538;    1,318
595,081; 2401,241;    0,917;   -0,318
595,661; 2641,971;   -1,447;    0,955
596,240; 2711,657;   -0,537;    0,136
596,820; 2846,038;    0,372;    1,955
597,400; 2567,766;    2,008;    0,773
597,980; 2585,498;    2,008;    1,045
598,559; 2576,921;    2,735;   -0,227
599,139; 2536,792;   -0,174;   -1,227
599,718; 2520,792;   -0,174;   -0,409
600,298; 2615,015;    0,735;    0,682
600,877; 2940,707;    2,917;    1,409
601,457; 2862,269;    2,281;    1,136
602,036; 2707,191;    0,190;    2,045
602,616; 2675,035;    0,644;    1,682
603,195; 2829,079;   -0,355;    3,500
603,774; 2732,220;   -0,901;    2,045
604,354; 2654,234;    0,826;   -0,500
604,933; 2568,991;    0,463;    1,864
605,512; 2750,621;    3,554;    0,591
606,091; 2759,923;   -0,537;    3,773
606,671; 2819,366;    0,281;    0,773
607,250; 2808,293;    1,644;    3,136
607,829; 2817,999;    2,372;    3,227
608,408; 2694,812;    1,190;    2,591
608,987; 2627,720;    1,281;    3,409
609,566; 2503,434;   -1,265;   -2,500
610,145; 2586,389;   -1,082;    0,682
610,723; 2753,063;    4,372;    6,864
611,302; 2507,368;   -0,446;    1,682
611,881; 2621,348;    5,008;   11,227
612,460; 2533,280;    1,645;    3,955
613,039; 2594,016;   -0,082;    2,045
613,617; 2307,492;    1,736;    4,773
614,196; 2336,919;    1,099;    1,227
614,775; 2490,813;    1,009;    2,409
615,353; 2503,714;    0,736;    0,864
615,932; 2433,373;    0,100;    2,409
616,510; 2582,259;    0,554;    0,591
617,089; 2936,579;    7,100;   17,591
617,667; 2624,837;    2,372;    6,136
618,246; 2278,279;   -1,537;    1,318
618,824; 2402,494;   -3,355;   -0,955
619,402; 2343,684;   -2,900;   -1,773
619,981; 2501,751;   -0,173;   -1,045
620,559; 2484,578;    0,009;    1,682
621,137; 2478,628;   -0,718;    1,864
621,715; 2158,757;   -1,173;   -0,682
622,293; 2212,344;   -0,537;   -0,773
622,871; 2477,455;   -0,718;    0,500
623,450; 2314,798;    0,373;   -0,864
624,028; 2420,209;    0,191;   -0,955
624,606; 2329,569;   -1,718;    1,682
625,183; 2271,534;   -1,536;   -1,136
625,761; 2256,070;    1,009;    1,136
626,339; 2651,338;    1,373;    2,591
626,917; 2396,976;   -0,172;   -0,045
627,495; 2421,278;   -0,354;    1,318
628,073; 2359,967;   -0,263;    2,864
628,650; 2313,812;    0,100;    2,136
629,228; 2389,947;    0,373;    4,409
629,806; 2110,375;    2,282;    1,136
630,383; 2212,313;    1,464;   -0,318
630,961; 2204,287;    2,555;   -0,955
631,539; 2139,929;    2,464;    0,227
632,116; 2782,469;   11,373;   15,409
632,694; 2475,785;    2,555;    6,500
633,271; 2273,052;    0,828;    2,682
633,848; 2404,266;    1,828;    2,045
634,426; 2212,233;   -1,081;    1,773
635,003; 2049,095;    1,101;   -0,409
635,580; 2398,150;    1,192;    3,682
636,158; 2233,940;    3,737;    1,227
636,735; 2094,327;    0,555;   -0,500
637,312; 2105,125;   -0,809;   -0,682
637,889; 2122,732;   -4,354;   -0,682
638,466; 2096,006;   -3,990;   -0,409
639,043; 2078,935;    2,101;   -1,136
639,620; 2094,833;   -2,262;   -0,955
640,197; 2239,586;    1,100;    1,682
640,774; 2222,335;   -0,172;    1,136
641,351; 2292,630;    0,737;    1,136
641,928; 2323,107;   -0,627;    1,409
642,505; 2463,856;    0,828;   -0,500
643,082; 2357,605;   -1,718;    1,227
643,658; 2011,627;   -0,718;    1,500
644,235; 2131,831;    1,191;    2,500
644,812; 2276,308;    1,918;    0,773
645,388; 2221,966;   -0,991;    1,409
645,965; 2021,170;   -0,809;    1,682
646,542; 2032,465;   -1,445;   -0,227
647,118; 2479,032;    1,009;   -0,955
647,695; 2319,781;   -0,263;    1,136
648,271; 2132,076;   -0,536;    0,500
648,848; 2259,371;    0,736;    2,227
649,424; 2365,756;    0,827;    1,318
650,000; 2071,869;   -0,354;   -1,045
650,577; 2139,528;   -0,627;   -0,955
651,153; 2272,004;   -1,809;    0,955
651,729; 2276,663;    1,191;    0,864
652,305; 2553,685;    0,645;    2,773
652,881; 3042,434;   -0,082;    1,136
653,458; 4006,365;    1,100;    0,227
654,034; 4582,933;    0,282;    1,591
654,610; 4600,773;    0,554;    0,773
655,186; 5005,795;    0,645;    3,045
655,762; 4711,362;   -0,991;    0,409
656,338; 4672,566;    0,100;    0,136
656,913; 4974,952;   -0,082;    0,409
657,489; 4701,701;    0,827;   -0,318
658,065; 4784,450;   -0,173;   -1,591
658,641; 5048,654;   -0,900;   -0,864
659,217; 4789,313;   -0,991;    0,409
659,792; 4522,880;    0,645;   -0,409
660,368; 4623,629;   -2,173;   -0,682
660,944; 4826,742;   -2,082;    1,227
661,519; 4131,310;   -0,628;    0,409
662,095; 3193,877;   -1,719;    0,591
662,670; 2497,172;    1,281;   -0,136
663,246; 2459,830;    1,009;   -0,409
663,821; 2505,762;    0,281;    1,682
664,396; 2237,056;    0,009;    1,864
664,972; 2276,533;    0,009;   -0,500
665,547; 2452,100;    1,372;    0,136
666,122; 2376,395;   -1,082;    0,318
666,698; 2528,417;   -0,173;    0,318
667,273; 2185,076;   -0,173;    0,136
667,848; 2384,825;    2,372;    1,500
668,423; 2453,392;    2,190;    2,318
668,998; 2392,233;    2,827;   -0,682
669,573; 2458,164;   -3,264;   -1,500
670,148; 2587,458;   -1,446;   -0,682
670,723; 2301,117;   -1,810;    0,318
671,298; 2664,048;    2,372;    1,045
671,873; 2528,070;   -0,082;   -0,136
672,448; 2533,637;    0,645;    0,136
673,023; 2562,750;   -1,992;   -0,227
673,597; 2731,681;    0,827;    2,318
674,172; 2714,158;   -0,355;    0,318
674,747; 2563,816;    0,372;   -1,045
675,321; 2362,111;   -0,628;    3,318
675,896; 2233,133;    0,645;    1,045
676,471; 2472,882;    2,645;    1,591
677,045; 2369,359;   -1,264;    0,682
677,620; 2387,108;    0,190;    1,136
678,194; 2421,494;   -2,628;    1,136
678,769; 2412,789;   -1,083;   -0,318
679,343; 2507,720;   -0,628;    1,773
679,917; 2566,015;   -1,446;    1,955
680,492; 2420,582;    0,826;    3,227
681,066; 2465,786;    3,372;    0,409
681,640; 2451,626;    1,463;   -0,318
682,214; 2587,557;    0,735;    0,500
682,788; 2514,943;   -1,356;   -0,773
683,363; 2537,147;   -1,810;    1,682
683,937; 2383,805;   -1,719;   -0,318
684,511; 2618,282;    0,463;   -0,591
685,085; 2549,576;   -1,356;    0,318
685,659; 2413,235;   -2,538;    0,864
686,232; 2656,166;   -0,356;   -0,318
686,806; 2532,279;   -0,901;    0,409
687,380; 2605,846;   -0,174;    0,591
687,954; 2631,596;   -1,174;    1,136
688,528; 2714,709;   -0,719;    1,955
689,101; 2818,912;   -3,992;    1,045
689,675; 2592,571;   -0,356;   -0,136
690,249; 2647,684;   -0,719;    0,409
690,822; 2710,251;    0,280;    0,318
691,396; 2593,364;   -0,265;    1,227
691,969; 2447,568;    1,280;    0,136
692,543; 2552,226;   -0,447;   -1,955
693,116; 2361,430;   -0,265;   -1,409
693,690; 2434,543;    0,099;    0,500
694,263; 2562,656;   -1,083;    2,955
694,836; 2810,678;    1,371;    3,591
695,410; 2510,518;   -0,265;    1,773
695,983; 2535,086;    0,189;    0,591
696,556; 2417,017;   -0,447;   -1,045
697,129; 2482,130;   -0,356;    1,409
697,703; 2476,061;   -1,629;    1,955
698,276; 2491,719;    1,462;   -0,773
698,849; 2526,650;    1,280;    1,409
699,422; 2401,582;   -1,083;    0,591
699,995; 2297,240;    0,007;    0,136
700,568; 2486,898;   -0,629;    3,045
701,140; 2495,011;   -2,811;    1,682
701,713; 2601,124;   -0,174;    2,409
702,286; 2498,146;   -0,538;    0,864
702,859; 2472,441;   -0,902;   -0,591
703,432; 2410,827;    0,825;    0,682
704,004; 2386,030;    0,462;    0,318
704,577; 2249,598;   -0,629;    0,136
705,150; 2350,256;    0,189;    2,500
705,722; 2427,824;   -0,356;   -3,227
706,295; 2446,573;   -0,175;   -0,591
706,867; 2289,141;   -0,175;    1,955
707,440; 2504,254;   -1,720;   -0,409
708,012; 2582,730;    0,462;    0,591
708,584; 2432,934;    2,462;    0,227
709,157; 2403,138;    1,825;   -0,591
709,729; 2528,614;    2,280;    2,045
710,301; 2652,818;    0,734;    0,045
710,874; 2630,477;   -1,447;   -0,227
711,446; 2247,590;    0,371;    0,864
712,018; 2333,793;    0,098;    0,500
712,590; 2242,906;   -1,993;    1,682
713,162; 2564,656;    0,825;    1,318
713,734; 2441,223;    1,825;   -2,045
714,306; 2380,791;   -1,902;   -0,409
714,878; 2210,722;    0,825;    0,864
715,450; 2357,925;    0,643;    0,864
716,022; 2391,220;    1,552;    1,318
716,593; 2414,060;    0,189;    0,591
717,165; 2459,355;   -3,175;   -1,227
717,737; 2588,104;    0,280;    0,409
718,309; 2427,399;    0,280;   -0,045
718,880; 2348,603;   -0,539;   -1,409
719,452; 2467,171;   -0,175;   -1,591
720,024; 2425,374;    0,734;   -0,591
720,595; 2452,942;   -2,902;    0,955
721,167; 2344,418;    0,370;   -2,045
721,738; 2303,622;   -0,812;   -1,045
722,309; 2367,644;   -0,993;   -1,227
722,881; 2202,939;   -1,357;    0,773
723,452; 2410,688;   -2,630;    2,864
724,023; 2472,438;   -0,721;    2,682
724,595; 2495,914;    0,007;    0,682
725,166; 2286,845;    0,007;   -0,409
725,737; 2442,595;    1,734;    0,227
726,308; 2362,526;   -0,266;    0,318
726,879; 2291,457;   -1,630;    1,227
727,450; 2420,661;    0,552;   -0,045
728,021; 2298,683;    3,097;    0,682
728,592; 2432,432;    0,734;    0,500
729,163; 2582,363;    0,643;   -0,136
729,734; 2592,203;    0,188;   -0,227
730,305; 2447,498;    1,734;    0,136
730,876; 2440,975;    0,188;    2,955
731,447; 2741,997;    2,188;    2,682
732,017; 2631,564;    1,097;    1,864
732,588; 2491,768;    0,734;    1,227
733,159; 2650,699;    0,643;   -1,045
733,729; 2389,176;    0,006;    0,409
734,300; 2422,925;    0,915;    0,864
734,870; 2365,765;    3,461;    0,591
735,441; 2420,424;    0,370;   -0,591
736,011; 2311,627;    0,643;   -1,591
736,582; 2339,013;   -0,812;    0,045
737,152; 2308,944;   -1,721;   -2,045
737,722; 2397,875;   -0,267;   -0,682
738,293; 2231,352;   -1,358;    1,318
738,863; 2395,374;    2,461;    2,318
739,433; 2616,214;    5,279;    0,318
740,003; 2528,145;   -0,994;   -0,682
740,573; 2532,622;    2,097;   -1,591
741,143; 2480,735;   -1,085;    0,318
741,713; 2455,211;    1,188;   -0,500
742,283; 2434,233;    0,915;    1,591
742,853; 2329,528;    1,915;    1,591
743,423; 2155,823;    1,733;    0,045
743,993; 2244,208;   -0,358;    1,500
744,563; 2130,140;    0,097;   -0,864
745,133; 2159,434;   -0,812;   -0,864
745,702; 2268,002;   -0,267;    1,773
746,272; 2295,842;   -0,176;    0,591
746,842; 2296,955;   -1,358;   -0,591
747,411; 2225,159;   -0,267;   -0,318
747,981; 2134,726;    0,097;    0,500
748,551; 2178,203;    2,278;   -1,045
749,120; 2289,407;    0,642;   -0,227
749,690; 2306,974;   -0,631;    2,409
750,259; 2448,905;    1,369;    2,955
750,828; 2441,927;    1,551;   -1,955
751,398; 2318,040;    1,278;   -0,045
751,967; 2623,426;    2,187;    0,409
752,536; 2398,902;   -0,813;   -0,227
753,105; 2545,015;    0,096;    0,227
753,675; 2331,856;    0,096;    1,773
754,244; 2336,878;   -0,904;    3,591
754,813; 2361,627;    0,551;    1,227
755,382; 2254,831;    0,460;    0,955
755,951; 2410,944;    1,551;    3,682
756,520; 2450,511;   -0,085;    1,864
757,089; 2692,806;    0,278;    0,500
757,658; 2409,373;    1,733;    1,227
758,227; 2305,941;    1,096;    0,318
758,795; 2390,508;    1,187;    1,136
759,364; 2535,349;   -0,086;   -0,591
759,933; 2231,916;   -1,176;   -0,045
760,501; 2175,029;    0,733;   -1,318
761,070; 2328,960;   -2,813;   -1,409
761,639; 2560,437;   -1,904;    1,318
762,207; 2386,368;    1,551;   -0,955
762,776; 2439,208;    0,369;    0,864
763,344; 2305,412;   -0,995;    0,591
763,913; 1955,070;   -0,722;    1,409
764,481; 2607,910;    1,005;   -0,136
765,049; 2535,478;   -1,358;    1,409
765,618; 2414,136;   -0,086;    0,318
766,186; 2343,340;    0,278;    0,136
766,754; 2363,817;    0,005;    1,864
767,322; 2062,930;   -1,995;    0,409
767,890; 2033,861;   -0,722;   -1,773
768,459; 2228,428;   -2,177;   -0,318
769,027; 2422,632;    1,641;    3,409
769,595; 2131,018;    3,278;    2,591
770,163; 2192,767;    3,823;    2,955
770,730; 2193,153;    0,732;   -0,136
771,298; 2161,902;    0,187;   -1,409
771,866; 2158,651;   -1,541;    4,955
772,434; 2209,582;   -0,631;   -1,864
773,002; 2458,332;    0,005;    0,682
773,569; 2313,990;    0,914;    1,682
774,137; 2378,103;   -0,268;   -0,045
774,705; 2359,943;    0,278;   -0,136
775,272; 2172,238;    0,641;    0,682
775,840; 2284,442;   -0,177;    2,682
776,407; 2240,555;    0,277;    1,955
776,975; 1994,759;   -0,632;    0,318
777,542; 2178,326;   -1,086;   -0,045
778,110; 2183,257;   -1,268;   -0,045
778,677; 2045,643;   -2,359;   -0,864
779,244; 2072,301;    2,186;    1,045
779,812; 2232,141;    1,823;    0,864
780,379; 2258,527;    0,005;    1,136
780,946; 2150,094;    1,005;   -0,773
781,513; 2180,026;   -1,450;    0,318
782,080; 2021,139;   -0,086;    2,864
782,647; 2151,524;   -0,268;    3,045
783,214; 2074,001;   -0,177;    3,864
783,781; 2186,932;   -0,723;   -0,682
784,348; 2171,681;   -0,632;    1,500
784,915; 2041,976;   -3,177;    0,318
785,482; 2189,180;    1,368;    2,591
786,049; 2268,202;    0,186;   -0,591
786,615; 2189,133;    0,277;   -0,955
787,182; 2089,700;    0,186;   -0,682
787,749; 2071,086;   -2,814;    1,409
788,315; 2084,381;   -1,632;   -0,409
788,882; 2102,585;    1,550;   -1,227
789,448; 2394,243;    1,732;   -0,955
790,015; 2216,629;    1,095;    3,227
790,581; 2326,560;    1,459;    0,227
791,148; 2107,036;    0,641;    1,045
791,714; 2097,967;   -0,541;    3,136
792,280; 2061,444;    0,186;    1,591
792,847; 1973,921;    0,550;    2,500
793,413; 2078,215;   -0,269;   -0,318
793,979; 2152,965;    3,459;   -1,318
794,545; 2494,259;    4,459;    2,682
795,111; 2275,463;    2,186;    1,318
795,678; 2145,122;    0,731;   -1,682
796,244; 2325,144;    3,368;    0,136
796,810; 2271,075;    1,731;    0,773
797,375; 2241,551;    0,549;   -2,136
797,941; 1875,301;   -0,541;    0,591
798,507; 1858,141;   -0,451;   -0,955
799,073; 1874,799;   -0,360;    0,591
799,639; 1955,094;   -2,632;    3,136
800,205; 1895,025;    0,095;    2,682
800,770; 1829,683;    0,640;    1,773
801,336; 1794,069;    1,368;   -0,955
801,901; 2410,546;    4,549;    3,136
802,467; 2143,477;   -0,542;    2,045
803,033; 1819,862;   -0,087;    0,864
803,598; 1835,521;    1,913;   -1,045
804,163; 1891,634;    1,095;   -0,318
804,729; 1991,656;   -0,178;    1,136
805,294; 1922,132;    0,822;    2,227
805,859; 1795,427;    0,731;   -0,409
806,425; 2167,813;    1,186;    2,682
806,990; 2133,835;    2,186;    4,318
807,555; 1942,039;   -1,451;    2,591
808,120; 2097,333;    0,822;   -0,409
808,685; 1831,446;    0,185;   -2,500
809,250; 1676,559;    0,004;   -0,500
809,815; 1771,945;    1,913;    0,682
810,380; 1983,058;   -0,269;    1,591
810,945; 2122,716;   -1,087;    2,045
811,510; 1960,466;    2,094;    1,591
812,075; 1872,760;   -0,633;   -1,409
812,640; 2158,419;    2,003;    1,409
813,204; 1980,259;    0,822;   -0,227
813,769; 2182,372;    2,094;   -0,045
814,334; 2104,121;    0,458;    0,864
814,898; 1862,961;    0,367;    0,591
815,463; 1882,347;    1,276;   -0,773
816,027; 1817,733;   -0,724;   -2,318
816,592; 1841,300;    0,640;   -2,045
817,156; 1859,140;    2,094;    1,136
817,721; 1929,799;    4,276;    2,318
818,285; 1730,730;    2,912;    1,500
818,849; 1863,843;   -1,451;    1,682
819,414; 1744,047;   -0,269;    2,955
819,978; 1675,705;   -1,269;    1,773
820,542; 2097,909;    2,003;    0,500
821,106; 1922,113;   -0,815;    0,682
821,670; 2072,589;   -0,815;    2,591
822,234; 1837,248;   -0,270;    1,409
822,798; 1687,906;    0,003;    0,500
823,362; 2010,383;   -0,633;    4,227
823,926; 1722,041;    0,094;    1,136
824,490; 1922,154;   -0,997;   -0,682
825,054; 1841,903;   -0,088;   -1,136
825,618; 1690,289;   -1,542;   -1,500
826,181; 1710,493;    0,458;   -1,318
826,745; 1786,060;    1,367;   -1,045
827,309; 2068,809;    1,185;    1,318
827,872; 1912,559;    1,367;    0,955
828,436; 1882,217;    1,185;   -0,773
828,999; 1845,057;   -0,997;    1,227
829,563; 1759,625;   -0,179;    1,136
830,126; 1704,647;   -0,179;   -0,591
830,690; 1717,305;   -1,997;    2,864
831,253; 1586,691;   -0,543;    2,227
831,816; 1660,713;   -1,906;    0,500
832,380; 1575,371;    0,185;    0,864
832,943; 1607,212;   -1,361;   -0,500
833,506; 1621,870;    2,639;   -1,227
834,069; 1856,801;    3,912;   -0,955
834,632; 1740,823;    1,730;    1,318
835,195; 1750,572;    1,003;    0,955
835,758; 1639,322;   -0,997;    1,955
836,321; 1557,435;    0,730;   -1,045
836,884; 1584,275;   -0,725;   -0,955
837,447; 1584,479;   -2,816;    1,773
838,010; 1723,592;    0,366;    3,227
838,573; 1808,523;   -1,179;    0,773
839,135; 1721,999;   -1,361;   -0,955
839,698; 1632,385;    1,275;    0,409
840,261; 1561,861;    1,003;   -0,227
840,823; 1531,429;   -0,543;    0,864
841,386; 1517,633;   -0,452;   -2,409
841,948; 1874,473;   -1,361;    1,773
842,511; 1582,040;    0,912;    1,682
843,073; 1842,335;    1,912;    0,227
843,636; 1579,175;   -0,361;   -0,227
844,198; 1795,743;    0,911;    0,591
844,760; 1758,674;    1,093;    1,955
845,322; 1516,423;    0,548;    1,136
845,885; 1672,445;    0,730;    0,591
846,447; 1662,922;   -1,998;    0,227
847,009; 1980,853;    1,911;   -0,682
847,571; 1668,875;    0,820;   -2,045
848,133; 1638,079;   -1,089;   -1,864
848,695; 1491,828;   -0,543;    1,409
849,257; 1551,577;   -1,089;   -1,682
849,819; 1736,872;   -0,998;   -0,409
850,381; 1586,349;   -0,725;   -0,864
850,942; 1661,098;    1,093;   -0,591
851,504; 1694,484;    1,184;    0,227
852,066; 1618,688;    1,275;   -1,591
852,628; 1615,255;   -0,180;    1,955
853,189; 1426,641;    1,638;    2,682
853,751; 1497,117;   -0,907;    1,409
854,312; 1666,594;   -0,453;   -1,682
854,874; 1827,798;   -2,089;   -0,773
855,435; 1654,092;   -0,907;   -1,682
855,997; 1759,751;   -1,816;   -0,136
856,558; 1766,046;    0,366;    1,773
857,119; 1621,977;    0,820;    2,864
857,681; 1454,817;    0,002;    0,318
858,242; 1695,384;    1,911;   -2,136
858,803; 1788,315;    0,456;   -0,773
859,364; 1715,519;    0,184;   -4,773
859,925; 1736,269;   -2,453;   -0,955
860,486; 1624,291;   -0,453;   -0,955
861,047; 1500,222;   -0,544;   -1,227
861,608; 1514,335;   -1,089;   -0,773
862,169; 1476,175;    0,638;   -0,045
862,730; 1513,833;    0,456;    1,409
863,291; 1585,037;   -0,635;   -0,500
863,852; 1571,786;   -0,635;    1,955
864,412; 1503,172;   -0,271;   -0,864
864,973; 1661,467;   -0,089;    0,500
865,534; 1821,489;   -1,726;    0,227
866,094; 1661,147;    1,820;    0,227
866,655; 1743,987;    1,274;    3,318
867,215; 1614,373;    0,274;    0,136
867,776; 1491,213;    0,547;   -0,136
868,336; 1550,781;   -1,453;    0,136
868,897; 1939,621;    2,638;    1,682
869,457; 1713,825;    1,365;    0,318
870,017; 1548,756;    0,547;   -1,227
870,578; 1569,233;   -0,817;    0,773
871,138; 1514,255;   -2,089;   -0,955
871,698; 1390,640;   -0,817;   -1,318
872,258; 1528,844;   -0,453;   -2,864
872,818; 1763,230;    2,729;    0,045
873,378; 1561,252;    0,638;    1,045
873,938; 1489,728;    0,547;    0,500
874,498; 1412,659;    0,274;   -1,955
875,058; 1464,681;    2,183;    1,773
875,618; 1461,976;    1,910;   -2,682
876,177; 1509,725;    1,274;    0,136
876,737; 1277,748;   -0,090;    1,955
877,297; 1728,588;    0,183;    1,955
877,856; 1638,246;   -0,362;    0,318
878,416; 1393,086;    1,183;   -0,136
878,976; 1376,836;   -1,817;    0,409
879,535; 1437,676;    0,092;    3,136
880,095; 1419,789;   -0,544;    0,045
880,654; 1298,538;   -1,090;    1,318
881,213; 1661,287;    2,456;    1,500
881,773; 1457,309;    2,637;    2,682
882,332; 2097,877;    3,365;    5,136
882,891; 1497,444;    3,092;    2,136
883,451; 1517,466;   -1,272;    1,682
884,010; 1394,216;   -2,908;   -0,409
884,569; 1361,329;   -0,999;   -0,045
885,128; 1588,078;    2,819;   -1,864
885,687; 1905,282;    4,455;    0,682
886,246; 2071,031;    1,455;    2,136
886,805; 1752,598;    2,455;    2,045
887,364; 1417,984;   -0,999;   -0,500
887,922; 1343,733;   -1,181;    0,045
888,481; 1486,119;   -1,545;    0,591
889,040; 1662,414;    1,183;    2,136
889,599; 1525,254;    2,455;    1,409
890,157; 1530,276;    1,455;    2,409
890,716; 1434,662;   -0,090;    0,227
891,274; 1530,229;    0,092;   -1,136
891,833; 1640,160;    1,546;    0,864
892,391; 1430,001;   -0,454;    0,500
892,950; 1632,841;    1,819;   -0,773
893,508; 1462,499;    0,455;   -0,409
894,067; 1281,976;    0,637;    0,136
894,625; 1390,361;   -0,636;   -1,500
895,183; 1365,020;   -0,363;   -0,682
895,741; 1700,769;    1,728;   -1,773
896,299; 1464,882;   -0,545;   -2,409
896,858; 1364,995;    0,819;   -1,591
897,416; 1516,290;    2,728;   -1,318
897,974; 1438,584;    1,819;    0,318
898,532; 1933,697;    6,091;    2,682
899,089; 1559,447;    2,091;   -0,682
899,647; 1450,832;   -1,454;    1,318
900,205; 1507,763;    1,182;    1,045
900,763; 1511,604;   -0,454;    0,227
901,321; 1470,171;    2,364;   -1,409
901,878; 1255,193;   -1,000;   -0,773
902,436; 1310,579;   -1,363;    1,318
902,994; 2165,237;    4,728;    3,682
903,551; 1626,350;    0,728;    0,409
904,109; 1521,463;    0,182;   -1,409
904,666; 1443,030;    2,455;    1,045
905,224; 1304,416;    0,182;   -0,409
905,781; 1481,529;    0,727;   -0,318
906,338; 1392,006;   -1,363;    1,045
906,895; 1257,846;    0,637;    2,045
907,453; 1543,595;    1,727;    1,136
908,010; 1397,708;   -0,909;    0,409
908,567; 1327,548;    1,273;    0,591
909,124; 1116,661;    0,364;   -1,500
909,681; 1194,592;   -2,909;    0,682
910,238; 1292,433;    0,636;   -1,318
910,795; 1265,273;   -0,273;   -1,136
911,352; 1253,545;   -2,909;   -2,682
911,909; 1233,545;   -1,364;   -0,864
912,466; 1297,182;   -3,182;    1,500
913,022; 1294,545;   -1,636;    0,500
913,579; 1435,364;   -0,909;    2,045
914,136; 1287,091;    1,636;    0,955
914,692; 1349,636;    0,091;   -1,227
915,249; 1280,636;    1,455;    0,409
915,806; 1371,727;    0,182;    1,955
916,362; 1287,000;    1,909;    1,864
916,918; 1176,636;    2,000;    1,045
917,475; 1397,455;   -1,182;    0,955
918,031; 1197,455;    3,364;   -0,045
918,587; 1268,182;   -0,909;   -0,318
919,144; 1171,091;   -2,273;    0,227
919,700; 1128,455;    1,727;    0,773
920,256; 1099,818;    0,727;    0,045
920,812; 1125,818;   -0,727;   -1,045
921,368; 1099,727;   -1,727;   -1,045
921,924; 1071,818;    0,182;   -0,136
922,480; 1174,364;   -0,545;    1,227
923,036; 1212,727;    1,273;    1,955
923,592; 1102,455;    0,455;    0,318
924,148; 1135,818;    0,455;   -0,955
924,704; 1282,545;   -1,364;   -0,409
925,259; 1128,909;   -0,273;    0,591
925,815; 1075,455;    1,455;    0,500
926,371; 1014,909;    2,909;    1,409
926,926; 1181,000;    2,091;    0,591
927,482; 1147,273;   -1,364;    0,773
928,037; 1070,455;    0,909;    2,045
928,593; 1301,000;    1,636;    1,045
929,148; 1038,909;   -1,818;   -1,500
929,704; 1081,364;   -1,455;   -0,500
930,259;  958,455;    0,091;   -0,136
930,814; 1173,818;   -0,818;    1,955
931,369; 1085,909;    1,091;   -0,773
931,925;  873,364;   -0,091;    0,136
932,480;  983,455;   -2,818;   -2,591
933,035; 1398,273;    0,545;   -0,318
933,590; 1266,000;    0,364;   -1,773
934,145;  830,545;   -1,364;   -0,318
934,700;  732,909;    0,455;   -0,591
935,255;  812,909;   -0,091;    0,045
935,809; 1149,182;    3,182;    0,864
936,364;  729,455;   -0,455;   -0,136
936,919;  745,909;    0,455;   -1,773
937,474;  653,091;    1,455;    0,136
938,028;  685,273;   -1,636;    1,136
938,583; 1109,909;    1,818;    4,682
939,138;  738,364;    2,091;    2,136
939,692;  578,818;    1,636;   -1,136
940,247;  628,455;   -0,727;   -1,045
940,801;  697,909;   -0,636;    0,227
941,355;  587,545;   -0,364;    2,591
941,910;  467,000;   -0,273;   -2,136
942,464;  518,455;   -0,818;   -0,318
943,018;  800,636;    1,000;   -0,227
943,572;  604,000;    2,545;   -0,682
944,126;  656,636;    0,091;   -0,409
944,681;  528,455;    3,091;    0,227
945,235;  471,818;    1,000;   -0,591
945,789;  417,909;    0,364;   -1,864
946,342;  747,545;    0,455;   -0,591
946,896;  474,364;   -2,273;    0,955
947,450;  440,455;    1,545;   -0,227
948,004;  722,364;    1,727;   -0,045
948,558;  508,545;    0,273;   -0,864
949,111;  504,091;   -0,273;   -0,318
949,665;  731,909;    1,636;   -0,682
950,219;  676,000;   -0,091;   -1,045
950,772;  593,545;   -1,909;    1,864
951,326;  584,727;    0,545;   -0,955
951,879;  496,455;    0,727;   -2,318
952,433;  644,909;    0,000;    2,227
952,986;  455,909;    2,909;    0,682
953,539;  409,636;   -0,273;    0,591
954,093;  355,636;    0,545;   -1,318
954,646;  520,364;    0,909;    1,318
955,199;  433,091;    0,000;   -0,500
955,752;  652,545;   -0,455;    1,773
956,305;  488,727;   -0,091;    2,955
956,858;  547,727;    0,818;   -0,318
957,411;  608,545;   -0,545;    2,136
957,964;  499,364;    1,364;    2,136
958,517;  416,818;   -1,545;    3,136
959,070;  367,545;   -0,455;    1,955
959,623;  676,636;    1,091;    1,500
960,176;  618,273;    1,727;    2,045
960,728;  583,091;   -2,727;    0,773
961,281;  517,545;    0,545;    0,500
961,834;  432,273;   -0,909;    0,864
962,386;  439,182;    1,727;    1,045
962,939;  391,091;    0,364;   -0,318
963,491;  442,273;    0,455;    1,136
964,043;  374,091;    1,182;    2,409
964,596;  572,455;   -1,000;    2,227
965,148;  472,182;   -1,000;    1,773
965,700;  370,455;    1,091;   -0,227
966,253;  550,636;   -0,636;    0,318
966,805;  505,455;   -2,273;    0,773
967,357;  421,909;    1,091;   -1,500
967,909;  547,182;    0,455;   -1,227
968,461;  427,273;    0,545;    3,136
969,013;  377,182;   -0,182;   -0,864
969,565;  533,091;   -0,455;   -1,136
970,117;  798,364;   -0,364;    1,045
970,669;  539,182;    0,182;   -0,136
971,220;  324,727;   -0,455;   -1,500
971,772;  421,909;   -0,636;   -0,318
972,324;  523,545;    0,091;   -0,500
972,876;  426,455;    0,818;   -0,045
973,427;  569,273;    1,909;   -1,045
973,979;  630,545;   -0,727;   -2,500
974,530;  407,000;    1,818;    1,318
975,082;  472,818;   -0,545;    1,682
975,633;  417,182;    1,091;    1,682
976,184;  489,545;    0,909;    0,773
976,736;  481,455;    0,091;    0,227
977,287;  488,182;   -0,909;   -0,500
977,838;  456,000;    0,909;   -0,318
978,389;  465,636;   -1,000;   -0,500
978,940;  309,909;    0,545;   -0,409
979,491;  306,273;    0,091;   -0,500
980,042;  422,273;    0,182;    3,045
980,593;  425,909;   -2,545;    0,227
981,144;  523,909;    2,545;   -0,500
981,695;  575,091;    1,455;    1,500
982,246;  518,000;   -0,273;    1,045
982,797;  369,000;   -1,727;    0,682
983,347;  531,727;    0,364;    0,591
983,898;  748,182;    3,091;    0,409
984,449;  692,364;    2,182;    0,773
984,999;  516,909;    1,455;   -1,136
985,550;  475,000;    0,182;   -0,318
986,100;  319,636;   -0,455;   -0,318
986,651;  311,364;   -0,818;    0,045
987,201;  355,364;   -1,000;   -0,591
987,751;  369,364;    0,818;    2,864
988,302;  419,818;    2,636;    1,500
988,852;  466,182;    0,455;   -1,136
989,402;  533,818;    0,091;    0,682
989,952;  560,636;   -2,182;    0,864
990,502;  395,455;   -0,091;    0,682
991,052;  288,273;   -0,727;    0,045
991,602;  345,091;   -2,909;    1,318
992,152;  406,273;    0,455;    0,682
992,702;  437,273;    1,364;   -0,045
993,252;  378,818;   -3,000;   -0,500
993,802;  475,364;   -0,273;    1,318
994,352;  426,091;   -1,545;    1,136
994,901;  332,182;   -0,182;    3,227
995,451;  325,364;   -0,182;    0,318
996,000;  366,455;    1,636;    0,318
996,550;  379,273;    2,273;    0,227
997,100;  420,545;    1,273;   -0,045
997,649;  571,182;    2,182;    0,955
998,198;  368,000;    1,727;   -1,500
998,748;  495,364;    1,091;   -2,318
999,297;  417,909;   -0,818;   -0,409
999,846;  562,000;    1,000;   -0,773
1000,395;  466,091;   -0,818;    0,500
1000,945;  588,909;    1,818;   -0,773
1001,494;  590,455;    2,364;    0,682
1002,043;  566,636;    4,636;    0,864
1002,592;  363,000;   -1,091;    1,955
1003,141;  365,818;   -0,455;   -0,682
1003,690;  535,545;    1,727;    0,500
1004,238;  404,636;    1,455;   -0,045
1004,787;  322,545;    1,364;    1,227
1005,336;  513,455;    0,364;    0,682
1005,885;  454,636;    1,364;   -2,773
1006,433;  448,727;    0,545;    0,955
1006,982;  657,636;    0,455;    1,682
1007,531;  483,636;   -1,818;   -0,227
1008,079;  432,455;   -2,273;    0,500
1008,627;  367,909;   -1,455;    0,409
1009,176;  398,273;    0,000;   -1,955
1009,724;  339,182;    1,091;    0,864
1010,273;  502,091;    1,273;    0,500
1010,821;  377,636;    0,091;    1,409
1011,369;  341,364;   -1,364;    1,318
1011,917;  358,818;   -1,364;   -0,591
1012,465;  449,091;    1,273;   -1,591
1013,013;  436,182;    2,091;   -1,682
1013,561;  546,909;    0,455;   -0,773
1014,109;  646,091;   -1,909;    1,682
1014,657;  507,455;    0,364;    0,591
1015,205;  395,091;    1,636;   -0,955
1015,753;  338,000;   -0,545;   -1,409
1016,301;  422,273;   -2,636;    3,045
1016,848;  503,364;   -1,273;    0,409
1017,396;  505,818;    2,545;    0,045
1017,944;  497,545;    1,182;    1,864
1018,491;  395,273;    0,273;    1,409
1019,039;  732,182;    0,455;    0,591
1019,586;  470,091;   -1,364;    1,682
1020,134;  450,182;    0,455;    1,500
1020,681;  534,636;    0,182;   -1,136
1021,228;  430,818;    2,909;   -2,227
1021,776;  416,000;    1,182;   -1,136
1022,323;  657,818;    0,455;    0,773
1022,870;  557,182;   -1,000;   -0,045
1023,417;  613,727;    2,636;    1,864
1023,964;  426,364;    2,636;    1,227
1024,511;  400,909;    1,000;    0,773
1025,058;  436,909;    3,182;   -0,045
1025,605;  388,545;   -2,273;    3,136
1026,152;  620,818;    1,727;   -0,591
1026,699;  462,000;    1,818;    1,318
1027,245;  438,545;   -0,091;    0,318
1027,792;  370,727;   -1,000;    1,409
1028,339;  615,273;    2,364;   -0,045
1028,885;  462,727;    1,000;   -0,227
1029,432;  408,000;   -0,091;    0,227
1029,978;  533,636;   -1,000;   -1,591
1030,525;  519,636;    1,000;    0,409
1031,071;  384,545;   -1,364;    1,136
1031,618;  692,455;    0,364;    1,682
1032,164;  508,727;   -0,091;    3,045
1032,710;  554,909;    1,636;   -1,500
1033,256;  513,909;   -0,636;   -0,136
1033,803;  356,818;   -0,545;    1,500
1034,349;  220,455;   -1,364;    0,136
1034,895;  272,636;    0,000;   -0,318
1035,441;  352,364;   -0,818;    0,318
1035,987;  400,818;   -2,364;   -0,682
1036,533;  479,727;   -1,455;   -0,955
1037,078;  687,091;    1,455;    1,682
1037,624;  531,455;    2,455;   -0,955
1038,170;  392,091;    0,455;   -0,318
1038,716;  478,182;    1,636;   -0,409
1039,261;  340,364;   -2,273;   -0,773
1039,807;  360,818;   -0,091;    3,409
1040,352;  396,818;   -1,909;   -0,318
1040,898;  389,455;   -1,545;   -0,682
1041,443;  303,545;   -1,455;   -2,591
1041,989;  628,000;    1,091;    1,591
1042,534;  410,091;   -0,364;    2,591
1043,079;  291,545;    2,909;    0,955
1043,625;  411,636;    1,818;    0,500
1044,170;  430,545;   -1,364;    1,045
1044,715;  635,545;    2,455;    0,955
1045,260;  522,818;    2,182;   -0,955
1045,805;  367,909;    1,182;   -0,591
1046,350;  332,455;    1,364;   -0,409
1046,895;  518,273;    2,909;    1,591
1047,440;  520,727;    5,364;    0,409
1047,985;  378,727;    2,818;   -0,955
1048,530;  351,545;    1,545;    1,227
1049,074;  410,636;    0,000;    0,318
1049,619;  338,636;   -1,364;    1,955
1050,164;  333,727;    0,455;    0,227
1050,708;  423,818;   -0,455;    0,045
1051,253;  680,182;    1,273;   -2,227
1051,797;  466,182;    0,818;   -1,318
1052,342;  291,182;   -1,182;    1,045
1052,886;  398,182;    0,364;   -1,409
1053,430;  265,909;   -1,364;    0,136
1053,975;  365,273;   -0,818;   -0,318
1054,519;  386,091;   -0,727;    3,227
1055,063;  460,364;    0,909;    1,318
1055,607;  441,273;   -0,182;    0,227
1056,151;  433,364;    2,909;    1,682
1056,695;  337,182;    2,273;   -1,136
1057,239;  330,182;   -1,727;   -0,682
1057,783;  385,091;    0,818;   -1,500
1058,327;  448,727;    0,000;    1,409
1058,871;  598,727;   -0,545;    1,318
1059,415;  461,273;   -0,818;   -0,045
1059,958;  626,636;    1,455;    2,591
1060,502;  381,636;   -1,000;   -0,773
1061,046;  275,545;    0,364;   -0,955
1061,589;  260,818;   -3,000;   -1,136
1062,133;  227,455;   -1,273;    1,864
1062,676;  275,091;    1,182;    0,864
1063,220;  318,182;    1,091;    0,500
1063,763;  344,545;    0,909;    1,136
1064,306;  372,818;   -0,909;    1,864
1064,849;  373,273;   -0,909;    0,591
1065,393;  343,364;    2,000;   -1,500
1065,936;  353,636;    0,182;   -0,409
1066,479;  260,182;   -1,455;    1,318
1067,022;  281,000;   -0,273;   -0,227
1067,565;  258,000;   -0,091;   -1,318
1068,108;  235,636;    0,727;   -0,591
1068,651;  202,091;   -0,636;    1,409
1069,194;  215,273;   -0,455;   -1,682
1069,736;  240,727;   -1,273;    0,955
1070,279;  211,455;   -1,364;   -0,500
1070,822;  305,182;   -2,000;   -0,318
1071,364;  440,000;   -0,364;    1,318
1071,907;  295,455;   -0,727;    3,227
1072,450;  138,636;    0,000;   -0,045
1072,992;  218,545;   -0,273;    3,136
1073,535;  308,818;    2,091;    2,136
1074,077;  213,818;   -0,727;    2,045
1074,619;  210,182;   -1,364;    0,591
1075,161;  239,182;   -1,091;    1,500
1075,704;  369,273;    1,545;    1,227
1076,246;  227,545;   -0,182;    0,682
1076,788;  158,455;   -0,364;    1,773
1077,330;  160,182;    1,273;    2,136
1077,872;  209,000;    0,909;    0,955
1078,414;  385,636;    2,727;    0,773
1078,956;  235,909;    1,273;   -0,227
1079,498;  388,000;    1,636;    0,318
1080,040;  240,091;    1,909;   -1,318
1080,581;  195,818;    1,636;   -0,318
1081,123;  133,364;    0,091;   -0,773
1081,665;  148,000;   -1,182;   -0,955
1082,206;  347,636;    1,364;   -0,500
1082,748;  258,455;    0,727;    2,045
1083,289;  169,000;   -2,000;    1,318
1083,831;  154,818;   -0,545;    0,227
1084,372;  210,182;    0,000;    0,591
1084,913;  207,545;    1,091;    0,864
1085,455;  151,545;   -1,909;   -2,045
1085,996;  154,364;   -2,273;    0,136
1086,537;  186,545;   -0,091;    0,864
1087,078;  192,818;   -0,909;   -2,136
1087,619;  247,545;   -1,273;    0,227
1088,160;  208,818;    0,000;    1,318
1088,701;  185,091;   -1,091;    0,682
1089,242;  167,364;    1,364;   -2,227
1089,783;  218,545;   -0,273;    1,409
1090,324;  197,182;    0,455;    0,682
1090,865;  140,182;    2,727;   -0,409
1091,405;  114,455;    0,727;    2,227
1091,946;  163,636;    0,182;   -0,955
1092,487;  108,909;    0,818;   -1,409
1093,027;  224,545;   -1,364;   -1,500
1093,568;  151,000;   -0,364;    1,227
1094,108;  189,545;    0,273;    1,773
1094,649;  153,818;   -1,182;    0,136
1095,189;  126,182;   -0,636;   -0,682
1095,729;  123,727;   -0,091;    0,955
1096,269;  114,545;    0,727;   -0,955
1096,810;  273,545;   -1,364;    0,500
1097,350;  208,364;    1,364;   -0,773
1097,890;  155,545;    0,364;    1,227
1098,430;  324,545;    2,364;    2,864
1098,970;  257,364;    2,182;    1,682
1099,510;  142,364;    0,545;   -2,318
1100,050;  121,182;    1,000;   -1,591
1100,589;  131,636;   -0,727;   -0,318
1101,129;  185,818;    0,818;   -0,955
1101,669;  269,364;    1,727;    2,136
1102,209;  190,364;   -0,091;    2,227
1102,748;  158,182;    0,000;    0,955
1103,288;  166,273;    1,273;   -1,227
1103,827;  153,909;    3,091;   -2,227
1104,367;  108,091;   -0,091;   -2,409
1104,906;  113,818;    1,364;   -1,136
1105,445;  161,909;    0,636;   -1,136
1105,985;  132,182;   -0,727;    1,500
1106,524;  154,364;   -1,727;   -0,682
1107,063;  142,455;   -2,727;    1,409
1107,602;  107,455;   -1,909;   -1,500
1108,141;   92,545;   -1,909;    1,500
1108,680;  159,182;   -3,455;   -0,591
1109,219;  129,818;   -0,909;   -0,500
1109,758;  121,727;    0,455;    0,682
1110,297;  113,727;    1,000;   -0,682
1110,836;   85,727;   -0,727;    0,955
1111,375;  124,182;   -2,545;    0,409
1111,913;  166,182;   -1,000;    0,773
1112,452;  138,727;   -0,273;    0,136
1112,991;   84,364;    1,091;    1,955
1113,529;   86,182;   -0,818;   -0,045
1114,068;  112,909;   -0,273;    2,955
1114,606;   77,818;   -0,364;   -0,955
1115,144;  152,091;   -1,273;    1,045
1115,683;  114,636;   -0,727;    0,318
1116,221;  145,000;   -0,455;   -0,864
1116,759;   96,545;    0,636;   -0,864
1117,297;  179,818;    0,000;    1,864
1117,836;  100,000;   -2,182;   -1,227
1118,374;  105,636;    0,182;   -0,682
1118,912;  109,000;    0,909;    2,682
1119,450;  101,364;    1,000;    0,864
1119,988;  100,727;    1,545;    2,136
1120,525;  371,000;    5,091;    3,318
1121,063;  199,545;    1,182;    1,864
1121,601;  106,091;   -0,909;   -1,227
1122,139;   84,091;   -0,727;   -2,045
1122,676;  187,000;   -0,727;    2,773
1123,214;  160,455;   -1,182;    4,409
1123,751;   75,364;    1,727;    2,227
1124,289;  117,091;   -0,091;   -0,409
1124,826;   87,091;    1,727;    0,227
1125,364;   44,909;    1,727;   -0,955
1125,901;  144,818;    1,182;    1,227
1126,438;  161,000;    0,818;    0,955
1126,975;   47,273;   -0,727;   -0,773
1127,513;   72,182;    0,273;    2,136
1128,050;   50,727;    1,636;   -0,682
1128,587;   89,091;    2,000;   -0,227
1129,124;  111,455;    0,091;    1,318
1129,661;   60,364;    0,273;    0,227
1130,198;  137,636;    1,636;    0,773
1130,734;   99,364;    0,182;    1,409
1131,271;   50,182;   -0,909;    0,864
1131,808;  120,727;    2,909;    3,045
1132,345;   74,909;    1,545;    0,318
1132,881;   21,545;   -1,545;   -1,864
1133,418;   79,727;    0,727;   -1,136
1133,954;   51,182;    2,455;   -2,682
1134,491;   79,636;    1,364;   -0,773
1135,027;   47,727;    2,364;    0,864
1135,564;   81,455;    0,273;    2,955
1136,100;   80,000;    0,364;    2,136
1136,636;   38,364;   -1,273;   -1,045
1137,172;   66,182;    0,000;   -1,045
1137,708;   48,182;   -1,364;   -1,045
1138,245;   46,182;    1,273;   -1,227
1138,781;   28,909;    1,091;   -3,318
1139,317;   51,273;    1,273;   -1,409
1139,852;   59,818;    3,091;    0,136
1140,388;   88,455;   -1,182;   -0,409
1140,924;   51,000;   -1,091;   -2,227
1141,460;   29,091;   -1,636;    0,136
1141,996;   16,091;   -1,364;    2,682
1142,531;   29,182;    1,364;    3,318
1143,067;  109,818;    1,182;    1,045
1143,602;  136,455;   -0,091;   -0,318
1144,138;   72,636;   -2,636;    1,045
1144,673;   30,364;   -1,455;    1,409
1145,209;   45,000;   -1,909;   -0,318
1145,744;   27,000;   -0,727;    0,864
1146,279;   69,364;    1,818;   -0,136
1146,815;   43,727;    1,545;   -2,682
1147,350;   57,636;   -1,364;    0,045
1147,885;   27,727;   -0,818;   -1,318
1148,420;   26,727;   -2,273;    0,773
1148,955;   27,000;   -1,727;    1,864
1149,490;   30,636;   -0,909;   -1,591
1150,025;   20,727;    0,455;   -1,773
1150,560;   62,455;    1,091;   -0,955
1151,094;   51,545;    1,455;   -0,591
1151,629;   52,727;    1,636;    0,864
1152,164;   30,182;    1,364;    1,318
1152,698;   20,909;   -0,182;   -0,136
1153,233;    9,000;    0,091;   -0,682
1153,767;   15,909;   -3,000;   -2,318
1154,302;   31,182;   -1,455;    1,773
1154,836;   31,727;   -0,455;   -2,136
1155,371;   46,909;   -1,364;    3,682
1155,905;   34,727;   -0,636;    1,682
1156,439;   34,182;   -0,636;   -0,500
1156,973;   38,091;    0,364;    0,318
1157,507;   19,273;   -0,364;    0,682
1158,042;   26,091;   -0,727;    1,045
1158,576;   35,182;    0,182;    1,773
1159,110;   37,273;   -0,818;    2,409
1159,643;   30,182;    0,636;   -0,045
1160,177;   17,000;   -1,545;    1,500

