
Integration time [ms]:   0,040
Averaging Nr. [scans]: 11
Smoothing Nr. [pixels]: 0
Data measured with spectrometer [name]: 7318044SP
Wave   ;Sample   ;Dark     ;Reference
[nm]   ;[counts] ;[counts] ;[counts] 

186,757;   41,080;   31,551;    1,318
187,357;   45,935;   22,551;    0,955
187,958;   28,149;   15,460;   -1,591
188,558;   41,517;    8,915;   -1,227
189,159;   26,052;    6,733;   -4,500
189,759;   15,495;    7,278;   -3,591
190,360;   14,476;    2,824;   -2,136
190,960;   27,896;    2,915;   -4,136
191,560;   35,305;    3,189;   -6,591
192,161;  154,232;    4,372;   -3,500
192,761;   81,807;    4,010;   -3,227
193,361;   56,187;    1,556;   -3,773
193,962;   78,163;    2,010;   -2,682
194,562;   34,520;    1,189;   -3,955
195,162;   36,097;   -2,448;   -2,227
195,762;  104,349;   -3,176;   -0,045
196,362;   75,365;    1,370;   -2,500
196,963;   29,518;    2,006;   -0,864
197,563;   53,162;    1,551;   -0,955
198,163;   24,929;    0,096;   -0,682
198,763;   31,872;    1,733;   -0,500
199,363;   67,441;    3,096;   -0,500
199,963;   50,543;    0,369;    0,409
200,563;   41,842;    2,823;   -1,409
201,163;   28,714;    3,277;   -0,227
201,763;   56,579;    3,732;    0,318
202,363;   33,474;    1,459;    1,500
202,963;   59,803;    1,459;    1,045
203,563;  108,163;    0,277;    0,500
204,162;   55,926;    2,096;   -1,864
204,762;   50,397;    0,550;    0,591
205,362;   35,789;    3,004;    1,955
205,962;   62,614;    3,096;    1,955
206,562;   60,531;    1,823;    2,318
207,161;   41,764;   -0,087;    0,318
207,761;  126,806;    1,277;    2,409
208,361;   61,216;   -0,268;    1,409
208,960;   93,220;    0,459;    1,500
209,560;   92,514;    1,277;    1,591
210,160;  108,845;    0,550;    1,864
210,759;   86,305;    4,186;    1,227
211,359;   70,920;    1,459;    1,045
211,958;  205,326;    1,277;    2,045
212,558;  220,819;    1,732;    1,864
213,157;  138,206;    1,822;    1,500
213,757;  334,518;    3,822;   -0,227
214,356;  183,289;    1,277;   -0,409
214,956;  338,211;    3,095;    0,409
215,555;  156,108;    2,095;    2,136
216,154;  118,293;   -2,723;   -0,591
216,754;  122,002;    0,277;    0,773
217,353;  155,177;   -0,268;   -1,045
217,952;   70,381;   -0,178;    0,318
218,552;  202,754;    1,368;   -0,773
219,151;  136,408;    0,277;    0,955
219,750;  122,037;    0,004;   -0,227
220,349;  109,068;   -0,451;    1,045
220,948;  227,737;   -1,360;    1,136
221,548;  147,610;    0,913;    1,227
222,147;  191,660;   -0,087;   -0,409
222,746;  349,347;   -0,451;   -0,955
223,345;  240,209;    0,731;    0,500
223,944;  252,129;   -0,451;    0,773
224,543;  276,196;    1,004;   -1,409
225,142;  297,020;    0,094;    0,136
225,741;  275,279;   -0,814;    1,045
226,340;  255,599;   -0,451;   -0,955
226,939;  413,006;   -0,996;   -0,136
227,538;  257,437;   -0,360;   -0,773
228,137;  422,568;   -0,814;    0,864
228,735;  366,105;   -0,541;    1,227
229,334;  231,087;   -0,905;   -0,227
229,933;  463,747;    0,459;    0,591
230,532;  497,277;    1,186;   -0,409
231,131;  591,391;    1,732;    0,318
231,729;  445,612;   -2,450;   -2,318
232,328;  368,219;   -0,723;   -1,500
232,927;  382,426;    1,004;   -0,500
233,525;  361,619;    3,640;    0,045
234,124;  436,184;    2,368;   -1,591
234,723;  339,345;    0,913;   -1,045
235,321;  345,120;    2,277;    0,136
235,920;  415,621;    1,186;   -1,227
236,518;  620,305;    3,459;    0,318
237,117;  418,798;    0,004;   -0,227
237,715;  435,548;    0,640;   -0,500
238,314;  520,031;   -0,087;   -2,318
238,912;  694,307;   -0,723;   -1,409
239,510;  533,908;    0,459;   -1,227
240,109;  699,995;    0,004;    3,773
240,707;  647,400;   -0,996;    1,227
241,305;  476,737;    0,550;    0,136
241,904;  631,101;   -0,178;   -2,045
242,502;  744,037;   -0,632;   -0,227
243,100;  607,984;   -0,087;   -0,955
243,698;  559,644;    0,732;    1,682
244,297;  607,278;   -0,632;    0,682
244,895;  609,557;   -0,269;   -2,318
245,493;  846,279;    2,186;   -0,591
246,091;  817,422;    1,368;   -1,318
246,689;  742,413;    1,004;    0,591
247,287;  692,583;    0,822;   -1,136
247,885;  665,306;   -1,451;    1,227
248,483;  621,117;    1,822;   -0,500
249,081;  716,653;    0,185;    1,591
249,679;  785,347;   -0,178;    1,682
250,277;  624,517;   -1,723;    0,864
250,875;  795,266;   -1,087;   -1,045
251,473;  668,173;   -1,178;    0,500
252,071;  790,572;    1,459;    1,045
252,669;  711,584;   -1,814;    0,318
253,267;  642,521;   -0,087;    0,773
253,864;  683,674;   -0,360;    0,682
254,462;  886,188;    1,640;    1,591
255,060;  623,690;   -0,269;    1,318
255,658;  601,129;    0,822;   -0,136
256,255;  742,484;    0,186;   -2,045
256,853;  779,397;   -0,269;    1,409
257,451;  751,534;    0,822;    1,864
258,048; 1265,762;    1,822;    1,864
258,646;  887,725;    1,731;   -1,045
259,243; 1030,124;   -0,087;    2,227
259,841;  887,863;   -0,814;    0,318
260,438;  703,221;   -0,087;    0,864
261,036;  863,653;   -1,905;    1,409
261,633;  759,965;   -0,087;    2,227
262,231;  704,651;    2,731;   -0,045
262,828;  733,500;   -0,905;    1,136
263,425;  784,108;    0,913;   -0,591
264,023;  787,962;    0,186;    0,045
264,620;  952,798;   -0,360;   -0,318
265,217; 1099,411;   -2,087;    3,136
265,815;  788,362;   -1,905;    2,136
266,412;  936,247;    0,731;    0,136
267,009;  973,525;   -1,451;    0,773
267,606; 1086,816;    0,822;   -0,955
268,203;  819,055;   -0,269;   -0,591
268,801;  901,123;    1,731;    0,591
269,398;  806,153;   -0,360;    2,500
269,995;  984,046;    0,277;    1,591
270,592;  869,181;   -0,632;   -0,500
271,189;  788,793;    0,186;    0,409
271,786;  779,302;   -0,632;    1,227
272,383; 1084,762;   -1,087;    0,227
272,980;  898,267;    0,277;    0,318
273,577;  865,802;    0,004;    1,227
274,174;  786,568;    0,822;    2,591
274,771;  926,129;   -0,814;   -0,773
275,367; 1399,793;    2,277;    1,409
275,964; 1201,451;    0,731;   -0,500
276,561;  958,065;    1,549;   -1,045
277,158;  874,893;    0,095;   -1,773
277,755; 1161,471;    2,185;    0,409
278,351;  964,807;   -0,451;   -1,500
278,948; 1069,004;   -0,815;    0,045
279,545;  962,174;   -1,360;    2,318
280,141; 1277,771;   -1,723;   -2,045
280,738; 1149,930;   -0,451;   -0,136
281,334;  932,517;   -1,633;    0,591
281,931;  935,715;   -0,087;   -1,318
282,528; 1042,401;    0,822;   -0,500
283,124; 1208,643;   -1,087;   -0,500
283,721; 1180,134;   -0,451;    1,409
284,317;  983,821;    0,185;    2,500
284,913; 1246,603;   -1,360;    0,591
285,510; 1587,422;    0,640;   -0,318
286,106; 1364,940;   -2,269;   -0,955
286,703; 1005,793;   -0,360;    1,955
287,299;  967,681;   -1,451;   -0,591
287,895;  993,983;    0,822;   -1,045
288,491; 1027,972;    0,186;    2,136
289,088; 1158,685;   -2,360;    2,409
289,684; 1181,584;   -1,723;    1,500
290,280; 1343,836;    0,368;    0,682
290,876; 1328,241;    1,822;    5,500
291,472; 1185,896;    1,276;    2,227
292,068; 1207,594;    1,367;    0,227
292,665; 1030,226;    2,095;    0,773
293,261;  894,174;    0,276;    2,136
293,857; 1108,363;    2,913;    2,136
294,453; 1031,556;    3,550;    0,955
295,049; 1262,803;   -0,268;    1,955
295,644; 1070,502;    0,095;    0,136
296,240;  933,167;   -0,905;   -0,136
296,836; 1104,064;   -0,995;    0,318
297,432; 1281,908;    1,096;   -0,500
298,028; 1351,459;    0,732;    0,773
298,624; 1153,272;    1,459;    1,864
299,220; 1130,644;    2,368;    0,591
299,815; 1088,574;    1,005;   -0,409
300,411; 1197,622;    0,914;    1,773
301,007; 1356,432;    1,368;    0,227
301,602; 1153,897;   -0,541;   -2,318
302,198; 1281,162;    0,732;   -0,773
302,794; 1132,433;    1,187;   -0,500
303,389; 1109,550;   -1,177;    1,045
303,985; 1182,665;    0,550;    1,409
304,580; 1288,969;    1,459;    1,591
305,176; 1167,982;   -3,086;    0,136
305,771; 1041,974;   -1,268;   -1,227
306,367; 1488,578;    4,095;    0,136
306,962; 1239,806;    0,641;    1,500
307,558; 1222,800;   -0,450;    0,136
308,153; 1329,718;    1,095;   -1,136
308,748; 1122,390;   -0,814;    1,682
309,344; 1555,490;   -0,632;   -1,318
309,939; 1589,686;   -1,905;   -1,318
310,534; 1247,179;   -0,086;   -1,682
311,130; 1154,132;    0,459;   -2,500
311,725; 1060,293;    1,004;   -0,500
312,320; 1182,911;    2,459;    0,045
312,915; 1333,097;    1,459;   -1,045
313,510; 1560,123;    1,550;   -0,500
314,105; 1322,922;    1,096;    1,409
314,700; 1073,448;   -3,086;   -1,045
315,295; 1149,151;   -0,904;    0,045
315,890; 1032,879;    1,277;    0,864
316,485; 1158,947;   -0,359;   -0,318
317,080; 1106,914;   -3,086;    1,591
317,675; 1468,011;    2,005;   -0,682
318,270; 1651,661;    5,550;    3,318
318,865; 1553,834;    3,278;    3,045
319,460; 1330,894;   -0,904;    0,591
320,055; 1195,570;   -0,541;   -1,227
320,650; 1158,795;   -1,995;   -0,591
321,244; 1169,614;   -0,177;   -1,409
321,839; 1320,929;   -1,541;   -0,227
322,434; 1370,275;   -1,086;   -1,591
323,029; 1226,344;    1,732;    1,591
323,623; 1154,571;    1,550;    0,773
324,218; 1309,373;    2,368;    1,409
324,812; 1240,169;    1,096;    1,591
325,407; 1242,348;   -0,814;    2,045
326,002; 1341,454;    0,277;   -0,409
326,596; 1295,876;    0,914;    1,318
327,191; 1162,501;    0,823;   -1,045
327,785; 1085,057;   -0,813;   -0,227
328,379; 1183,413;    1,368;    0,136
328,974; 1186,597;    0,914;   -3,955
329,568; 1249,363;    0,186;   -2,409
330,163; 1314,092;    2,096;    1,045
330,757; 1185,789;    2,459;    1,591
331,351; 1084,604;    0,459;    0,682
331,945; 1097,060;    0,914;    1,409
332,540; 1242,340;   -1,723;   -0,591
333,134; 1215,440;   -1,086;    0,773
333,728; 1189,882;    0,005;    0,318
334,322; 1124,580;   -1,177;   -0,864
334,916; 1031,262;    0,277;    0,955
335,510; 1250,680;   -0,450;   -0,136
336,105; 1283,410;   -1,086;    1,591
336,699; 1131,457;   -1,086;    0,591
337,293; 1144,150;   -1,723;    0,318
337,887; 1082,642;   -2,723;    1,955
338,481; 1276,061;    0,459;    0,591
339,074; 1419,617;   -0,359;    2,682
339,668; 1371,751;   -1,632;    1,227
340,262; 2055,452;    1,732;    3,227
340,856; 1547,711;    1,822;   -0,682
341,450; 1115,515;    1,004;    1,864
342,044; 1235,787;    1,459;    0,136
342,637; 1387,359;    0,913;   -2,136
343,231; 1411,449;   -2,360;    0,682
343,825; 1195,994;   -1,086;   -0,591
344,419; 1178,932;   -1,995;    0,500
345,012; 1808,037;    2,459;    4,045
345,606; 1582,617;    4,641;    1,591
346,199; 1217,869;   -1,813;   -0,227
346,793; 1356,276;    1,914;    2,045
347,386; 1136,794;   -0,813;   -1,136
347,980;  989,173;   -0,268;   -0,045
348,573; 1133,029;    2,278;    0,409
349,167; 1419,503;    5,278;    4,773
349,760; 1360,978;    2,914;    2,682
350,354; 1266,111;   -0,813;    1,136
350,947; 1332,845;    1,096;    1,682
351,540; 1102,285;   -0,358;   -1,409
352,134;  930,254;    1,096;    1,136
352,727; 1000,674;   -0,086;    1,136
353,320; 1048,755;    0,005;    0,591
353,913;  927,630;   -1,995;    1,864
354,507; 1192,583;    0,823;   -1,227
355,100; 1070,984;    0,460;    0,864
355,693; 1495,748;    2,005;    2,409
356,286; 1210,427;    0,823;    2,773
356,879; 1032,905;   -0,722;    1,227
357,472;  975,934;   -0,904;    1,500
358,065; 1078,517;   -0,722;    2,500
358,658;  916,714;   -0,540;    2,318
359,251;  828,914;   -1,631;   -0,591
359,844; 1039,582;   -1,904;   -1,136
360,437; 1162,636;   -2,995;    0,045
361,030; 1003,456;    1,369;   -0,682
361,623;  959,493;    2,824;    0,318
362,215; 1220,494;   -0,086;    2,045
362,808; 1046,638;   -2,358;   -1,682
363,401;  967,874;   -2,449;    0,136
363,994; 1232,973;   -0,631;   -1,500
364,586;  980,174;    0,824;   -1,500
365,179;  919,655;   -0,449;   -1,136
365,772;  710,707;   -1,995;    2,045
366,364;  890,655;    1,915;   -3,227
366,957; 1023,248;    2,279;   -0,045
367,549;  928,054;    2,188;   -0,864
368,142;  924,106;    1,825;   -1,500
368,734;  883,576;    0,734;   -2,136
369,327;  782,953;    1,643;   -0,500
369,919;  839,477;   -1,538;    0,409
370,512;  885,964;   -1,083;   -0,500
371,104; 1183,928;   -0,901;    1,591
371,696; 1233,847;    1,191;   -0,955
372,289; 1066,560;    0,373;    1,136
372,881; 1003,649;   -2,080;    1,318
373,473;  842,372;   -2,170;    1,136
374,066;  972,925;   -0,169;    0,500
374,658;  931,272;    0,378;    1,136
375,250;  867,263;    0,653;   -1,409
375,842;  932,542;    0,473;   -0,045
376,434;  879,733;   -0,435;   -0,409
377,026;  919,653;    0,204;   -2,500
377,618;  952,038;   -0,158;   -0,682
378,210;  858,043;   -0,338;   -1,955
378,802;  798,361;    0,754;   -0,591
379,394; 1330,933;    1,846;    0,682
379,986; 1067,336;    1,393;   -0,955
380,578;  955,268;   -0,153;    0,773
381,170; 1209,037;   -0,972;    0,045
381,762; 1063,360;    0,755;    1,409
382,354; 1025,605;   -0,065;   -1,318
382,945;  924,608;   -2,976;    0,318
383,537;  861,420;   -2,705;   -1,955
384,129;  879,944;   -2,160;   -1,136
384,721; 1022,263;   -0,252;    0,955
385,312;  902,429;   -0,161;   -0,955
385,904; 1071,615;   -2,706;    1,591
386,496;  881,587;   -0,979;    1,045
387,087; 1077,866;    1,022;    2,500
387,679; 1004,610;   -1,160;    0,045
388,270; 1031,497;    2,840;    2,045
388,862;  968,824;    1,295;   -0,318
389,453;  888,826;   -0,887;    1,045
390,045;  947,278;   -0,705;   -2,682
390,636;  843,400;    0,204;   -0,591
391,227;  883,973;   -0,523;   -0,045
391,819;  910,760;    0,204;    0,773
392,410; 1204,969;    1,022;    0,045
393,001;  976,509;   -0,979;   -1,591
393,593; 1078,281;    1,930;   -0,045
394,184; 1137,981;    1,385;   -0,409
394,775;  938,720;    1,839;    2,136
395,366;  905,490;    1,385;    0,773
395,957; 1141,353;    0,113;    0,136
396,548; 1013,674;   -0,342;    2,682
397,139; 1203,138;   -2,433;    0,591
397,730; 1063,560;   -1,888;    0,955
398,321; 1057,681;   -1,252;    0,955
398,912;  980,664;   -0,615;    0,136
399,503; 1019,377;   -3,524;   -1,409
400,094; 1021,248;    0,294;    1,682
400,685; 1017,012;   -0,433;    0,045
401,276;  911,305;    0,930;   -0,955
401,867;  923,746;   -0,888;    0,773
402,458;  890,467;   -2,251;   -2,318
403,048; 1093,444;    1,112;    0,591
403,639;  968,625;    0,840;    0,864
404,230; 1184,647;    2,476;    0,318
404,821; 1237,104;   -0,615;    0,045
405,411; 1104,720;    1,203;   -2,591
406,002;  949,374;   -1,252;   -1,136
406,592; 1261,595;    2,294;    0,045
407,183; 1086,617;    0,566;   -1,500
407,774; 1021,317;    3,475;   -0,136
408,364;  997,326;    0,930;    0,409
408,954; 1143,693;    0,384;    1,227
409,545; 1149,848;    1,021;    1,045
410,135; 1027,277;    1,293;    0,500
410,726;  996,995;    1,838;    0,318
411,316; 1260,492;    0,111;    0,773
411,906; 1005,053;   -0,253;   -0,409
412,497;  993,002;   -1,070;   -0,045
413,087;  956,934;   -1,980;   -0,227
413,677;  920,998;   -0,707;    3,864
414,267;  897,687;    0,656;    1,409
414,857;  847,377;   -2,980;    4,227
415,448;  886,436;    0,839;    0,500
416,038;  902,392;    0,020;   -0,591
416,628;  961,426;   -0,889;    0,409
417,218; 1049,183;    0,565;    3,318
417,808; 1260,236;    0,202;   -0,409
418,398; 1073,521;    0,020;    2,682
418,988;  925,653;    2,020;    0,591
419,578; 1040,048;   -0,707;    1,409
420,168; 1056,980;   -1,343;   -0,955
420,757; 1225,894;   -1,343;   -1,500
421,347; 1040,757;    0,111;   -0,227
421,937;  999,279;    2,292;    1,409
422,527; 1170,575;    0,838;   -0,773
423,116; 1333,879;   -0,253;   -0,045
423,706;  997,809;   -1,889;    0,318
424,296;  896,246;    1,384;    0,682
424,885; 1152,337;   -0,071;   -3,045
425,475; 1116,288;    1,474;   -2,864
426,065;  945,909;   -0,980;   -0,318
426,654;  917,732;   -0,435;   -0,318
427,244; 1305,508;    0,020;    1,409
427,833; 1250,991;    1,383;   -0,500
428,423; 1077,996;   -0,526;    1,136
429,012; 1132,871;   -0,344;   -1,136
429,601; 1253,906;   -1,344;    0,136
430,191; 1096,952;    1,292;    4,318
430,780;  911,101;   -0,344;   -0,409
431,369; 1267,733;    0,746;   -0,045
431,959; 1186,053;   -1,254;    0,500
432,548; 1024,265;   -1,163;   -0,045
433,137;  925,462;   -1,254;   -1,318
433,726; 1117,837;    0,292;    0,500
434,315; 1072,731;   -0,526;    2,409
434,905; 1229,452;   -1,254;    1,409
435,494; 1300,187;    0,746;    0,955
436,083; 1104,060;   -0,981;   -0,955
436,672; 1153,257;    0,110;    0,500
437,261; 1098,176;    0,292;   -1,955
437,850; 1513,811;    1,383;    0,682
438,439; 1549,499;    3,291;    1,955
439,027; 1646,661;    3,655;    1,773
439,616; 1604,477;    2,927;    1,227
440,205; 1267,124;    0,200;   -2,136
440,794; 1139,430;    2,109;   -0,045
441,383; 1061,376;   -1,346;   -0,591
441,971;  950,886;   -2,436;    0,591
442,560;  973,192;    0,563;   -1,773
443,149;  838,234;    0,379;   -1,318
443,737;  956,594;   -0,074;   -2,318
444,326;  983,673;    0,018;    0,318
444,915; 1070,723;   -1,982;    0,864
445,503; 1097,262;   -2,891;   -0,318
446,092; 1429,514;    0,382;    2,136
446,680; 1378,647;    0,382;    0,318
447,269; 1294,360;   -0,346;   -0,318
447,857; 1202,446;    0,018;   -1,773
448,445; 1138,329;    0,563;    1,318
449,034; 1098,279;   -1,528;   -1,136
449,622; 1075,651;   -1,073;    3,500
450,210; 1549,850;    2,017;    2,227
450,799; 1437,821;    0,290;   -0,591
451,387; 1277,349;    1,381;   -0,591
451,975; 1274,888;    2,654;    0,864
452,563; 1456,362;    3,472;    2,318
453,151; 1111,255;   -0,528;   -1,227
453,739; 1189,524;   -1,347;    0,136
454,328; 1417,406;    2,381;   -2,136
454,916; 1253,368;    2,562;   -0,136
455,504; 1246,057;    1,017;    1,227
456,092; 1115,036;    0,017;   -1,591
456,679; 1011,514;    1,472;    0,682
457,267; 1744,327;    4,017;    1,045
457,855; 1200,158;    1,017;    1,409
458,443;  904,461;   -0,165;    1,682
459,031; 1318,146;    0,108;    2,409
459,619; 1230,665;   -1,801;    2,864
460,206; 1036,838;    0,835;    2,045
460,794; 1063,238;   -2,983;   -0,227
461,382; 1175,233;   -0,529;   -0,864
461,970; 1104,136;    1,198;    1,864
462,557; 1022,212;   -0,711;   -0,682
463,145; 1270,658;   -3,165;   -1,682
463,732; 1622,486;    2,016;   -1,045
464,320; 1246,701;   -0,075;   -3,045
464,907; 1475,073;    2,743;   -0,773
465,495; 1315,949;    0,743;   -1,227
466,082; 1176,859;   -1,984;   -0,045
466,670; 1146,713;   -2,529;    1,227
467,257; 1040,256;   -1,711;    2,045
467,844; 1233,702;   -0,075;    0,045
468,432; 1227,650;    0,834;    3,500
469,019; 1095,621;    0,925;   -1,773
469,606; 1214,750;    0,470;    3,682
470,193; 1289,065;   -1,439;    0,227
470,780; 1246,806;   -2,075;    0,864
471,368; 1119,150;   -1,257;   -0,773
471,955; 1282,616;    1,379;   -0,682
472,542; 1172,212;    0,652;   -1,136
473,129;  982,211;   -0,166;    0,136
473,716;  971,146;    1,470;    0,591
474,303; 1040,255;    0,652;   -0,864
474,890; 1069,673;   -1,439;   -0,500
475,477; 1250,149;   -1,621;    0,409
476,064; 1081,224;    1,106;   -1,591
476,650; 1236,357;    0,288;    0,318
477,237; 1119,994;   -0,258;    0,955
477,824; 1090,777;   -1,076;    0,864
478,411;  919,014;   -1,894;   -0,318
478,997;  929,127;    0,560;   -0,773
479,584;  843,389;    1,196;   -0,409
480,171; 1255,829;   -0,440;   -0,773
480,757; 1376,252;    2,651;    0,773
481,344; 1150,934;    0,469;    0,409
481,931;  925,466;    1,105;    1,045
482,517; 1291,892;   -1,258;    0,318
483,104; 1447,750;    1,106;    2,864
483,690; 1298,049;   -1,804;    0,045
484,276; 1266,610;   -0,895;    0,227
484,863; 1630,223;    2,469;    1,136
485,449; 1382,224;   -0,077;    0,318
486,035; 1268,899;   -1,986;   -0,136
486,622; 1500,804;   -0,895;    0,045
487,208; 1344,379;    1,378;    1,500
487,794; 1208,277;    0,741;    0,318
488,380; 1259,985;    0,105;   -1,409
488,967; 1239,966;   -1,168;   -0,409
489,553; 1256,282;   -1,895;   -1,409
490,139; 1412,115;    1,559;    0,773
490,725; 1230,250;    0,741;   -0,227
491,311; 1248,930;    3,287;    3,045
491,897; 1078,956;   -0,986;    1,500
492,483; 1099,576;    0,105;    1,227
493,069; 1906,262;    3,923;    0,864
493,655; 1366,523;    1,650;    0,682
494,241; 1168,022;    1,377;   -0,955
494,826; 1256,637;    0,287;   -1,045
495,412; 1321,185;    2,559;   -0,682
495,998; 1182,272;   -0,805;   -0,318
496,584; 1256,160;    0,377;    1,045
497,169; 1196,709;    1,014;   -0,682
497,755; 1066,024;    0,650;    1,227
498,341; 1477,064;    0,559;    0,318
498,926; 1649,657;    1,832;    1,955
499,512; 1229,268;    1,286;    2,955
500,097; 1151,785;    0,195;   -0,318
500,683; 1194,679;   -0,350;    2,136
501,268; 1142,881;   -0,169;   -0,955
501,854; 1180,985;   -0,169;    1,227
502,439; 1103,869;   -0,624;   -1,773
503,024; 1239,234;    0,195;    0,500
503,610; 1301,938;   -0,078;   -0,682
504,195; 1101,856;    0,558;    1,955
504,780; 1268,553;    2,922;    1,227
505,366; 1447,591;    3,013;    2,864
505,951; 1282,087;    0,740;    1,045
506,536; 1180,673;   -3,260;   -3,682
507,121; 1244,933;    0,285;   -0,318
507,706; 1212,233;    2,376;    1,045
508,291; 1117,368;    2,649;    1,136
508,876; 1080,585;   -0,988;    2,591
509,461; 1147,035;   -0,169;   -0,773
510,046; 1253,094;    0,194;    0,318
510,631; 1219,216;   -0,351;   -0,773
511,216; 1105,610;    2,467;   -0,500
511,801; 1262,060;   -0,442;    2,591
512,386; 1284,830;    0,740;    0,500
512,971; 1309,714;   -2,988;    0,955
513,555; 1372,724;   -0,897;   -1,500
514,140; 1363,335;   -0,442;   -3,136
514,725; 1475,524;   -0,715;   -1,136
515,309; 1342,380;   -0,533;    0,318
515,894; 1200,913;   -0,624;   -2,227
516,479; 1246,184;   -0,624;   -0,955
517,063; 1221,468;    0,376;    1,227
517,648; 1206,321;    1,012;   -1,136
518,232; 1118,848;   -0,261;   -1,409
518,817; 1243,045;   -0,079;    1,682
519,401; 1453,353;    2,194;    0,591
519,985; 1258,555;    1,103;    1,136
520,570; 1109,171;    0,830;   -1,955
521,154; 1293,565;    2,102;    0,591
521,738; 1589,812;   -2,352;    2,409
522,323; 1429,512;   -0,170;    1,682
522,907; 1337,692;    0,466;   -0,136
523,491; 1217,809;    0,557;    0,955
524,075; 1151,188;    2,284;    0,591
524,659; 1384,222;    1,466;    0,591
525,243; 1271,533;    1,739;    0,409
525,827; 1193,648;    0,648;   -0,045
526,411; 1246,859;   -1,989;   -0,136
526,995; 1438,308;   -0,352;    1,409
527,579; 1462,908;   -0,443;   -1,045
528,163; 1399,143;    0,375;   -1,500
528,747; 1591,099;    2,466;   -0,773
529,331; 1531,603;   -0,080;   -1,409
529,915; 1279,800;    1,738;    0,955
530,499; 1385,070;   -0,807;    1,227
531,082; 1527,799;   -0,534;    1,591
531,666; 1575,194;    1,374;    0,773
532,250; 1499,659;    1,284;    2,682
532,833; 1664,420;    0,920;    2,773
533,417; 1430,167;   -1,807;    0,864
534,001; 1547,157;    1,647;   -0,318
534,584; 1491,527;    0,374;    0,500
535,168; 1290,055;    0,465;    1,409
535,751; 1726,842;    0,647;    0,045
536,334; 1356,649;   -0,898;   -0,409
536,918; 1323,171;    0,011;    1,591
537,501; 1311,386;   -0,899;    1,318
538,085; 1351,538;   -0,444;    1,045
538,668; 1375,280;    0,829;    2,409
539,251; 1769,022;    1,829;    3,773
539,834; 1500,896;    0,101;    0,773
540,418; 1620,238;   -1,990;    4,318
541,001; 1796,891;   -0,990;    1,773
541,584; 1524,122;    2,101;    2,227
542,167; 1606,549;    1,374;    2,955
542,750; 1463,086;    1,919;   -0,773
543,333; 1226,375;    0,555;    2,136
543,916; 1571,547;    0,192;    2,500
544,499; 1439,905;   -1,354;    0,227
545,082; 1556,019;    1,374;    3,591
545,665; 1464,224;    1,919;    1,500
546,248; 1616,556;    1,010;   -0,318
546,830; 1579,055;   -0,445;    1,955
547,413; 1607,346;    1,010;   -0,773
547,996; 1666,003;    0,555;    0,500
548,579; 1477,333;    0,919;    0,955
549,161; 1724,447;    1,828;    2,682
549,744; 1611,322;   -0,809;    0,409
550,326; 1558,612;   -0,809;   -1,136
550,909; 2044,642;    2,737;    0,591
551,492; 1719,832;   -0,263;    0,227
552,074; 1785,170;   -0,173;   -1,318
552,657; 1849,813;    2,373;    0,045
553,239; 1673,948;   -0,173;   -0,773
553,821; 1595,044;   -1,082;    1,045
554,404; 1784,710;    1,282;    1,136
554,986; 1920,907;    0,464;    1,045
555,568; 1806,860;    1,191;   -0,955
556,151; 1992,148;    1,191;   -0,227
556,733; 1674,408;   -0,264;   -0,864
557,315; 1682,055;    0,100;    0,500
557,897; 1480,835;    0,554;   -0,500
558,479; 1508,310;   -1,991;    1,318
559,061; 1646,484;   -0,719;   -0,864
559,643; 1772,448;   -0,264;    0,045
560,225; 1810,520;    1,645;    2,864
560,807; 1685,812;    0,918;    0,318
561,389; 1601,044;    0,554;    2,318
561,971; 1668,925;    0,463;    2,136
562,553; 1670,496;   -1,628;    1,591
563,135; 1770,200;   -0,537;    1,136
563,717; 2106,733;    3,372;    1,136
564,298; 1997,097;    3,645;   -0,045
564,880; 1706,475;    0,645;   -1,409
565,462; 1597,293;    0,645;    1,318
566,043; 1960,186;   -0,446;    2,318
566,625; 2099,359;    1,918;    1,227
567,207; 1850,518;    1,099;    1,682
567,788; 1854,835;   -1,264;    1,500
568,370; 1990,871;    1,917;   -0,500
568,951; 1865,166;    0,190;    0,227
569,533; 2059,722;   -0,628;   -0,500
570,114; 2186,814;   -0,446;    0,682
570,695; 2225,249;   -0,174;   -1,318
571,277; 2185,083;   -0,265;   -1,682
571,858; 2429,179;    2,008;   -1,136
572,439; 2472,516;    1,554;   -1,045
573,021; 2446,260;    2,099;   -2,773
573,602; 2572,509;   -1,265;    0,318
574,183; 2627,166;   -2,083;    2,227
574,764; 2635,410;   -1,629;    0,409
575,345; 2731,507;    0,917;   -0,136
575,926; 2727,195;   -0,356;    0,136
576,507; 2823,045;    1,099;   -0,227
577,088; 2943,315;    3,099;    1,682
577,669; 3058,480;    0,735;    1,955
578,250; 3313,894;    0,644;   -1,045
578,831; 3183,919;   -1,356;   -2,227
579,412; 3054,677;   -0,810;    0,955
579,993; 3362,973;    1,008;    0,227
580,573; 3369,439;   -0,629;   -0,955
581,154; 3025,583;    0,735;   -0,591
581,735; 3223,559;    0,644;    0,773
582,315; 3096,105;   -0,629;    2,136
582,896; 3263,682;   -0,174;    1,227
583,477; 3091,804;    0,189;    1,227
584,057; 3161,697;    0,553;    0,955
584,638; 3233,064;    2,553;    2,318
585,218; 3425,225;   -0,538;    2,682
585,799; 3336,885;    0,281;   -0,227
586,379; 3252,952;    0,372;    1,591
586,959; 3085,809;    0,735;    0,318
587,540; 2915,883;   -0,629;    2,227
588,120; 2827,679;    1,007;   -0,045
588,700; 2683,479;    2,553;    2,136
589,281; 2934,706;    0,462;   -0,955
589,861; 2821,308;    0,099;   -1,682
590,441; 2753,633;    2,371;   -2,682
591,021; 2561,873;   -0,265;   -2,591
591,601; 2675,802;   -0,537;    0,500
592,181; 2762,224;   -0,719;   -0,773
592,761; 2439,904;    0,007;    1,409
593,341; 2598,069;   -0,901;    0,045
593,921; 2537,040;   -0,265;    1,591
594,501; 2452,812;   -0,538;    1,318
595,081; 2425,843;    0,917;   -0,318
595,661; 2653,483;   -1,447;    0,955
596,240; 2703,077;   -0,537;    0,136
596,820; 2824,731;    0,372;    1,955
597,400; 2559,096;    2,008;    0,773
597,980; 2612,555;    2,008;    1,045
598,559; 2610,614;    2,735;   -0,227
599,139; 2563,395;   -0,174;   -1,227
599,718; 2519,213;   -0,174;   -0,409
600,298; 2598,708;    0,735;    0,682
600,877; 2941,673;    2,917;    1,409
601,457; 2881,507;    2,281;    1,136
602,036; 2729,793;    0,190;    2,045
602,616; 2675,183;    0,644;    1,682
603,195; 2838,044;   -0,355;    3,500
603,774; 2757,549;   -0,901;    2,045
604,354; 2666,654;    0,826;   -0,500
604,933; 2569,502;    0,463;    1,864
605,512; 2782,314;    3,554;    0,591
606,091; 2792,434;   -0,537;    3,773
606,671; 2816,513;    0,281;    0,773
607,250; 2808,258;    1,644;    3,136
607,829; 2823,146;    2,372;    3,227
608,408; 2687,686;    1,190;    2,591
608,987; 2642,321;    1,281;    3,409
609,566; 2527,128;   -1,265;   -2,500
610,145; 2613,899;   -1,082;    0,682
610,723; 2768,483;    4,372;    6,864
611,302; 2508,059;   -0,446;    1,682
611,881; 2613,767;    5,008;   11,227
612,460; 2526,245;    1,645;    3,955
613,039; 2599,434;   -0,082;    2,045
613,617; 2324,821;    1,736;    4,773
614,196; 2354,339;    1,099;    1,227
614,775; 2505,505;    1,009;    2,409
615,353; 2507,132;    0,736;    0,864
615,932; 2432,519;    0,100;    2,409
616,510; 2572,223;    0,554;    0,591
617,089; 2943,815;    7,100;   17,591
617,667; 2637,710;    2,372;    6,136
618,246; 2283,970;   -1,537;    1,318
618,824; 2408,912;   -3,355;   -0,955
619,402; 2350,830;   -2,900;   -1,773
619,981; 2506,624;   -0,173;   -1,045
620,559; 2475,723;    0,009;    1,682
621,137; 2470,137;   -0,718;    1,864
621,715; 2159,175;   -1,173;   -0,682
622,293; 2211,761;   -0,537;   -0,773
622,871; 2489,964;   -0,718;    0,500
623,450; 2310,670;    0,373;   -0,864
624,028; 2435,172;    0,191;   -0,955
624,606; 2353,259;   -1,718;    1,682
625,183; 2265,769;   -1,536;   -1,136
625,761; 2278,851;    1,009;    1,136
626,339; 2655,573;    1,373;    2,591
626,917; 2406,211;   -0,172;   -0,045
627,495; 2408,695;   -0,354;    1,318
628,073; 2356,565;   -0,263;    2,864
628,650; 2316,683;    0,100;    2,136
629,228; 2394,364;    0,373;    4,409
629,806; 2121,156;    2,282;    1,136
630,383; 2229,093;    1,464;   -0,318
630,961; 2212,522;    2,555;   -0,955
631,539; 2150,891;    2,464;    0,227
632,116; 2790,340;   11,373;   15,409
632,694; 2472,293;    2,555;    6,500
633,271; 2290,376;    0,828;    2,682
633,848; 2400,682;    1,828;    2,045
634,426; 2217,012;   -1,081;    1,773
635,003; 2056,055;    1,101;   -0,409
635,580; 2412,837;    1,192;    3,682
636,158; 2255,264;    3,737;    1,227
636,735; 2108,743;    0,555;   -0,500
637,312; 2130,905;   -0,809;   -0,682
637,889; 2137,420;   -4,354;   -0,682
638,466; 2090,875;   -3,990;   -0,409
639,043; 2071,804;    2,101;   -1,136
639,620; 2096,792;   -2,262;   -0,955
640,197; 2253,002;    1,100;    1,682
640,774; 2218,024;   -0,172;    1,136
641,351; 2294,682;    0,737;    1,136
641,928; 2343,250;   -0,627;    1,409
642,505; 2453,090;    0,828;   -0,500
643,082; 2362,112;   -1,718;    1,227
643,658; 2011,134;   -0,718;    1,500
644,235; 2124,429;    1,191;    2,500
644,812; 2275,906;    1,918;    0,773
645,388; 2215,201;   -0,991;    1,409
645,965; 2023,223;   -0,809;    1,682
646,542; 2051,154;   -1,445;   -0,227
647,118; 2488,630;    1,009;   -0,955
647,695; 2323,016;   -0,263;    1,136
648,271; 2143,675;   -0,536;    0,500
648,848; 2250,242;    0,736;    2,227
649,424; 2359,173;    0,827;    1,318
650,000; 2081,832;   -0,354;   -1,045
650,577; 2149,763;   -0,627;   -0,955
651,153; 2283,876;   -1,809;    0,955
651,729; 2294,625;    1,191;    0,864
652,305; 2569,466;    0,645;    2,773
652,881; 3049,942;   -0,082;    1,136
653,458; 3991,692;    1,100;    0,227
654,034; 4562,805;    0,282;    1,591
654,610; 4631,827;    0,554;    0,773
655,186; 5058,576;    0,645;    3,045
655,762; 4716,144;   -0,991;    0,409
656,338; 4690,984;    0,100;    0,136
656,913; 4990,824;   -0,082;    0,409
657,489; 4716,755;    0,827;   -0,318
658,065; 4835,323;   -0,173;   -1,591
658,641; 5083,436;   -0,900;   -0,864
659,217; 4793,003;   -0,991;    0,409
659,792; 4522,753;    0,645;   -0,409
660,368; 4652,957;   -2,173;   -0,682
660,944; 4824,706;   -2,082;    1,227
661,519; 4124,092;   -0,628;    0,409
662,095; 3205,659;   -1,719;    0,591
662,670; 2501,045;    1,281;   -0,136
663,246; 2461,158;    1,009;   -0,409
663,821; 2502,271;    0,281;    1,682
664,396; 2240,929;    0,009;    1,864
664,972; 2284,315;    0,009;   -0,500
665,547; 2446,155;    1,372;    0,136
666,122; 2388,359;   -1,082;    0,318
666,698; 2542,563;   -0,173;    0,318
667,273; 2199,858;   -0,173;    0,136
667,848; 2389,244;    2,372;    1,500
668,423; 2451,175;    2,190;    2,318
668,998; 2390,833;    2,827;   -0,682
669,573; 2455,492;   -3,264;   -1,500
670,148; 2599,241;   -1,446;   -0,682
670,723; 2320,718;   -1,810;    0,318
671,298; 2665,103;    2,372;    1,045
671,873; 2526,580;   -0,082;   -0,136
672,448; 2538,148;    0,645;    0,136
673,023; 2576,715;   -1,992;   -0,227
673,597; 2749,101;    0,827;    2,318
674,172; 2718,577;   -0,355;    0,318
674,747; 2569,145;    0,372;   -1,045
675,321; 2367,167;   -0,628;    3,318
675,896; 2238,462;    0,645;    1,045
676,471; 2482,666;    2,645;    1,591
677,045; 2373,506;   -1,264;    0,682
677,620; 2389,801;    0,190;    1,136
678,194; 2434,550;   -2,628;    1,136
678,769; 2414,118;   -1,083;   -0,318
679,343; 2505,594;   -0,628;    1,773
679,917; 2564,980;   -1,446;    1,955
680,492; 2402,729;    0,826;    3,227
681,066; 2451,570;    3,372;    0,409
681,640; 2459,592;    1,463;   -0,318
682,214; 2583,978;    0,735;    0,500
682,788; 2500,909;   -1,356;   -0,773
683,363; 2536,385;   -1,810;    1,682
683,937; 2386,953;   -1,719;   -0,318
684,511; 2625,975;    0,463;   -0,591
685,085; 2556,452;   -1,356;    0,318
685,659; 2410,928;   -2,538;    0,864
686,232; 2654,587;   -0,356;   -0,318
686,806; 2536,518;   -0,901;    0,409
687,380; 2602,449;   -0,174;    0,591
687,954; 2625,198;   -1,174;    1,136
688,528; 2725,220;   -0,719;    1,955
689,101; 2825,152;   -3,992;    1,045
689,675; 2594,537;   -0,356;   -0,136
690,249; 2652,378;   -0,719;    0,409
690,822; 2712,036;    0,280;    0,318
691,396; 2599,149;   -0,265;    1,227
691,969; 2467,262;    1,280;    0,136
692,543; 2574,193;   -0,447;   -1,955
693,116; 2380,579;   -0,265;   -1,409
693,690; 2451,965;    0,099;    0,500
694,263; 2576,987;   -1,083;    2,955
694,836; 2815,282;    1,371;    3,591
695,410; 2523,304;   -0,265;    1,773
695,983; 2554,871;    0,189;    0,591
696,556; 2441,984;   -0,447;   -1,045
697,129; 2492,552;   -0,356;    1,409
697,703; 2467,574;   -1,629;    1,955
698,276; 2477,414;    1,462;   -0,773
698,849; 2535,254;    1,280;    1,409
699,422; 2409,276;   -1,083;    0,591
699,995; 2302,298;    0,007;    0,136
700,568; 2488,593;   -0,629;    3,045
701,140; 2510,434;   -2,811;    1,682
701,713; 2617,001;   -0,174;    2,409
702,286; 2520,387;   -0,538;    0,864
702,859; 2478,136;   -0,902;   -0,591
703,432; 2415,613;    0,825;    0,682
704,004; 2399,908;    0,462;    0,318
704,577; 2246,202;   -0,629;    0,136
705,150; 2362,134;    0,189;    2,500
705,722; 2444,883;   -0,356;   -3,227
706,295; 2464,996;   -0,175;   -0,591
706,867; 2302,291;   -0,175;    1,955
707,440; 2502,949;   -1,720;   -0,409
708,012; 2590,608;    0,462;    0,591
708,584; 2433,812;    2,462;    0,227
709,157; 2420,925;    1,825;   -0,591
709,729; 2532,856;    2,280;    2,045
710,301; 2663,423;    0,734;    0,045
710,874; 2633,354;   -1,447;   -0,227
711,446; 2254,286;    0,371;    0,864
712,018; 2338,944;    0,098;    0,500
712,590; 2248,239;   -1,993;    1,682
713,162; 2562,443;    0,825;    1,318
713,734; 2440,101;    1,825;   -2,045
714,306; 2399,123;   -1,902;   -0,409
714,878; 2227,327;    0,825;    0,864
715,450; 2386,622;    0,643;    0,864
716,022; 2420,917;    1,552;    1,318
716,593; 2446,848;    0,189;    0,591
717,165; 2476,961;   -3,175;   -1,227
717,737; 2607,710;    0,280;    0,409
718,309; 2432,823;    0,280;   -0,045
718,880; 2355,391;   -0,539;   -1,409
719,452; 2472,231;   -0,175;   -1,591
720,024; 2439,890;    0,734;   -0,591
720,595; 2465,457;   -2,902;    0,955
721,167; 2351,388;    0,370;   -2,045
721,738; 2310,865;   -0,812;   -1,045
722,309; 2379,978;   -0,993;   -1,227
722,881; 2227,636;   -1,357;    0,773
723,452; 2409,567;   -2,630;    2,864
724,023; 2468,135;   -0,721;    2,682
724,595; 2497,975;    0,007;    0,682
725,166; 2297,452;    0,007;   -0,409
725,737; 2470,110;    1,734;    0,227
726,308; 2381,496;   -0,266;    0,318
726,879; 2310,245;   -1,630;    1,227
727,450; 2432,086;    0,552;   -0,045
728,021; 2313,199;    3,097;    0,682
728,592; 2448,130;    0,734;    0,500
729,163; 2583,152;    0,643;   -0,136
729,734; 2577,992;    0,188;   -0,227
730,305; 2462,923;    1,734;    0,136
730,876; 2443,855;    0,188;    2,955
731,447; 2756,695;    2,188;    2,682
732,017; 2634,171;    1,097;    1,864
732,588; 2521,921;    0,734;    1,227
733,159; 2682,488;    0,643;   -1,045
733,729; 2390,783;    0,006;    0,409
734,300; 2422,805;    0,915;    0,864
734,870; 2394,100;    3,461;    0,591
735,441; 2428,577;    0,370;   -0,591
736,011; 2302,144;    0,643;   -1,591
736,582; 2339,257;   -0,812;    0,045
737,152; 2321,916;   -1,721;   -2,045
737,722; 2398,210;   -0,267;   -0,682
738,293; 2246,233;   -1,358;    1,318
738,863; 2390,982;    2,461;    2,318
739,433; 2622,004;    5,279;    0,318
740,003; 2535,844;   -0,994;   -0,682
740,573; 2533,139;    2,097;   -1,591
741,143; 2478,343;   -1,085;    0,318
741,713; 2469,729;    1,188;   -0,500
742,283; 2445,114;    0,915;    1,591
742,853; 2352,318;    1,915;    1,591
743,423; 2172,795;    1,733;    0,045
743,993; 2247,181;   -0,358;    1,500
744,563; 2120,930;    0,097;   -0,864
745,133; 2165,952;   -0,812;   -0,864
745,702; 2281,065;   -0,267;    1,773
746,272; 2302,087;   -0,176;    0,591
746,842; 2313,837;   -1,358;   -0,591
747,411; 2231,131;   -0,267;   -0,318
747,981; 2153,063;    0,097;    0,500
748,551; 2191,266;    2,278;   -1,045
749,120; 2263,288;    0,642;   -0,227
749,690; 2304,856;   -0,631;    2,409
750,259; 2451,878;    1,369;    2,955
750,828; 2446,809;    1,551;   -1,955
751,398; 2313,286;    1,278;   -0,045
751,967; 2623,853;    2,187;    0,409
752,536; 2387,966;   -0,813;   -0,227
753,105; 2529,352;    0,096;    0,227
753,675; 2336,920;    0,096;    1,773
754,244; 2322,396;   -0,904;    3,591
754,813; 2364,237;    0,551;    1,227
755,382; 2258,986;    0,460;    0,955
755,951; 2417,826;    1,551;    3,682
756,520; 2449,939;   -0,085;    1,864
757,089; 2701,961;    0,278;    0,500
757,658; 2424,438;    1,733;    1,227
758,227; 2315,369;    1,096;    0,318
758,795; 2392,573;    1,187;    1,136
759,364; 2522,595;   -0,086;   -0,591
759,933; 2245,708;   -1,176;   -0,045
760,501; 2183,185;    0,733;   -1,318
761,070; 2344,934;   -2,813;   -1,409
761,639; 2566,229;   -1,904;    1,318
762,207; 2393,069;    1,551;   -0,955
762,776; 2452,637;    0,369;    0,864
763,344; 2326,113;   -0,995;    0,591
763,913; 1962,772;   -0,722;    1,409
764,481; 2617,248;    1,005;   -0,136
765,049; 2551,180;   -1,358;    1,409
765,618; 2430,111;   -0,086;    0,318
766,186; 2350,315;    0,278;    0,136
766,754; 2360,519;    0,005;    1,864
767,322; 2078,632;   -1,995;    0,409
767,890; 2043,563;   -0,722;   -1,773
768,459; 2231,312;   -2,177;   -0,318
769,027; 2433,334;    1,641;    3,409
769,595; 2147,356;    3,278;    2,591
770,163; 2203,924;    3,823;    2,955
770,730; 2215,309;    0,732;   -0,136
771,298; 2178,150;    0,187;   -1,409
771,866; 2175,354;   -1,541;    4,955
772,434; 2194,467;   -0,631;   -1,864
773,002; 2450,852;    0,005;    0,682
773,569; 2329,602;    0,914;    1,682
774,137; 2394,169;   -0,268;   -0,045
774,705; 2369,464;    0,278;   -0,136
775,272; 2182,395;    0,641;    0,682
775,840; 2289,145;   -0,177;    2,682
776,407; 2251,258;    0,277;    1,955
776,975; 2015,552;   -0,632;    0,318
777,542; 2186,847;   -1,086;   -0,045
778,110; 2196,778;   -1,268;   -0,045
778,677; 2051,164;   -2,359;   -0,864
779,244; 2083,913;    2,186;    1,045
779,812; 2219,299;    1,823;    0,864
780,379; 2269,867;    0,005;    1,136
780,946; 2164,798;    1,005;   -0,773
781,513; 2187,729;   -1,450;    0,318
782,080; 2029,478;   -0,086;    2,864
782,647; 2149,500;   -0,268;    3,045
783,214; 2069,977;   -0,177;    3,864
783,781; 2208,636;   -0,723;   -0,682
784,348; 2177,203;   -0,632;    1,500
784,915; 2045,498;   -3,177;    0,318
785,482; 2201,429;    1,368;    2,591
786,049; 2280,451;    0,186;   -0,591
786,615; 2209,928;    0,277;   -0,955
787,182; 2105,859;    0,186;   -0,682
787,749; 2070,608;   -2,814;    1,409
788,315; 2086,630;   -1,632;   -0,409
788,882; 2120,471;    1,550;   -1,227
789,448; 2408,402;    1,732;   -0,955
790,015; 2215,878;    1,095;    3,227
790,581; 2312,173;    1,459;    0,227
791,148; 2118,286;    0,641;    1,045
791,714; 2098,399;   -0,541;    3,136
792,280; 2056,876;    0,186;    1,591
792,847; 1985,171;    0,550;    2,500
793,413; 2086,920;   -0,269;   -0,318
793,979; 2147,578;    3,459;   -1,318
794,545; 2492,691;    4,459;    2,682
795,111; 2277,895;    2,186;    1,318
795,678; 2141,008;    0,731;   -1,682
796,244; 2326,303;    3,368;    0,136
796,810; 2282,689;    1,731;    0,773
797,375; 2261,984;    0,549;   -2,136
797,941; 1894,915;   -0,541;    0,591
798,507; 1878,301;   -0,451;   -0,955
799,073; 1874,414;   -0,360;    0,591
799,639; 1957,345;   -2,632;    3,136
800,205; 1887,367;    0,095;    2,682
800,770; 1843,934;    0,640;    1,773
801,336; 1794,320;    1,368;   -0,955
801,901; 2419,979;    4,549;    3,136
802,467; 2163,092;   -0,542;    2,045
803,033; 1822,023;   -0,087;    0,864
803,598; 1847,408;    1,913;   -1,045
804,163; 1892,158;    1,095;   -0,318
804,729; 1986,634;   -0,178;    1,136
805,294; 1934,111;    0,822;    2,227
805,859; 1801,406;    0,731;   -0,409
806,425; 2163,973;    1,186;    2,682
806,990; 2134,268;    2,186;    4,318
807,555; 1958,108;   -1,451;    2,591
808,120; 2103,767;    0,822;   -0,409
808,685; 1826,698;    0,185;   -2,500
809,250; 1678,720;    0,004;   -0,500
809,815; 1781,106;    1,913;    0,682
810,380; 1996,764;   -0,269;    1,591
810,945; 2135,877;   -1,087;    2,045
811,510; 1961,354;    2,094;    1,591
812,075; 1875,922;   -0,633;   -1,409
812,640; 2151,671;    2,003;    1,409
813,204; 1968,511;    0,822;   -0,227
813,769; 2176,806;    2,094;   -0,045
814,334; 2111,101;    0,458;    0,864
814,898; 1877,305;    0,367;    0,591
815,463; 1884,690;    1,276;   -0,773
816,027; 1813,894;   -0,724;   -2,318
816,592; 1851,825;    0,640;   -2,045
817,156; 1882,302;    2,094;    1,136
817,721; 1937,051;    4,276;    2,318
818,285; 1738,164;    2,912;    1,500
818,849; 1875,186;   -1,451;    1,682
819,414; 1762,936;   -0,269;    2,955
819,978; 1688,685;   -1,269;    1,773
820,542; 2108,798;    2,003;    0,500
821,106; 1924,729;   -0,815;    0,682
821,670; 2085,842;   -0,815;    2,591
822,234; 1833,774;   -0,270;    1,409
822,798; 1696,887;    0,003;    0,500
823,362; 2021,909;   -0,633;    4,227
823,926; 1726,567;    0,094;    1,136
824,490; 1922,589;   -0,997;   -0,682
825,054; 1838,611;   -0,088;   -1,136
825,618; 1688,815;   -1,542;   -1,500
826,181; 1701,474;    0,458;   -1,318
826,745; 1778,677;    1,367;   -1,045
827,309; 2078,881;    1,185;    1,318
827,872; 1922,813;    1,367;    0,955
828,436; 1892,835;    1,185;   -0,773
828,999; 1858,857;   -0,997;    1,227
829,563; 1764,333;   -0,179;    1,136
830,126; 1711,810;   -0,179;   -0,591
830,690; 1714,832;   -1,997;    2,864
831,253; 1597,672;   -0,543;    2,227
831,816; 1675,149;   -1,906;    0,500
832,380; 1582,898;    0,185;    0,864
832,943; 1617,466;   -1,361;   -0,500
833,506; 1619,761;    2,639;   -1,227
834,069; 1853,237;    3,912;   -0,955
834,632; 1748,714;    1,730;    1,318
835,195; 1758,645;    1,003;    0,955
835,758; 1639,031;   -0,997;    1,955
836,321; 1561,962;    0,730;   -1,045
836,884; 1583,075;   -0,725;   -0,955
837,447; 1595,097;   -2,816;    1,773
838,010; 1732,301;    0,366;    3,227
838,573; 1800,050;   -1,179;    0,773
839,135; 1715,436;   -1,361;   -0,955
839,698; 1635,731;    1,275;    0,409
840,261; 1573,389;    1,003;   -0,227
840,823; 1525,502;   -0,543;    0,864
841,386; 1520,343;   -0,452;   -2,409
841,948; 1876,092;   -1,361;    1,773
842,511; 1568,932;    0,912;    1,682
843,073; 1837,772;    1,912;    0,227
843,636; 1572,795;   -0,361;   -0,227
844,198; 1798,726;    0,911;    0,591
844,760; 1763,384;    1,093;    1,955
845,322; 1518,406;    0,548;    1,136
845,885; 1671,519;    0,730;    0,591
846,447; 1662,541;   -1,998;    0,227
847,009; 1972,018;    1,911;   -0,682
847,571; 1660,858;    0,820;   -2,045
848,133; 1633,426;   -1,089;   -1,864
848,695; 1500,357;   -0,543;    1,409
849,257; 1553,015;   -1,089;   -1,682
849,819; 1722,674;   -0,998;   -0,409
850,381; 1585,969;   -0,725;   -0,864
850,942; 1664,263;    1,093;   -0,591
851,504; 1683,740;    1,184;    0,227
852,066; 1611,671;    1,275;   -1,591
852,628; 1611,602;   -0,180;    1,955
853,189; 1425,079;    1,638;    2,682
853,751; 1494,919;   -0,907;    1,409
854,312; 1671,941;   -0,453;   -1,682
854,874; 1831,327;   -2,089;   -0,773
855,435; 1639,713;   -0,907;   -1,682
855,997; 1767,553;   -1,816;   -0,136
856,558; 1772,302;    0,366;    1,773
857,119; 1620,234;    0,820;    2,864
857,681; 1460,710;    0,002;    0,318
858,242; 1701,823;    1,911;   -2,136
858,803; 1790,209;    0,456;   -0,773
859,364; 1720,049;    0,184;   -4,773
859,925; 1737,344;   -2,453;   -0,955
860,486; 1626,730;   -0,453;   -0,955
861,047; 1505,570;   -0,544;   -1,227
861,608; 1536,956;   -1,089;   -0,773
862,169; 1473,432;    0,638;   -0,045
862,730; 1507,364;    0,456;    1,409
863,291; 1579,204;   -0,635;   -0,500
863,852; 1584,499;   -0,635;    1,955
864,412; 1502,157;   -0,271;   -0,864
864,973; 1668,634;   -0,089;    0,500
865,534; 1830,747;   -1,726;    0,227
866,094; 1674,951;    1,820;    0,227
866,655; 1754,973;    1,274;    3,318
867,215; 1630,722;    0,274;    0,136
867,776; 1509,380;    0,547;   -0,136
868,336; 1555,857;   -1,453;    0,136
868,897; 1947,879;    2,638;    1,682
869,457; 1704,447;    1,365;    0,318
870,017; 1542,741;    0,547;   -1,227
870,578; 1561,945;   -0,817;    0,773
871,138; 1514,149;   -2,089;   -0,955
871,698; 1399,990;   -0,817;   -1,318
872,258; 1534,830;   -0,453;   -2,864
872,818; 1782,216;    2,729;    0,045
873,378; 1581,965;    0,638;    1,045
873,938; 1502,169;    0,547;    0,500
874,498; 1414,645;    0,274;   -1,955
875,058; 1467,031;    2,183;    1,773
875,618; 1464,053;    1,910;   -2,682
876,177; 1510,712;    1,274;    0,136
876,737; 1270,279;   -0,090;    1,955
877,297; 1725,483;    0,183;    1,955
877,856; 1646,323;   -0,362;    0,318
878,416; 1386,709;    1,183;   -0,136
878,976; 1378,095;   -1,817;    0,409
879,535; 1431,662;    0,092;    3,136
880,095; 1417,503;   -0,544;    0,045
880,654; 1299,070;   -1,090;    1,318
881,213; 1669,183;    2,456;    1,500
881,773; 1466,205;    2,637;    2,682
882,332; 2105,409;    3,365;    5,136
882,891; 1496,249;    3,092;    2,136
883,451; 1517,090;   -1,272;    1,682
884,010; 1394,657;   -2,908;   -0,409
884,569; 1376,952;   -0,999;   -0,045
885,128; 1607,247;    2,819;   -1,864
885,687; 1906,451;    4,455;    0,682
886,246; 2079,836;    1,455;    2,136
886,805; 1754,859;    2,455;    2,045
887,364; 1428,972;   -0,999;   -0,500
887,922; 1347,812;   -1,181;    0,045
888,481; 1497,379;   -1,545;    0,591
889,040; 1659,220;    1,183;    2,136
889,599; 1536,423;    2,455;    1,409
890,157; 1535,718;    1,455;    2,409
890,716; 1435,831;   -0,090;    0,227
891,274; 1522,035;    0,092;   -1,136
891,833; 1638,148;    1,546;    0,864
892,391; 1434,625;   -0,454;    0,500
892,950; 1643,101;    1,819;   -0,773
893,508; 1453,487;    0,455;   -0,409
894,067; 1286,418;    0,637;    0,136
894,625; 1399,713;   -0,636;   -1,500
895,183; 1376,735;   -0,363;   -0,682
895,741; 1707,939;    1,728;   -1,773
896,299; 1470,688;   -0,545;   -2,409
896,858; 1373,983;    0,819;   -1,591
897,416; 1507,824;    2,728;   -1,318
897,974; 1440,755;    1,819;    0,318
898,532; 1936,322;    6,091;    2,682
899,089; 1579,163;    2,091;   -0,682
899,647; 1455,185;   -1,454;    1,318
900,205; 1503,025;    1,182;    1,045
900,763; 1510,411;   -0,454;    0,227
901,321; 1469,978;    2,364;   -1,409
901,878; 1257,727;   -1,000;   -0,773
902,436; 1319,022;   -1,363;    1,318
902,994; 2164,590;    4,728;    3,682
903,551; 1632,976;    0,728;    0,409
904,109; 1523,089;    0,182;   -1,409
904,666; 1444,929;    2,455;    1,045
905,224; 1309,860;    0,182;   -0,409
905,781; 1467,609;    0,727;   -0,318
906,338; 1377,813;   -1,363;    1,045
906,895; 1257,381;    0,637;    2,045
907,453; 1560,039;    1,727;    1,136
908,010; 1398,698;   -0,909;    0,409
908,567; 1328,992;    1,273;    0,591
909,124; 1133,469;    0,364;   -1,500
909,681; 1192,582;   -2,909;    0,682
910,238; 1288,422;    0,636;   -1,318
910,795; 1276,990;   -0,273;   -1,136
911,352; 1257,899;   -2,909;   -2,682
911,909; 1243,081;   -1,364;   -0,864
912,466; 1300,990;   -3,182;    1,500
913,022; 1295,626;   -1,636;    0,500
913,579; 1427,535;   -0,909;    2,045
914,136; 1292,081;    1,636;    0,955
914,692; 1362,808;    0,091;   -1,227
915,249; 1289,626;    1,455;    0,409
915,806; 1379,081;    0,182;    1,955
916,362; 1288,717;    1,909;    1,864
916,918; 1167,899;    2,000;    1,045
917,475; 1412,899;   -1,182;    0,955
918,031; 1211,172;    3,364;   -0,045
918,587; 1277,081;   -0,909;   -0,318
919,144; 1189,626;   -2,273;    0,227
919,700; 1140,899;    1,727;    0,773
920,256; 1099,990;    0,727;    0,045
920,812; 1127,808;   -0,727;   -1,045
921,368; 1094,354;   -1,727;   -1,045
921,924; 1063,263;    0,182;   -0,136
922,480; 1192,172;   -0,545;    1,227
923,036; 1213,899;    1,273;    1,955
923,592; 1105,354;    0,455;    0,318
924,148; 1150,990;    0,455;   -0,955
924,704; 1282,717;   -1,364;   -0,409
925,259; 1123,626;   -0,273;    0,591
925,815; 1065,444;    1,455;    0,500
926,371; 1014,535;    2,909;    1,409
926,926; 1180,444;    2,091;    0,591
927,482; 1143,899;   -1,364;    0,773
928,037; 1063,626;    0,909;    2,045
928,593; 1287,626;    1,636;    1,045
929,148; 1037,990;   -1,818;   -1,500
929,704; 1089,444;   -1,455;   -0,500
930,259;  968,899;    0,091;   -0,136
930,814; 1175,263;   -0,818;    1,955
931,369; 1091,081;    1,091;   -0,773
931,925;  866,172;   -0,091;    0,136
932,480;  977,172;   -2,818;   -2,591
933,035; 1395,444;    0,545;   -0,318
933,590; 1261,626;    0,364;   -1,773
934,145;  826,354;   -1,364;   -0,318
934,700;  735,717;    0,455;   -0,591
935,255;  812,354;   -0,091;    0,045
935,809; 1150,626;    3,182;    0,864
936,364;  725,535;   -0,455;   -0,136
936,919;  745,354;    0,455;   -1,773
937,474;  647,354;    1,455;    0,136
938,028;  692,354;   -1,636;    1,136
938,583; 1103,899;    1,818;    4,682
939,138;  734,717;    2,091;    2,136
939,692;  578,899;    1,636;   -1,136
940,247;  626,717;   -0,727;   -1,045
940,801;  702,081;   -0,636;    0,227
941,355;  588,990;   -0,364;    2,591
941,910;  469,626;   -0,273;   -2,136
942,464;  516,444;   -0,818;   -0,318
943,018;  797,808;    1,000;   -0,227
943,572;  603,354;    2,545;   -0,682
944,126;  660,444;    0,091;   -0,409
944,681;  523,808;    3,091;    0,227
945,235;  460,808;    1,000;   -0,591
945,789;  411,808;    0,364;   -1,864
946,342;  752,899;    0,455;   -0,591
946,896;  475,808;   -2,273;    0,955
947,450;  445,626;    1,545;   -0,227
948,004;  724,172;    1,727;   -0,045
948,558;  510,899;    0,273;   -0,864
949,111;  502,444;   -0,273;   -0,318
949,665;  724,172;    1,636;   -0,682
950,219;  675,354;   -0,091;   -1,045
950,772;  589,081;   -1,909;    1,864
951,326;  587,990;    0,545;   -0,955
951,879;  492,626;    0,727;   -2,318
952,433;  646,899;    0,000;    2,227
952,986;  461,354;    2,909;    0,682
953,539;  411,626;   -0,273;    0,591
954,093;  351,990;    0,545;   -1,318
954,646;  517,808;    0,909;    1,318
955,199;  435,899;    0,000;   -0,500
955,752;  660,444;   -0,455;    1,773
956,305;  494,263;   -0,091;    2,955
956,858;  551,535;    0,818;   -0,318
957,411;  612,444;   -0,545;    2,136
957,964;  501,354;    1,364;    2,136
958,517;  412,535;   -1,545;    3,136
959,070;  364,354;   -0,455;    1,955
959,623;  675,081;    1,091;    1,500
960,176;  617,081;    1,727;    2,045
960,728;  582,808;   -2,727;    0,773
961,281;  519,081;    0,545;    0,500
961,834;  432,172;   -0,909;    0,864
962,386;  437,172;    1,727;    1,045
962,939;  390,444;    0,364;   -0,318
963,491;  444,172;    0,455;    1,136
964,043;  375,081;    1,182;    2,409
964,596;  577,808;   -1,000;    2,227
965,148;  464,263;   -1,000;    1,773
965,700;  371,354;    1,091;   -0,227
966,253;  556,172;   -0,636;    0,318
966,805;  511,990;   -2,273;    0,773
967,357;  430,808;    1,091;   -1,500
967,909;  553,263;    0,455;   -1,227
968,461;  433,263;    0,545;    3,136
969,013;  376,354;   -0,182;   -0,864
969,565;  541,354;   -0,455;   -1,136
970,117;  806,354;   -0,364;    1,045
970,669;  545,263;    0,182;   -0,136
971,220;  321,354;   -0,455;   -1,500
971,772;  421,899;   -0,636;   -0,318
972,324;  528,535;    0,091;   -0,500
972,876;  428,081;    0,818;   -0,045
973,427;  568,626;    1,909;   -1,045
973,979;  631,535;   -0,727;   -2,500
974,530;  412,172;    1,818;    1,318
975,082;  480,172;   -0,545;    1,682
975,633;  417,899;    1,091;    1,682
976,184;  494,717;    0,909;    0,773
976,736;  483,263;    0,091;    0,227
977,287;  487,444;   -0,909;   -0,500
977,838;  456,081;    0,909;   -0,318
978,389;  468,717;   -1,000;   -0,500
978,940;  315,172;    0,545;   -0,409
979,491;  305,990;    0,091;   -0,500
980,042;  418,535;    0,182;    3,045
980,593;  421,899;   -2,545;    0,227
981,144;  527,808;    2,545;   -0,500
981,695;  579,717;    1,455;    1,500
982,246;  515,172;   -0,273;    1,045
982,797;  368,354;   -1,727;    0,682
983,347;  528,717;    0,364;    0,591
983,898;  743,354;    3,091;    0,409
984,449;  694,717;    2,182;    0,773
984,999;  518,172;    1,455;   -1,136
985,550;  477,354;    0,182;   -0,318
986,100;  321,990;   -0,455;   -0,318
986,651;  312,263;   -0,818;    0,045
987,201;  351,263;   -1,000;   -0,591
987,751;  370,444;    0,818;    2,864
988,302;  425,172;    2,636;    1,500
988,852;  465,172;    0,455;   -1,136
989,402;  531,172;    0,091;    0,682
989,952;  562,717;   -2,182;    0,864
990,502;  393,990;   -0,091;    0,682
991,052;  285,990;   -0,727;    0,045
991,602;  337,626;   -2,909;    1,318
992,152;  403,081;    0,455;    0,682
992,702;  438,808;    1,364;   -0,045
993,252;  375,535;   -3,000;   -0,500
993,802;  484,444;   -0,273;    1,318
994,352;  437,808;   -1,545;    1,136
994,901;  331,444;   -0,182;    3,227
995,451;  323,535;   -0,182;    0,318
996,000;  362,263;    1,636;    0,318
996,550;  371,263;    2,273;    0,227
997,100;  415,172;    1,273;   -0,045
997,649;  562,899;    2,182;    0,955
998,198;  372,626;    1,727;   -1,500
998,748;  498,717;    1,091;   -2,318
999,297;  418,808;   -0,818;   -0,409
999,846;  563,354;    1,000;   -0,773
1000,395;  468,354;   -0,818;    0,500
1000,945;  589,990;    1,818;   -0,773
1001,494;  591,354;    2,364;    0,682
1002,043;  566,354;    4,636;    0,864
1002,592;  370,808;   -1,091;    1,955
1003,141;  366,535;   -0,455;   -0,682
1003,690;  539,354;    1,727;    0,500
1004,238;  406,081;    1,455;   -0,045
1004,787;  322,081;    1,364;    1,227
1005,336;  515,081;    0,364;    0,682
1005,885;  459,626;    1,364;   -2,773
1006,433;  450,263;    0,545;    0,955
1006,982;  662,081;    0,455;    1,682
1007,531;  486,626;   -1,818;   -0,227
1008,079;  435,263;   -2,273;    0,500
1008,627;  365,535;   -1,455;    0,409
1009,176;  399,081;    0,000;   -1,955
1009,724;  346,081;    1,091;    0,864
1010,273;  504,808;    1,273;    0,500
1010,821;  368,172;    0,091;    1,409
1011,369;  330,717;   -1,364;    1,318
1011,917;  362,081;   -1,364;   -0,591
1012,465;  451,535;    1,273;   -1,591
1013,013;  432,717;    2,091;   -1,682
1013,561;  542,990;    0,455;   -0,773
1014,109;  647,899;   -1,909;    1,682
1014,657;  511,808;    0,364;    0,591
1015,205;  390,626;    1,636;   -0,955
1015,753;  329,535;   -0,545;   -1,409
1016,301;  424,899;   -2,636;    3,045
1016,848;  505,081;   -1,273;    0,409
1017,396;  508,263;    2,545;    0,045
1017,944;  495,263;    1,182;    1,864
1018,491;  401,354;    0,273;    1,409
1019,039;  737,444;    0,455;    0,591
1019,586;  476,990;   -1,364;    1,682
1020,134;  451,172;    0,455;    1,500
1020,681;  536,808;    0,182;   -1,136
1021,228;  432,263;    2,909;   -2,227
1021,776;  420,808;    1,182;   -1,136
1022,323;  653,899;    0,455;    0,773
1022,870;  558,899;   -1,000;   -0,045
1023,417;  611,990;    2,636;    1,864
1023,964;  422,717;    2,636;    1,227
1024,511;  405,535;    1,000;    0,773
1025,058;  436,535;    3,182;   -0,045
1025,605;  388,626;   -2,273;    3,136
1026,152;  613,899;    1,727;   -0,591
1026,699;  467,081;    1,818;    1,318
1027,245;  447,899;   -0,091;    0,318
1027,792;  368,081;   -1,000;    1,409
1028,339;  606,990;    2,364;   -0,045
1028,885;  460,263;    1,000;   -0,227
1029,432;  409,808;   -0,091;    0,227
1029,978;  526,354;   -1,000;   -1,591
1030,525;  517,717;    1,000;    0,409
1031,071;  379,354;   -1,364;    1,136
1031,618;  685,717;    0,364;    1,682
1032,164;  503,626;   -0,091;    3,045
1032,710;  553,444;    1,636;   -1,500
1033,256;  515,263;   -0,636;   -0,136
1033,803;  361,899;   -0,545;    1,500
1034,349;  216,172;   -1,364;    0,136
1034,895;  263,626;    0,000;   -0,318
1035,441;  342,444;   -0,818;    0,318
1035,987;  398,354;   -2,364;   -0,682
1036,533;  477,717;   -1,455;   -0,955
1037,078;  686,717;    1,455;    1,682
1037,624;  530,172;    2,455;   -0,955
1038,170;  389,808;    0,455;   -0,318
1038,716;  478,899;    1,636;   -0,409
1039,261;  348,444;   -2,273;   -0,773
1039,807;  363,990;   -0,091;    3,409
1040,352;  401,899;   -1,909;   -0,318
1040,898;  398,263;   -1,545;   -0,682
1041,443;  305,081;   -1,455;   -2,591
1041,989;  621,535;    1,091;    1,591
1042,534;  408,626;   -0,364;    2,591
1043,079;  298,263;    2,909;    0,955
1043,625;  410,626;    1,818;    0,500
1044,170;  431,172;   -1,364;    1,045
1044,715;  639,626;    2,455;    0,955
1045,260;  528,990;    2,182;   -0,955
1045,805;  367,626;    1,182;   -0,591
1046,350;  329,172;    1,364;   -0,409
1046,895;  528,354;    2,909;    1,591
1047,440;  516,717;    5,364;    0,409
1047,985;  379,990;    2,818;   -0,955
1048,530;  345,808;    1,545;    1,227
1049,074;  413,990;    0,000;    0,318
1049,619;  337,354;   -1,364;    1,955
1050,164;  329,263;    0,455;    0,227
1050,708;  417,263;   -0,455;    0,045
1051,253;  679,263;    1,273;   -2,227
1051,797;  467,808;    0,818;   -1,318
1052,342;  292,263;   -1,182;    1,045
1052,886;  397,081;    0,364;   -1,409
1053,430;  276,990;   -1,364;    0,136
1053,975;  373,081;   -0,818;   -0,318
1054,519;  379,535;   -0,727;    3,227
1055,063;  455,717;    0,909;    1,318
1055,607;  443,354;   -0,182;    0,227
1056,151;  432,263;    2,909;    1,682
1056,695;  335,990;    2,273;   -1,136
1057,239;  333,354;   -1,727;   -0,682
1057,783;  375,444;    0,818;   -1,500
1058,327;  454,081;    0,000;    1,409
1058,871;  603,354;   -0,545;    1,318
1059,415;  469,808;   -0,818;   -0,045
1059,958;  631,263;    1,455;    2,591
1060,502;  389,717;   -1,000;   -0,773
1061,046;  280,444;    0,364;   -0,955
1061,589;  256,717;   -3,000;   -1,136
1062,133;  221,081;   -1,273;    1,864
1062,676;  273,626;    1,182;    0,864
1063,220;  314,444;    1,091;    0,500
1063,763;  347,990;    0,909;    1,136
1064,306;  373,717;   -0,909;    1,864
1064,849;  365,354;   -0,909;    0,591
1065,393;  346,626;    2,000;   -1,500
1065,936;  350,899;    0,182;   -0,409
1066,479;  262,172;   -1,455;    1,318
1067,022;  285,990;   -0,273;   -0,227
1067,565;  259,990;   -0,091;   -1,318
1068,108;  234,354;    0,727;   -0,591
1068,651;  204,717;   -0,636;    1,409
1069,194;  216,808;   -0,455;   -1,682
1069,736;  240,990;   -1,273;    0,955
1070,279;  211,263;   -1,364;   -0,500
1070,822;  304,535;   -2,000;   -0,318
1071,364;  437,354;   -0,364;    1,318
1071,907;  289,535;   -0,727;    3,227
1072,450;  140,717;    0,000;   -0,045
1072,992;  219,263;   -0,273;    3,136
1073,535;  306,354;    2,091;    2,136
1074,077;  213,263;   -0,727;    2,045
1074,619;  205,172;   -1,364;    0,591
1075,161;  241,081;   -1,091;    1,500
1075,704;  369,081;    1,545;    1,227
1076,246;  229,899;   -0,182;    0,682
1076,788;  161,535;   -0,364;    1,773
1077,330;  163,535;    1,273;    2,136
1077,872;  214,717;    0,909;    0,955
1078,414;  395,717;    2,727;    0,773
1078,956;  243,717;    1,273;   -0,227
1079,498;  389,808;    1,636;    0,318
1080,040;  243,263;    1,909;   -1,318
1080,581;  197,717;    1,636;   -0,318
1081,123;  132,172;    0,091;   -0,773
1081,665;  151,808;   -1,182;   -0,955
1082,206;  352,081;    1,364;   -0,500
1082,748;  266,808;    0,727;    2,045
1083,289;  166,717;   -2,000;    1,318
1083,831;  160,263;   -0,545;    0,227
1084,372;  210,535;    0,000;    0,591
1084,913;  205,535;    1,091;    0,864
1085,455;  152,626;   -1,909;   -2,045
1085,996;  152,354;   -2,273;    0,136
1086,537;  185,626;   -0,091;    0,864
1087,078;  195,081;   -0,909;   -2,136
1087,619;  248,172;   -1,273;    0,227
1088,160;  208,172;    0,000;    1,318
1088,701;  186,354;   -1,091;    0,682
1089,242;  162,626;    1,364;   -2,227
1089,783;  223,717;   -0,273;    1,409
1090,324;  196,626;    0,455;    0,682
1090,865;  141,354;    2,727;   -0,409
1091,405;  114,535;    0,727;    2,227
1091,946;  156,899;    0,182;   -0,955
1092,487;  105,899;    0,818;   -1,409
1093,027;  225,354;   -1,364;   -1,500
1093,568;  156,263;   -0,364;    1,227
1094,108;  192,444;    0,273;    1,773
1094,649;  158,535;   -1,182;    0,136
1095,189;  127,081;   -0,636;   -0,682
1095,729;  121,899;   -0,091;    0,955
1096,269;  110,899;    0,727;   -0,955
1096,810;  276,717;   -1,364;    0,500
1097,350;  212,354;    1,364;   -0,773
1097,890;  156,535;    0,364;    1,227
1098,430;  324,444;    2,364;    2,864
1098,970;  254,535;    2,182;    1,682
1099,510;  141,263;    0,545;   -2,318
1100,050;  120,899;    1,000;   -1,591
1100,589;  131,263;   -0,727;   -0,318
1101,129;  186,717;    0,818;   -0,955
1101,669;  271,172;    1,727;    2,136
1102,209;  189,990;   -0,091;    2,227
1102,748;  150,990;    0,000;    0,955
1103,288;  157,717;    1,273;   -1,227
1103,827;  156,808;    3,091;   -2,227
1104,367;  111,263;   -0,091;   -2,409
1104,906;  114,535;    1,364;   -1,136
1105,445;  161,626;    0,636;   -1,136
1105,985;  136,808;   -0,727;    1,500
1106,524;  145,626;   -1,727;   -0,682
1107,063;  136,717;   -2,727;    1,409
1107,602;  105,081;   -1,909;   -1,500
1108,141;   92,354;   -1,909;    1,500
1108,680;  161,263;   -3,455;   -0,591
1109,219;  131,626;   -0,909;   -0,500
1109,758;  118,081;    0,455;    0,682
1110,297;  116,172;    1,000;   -0,682
1110,836;   87,172;   -0,727;    0,955
1111,375;  131,808;   -2,545;    0,409
1111,913;  163,626;   -1,000;    0,773
1112,452;  132,354;   -0,273;    0,136
1112,991;   82,808;    1,091;    1,955
1113,529;   82,808;   -0,818;   -0,045
1114,068;  114,354;   -0,273;    2,955
1114,606;   81,990;   -0,364;   -0,955
1115,144;  157,081;   -1,273;    1,045
1115,683;  119,899;   -0,727;    0,318
1116,221;  143,626;   -0,455;   -0,864
1116,759;   98,263;    0,636;   -0,864
1117,297;  180,717;    0,000;    1,864
1117,836;  103,444;   -2,182;   -1,227
1118,374;  111,172;    0,182;   -0,682
1118,912;  101,717;    0,909;    2,682
1119,450;  101,263;    1,000;    0,864
1119,988;  102,899;    1,545;    2,136
1120,525;  375,444;    5,091;    3,318
1121,063;  200,717;    1,182;    1,864
1121,601;  103,263;   -0,909;   -1,227
1122,139;   87,990;   -0,727;   -2,045
1122,676;  191,081;   -0,727;    2,773
1123,214;  163,081;   -1,182;    4,409
1123,751;   78,354;    1,727;    2,227
1124,289;  114,990;   -0,091;   -0,409
1124,826;   79,354;    1,727;    0,227
1125,364;   47,899;    1,727;   -0,955
1125,901;  150,808;    1,182;    1,227
1126,438;  167,535;    0,818;    0,955
1126,975;   51,717;   -0,727;   -0,773
1127,513;   77,081;    0,273;    2,136
1128,050;   52,172;    1,636;   -0,682
1128,587;   91,899;    2,000;   -0,227
1129,124;  112,626;    0,091;    1,318
1129,661;   61,081;    0,273;    0,227
1130,198;  136,808;    1,636;    0,773
1130,734;   98,444;    0,182;    1,409
1131,271;   48,354;   -0,909;    0,864
1131,808;  119,717;    2,909;    3,045
1132,345;   70,717;    1,545;    0,318
1132,881;   25,535;   -1,545;   -1,864
1133,418;   80,354;    0,727;   -1,136
1133,954;   56,081;    2,455;   -2,682
1134,491;   83,263;    1,364;   -0,773
1135,027;   47,081;    2,364;    0,864
1135,564;   82,899;    0,273;    2,955
1136,100;   78,626;    0,364;    2,136
1136,636;   41,717;   -1,273;   -1,045
1137,172;   64,990;    0,000;   -1,045
1137,708;   45,808;   -1,364;   -1,045
1138,245;   39,717;    1,273;   -1,227
1138,781;   30,808;    1,091;   -3,318
1139,317;   52,172;    1,273;   -1,409
1139,852;   59,263;    3,091;    0,136
1140,388;   89,081;   -1,182;   -0,409
1140,924;   51,354;   -1,091;   -2,227
1141,460;   31,990;   -1,636;    0,136
1141,996;   20,990;   -1,364;    2,682
1142,531;   31,535;    1,364;    3,318
1143,067;  111,081;    1,182;    1,045
1143,602;  138,535;   -0,091;   -0,318
1144,138;   67,263;   -2,636;    1,045
1144,673;   30,081;   -1,455;    1,409
1145,209;   44,354;   -1,909;   -0,318
1145,744;   21,990;   -0,727;    0,864
1146,279;   64,535;    1,818;   -0,136
1146,815;   36,990;    1,545;   -2,682
1147,350;   55,899;   -1,364;    0,045
1147,885;   29,808;   -0,818;   -1,318
1148,420;   33,717;   -2,273;    0,773
1148,955;   25,172;   -1,727;    1,864
1149,490;   28,535;   -0,909;   -1,591
1150,025;   18,990;    0,455;   -1,773
1150,560;   61,990;    1,091;   -0,955
1151,094;   50,626;    1,455;   -0,591
1151,629;   54,899;    1,636;    0,864
1152,164;   30,172;    1,364;    1,318
1152,698;   19,354;   -0,182;   -0,136
1153,233;    9,263;    0,091;   -0,682
1153,767;   22,172;   -3,000;   -2,318
1154,302;   34,172;   -1,455;    1,773
1154,836;   33,444;   -0,455;   -2,136
1155,371;   49,081;   -1,364;    3,682
1155,905;   29,172;   -0,636;    1,682
1156,439;   28,172;   -0,636;   -0,500
1156,973;   39,444;    0,364;    0,318
1157,507;   25,535;   -0,364;    0,682
1158,042;   29,172;   -0,727;    1,045
1158,576;   38,990;    0,182;    1,773
1159,110;   42,717;   -0,818;    2,409
1159,643;   33,263;    0,636;   -0,045
1160,177;   18,263;   -1,545;    1,500

