
Integration time [ms]:   0,040
Averaging Nr. [scans]: 11
Smoothing Nr. [pixels]: 0
Data measured with spectrometer [name]: 7318044SP
Wave   ;Sample   ;Dark     ;Reference
[nm]   ;[counts] ;[counts] ;[counts] 

186,757;   33,844;   31,551;    1,318
187,357;   44,157;   22,551;    0,955
187,958;   29,007;   15,460;   -1,591
188,558;   41,644;    8,915;   -1,227
189,159;   25,547;    6,733;   -4,500
189,759;   16,262;    7,278;   -3,591
190,360;   12,249;    2,824;   -2,136
190,960;   25,221;    2,915;   -4,136
191,560;   34,643;    3,189;   -6,591
192,161;  152,052;    4,372;   -3,500
192,761;   85,562;    4,010;   -3,227
193,361;   55,399;    1,556;   -3,773
193,962;   74,542;    2,010;   -2,682
194,562;   36,501;    1,189;   -3,955
195,162;   32,243;   -2,448;   -2,227
195,762;  104,759;   -3,176;   -0,045
196,362;   73,773;    1,370;   -2,500
196,963;   26,924;    2,006;   -0,864
197,563;   54,835;    1,551;   -0,955
198,163;   21,415;    0,096;   -0,682
198,763;   33,452;    1,733;   -0,500
199,363;   67,384;    3,096;   -0,500
199,963;   46,027;    0,369;    0,409
200,563;   45,597;    2,823;   -1,409
201,163;   29,830;    3,277;   -0,227
201,763;   61,059;    3,732;    0,318
202,363;   31,044;    1,459;    1,500
202,963;   62,644;    1,459;    1,045
203,563;  108,187;    0,277;    0,500
204,162;   56,131;    2,096;   -1,864
204,762;   51,687;    0,550;    0,591
205,362;   38,536;    3,004;    1,955
205,962;   63,822;    3,096;    1,955
206,562;   62,370;    1,823;    2,318
207,161;   45,780;   -0,087;    0,318
207,761;  130,373;    1,277;    2,409
208,361;   61,330;   -0,268;    1,409
208,960;   93,787;    0,459;    1,500
209,560;   92,804;    1,277;    1,591
210,160;  105,864;    0,550;    1,864
210,759;   82,689;    4,186;    1,227
211,359;   71,753;    1,459;    1,045
211,958;  199,799;    1,277;    2,045
212,558;  222,020;    1,732;    1,864
213,157;  139,860;    1,822;    1,500
213,757;  334,078;    3,822;   -0,227
214,356;  182,760;    1,277;   -0,409
214,956;  333,323;    3,095;    0,409
215,555;  153,940;    2,095;    2,136
216,154;  113,579;   -2,723;   -0,591
216,754;  121,834;    0,277;    0,773
217,353;  161,558;   -0,268;   -1,045
217,952;   72,483;   -0,178;    0,318
218,552;  199,765;    1,368;   -0,773
219,151;  129,509;    0,277;    0,955
219,750;  118,134;    0,004;   -0,227
220,349;  106,260;   -0,451;    1,045
220,948;  222,473;   -1,360;    1,136
221,548;  142,076;    0,913;    1,227
222,147;  189,672;   -0,087;   -0,409
222,746;  346,356;   -0,451;   -0,955
223,345;  228,763;    0,731;    0,500
223,944;  241,140;   -0,451;    0,773
224,543;  274,663;    1,004;   -1,409
225,142;  292,298;    0,094;    0,136
225,741;  272,562;   -0,814;    1,045
226,340;  258,972;   -0,451;   -0,955
226,939;  420,291;   -0,996;   -0,136
227,538;  253,448;   -0,360;   -0,773
228,137;  421,673;   -0,814;    0,864
228,735;  367,846;   -0,541;    1,227
229,334;  235,647;   -0,905;   -0,227
229,933;  468,943;    0,459;    0,591
230,532;  502,384;    1,186;   -0,409
231,131;  592,408;    1,732;    0,318
231,729;  453,354;   -2,450;   -2,318
232,328;  363,506;   -0,723;   -1,500
232,927;  380,262;    1,004;   -0,500
233,525;  363,630;    3,640;    0,045
234,124;  437,290;    2,368;   -1,591
234,723;  336,632;    0,913;   -1,045
235,321;  340,678;    2,277;    0,136
235,920;  407,453;    1,186;   -1,227
236,518;  610,953;    3,459;    0,318
237,117;  418,446;    0,004;   -0,227
237,715;  433,562;    0,640;   -0,500
238,314;  510,410;   -0,087;   -2,318
238,912;  693,049;   -0,723;   -1,409
239,510;  545,560;    0,459;   -1,227
240,109;  696,831;    0,004;    3,773
240,707;  642,508;   -0,996;    1,227
241,305;  473,118;    0,550;    0,136
241,904;  621,027;   -0,178;   -2,045
242,502;  729,053;   -0,632;   -0,227
243,100;  603,817;   -0,087;   -0,955
243,698;  556,024;    0,732;    1,682
244,297;  595,837;   -0,632;    0,682
244,895;  599,297;   -0,269;   -2,318
245,493;  830,563;    2,186;   -0,591
246,091;  812,707;    1,368;   -1,318
246,689;  748,062;    1,004;    0,591
247,287;  682,777;    0,822;   -1,136
247,885;  658,042;   -1,451;    1,227
248,483;  621,493;    1,822;   -0,500
249,081;  715,841;    0,185;    1,591
249,679;  778,355;   -0,178;    1,682
250,277;  625,981;   -1,723;    0,864
250,875;  787,553;   -1,087;   -1,045
251,473;  664,275;   -1,178;    0,500
252,071;  784,948;    1,459;    1,045
252,669;  708,504;   -1,814;    0,318
253,267;  640,800;   -0,087;    0,773
253,864;  675,959;   -0,360;    0,682
254,462;  882,471;    1,640;    1,591
255,060;  614,882;   -0,269;    1,318
255,658;  607,049;    0,822;   -0,136
256,255;  733,496;    0,186;   -2,045
256,853;  773,588;   -0,269;    1,409
257,451;  746,091;    0,822;    1,864
258,048; 1265,047;    1,822;    1,864
258,646;  883,826;    1,731;   -1,045
259,243; 1013,588;   -0,087;    2,227
259,841;  876,600;   -0,814;    0,318
260,438;  704,412;   -0,087;    0,864
261,036;  869,485;   -1,905;    1,409
261,633;  762,339;   -0,087;    2,227
262,231;  694,662;    2,731;   -0,045
262,828;  722,061;   -0,905;    1,136
263,425;  778,212;    0,913;   -0,591
264,023;  783,064;    0,186;    0,045
264,620;  946,899;   -0,360;   -0,318
265,217; 1093,512;   -2,087;    3,136
265,815;  771,278;   -1,905;    2,136
266,412;  922,802;    0,731;    0,136
267,009;  967,809;   -1,451;    0,773
267,606; 1072,462;    0,822;   -0,955
268,203;  820,250;   -0,269;   -0,591
268,801;  889,225;    1,731;    0,591
269,398;  815,162;   -0,360;    2,500
269,995;  980,152;    0,277;    1,591
270,592;  855,286;   -0,632;   -0,500
271,189;  782,347;    0,186;    0,409
271,786;  766,678;   -0,632;    1,227
272,383; 1076,048;   -1,087;    0,227
272,980;  891,915;    0,277;    0,318
273,577;  855,182;    0,004;    1,227
274,174;  774,401;    0,822;    2,591
274,771;  927,413;   -0,814;   -0,773
275,367; 1399,264;    2,277;    1,409
275,964; 1193,374;    0,731;   -0,500
276,561;  956,621;    1,549;   -1,045
277,158;  869,355;    0,095;   -1,773
277,755; 1154,114;    2,185;    0,409
278,351;  959,817;   -0,451;   -1,500
278,948; 1060,466;   -0,815;    0,045
279,545;  956,819;   -1,360;    2,318
280,141; 1277,510;   -1,723;   -2,045
280,738; 1138,577;   -0,451;   -0,136
281,334;  923,799;   -1,633;    0,591
281,931;  935,356;   -0,087;   -1,318
282,528; 1044,952;    0,822;   -0,500
283,124; 1196,471;   -1,087;   -0,500
283,721; 1168,957;   -0,451;    1,409
284,317;  980,098;    0,185;    2,500
284,913; 1238,063;   -1,360;    0,591
285,510; 1578,790;    0,640;   -0,318
286,106; 1351,765;   -2,269;   -0,955
286,703;  999,346;   -0,360;    1,955
287,299;  961,964;   -1,451;   -0,591
287,895;  975,629;    0,822;   -1,045
288,491; 1022,344;    0,186;    2,136
289,088; 1141,601;   -2,360;    2,409
289,684; 1168,958;   -1,723;    1,500
290,280; 1336,666;    0,368;    0,682
290,876; 1321,069;    1,822;    5,500
291,472; 1170,085;    1,276;    2,227
292,068; 1184,237;    1,367;    0,227
292,665; 1015,509;    2,095;    0,773
293,261;  892,364;    0,276;    2,136
293,857; 1108,376;    2,913;    2,136
294,453; 1020,207;    3,550;    0,955
295,049; 1258,097;   -0,268;    1,955
295,644; 1052,338;    0,095;    0,136
296,240;  912,005;   -0,905;   -0,136
296,836; 1090,723;   -0,995;    0,318
297,432; 1272,751;    1,096;   -0,500
298,028; 1336,575;    0,732;    0,773
298,624; 1149,749;    1,459;    1,864
299,220; 1115,941;    2,368;    0,591
299,815; 1077,414;    1,005;   -0,409
300,411; 1199,461;    0,914;    1,773
301,007; 1347,276;    1,368;    0,227
301,602; 1142,828;   -0,541;   -2,318
302,198; 1278,007;    0,732;   -0,773
302,794; 1112,821;    1,187;   -0,500
303,389; 1102,119;   -1,177;    1,045
303,985; 1170,234;    0,550;    1,409
304,580; 1277,357;    1,459;    1,591
305,176; 1159,094;   -3,086;    0,136
305,771; 1022,085;   -1,268;   -1,227
306,367; 1468,961;    4,095;    0,136
306,962; 1224,919;    0,641;    1,500
307,558; 1210,368;   -0,450;    0,136
308,153; 1326,830;    1,095;   -1,136
308,748; 1116,048;   -0,814;    1,682
309,344; 1539,782;   -0,632;   -1,318
309,939; 1568,525;   -1,905;   -1,318
310,534; 1210,562;   -0,086;   -1,682
311,130; 1140,699;    0,459;   -2,500
311,725; 1063,223;    1,004;   -0,500
312,320; 1167,479;    2,459;    0,045
312,915; 1322,480;    1,459;   -1,045
313,510; 1544,689;    1,550;   -0,500
314,105; 1313,765;    1,096;    1,409
314,700; 1048,926;   -3,086;   -1,045
315,295; 1126,630;   -0,904;    0,045
315,890; 1022,538;    1,277;    0,864
316,485; 1152,059;   -0,359;   -0,318
317,080; 1100,300;   -3,086;    1,591
317,675; 1454,670;    2,005;   -0,682
318,270; 1635,233;    5,550;    3,318
318,865; 1555,406;    3,278;    3,045
319,460; 1323,007;   -0,904;    0,591
320,055; 1203,779;   -0,541;   -1,227
320,650; 1150,369;   -1,995;   -0,591
321,244; 1159,823;   -0,177;   -1,409
321,839; 1316,952;   -1,541;   -0,227
322,434; 1353,843;   -1,086;   -1,591
323,029; 1207,188;    1,732;    1,591
323,623; 1140,412;    1,550;    0,773
324,218; 1284,309;    2,368;    1,409
324,812; 1231,920;    1,096;    1,591
325,407; 1251,644;   -0,814;    2,045
326,002; 1338,840;    0,277;   -0,409
326,596; 1291,082;    0,914;    1,318
327,191; 1135,887;    0,823;   -1,045
327,785; 1073,173;   -0,813;   -0,227
328,379; 1177,163;    1,368;    0,136
328,974; 1171,620;    0,914;   -3,955
329,568; 1231,477;    0,186;   -2,409
330,163; 1293,663;    2,096;    1,045
330,757; 1166,445;    2,459;    1,591
331,351; 1068,898;    0,459;    0,682
331,945; 1090,266;    0,914;    1,409
332,540; 1230,089;   -1,723;   -0,591
333,134; 1202,824;   -1,086;    0,773
333,728; 1175,813;    0,005;    0,318
334,322; 1118,512;   -1,177;   -0,864
334,916; 1024,644;    0,277;    0,955
335,510; 1234,520;   -0,450;   -0,136
336,105; 1271,978;   -1,086;    1,591
336,699; 1115,387;   -1,086;    0,591
337,293; 1140,533;   -1,723;    0,318
337,887; 1068,573;   -2,723;    1,955
338,481; 1255,628;    0,459;    0,591
339,074; 1402,726;   -0,359;    2,682
339,668; 1349,589;   -1,632;    1,227
340,262; 2030,562;    1,732;    3,227
340,856; 1544,455;    1,822;   -0,682
341,450; 1101,622;    1,004;    1,864
342,044; 1217,714;    1,459;    0,136
342,637; 1383,013;    0,913;   -2,136
343,231; 1404,096;   -2,360;    0,682
343,825; 1188,197;   -1,086;   -0,591
344,419; 1171,046;   -1,995;    0,500
345,012; 1791,425;    2,459;    4,045
345,606; 1573,097;    4,641;    1,591
346,199; 1198,260;   -1,813;   -0,227
346,793; 1339,395;    1,914;    2,045
347,386; 1126,181;   -0,813;   -1,136
347,980;  970,293;   -0,268;   -0,045
348,573; 1106,242;    2,278;    0,409
349,167; 1403,537;    5,278;    4,773
349,760; 1352,285;    2,914;    2,682
350,354; 1253,424;   -0,813;    1,136
350,947; 1319,064;    1,096;    1,682
351,540; 1090,050;   -0,358;   -1,409
352,134;  928,469;    1,096;    1,136
352,727; 1002,068;   -0,086;    1,136
353,320; 1024,607;    0,005;    0,591
353,913;  910,389;   -1,995;    1,864
354,507; 1180,251;    0,823;   -1,227
355,100; 1054,926;    0,460;    0,864
355,693; 1484,240;    2,005;    2,409
356,286; 1191,824;    0,823;    2,773
356,879; 1027,575;   -0,722;    1,227
357,472;  977,877;   -0,904;    1,500
358,065; 1063,553;   -0,722;    2,500
358,658;  896,748;   -0,540;    2,318
359,251;  820,674;   -1,631;   -0,591
359,844; 1034,708;   -1,904;   -1,136
360,437; 1147,395;   -2,995;    0,045
361,030;  988,490;    1,369;   -0,682
361,623;  953,439;    2,824;    0,318
362,215; 1218,348;   -0,086;    2,045
362,808; 1048,309;   -2,358;   -1,682
363,401;  969,458;   -2,449;    0,136
363,994; 1240,195;   -0,631;   -1,500
364,586;  968,127;    0,824;   -1,500
365,179;  904,155;   -0,449;   -1,136
365,772;  711,471;   -1,995;    2,045
366,364;  887,154;    1,915;   -3,227
366,957; 1020,481;    2,279;   -0,045
367,549;  915,106;    2,188;   -0,864
368,142;  912,252;    1,825;   -1,500
368,734;  872,275;    0,734;   -2,136
369,327;  778,200;    1,643;   -0,500
369,919;  835,910;   -1,538;    0,409
370,512;  887,858;   -1,083;   -0,500
371,104; 1165,743;   -0,901;    1,591
371,696; 1228,222;    1,191;   -0,955
372,289; 1069,852;    0,373;    1,136
372,881; 1000,502;   -2,080;    1,318
373,473;  826,510;   -2,170;    1,136
374,066;  966,723;   -0,169;    0,500
374,658;  923,919;    0,378;    1,136
375,250;  858,666;    0,653;   -1,409
375,842;  921,888;    0,473;   -0,045
376,434;  864,833;   -0,435;   -0,409
377,026;  916,153;    0,204;   -2,500
377,618;  952,209;   -0,158;   -0,682
378,210;  857,880;   -0,338;   -1,955
378,802;  795,493;    0,754;   -0,591
379,394; 1321,174;    1,846;    0,682
379,986; 1050,499;    1,393;   -0,955
380,578;  940,525;   -0,153;    0,773
381,170; 1197,191;   -0,972;    0,045
381,762; 1062,041;    0,755;    1,409
382,354; 1016,717;   -0,065;   -1,318
382,945;  915,239;   -2,976;    0,318
383,537;  841,842;   -2,705;   -1,955
384,129;  865,435;   -2,160;   -1,136
384,721; 1006,837;   -0,252;    0,955
385,312;  899,271;   -0,161;   -0,955
385,904; 1048,279;   -2,706;    1,591
386,496;  882,165;   -0,979;    1,045
387,087; 1073,361;    1,022;    2,500
387,679;  990,563;   -1,160;    0,045
388,270; 1019,363;    2,840;    2,045
388,862;  961,778;    1,295;   -0,318
389,453;  875,782;   -0,887;    1,045
390,045;  939,961;   -0,705;   -2,682
390,636;  836,450;    0,204;   -0,591
391,227;  874,746;   -0,523;   -0,045
391,819;  898,530;    0,204;    0,773
392,410; 1194,282;    1,022;    0,045
393,001;  972,721;   -0,979;   -1,591
393,593; 1069,400;    1,930;   -0,045
394,184; 1135,102;    1,385;   -0,409
394,775;  913,750;    1,839;    2,136
395,366;  896,343;    1,385;    0,773
395,957; 1137,575;    0,113;    0,136
396,548;  999,801;   -0,342;    2,682
397,139; 1196,817;   -2,433;    0,591
397,730; 1056,959;   -1,888;    0,955
398,321; 1042,895;   -1,252;    0,955
398,912;  971,877;   -0,615;    0,136
399,503; 1012,499;   -3,524;   -1,409
400,094; 1017,095;    0,294;    1,682
400,685; 1005,772;   -0,433;    0,045
401,276;  908,339;    0,930;   -0,955
401,867;  917,595;   -0,888;    0,773
402,458;  898,137;   -2,251;   -2,318
403,048; 1089,111;    1,112;    0,591
403,639;  953,477;    0,840;    0,864
404,230; 1180,768;    2,476;    0,318
404,821; 1231,135;   -0,615;    0,045
405,411; 1101,658;    1,203;   -2,591
406,002;  949,768;   -1,252;   -1,136
406,592; 1256,349;    2,294;    0,045
407,183; 1077,094;    0,566;   -1,500
407,774; 1012,796;    3,475;   -0,136
408,364;  993,533;    0,930;    0,409
408,954; 1134,171;    0,384;    1,227
409,545; 1142,418;    1,021;    1,045
410,135; 1032,661;    1,293;    0,500
410,726;  983,100;    1,838;    0,318
411,316; 1252,510;    0,111;    0,773
411,906;  997,887;   -0,253;   -0,409
412,497;  979,204;   -1,070;   -0,045
413,087;  940,136;   -1,980;   -0,227
413,677;  911,193;   -0,707;    3,864
414,267;  891,247;    0,656;    1,409
414,857;  839,662;   -2,980;    4,227
415,448;  880,092;    0,839;    0,500
416,038;  897,411;    0,020;   -0,591
416,628;  957,440;   -0,889;    0,409
417,218; 1048,377;    0,565;    3,318
417,808; 1256,157;    0,202;   -0,409
418,398; 1068,623;    0,020;    2,682
418,988;  921,845;    2,020;    0,591
419,578; 1038,152;   -0,707;    1,409
420,168; 1047,177;   -1,343;   -0,955
420,757; 1219,458;   -1,343;   -1,500
421,347; 1043,128;    0,111;   -0,227
421,937;  996,104;    2,292;    1,409
422,527; 1171,763;    0,838;   -0,773
423,116; 1333,344;   -0,253;   -0,045
423,706;  991,727;   -1,889;    0,318
424,296;  890,164;    1,384;    0,682
424,885; 1148,528;   -0,071;   -3,045
425,475; 1105,477;    1,474;   -2,864
426,065;  937,099;   -0,980;   -0,318
426,654;  914,643;   -0,435;   -0,318
427,244; 1326,060;    0,020;    1,409
427,833; 1261,181;    1,383;   -0,500
428,423; 1078,090;   -0,526;    1,136
429,012; 1131,234;   -0,344;   -1,136
429,601; 1253,268;   -1,344;    0,136
430,191; 1097,863;    1,292;    4,318
430,780;  919,014;   -0,344;   -0,409
431,369; 1267,913;    0,746;   -0,045
431,959; 1182,869;   -1,254;    0,500
432,548; 1021,352;   -1,163;   -0,045
433,137;  924,729;   -1,254;   -1,318
433,726; 1122,197;    0,292;    0,500
434,315; 1077,636;   -0,526;    2,409
434,905; 1231,350;   -1,254;    1,409
435,494; 1295,088;    0,746;    0,955
436,083; 1095,964;   -0,981;   -0,955
436,672; 1152,342;    0,110;    0,500
437,261; 1100,439;    0,292;   -1,955
437,850; 1503,077;    1,383;    0,682
438,439; 1546,487;    3,291;    1,955
439,027; 1652,466;    3,655;    1,773
439,616; 1601,370;    2,927;    1,227
440,205; 1265,202;    0,200;   -2,136
440,794; 1144,050;    2,109;   -0,045
441,383; 1060,083;   -1,346;   -0,591
441,971;  949,412;   -2,436;    0,591
442,560;  977,260;    0,563;   -1,773
443,149;  847,263;    0,379;   -1,318
443,737;  968,288;   -0,074;   -2,318
444,326;  990,831;    0,018;    0,318
444,915; 1080,882;   -1,982;    0,864
445,503; 1111,513;   -2,891;   -0,318
446,092; 1436,674;    0,382;    2,136
446,680; 1383,350;    0,382;    0,318
447,269; 1290,607;   -0,346;   -0,318
447,857; 1205,872;    0,018;   -1,773
448,445; 1138,299;    0,563;    1,318
449,034; 1106,250;   -1,528;   -1,136
449,622; 1075,622;   -1,073;    3,500
450,210; 1562,997;    2,017;    2,227
450,799; 1460,876;    0,290;   -0,591
451,387; 1295,403;    1,381;   -0,591
451,975; 1280,126;    2,654;    0,864
452,563; 1457,784;    3,472;    2,318
453,151; 1122,946;   -0,528;   -1,227
453,739; 1196,754;   -1,347;    0,136
454,328; 1418,184;    2,381;   -2,136
454,916; 1254,962;    2,562;   -0,136
455,504; 1253,380;    1,017;    1,227
456,092; 1123,542;    0,017;   -1,591
456,679; 1016,475;    1,472;    0,682
457,267; 1738,649;    4,017;    1,045
457,855; 1201,023;    1,017;    1,409
458,443;  913,959;   -0,165;    1,682
459,031; 1330,738;    0,108;    2,409
459,619; 1249,713;   -1,801;    2,864
460,206; 1050,158;    0,835;    2,045
460,794; 1081,464;   -2,983;   -0,227
461,382; 1191,456;   -0,529;   -0,864
461,970; 1105,722;    1,198;    1,864
462,557; 1025,617;   -0,711;   -0,682
463,145; 1287,337;   -3,165;   -1,682
463,732; 1626,342;    2,016;   -1,045
464,320; 1245,645;   -0,075;   -3,045
464,907; 1487,928;    2,743;   -0,773
465,495; 1329,979;    0,743;   -1,227
466,082; 1191,713;   -1,984;   -0,045
466,670; 1172,111;   -2,529;    1,227
467,257; 1058,380;   -1,711;    2,045
467,844; 1253,552;   -0,075;    0,045
468,432; 1236,590;    0,834;    3,500
469,019; 1101,104;    0,925;   -1,773
469,606; 1223,052;    0,470;    3,682
470,193; 1287,454;   -1,439;    0,227
470,780; 1246,744;   -2,075;    0,864
471,368; 1125,813;   -1,257;   -0,773
471,955; 1279,916;    1,379;   -0,682
472,542; 1173,691;    0,652;   -1,136
473,129;  997,511;   -0,166;    0,136
473,716;  975,356;    1,470;    0,591
474,303; 1053,464;    0,652;   -0,864
474,890; 1085,149;   -1,439;   -0,500
475,477; 1247,532;   -1,621;    0,409
476,064; 1083,421;    1,106;   -1,591
476,650; 1243,013;    0,288;    0,318
477,237; 1136,377;   -0,258;    0,955
477,824; 1099,432;   -1,076;    0,864
478,411;  938,124;   -1,894;   -0,318
478,997;  938,779;    0,560;   -0,773
479,584;  846,219;    1,196;   -0,409
480,171; 1260,660;   -0,440;   -0,773
480,757; 1377,080;    2,651;    0,773
481,344; 1167,856;    0,469;    0,409
481,931;  932,922;    1,105;    1,045
482,517; 1302,535;   -1,258;    0,318
483,104; 1456,398;    1,106;    2,864
483,690; 1311,333;   -1,804;    0,045
484,276; 1280,982;   -0,895;    0,227
484,863; 1652,324;    2,469;    1,136
485,449; 1404,048;   -0,077;    0,318
486,035; 1305,540;   -1,986;   -0,136
486,622; 1526,994;   -0,895;    0,045
487,208; 1368,204;    1,378;    1,500
487,794; 1231,099;    0,741;    0,318
488,380; 1268,805;    0,105;   -1,409
488,967; 1257,599;   -1,168;   -0,409
489,553; 1286,099;   -1,895;   -1,409
490,139; 1439,387;    1,559;    0,773
490,725; 1241,976;    0,741;   -0,227
491,311; 1248,384;    3,287;    3,045
491,897; 1087,773;   -0,986;    1,500
492,483; 1101,119;    0,105;    1,227
493,069; 1905,714;    3,923;    0,864
493,655; 1367,156;    1,650;    0,682
494,241; 1177,655;    1,377;   -0,955
494,826; 1261,818;    0,287;   -1,045
495,412; 1316,184;    2,559;   -0,682
495,998; 1184,265;   -0,805;   -0,318
496,584; 1265,155;    0,377;    1,045
497,169; 1197,975;    1,014;   -0,682
497,755; 1071,194;    0,650;    1,227
498,341; 1482,693;    0,559;    0,318
498,926; 1647,284;    1,832;    1,955
499,512; 1235,702;    1,286;    2,955
500,097; 1160,952;    0,195;   -0,318
500,683; 1196,847;   -0,350;    2,136
501,268; 1142,322;   -0,169;   -0,955
501,854; 1174,969;   -0,169;    1,227
502,439; 1107,031;   -0,624;   -1,773
503,024; 1228,490;    0,195;    0,500
503,610; 1297,740;   -0,078;   -0,682
504,195; 1095,657;    0,558;    1,955
504,780; 1266,357;    2,922;    1,227
505,366; 1448,759;    3,013;    2,864
505,951; 1278,428;    0,740;    1,045
506,536; 1163,106;   -3,260;   -3,682
507,121; 1233,822;    0,285;   -0,318
507,706; 1196,666;    2,376;    1,045
508,291; 1110,436;    2,649;    1,136
508,876; 1077,736;   -0,988;    2,591
509,461; 1152,372;   -0,169;   -0,773
510,046; 1247,067;    0,194;    0,318
510,631; 1217,828;   -0,351;   -0,773
511,216; 1098,583;    2,467;   -0,500
511,801; 1256,220;   -0,442;    2,591
512,386; 1260,168;    0,740;    0,500
512,971; 1292,866;   -2,988;    0,955
513,555; 1357,243;   -0,897;   -1,500
514,140; 1347,670;   -0,442;   -3,136
514,725; 1459,401;   -0,715;   -1,136
515,309; 1334,439;   -0,533;    0,318
515,894; 1186,337;   -0,624;   -2,227
516,479; 1228,878;   -0,624;   -0,955
517,063; 1211,436;    0,376;    1,227
517,648; 1182,471;    1,012;   -1,136
518,232; 1098,537;   -0,261;   -1,409
518,817; 1223,188;   -0,079;    1,682
519,401; 1444,315;    2,194;    0,591
519,985; 1255,518;    1,103;    1,136
520,570; 1095,768;    0,830;   -1,955
521,154; 1288,615;    2,102;    0,591
521,738; 1565,586;   -2,352;    2,409
522,323; 1421,108;   -0,170;    1,682
522,907; 1328,193;    0,466;   -0,136
523,491; 1209,765;    0,557;    0,955
524,075; 1139,870;    2,284;    0,591
524,659; 1377,361;    1,466;    0,591
525,243; 1249,944;    1,739;    0,409
525,827; 1174,512;    0,648;   -0,045
526,411; 1237,998;   -1,989;   -0,136
526,995; 1430,082;   -0,352;    1,409
527,579; 1453,586;   -0,443;   -1,045
528,163; 1380,728;    0,375;   -1,500
528,747; 1568,048;    2,466;   -0,773
529,331; 1505,916;   -0,080;   -1,409
529,915; 1250,112;    1,738;    0,955
530,499; 1370,836;   -0,807;    1,227
531,082; 1501,386;   -0,534;    1,591
531,666; 1555,957;    1,374;    0,773
532,250; 1469,153;    1,284;    2,682
532,833; 1641,093;    0,920;    2,773
533,417; 1411,658;   -1,807;    0,864
534,001; 1534,645;    1,647;   -0,318
534,584; 1470,285;    0,374;    0,500
535,168; 1279,995;    0,465;    1,409
535,751; 1702,969;    0,647;    0,045
536,334; 1328,865;   -0,898;   -0,409
536,918; 1288,842;    0,011;    1,591
537,501; 1275,328;   -0,899;    1,318
538,085; 1337,570;   -0,444;    1,045
538,668; 1355,039;    0,829;    2,409
539,251; 1749,781;    1,829;    3,773
539,834; 1479,110;    0,101;    0,773
540,418; 1588,266;   -1,990;    4,318
541,001; 1779,193;   -0,990;    1,773
541,584; 1497,327;    2,101;    2,227
542,167; 1575,758;    1,374;    2,955
542,750; 1445,930;    1,919;   -0,773
543,333; 1220,669;    0,555;    2,136
543,916; 1550,662;    0,192;    2,500
544,499; 1424,201;   -1,354;    0,227
545,082; 1538,224;    1,374;    3,591
545,665; 1446,430;    1,919;    1,500
546,248; 1600,396;    1,010;   -0,318
546,830; 1560,168;   -0,445;    1,955
547,413; 1581,729;    1,010;   -0,773
547,996; 1647,294;    0,555;    0,500
548,579; 1459,621;    0,919;    0,955
549,161; 1704,917;    1,828;    2,682
549,744; 1585,607;   -0,809;    0,409
550,326; 1524,625;   -0,809;   -1,136
550,909; 2015,471;    2,737;    0,591
551,492; 1699,118;   -0,263;    0,227
552,074; 1761,362;   -0,173;   -1,318
552,657; 1821,459;    2,373;    0,045
553,239; 1642,048;   -0,173;   -0,773
553,821; 1564,964;   -1,082;    1,045
554,404; 1757,265;    1,282;    1,136
554,986; 1893,370;    0,464;    1,045
555,568; 1783,595;    1,191;   -0,955
556,151; 1976,064;    1,191;   -0,227
556,733; 1651,144;   -0,264;   -0,864
557,315; 1653,241;    0,100;    0,500
557,897; 1454,294;    0,554;   -0,500
558,479; 1478,224;   -1,991;    1,318
559,061; 1625,121;   -0,719;   -0,864
559,643; 1738,542;   -0,264;    0,045
560,225; 1775,255;    1,645;    2,864
560,807; 1650,542;    0,918;    0,318
561,389; 1571,046;    0,554;    2,318
561,971; 1637,195;    0,463;    2,136
562,553; 1654,315;   -1,628;    1,591
563,135; 1741,291;   -0,537;    1,136
563,717; 2086,734;    3,372;    1,136
564,298; 1974,824;    3,645;   -0,045
564,880; 1693,196;    0,645;   -1,409
565,462; 1592,287;    0,645;    1,318
566,043; 1932,093;   -0,446;    2,318
566,625; 2067,175;    1,918;    1,227
567,207; 1818,241;    1,099;    1,682
567,788; 1833,648;   -1,264;    1,500
568,370; 1972,318;    1,917;   -0,500
568,951; 1829,979;    0,190;    0,227
569,533; 2023,894;   -0,628;   -0,500
570,114; 2150,811;   -0,446;    0,682
570,695; 2190,969;   -0,174;   -1,318
571,277; 2154,619;   -0,265;   -1,682
571,858; 2390,716;    2,008;   -1,136
572,439; 2440,600;    1,554;   -1,045
573,021; 2418,701;    2,099;   -2,773
573,602; 2534,133;   -1,265;    0,318
574,183; 2580,698;   -2,083;    2,227
574,764; 2600,214;   -1,629;    0,409
575,345; 2709,765;    0,917;   -0,136
575,926; 2705,456;   -0,356;    0,136
576,507; 2770,852;    1,099;   -0,227
577,088; 2896,303;    3,099;    1,682
577,669; 3021,739;    0,735;    1,955
578,250; 3279,789;    0,644;   -1,045
578,831; 3133,536;   -1,356;   -2,227
579,412; 2999,935;   -0,810;    0,955
579,993; 3296,685;    1,008;    0,227
580,573; 3308,788;   -0,629;   -0,955
581,154; 2979,477;    0,735;   -0,591
581,735; 3188,000;    0,644;    0,773
582,315; 3038,545;   -0,629;    2,136
582,896; 3219,396;   -0,174;    1,227
583,477; 3024,787;    0,189;    1,227
584,057; 3121,137;    0,553;    0,955
584,638; 3211,322;    2,553;    2,318
585,218; 3385,210;   -0,538;    2,682
585,799; 3294,689;    0,281;   -0,227
586,379; 3204,849;    0,372;    1,591
586,959; 3035,249;    0,735;    0,318
587,540; 2901,774;   -0,629;    2,227
588,120; 2808,839;    1,007;   -0,045
588,700; 2648,006;    2,553;    2,136
589,281; 2894,509;    0,462;   -0,955
589,861; 2775,474;    0,099;   -1,682
590,441; 2702,254;    2,371;   -2,682
591,021; 2494,313;   -0,265;   -2,591
591,601; 2619,154;   -0,537;    0,500
592,181; 2713,031;   -0,719;   -0,773
592,761; 2373,976;    0,007;    1,409
593,341; 2546,874;   -0,901;    0,045
593,921; 2487,482;   -0,265;    1,591
594,501; 2388,797;   -0,538;    1,318
595,081; 2374,013;    0,917;   -0,318
595,661; 2592,561;   -1,447;    0,955
596,240; 2662,794;   -0,537;    0,136
596,820; 2792,904;    0,372;    1,955
597,400; 2520,992;    2,008;    0,773
597,980; 2544,272;    2,008;    1,045
598,559; 2549,148;    2,735;   -0,227
599,139; 2482,836;   -0,174;   -1,227
599,718; 2459,836;   -0,174;   -0,409
600,298; 2560,150;    0,735;    0,682
600,877; 2917,117;    2,917;    1,409
601,457; 2819,954;    2,281;    1,136
602,036; 2673,146;    0,190;    2,045
602,616; 2630,173;    0,644;    1,682
603,195; 2783,854;   -0,355;    3,500
603,774; 2707,995;   -0,901;    2,045
604,354; 2626,009;    0,826;   -0,500
604,933; 2524,765;    0,463;    1,864
605,512; 2734,487;    3,554;    0,591
606,091; 2749,427;   -0,537;    3,773
606,671; 2784,051;    0,281;    0,773
607,250; 2762,705;    1,644;    3,136
607,829; 2775,686;    2,372;    3,227
608,408; 2662,498;    1,190;    2,591
608,987; 2588,409;    1,281;    3,409
609,566; 2467,387;   -1,265;   -2,500
610,145; 2566,805;   -1,082;    0,682
610,723; 2719,297;    4,372;    6,864
611,302; 2460,149;   -0,446;    1,682
611,881; 2582,128;    5,008;   11,227
612,460; 2485,879;    1,645;    3,955
613,039; 2548,798;   -0,082;    2,045
613,617; 2271,178;    1,736;    4,773
614,196; 2301,700;    1,099;    1,227
614,775; 2480,051;    1,009;    2,409
615,353; 2485,861;    0,736;    0,864
615,932; 2402,248;    0,100;    2,409
616,510; 2550,678;    0,554;    0,591
617,089; 2920,271;    7,100;   17,591
617,667; 2595,711;    2,372;    6,136
618,246; 2231,337;   -1,537;    1,318
618,824; 2354,278;   -3,355;   -0,955
619,402; 2308,468;   -2,900;   -1,773
619,981; 2463,719;   -0,173;   -1,045
620,559; 2442,547;    0,009;    1,682
621,137; 2433,505;   -0,718;    1,864
621,715; 2117,816;   -1,173;   -0,682
622,293; 2157,766;   -0,537;   -0,773
622,871; 2447,877;   -0,718;    0,500
623,450; 2260,132;    0,373;   -0,864
624,028; 2406,450;    0,191;   -0,955
624,606; 2312,539;   -1,718;    1,682
625,183; 2227,505;   -1,536;   -1,136
625,761; 2235,587;    1,009;    1,136
626,339; 2616,670;    1,373;    2,591
626,917; 2365,586;   -0,172;   -0,045
627,495; 2369,615;   -0,354;    1,318
628,073; 2328,760;   -0,263;    2,864
628,650; 2282,785;    0,100;    2,136
629,228; 2378,645;    0,373;    4,409
629,806; 2089,529;    2,282;    1,136
630,383; 2170,651;    1,464;   -0,318
630,961; 2165,987;    2,555;   -0,955
631,539; 2096,903;    2,464;    0,227
632,116; 2751,714;   11,373;   15,409
632,694; 2447,032;    2,555;    6,500
633,271; 2244,302;    0,828;    2,682
633,848; 2369,969;    1,828;    2,045
634,426; 2188,485;   -1,081;    1,773
635,003; 2009,168;    1,101;   -0,409
635,580; 2364,224;    1,192;    3,682
636,158; 2217,465;    3,737;    1,227
636,735; 2060,850;    0,555;   -0,500
637,312; 2079,101;   -0,809;   -0,682
637,889; 2097,711;   -4,354;   -0,682
638,466; 2067,899;   -3,990;   -0,409
639,043; 2055,559;    2,101;   -1,136
639,620; 2072,729;   -2,262;   -0,955
640,197; 2203,562;    1,100;    1,682
640,774; 2193,402;   -0,172;    1,136
641,351; 2272,697;    0,737;    1,136
641,928; 2308,809;   -0,627;    1,409
642,505; 2412,377;    0,828;   -0,500
643,082; 2319,126;   -1,718;    1,227
643,658; 1982,147;   -0,718;    1,500
644,235; 2086,260;    1,191;    2,500
644,812; 2244,736;    1,918;    0,773
645,388; 2197,213;   -0,991;    1,409
645,965; 1990,053;   -0,809;    1,682
646,542; 2007,983;   -1,445;   -0,227
647,118; 2452,551;    1,009;   -0,955
647,695; 2283,118;   -0,263;    1,136
648,271; 2090,685;   -0,536;    0,500
648,848; 2209,434;    0,736;    2,227
649,424; 2330,456;    0,827;    1,318
650,000; 2052,296;   -0,354;   -1,045
650,577; 2112,772;   -0,627;   -0,955
651,153; 2237,066;   -1,809;    0,955
651,729; 2240,634;    1,191;    0,864
652,305; 2517,928;    0,645;    2,773
652,881; 2995,677;   -0,082;    1,136
653,458; 3959,972;    1,100;    0,227
654,034; 4531,448;    0,282;    1,591
654,610; 4535,742;    0,554;    0,773
655,186; 4961,582;    0,645;    3,045
655,762; 4639,877;   -0,991;    0,409
656,338; 4607,444;    0,100;    0,136
656,913; 4918,738;   -0,082;    0,409
657,489; 4632,669;    0,827;   -0,318
658,065; 4725,327;   -0,173;   -1,591
658,641; 4989,531;   -0,900;   -0,864
659,217; 4721,007;   -0,991;    0,409
659,792; 4470,847;    0,645;   -0,409
660,368; 4585,960;   -2,173;   -0,682
660,944; 4783,163;   -2,082;    1,227
661,519; 4074,094;   -0,628;    0,409
662,095; 3168,752;   -1,719;    0,591
662,670; 2473,320;    1,281;   -0,136
663,246; 2439,432;    1,009;   -0,409
663,821; 2468,636;    0,281;    1,682
664,396; 2210,748;    0,009;    1,864
664,972; 2240,770;    0,009;   -0,500
665,547; 2407,428;    1,372;    0,136
666,122; 2339,814;   -1,082;    0,318
666,698; 2503,290;   -0,173;    0,318
667,273; 2168,948;   -0,173;    0,136
667,848; 2344,606;    2,372;    1,500
668,423; 2426,082;    2,190;    2,318
668,998; 2359,104;    2,827;   -0,682
669,573; 2418,762;   -3,264;   -1,500
670,148; 2556,693;   -1,446;   -0,682
670,723; 2283,533;   -1,810;    0,318
671,298; 2623,009;    2,372;    1,045
671,873; 2500,758;   -0,082;   -0,136
672,448; 2494,235;    0,645;    0,136
673,023; 2524,075;   -1,992;   -0,227
673,597; 2701,460;    0,827;    2,318
674,172; 2676,300;   -0,355;    0,318
674,747; 2534,049;    0,372;   -1,045
675,321; 2331,707;   -0,628;    3,318
675,896; 2197,547;    0,645;    1,045
676,471; 2430,478;    2,645;    1,591
677,045; 2349,500;   -1,264;    0,682
677,620; 2359,521;    0,190;    1,136
678,194; 2381,907;   -2,628;    1,136
678,769; 2378,565;   -1,083;   -0,318
679,343; 2476,314;   -0,628;    1,773
679,917; 2528,154;   -1,446;    1,955
680,492; 2364,085;    0,826;    3,227
681,066; 2419,924;    3,372;    0,409
681,640; 2417,037;    1,463;   -0,318
682,214; 2568,513;    0,735;    0,500
682,788; 2484,081;   -1,356;   -0,773
683,363; 2508,830;   -1,810;    1,682
683,937; 2353,306;   -1,719;   -0,318
684,511; 2589,328;    0,463;   -0,591
685,085; 2534,440;   -1,356;    0,318
685,659; 2390,371;   -2,538;    0,864
686,232; 2625,847;   -0,356;   -0,318
686,806; 2496,142;   -0,901;    0,409
687,380; 2565,255;   -0,174;    0,591
687,954; 2582,185;   -1,174;    1,136
688,528; 2684,298;   -0,719;    1,955
689,101; 2772,593;   -3,992;    1,045
689,675; 2554,796;   -0,356;   -0,136
690,249; 2612,636;   -0,719;    0,409
690,822; 2690,385;    0,280;    0,318
691,396; 2565,225;   -0,265;    1,227
691,969; 2410,883;    1,280;    0,136
692,543; 2517,178;   -0,447;   -1,955
693,116; 2340,472;   -0,265;   -1,409
693,690; 2402,403;    0,099;    0,500
694,263; 2539,425;   -1,083;    2,955
694,836; 2771,719;    1,371;    3,591
695,410; 2479,741;   -0,265;    1,773
695,983; 2509,399;    0,189;    0,591
696,556; 2407,875;   -0,447;   -1,045
697,129; 2463,442;   -0,356;    1,409
697,703; 2446,191;   -1,629;    1,955
698,276; 2455,577;    1,462;   -0,773
698,849; 2493,599;    1,280;    1,409
699,422; 2368,893;   -1,083;    0,591
699,995; 2252,460;    0,007;    0,136
700,568; 2435,936;   -0,629;    3,045
701,140; 2466,231;   -2,811;    1,682
701,713; 2561,344;   -0,174;    2,409
702,286; 2469,274;   -0,538;    0,864
702,859; 2450,296;   -0,902;   -0,591
703,432; 2373,954;    0,825;    0,682
704,004; 2361,158;    0,462;    0,318
704,577; 2200,998;   -0,629;    0,136
705,150; 2324,020;    0,189;    2,500
705,722; 2420,859;   -0,356;   -3,227
706,295; 2439,790;   -0,175;   -0,591
706,867; 2259,448;   -0,175;    1,955
707,440; 2457,561;   -1,720;   -0,409
708,012; 2526,128;    0,462;    0,591
708,584; 2386,059;    2,462;    0,227
709,157; 2373,172;    1,825;   -0,591
709,729; 2488,739;    2,280;    2,045
710,301; 2620,761;    0,734;    0,045
710,874; 2587,146;   -1,447;   -0,227
711,446; 2203,077;    0,371;    0,864
712,018; 2298,826;    0,098;    0,500
712,590; 2210,029;   -1,993;    1,682
713,162; 2537,688;    0,825;    1,318
713,734; 2405,982;    1,825;   -2,045
714,306; 2371,913;   -1,902;   -0,409
714,878; 2190,662;    0,825;    0,864
715,450; 2324,956;    0,643;    0,864
716,022; 2371,614;    1,552;    1,318
716,593; 2387,454;    0,189;    0,591
717,165; 2426,476;   -3,175;   -1,227
717,737; 2552,225;    0,280;    0,409
718,309; 2390,883;    0,280;   -0,045
718,880; 2300,178;   -0,539;   -1,409
719,452; 2425,563;   -0,175;   -1,591
720,024; 2396,130;    0,734;   -0,591
720,595; 2429,061;   -2,902;    0,955
721,167; 2312,719;    0,370;   -2,045
721,738; 2271,650;   -0,812;   -1,045
722,309; 2343,854;   -0,993;   -1,227
722,881; 2188,784;   -1,357;    0,773
723,452; 2377,897;   -2,630;    2,864
724,023; 2442,555;   -0,721;    2,682
724,595; 2454,122;    0,007;    0,682
725,166; 2250,690;    0,007;   -0,409
725,737; 2412,166;    1,734;    0,227
726,308; 2324,915;   -0,266;    0,318
726,879; 2254,391;   -1,630;    1,227
727,450; 2369,049;    0,552;   -0,045
728,021; 2245,798;    3,097;    0,682
728,592; 2405,547;    0,734;    0,500
729,163; 2550,296;    0,643;   -0,136
729,734; 2556,045;    0,188;   -0,227
730,305; 2424,613;    1,734;    0,136
730,876; 2407,453;    0,188;    2,955
731,447; 2722,202;    2,188;    2,682
732,017; 2585,405;    1,097;    1,864
732,588; 2457,336;    0,734;    1,227
733,159; 2624,721;    0,643;   -1,045
733,729; 2361,743;    0,006;    0,409
734,300; 2389,128;    0,915;    0,864
734,870; 2350,968;    3,461;    0,591
735,441; 2390,990;    0,370;   -0,591
736,011; 2258,921;    0,643;   -1,591
736,582; 2298,852;   -0,812;    0,045
737,152; 2282,510;   -1,721;   -2,045
737,722; 2370,077;   -0,267;   -0,682
738,293; 2206,462;   -1,358;    1,318
738,863; 2364,757;    2,461;    2,318
739,433; 2593,688;    5,279;    0,318
740,003; 2491,255;   -0,994;   -0,682
740,573; 2503,459;    2,097;   -1,591
741,143; 2456,571;   -1,085;    0,318
741,713; 2421,957;    1,188;   -0,500
742,283; 2394,887;    0,915;    1,591
742,853; 2320,364;    1,915;    1,591
743,423; 2144,658;    1,733;    0,045
743,993; 2211,225;   -0,358;    1,500
744,563; 2097,793;    0,097;   -0,864
745,133; 2135,269;   -0,812;   -0,864
745,702; 2232,382;   -0,267;    1,773
746,272; 2263,767;   -0,176;    0,591
746,842; 2275,152;   -1,358;   -0,591
747,411; 2188,810;   -0,267;   -0,318
747,981; 2112,832;    0,097;    0,500
748,551; 2156,490;    2,278;   -1,045
749,120; 2238,057;    0,642;   -0,227
749,690; 2255,534;   -0,631;    2,409
750,259; 2397,192;    1,369;    2,955
750,828; 2404,759;    1,551;   -1,955
751,398; 2279,235;    1,278;   -0,045
751,967; 2592,439;    2,187;    0,409
752,536; 2354,733;   -0,813;   -0,227
753,105; 2511,028;    0,096;    0,227
753,675; 2302,686;    0,096;    1,773
754,244; 2305,344;   -0,904;    3,591
754,813; 2323,911;    0,551;    1,227
755,382; 2219,115;    0,460;    0,955
755,951; 2382,682;    1,551;    3,682
756,520; 2422,340;   -0,085;    1,864
757,089; 2679,725;    0,278;    0,500
757,658; 2387,293;    1,733;    1,227
758,227; 2265,678;    1,096;    0,318
758,795; 2359,973;    1,187;    1,136
759,364; 2500,540;   -0,086;   -0,591
759,933; 2197,107;   -1,176;   -0,045
760,501; 2137,401;    0,733;   -1,318
761,070; 2292,332;   -2,813;   -1,409
761,639; 2543,899;   -1,904;    1,318
762,207; 2354,921;    1,551;   -0,955
762,776; 2415,216;    0,369;    0,864
763,344; 2293,419;   -0,995;    0,591
763,913; 1934,714;   -0,722;    1,409
764,481; 2577,735;    1,005;   -0,136
765,049; 2512,575;   -1,358;    1,409
765,618; 2398,961;   -0,086;    0,318
766,186; 2323,346;    0,278;    0,136
766,754; 2352,822;    0,005;    1,864
767,322; 2029,571;   -1,995;    0,409
767,890; 2004,320;   -0,722;   -1,773
768,459; 2184,342;   -2,177;   -0,318
769,027; 2397,000;    1,641;    3,409
769,595; 2121,749;    3,278;    2,591
770,163; 2154,680;    3,823;    2,955
770,730; 2174,066;    0,732;   -0,136
771,298; 2135,996;    0,187;   -1,409
771,866; 2122,473;   -1,541;    4,955
772,434; 2166,494;   -0,631;   -1,864
773,002; 2408,789;    0,005;    0,682
773,569; 2290,811;    0,914;    1,682
774,137; 2348,832;   -0,268;   -0,045
774,705; 2332,945;    0,278;   -0,136
775,272; 2146,421;    0,641;    0,682
775,840; 2266,716;   -0,177;    2,682
776,407; 2229,010;    0,277;    1,955
776,975; 1980,487;   -0,632;    0,318
777,542; 2135,690;   -1,086;   -0,045
778,110; 2155,985;   -1,268;   -0,045
778,677; 2010,006;   -2,359;   -0,864
779,244; 2061,301;    2,186;    1,045
779,812; 2203,595;    1,823;    0,864
780,379; 2243,344;    0,005;    1,136
780,946; 2141,366;    1,005;   -0,773
781,513; 2166,933;   -1,450;    0,318
782,080; 2003,682;   -0,086;    2,864
782,647; 2132,249;   -0,268;    3,045
783,214; 2055,362;   -0,177;    3,864
783,781; 2176,747;   -0,723;   -0,682
784,348; 2142,133;   -0,632;    1,500
784,915; 2002,700;   -3,177;    0,318
785,482; 2173,085;    1,368;    2,591
786,049; 2250,107;    0,186;   -0,591
786,615; 2168,856;    0,277;   -0,955
787,182; 2053,242;    0,186;   -0,682
787,749; 2029,263;   -2,814;    1,409
788,315; 2051,740;   -1,632;   -0,409
788,882; 2094,125;    1,550;   -1,227
789,448; 2382,419;    1,732;   -0,955
790,015; 2182,350;    1,095;    3,227
790,581; 2291,008;    1,459;    0,227
791,148; 2082,121;    0,641;    1,045
791,714; 2063,779;   -0,541;    3,136
792,280; 2028,983;    0,186;    1,591
792,847; 1951,277;    0,550;    2,500
793,413; 2033,572;   -0,269;   -0,318
793,979; 2107,502;    3,459;   -1,318
794,545; 2455,888;    4,459;    2,682
795,111; 2260,364;    2,186;    1,318
795,678; 2107,750;    0,731;   -1,682
796,244; 2291,771;    3,368;    0,136
796,810; 2243,338;    1,731;    0,773
797,375; 2208,451;    0,549;   -2,136
797,941; 1859,746;   -0,541;    0,591
798,507; 1838,222;   -0,451;   -0,955
799,073; 1840,244;   -0,360;    0,591
799,639; 1907,174;   -2,632;    3,136
800,205; 1841,196;    0,095;    2,682
800,770; 1809,945;    0,640;    1,773
801,336; 1773,603;    1,368;   -0,955
801,901; 2383,716;    4,549;    3,136
802,467; 2117,283;   -0,542;    2,045
803,033; 1778,759;   -0,087;    0,864
803,598; 1798,872;    1,913;   -1,045
804,163; 1862,985;    1,095;   -0,318
804,729; 1960,916;   -0,178;    1,136
805,294; 1881,574;    0,822;    2,227
805,859; 1765,232;    0,731;   -0,409
806,425; 2139,163;    1,186;    2,682
806,990; 2110,457;    2,186;    4,318
807,555; 1913,024;   -1,451;    2,591
808,120; 2071,410;    0,822;   -0,409
808,685; 1805,431;    0,185;   -2,500
809,250; 1653,908;    0,004;   -0,500
809,815; 1739,293;    1,913;    0,682
810,380; 1959,133;   -0,269;    1,591
810,945; 2091,155;   -1,087;    2,045
811,510; 1925,722;    2,094;    1,591
812,075; 1854,562;   -0,633;   -1,409
812,640; 2134,129;    2,003;    1,409
813,204; 1938,424;    0,822;   -0,227
813,769; 2149,264;    2,094;   -0,045
814,334; 2085,376;    0,458;    0,864
814,898; 1854,943;    0,367;    0,591
815,463; 1862,147;    1,276;   -0,773
816,027; 1801,987;   -0,724;   -2,318
816,592; 1808,918;    0,640;   -2,045
817,156; 1841,849;    2,094;    1,136
817,721; 1909,416;    4,276;    2,318
818,285; 1712,528;    2,912;    1,500
818,849; 1846,732;   -1,451;    1,682
819,414; 1737,936;   -0,269;    2,955
819,978; 1657,957;   -1,269;    1,773
820,542; 2070,979;    2,003;    0,500
821,106; 1899,728;   -0,815;    0,682
821,670; 2053,659;   -0,815;    2,591
822,234; 1819,408;   -0,270;    1,409
822,798; 1665,793;    0,003;    0,500
823,362; 1974,997;   -0,633;    4,227
823,926; 1701,837;    0,094;    1,136
824,490; 1893,858;   -0,997;   -0,682
825,054; 1822,789;   -0,088;   -1,136
825,618; 1663,538;   -1,542;   -1,500
826,181; 1688,015;    0,458;   -1,318
826,745; 1753,127;    1,367;   -1,045
827,309; 2045,422;    1,185;    1,318
827,872; 1907,534;    1,367;    0,955
828,436; 1863,647;    1,185;   -0,773
828,999; 1812,942;   -0,997;    1,227
829,563; 1740,781;   -0,179;    1,136
830,126; 1688,440;   -0,179;   -0,591
830,690; 1683,007;   -1,997;    2,864
831,253; 1572,574;   -0,543;    2,227
831,816; 1648,232;   -1,906;    0,500
832,380; 1566,436;    0,185;    0,864
832,943; 1582,185;   -1,361;   -0,500
833,506; 1598,479;    2,639;   -1,227
834,069; 1819,592;    3,912;   -0,955
834,632; 1715,341;    1,730;    1,318
835,195; 1722,635;    1,003;    0,955
835,758; 1614,384;   -0,997;    1,955
836,321; 1541,406;    0,730;   -1,045
836,884; 1564,519;   -0,725;   -0,955
837,447; 1564,904;   -2,816;    1,773
838,010; 1695,653;    0,366;    3,227
838,573; 1773,402;   -1,179;    0,773
839,135; 1678,606;   -1,361;   -0,955
839,698; 1613,536;    1,275;    0,409
840,261; 1540,376;    1,003;   -0,227
840,823; 1486,398;   -0,543;    0,864
841,386; 1492,602;   -0,452;   -2,409
841,948; 1847,442;   -1,361;    1,773
842,511; 1545,645;    0,912;    1,682
843,073; 1812,121;    1,912;    0,227
843,636; 1551,871;   -0,361;   -0,227
844,198; 1765,347;    0,911;    0,591
844,760; 1736,187;    1,093;    1,955
845,322; 1487,390;    0,548;    1,136
845,885; 1638,685;    0,730;    0,591
846,447; 1627,525;   -1,998;    0,227
847,009; 1959,092;    1,911;   -0,682
847,571; 1656,568;    0,820;   -2,045
848,133; 1598,954;   -1,089;   -1,864
848,695; 1468,248;   -0,543;    1,409
849,257; 1535,906;   -1,089;   -1,682
849,819; 1709,655;   -0,998;   -0,409
850,381; 1562,131;   -0,725;   -0,864
850,942; 1635,971;    1,093;   -0,591
851,504; 1652,175;    1,184;    0,227
852,066; 1576,197;    1,275;   -1,591
852,628; 1598,855;   -0,180;    1,955
853,189; 1409,331;    1,638;    2,682
853,751; 1475,171;   -0,907;    1,409
854,312; 1640,011;   -0,453;   -1,682
854,874; 1811,214;   -2,089;   -0,773
855,435; 1625,509;   -0,907;   -1,682
855,997; 1747,076;   -1,816;   -0,136
856,558; 1746,371;    0,366;    1,773
857,119; 1599,938;    0,820;    2,864
857,681; 1442,141;    0,002;    0,318
858,242; 1668,981;    1,911;   -2,136
858,803; 1764,003;    0,456;   -0,773
859,364; 1693,661;    0,184;   -4,773
859,925; 1693,319;   -2,453;   -0,955
860,486; 1598,886;   -0,453;   -0,955
861,047; 1477,090;   -0,544;   -1,227
861,608; 1501,839;   -1,089;   -0,773
862,169; 1448,406;    0,638;   -0,045
862,730; 1498,246;    0,456;    1,409
863,291; 1552,722;   -0,635;   -0,500
863,852; 1553,108;   -0,635;    1,955
864,412; 1488,675;   -0,271;   -0,864
864,973; 1645,879;   -0,089;    0,500
865,534; 1816,355;   -1,726;    0,227
866,094; 1644,740;    1,820;    0,227
866,655; 1720,580;    1,274;    3,318
867,215; 1592,693;    0,274;    0,136
867,776; 1478,078;    0,547;   -0,136
868,336; 1537,736;   -1,453;    0,136
868,897; 1926,122;    2,638;    1,682
869,457; 1694,871;    1,365;    0,318
870,017; 1522,711;    0,547;   -1,227
870,578; 1547,642;   -0,817;    0,773
871,138; 1496,481;   -2,089;   -0,955
871,698; 1384,594;   -0,817;   -1,318
872,258; 1517,434;   -0,453;   -2,864
872,818; 1759,365;    2,729;    0,045
873,378; 1548,841;    0,638;    1,045
873,938; 1474,045;    0,547;    0,500
874,498; 1389,248;    0,274;   -1,955
875,058; 1443,815;    2,183;    1,773
875,618; 1444,474;    1,910;   -2,682
876,177; 1497,586;    1,274;    0,136
876,737; 1262,244;   -0,090;    1,955
877,297; 1713,357;    0,183;    1,955
877,856; 1621,924;   -0,362;    0,318
878,416; 1364,764;    1,183;   -0,136
878,976; 1356,149;   -1,817;    0,409
879,535; 1422,717;    0,092;    3,136
880,095; 1410,102;   -0,544;    0,045
880,654; 1292,487;   -1,090;    1,318
881,213; 1650,782;    2,456;    1,500
881,773; 1443,531;    2,637;    2,682
882,332; 2067,280;    3,365;    5,136
882,891; 1470,029;    3,092;    2,136
883,451; 1479,505;   -1,272;    1,682
884,010; 1371,527;   -2,908;   -0,409
884,569; 1347,003;   -0,999;   -0,045
885,128; 1569,298;    2,819;   -1,864
885,687; 1878,592;    4,455;    0,682
886,246; 2056,705;    1,455;    2,136
886,805; 1728,818;    2,455;    2,045
887,364; 1401,203;   -0,999;   -0,500
887,922; 1320,134;   -1,181;    0,045
888,481; 1464,428;   -1,545;    0,591
889,040; 1634,632;    1,183;    2,136
889,599; 1510,835;    2,455;    1,409
890,157; 1509,130;    1,455;    2,409
890,716; 1415,515;   -0,090;    0,227
891,274; 1510,628;    0,092;   -1,136
891,833; 1620,922;    1,546;    0,864
892,391; 1413,762;   -0,454;    0,500
892,950; 1619,420;    1,819;   -0,773
893,508; 1419,715;    0,455;   -0,409
894,067; 1257,373;    0,637;    0,136
894,625; 1374,576;   -0,636;   -1,500
895,183; 1361,962;   -0,363;   -0,682
895,741; 1689,529;    1,728;   -1,773
896,299; 1446,278;   -0,545;   -2,409
896,858; 1340,027;    0,819;   -1,591
897,416; 1487,049;    2,728;   -1,318
897,974; 1425,707;    1,819;    0,318
898,532; 1922,638;    6,091;    2,682
899,089; 1553,205;    2,091;   -0,682
899,647; 1436,772;   -1,454;    1,318
900,205; 1477,339;    1,182;    1,045
900,763; 1481,361;   -0,454;    0,227
901,321; 1451,110;    2,364;   -1,409
901,878; 1245,496;   -1,000;   -0,773
902,436; 1298,790;   -1,363;    1,318
902,994; 2146,630;    4,728;    3,682
903,551; 1607,833;    0,728;    0,409
904,109; 1493,855;    0,182;   -1,409
904,666; 1417,604;    2,455;    1,045
905,224; 1288,353;    0,182;   -0,409
905,781; 1444,920;    0,727;   -0,318
906,338; 1369,942;   -1,363;    1,045
906,895; 1244,328;    0,637;    2,045
907,453; 1536,531;    1,727;    1,136
908,010; 1383,644;   -0,909;    0,409
908,567; 1310,302;    1,273;    0,591
909,124; 1102,142;    0,364;   -1,500
909,681; 1170,436;   -2,909;    0,682
910,238; 1267,549;    0,636;   -1,318
910,795; 1247,571;   -0,273;   -1,136
911,352; 1235,662;   -2,909;   -2,682
911,909; 1216,753;   -1,364;   -0,864
912,466; 1272,480;   -3,182;    1,500
913,022; 1276,934;   -1,636;    0,500
913,579; 1410,662;   -0,909;    2,045
914,136; 1272,480;    1,636;    0,955
914,692; 1334,207;    0,091;   -1,227
915,249; 1274,116;    1,455;    0,409
915,806; 1362,207;    0,182;    1,955
916,362; 1267,843;    1,909;    1,864
916,918; 1162,389;    2,000;    1,045
917,475; 1389,207;   -1,182;    0,955
918,031; 1186,207;    3,364;   -0,045
918,587; 1259,389;   -0,909;   -0,318
919,144; 1165,571;   -2,273;    0,227
919,700; 1115,025;    1,727;    0,773
920,256; 1082,480;    0,727;    0,045
920,812; 1116,480;   -0,727;   -1,045
921,368; 1081,571;   -1,727;   -1,045
921,924; 1049,389;    0,182;   -0,136
922,480; 1151,389;   -0,545;    1,227
923,036; 1200,298;    1,273;    1,955
923,592; 1075,753;    0,455;    0,318
924,148; 1130,934;    0,455;   -0,955
924,704; 1277,389;   -1,364;   -0,409
925,259; 1104,207;   -0,273;    0,591
925,815; 1052,207;    1,455;    0,500
926,371;  997,298;    2,909;    1,409
926,926; 1171,480;    2,091;    0,591
927,482; 1130,753;   -1,364;    0,773
928,037; 1054,389;    0,909;    2,045
928,593; 1279,207;    1,636;    1,045
929,148; 1019,389;   -1,818;   -1,500
929,704; 1074,207;   -1,455;   -0,500
930,259;  954,662;    0,091;   -0,136
930,814; 1168,843;   -0,818;    1,955
931,369; 1076,207;    1,091;   -0,773
931,925;  845,116;   -0,091;    0,136
932,480;  970,389;   -2,818;   -2,591
933,035; 1384,571;    0,545;   -0,318
933,590; 1251,207;    0,364;   -1,773
934,145;  810,116;   -1,364;   -0,318
934,700;  722,934;    0,455;   -0,591
935,255;  800,389;   -0,091;    0,045
935,809; 1138,753;    3,182;    0,864
936,364;  720,116;   -0,455;   -0,136
936,919;  728,753;    0,455;   -1,773
937,474;  642,843;    1,455;    0,136
938,028;  677,389;   -1,636;    1,136
938,583; 1098,389;    1,818;    4,682
939,138;  725,480;    2,091;    2,136
939,692;  572,571;    1,636;   -1,136
940,247;  615,480;   -0,727;   -1,045
940,801;  694,934;   -0,636;    0,227
941,355;  585,480;   -0,364;    2,591
941,910;  461,298;   -0,273;   -2,136
942,464;  509,207;   -0,818;   -0,318
943,018;  793,571;    1,000;   -0,227
943,572;  601,207;    2,545;   -0,682
944,126;  643,389;    0,091;   -0,409
944,681;  518,207;    3,091;    0,227
945,235;  461,207;    1,000;   -0,591
945,789;  409,843;    0,364;   -1,864
946,342;  742,480;    0,455;   -0,591
946,896;  468,389;   -2,273;    0,955
947,450;  439,207;    1,545;   -0,227
948,004;  712,843;    1,727;   -0,045
948,558;  498,662;    0,273;   -0,864
949,111;  495,934;   -0,273;   -0,318
949,665;  722,662;    1,636;   -0,682
950,219;  667,843;   -0,091;   -1,045
950,772;  582,480;   -1,909;    1,864
951,326;  579,298;    0,545;   -0,955
951,879;  493,753;    0,727;   -2,318
952,433;  638,207;    0,000;    2,227
952,986;  452,571;    2,909;    0,682
953,539;  405,298;   -0,273;    0,591
954,093;  356,480;    0,545;   -1,318
954,646;  510,389;    0,909;    1,318
955,199;  431,389;    0,000;   -0,500
955,752;  655,662;   -0,455;    1,773
956,305;  490,389;   -0,091;    2,955
956,858;  544,934;    0,818;   -0,318
957,411;  610,025;   -0,545;    2,136
957,964;  500,753;    1,364;    2,136
958,517;  408,843;   -1,545;    3,136
959,070;  361,753;   -0,455;    1,955
959,623;  664,025;    1,091;    1,500
960,176;  608,389;    1,727;    2,045
960,728;  573,571;   -2,727;    0,773
961,281;  516,116;    0,545;    0,500
961,834;  427,389;   -0,909;    0,864
962,386;  434,480;    1,727;    1,045
962,939;  389,480;    0,364;   -0,318
963,491;  441,571;    0,455;    1,136
964,043;  370,753;    1,182;    2,409
964,596;  563,480;   -1,000;    2,227
965,148;  465,025;   -1,000;    1,773
965,700;  371,934;    1,091;   -0,227
966,253;  545,480;   -0,636;    0,318
966,805;  506,298;   -2,273;    0,773
967,357;  423,662;    1,091;   -1,500
967,909;  555,662;    0,455;   -1,227
968,461;  423,843;    0,545;    3,136
969,013;  365,298;   -0,182;   -0,864
969,565;  531,480;   -0,455;   -1,136
970,117;  799,116;   -0,364;    1,045
970,669;  536,298;    0,182;   -0,136
971,220;  322,116;   -0,455;   -1,500
971,772;  415,662;   -0,636;   -0,318
972,324;  521,662;    0,091;   -0,500
972,876;  424,480;    0,818;   -0,045
973,427;  557,571;    1,909;   -1,045
973,979;  624,843;   -0,727;   -2,500
974,530;  398,934;    1,818;    1,318
975,082;  479,116;   -0,545;    1,682
975,633;  413,934;    1,091;    1,682
976,184;  483,753;    0,909;    0,773
976,736;  475,843;    0,091;    0,227
977,287;  484,843;   -0,909;   -0,500
977,838;  445,571;    0,909;   -0,318
978,389;  456,753;   -1,000;   -0,500
978,940;  306,571;    0,545;   -0,409
979,491;  303,571;    0,091;   -0,500
980,042;  407,934;    0,182;    3,045
980,593;  408,389;   -2,545;    0,227
981,144;  522,480;    2,545;   -0,500
981,695;  571,207;    1,455;    1,500
982,246;  513,843;   -0,273;    1,045
982,797;  366,934;   -1,727;    0,682
983,347;  520,934;    0,364;    0,591
983,898;  734,662;    3,091;    0,409
984,449;  691,298;    2,182;    0,773
984,999;  518,298;    1,455;   -1,136
985,550;  469,662;    0,182;   -0,318
986,100;  312,571;   -0,455;   -0,318
986,651;  309,662;   -0,818;    0,045
987,201;  352,753;   -1,000;   -0,591
987,751;  365,389;    0,818;    2,864
988,302;  423,207;    2,636;    1,500
988,852;  466,571;    0,455;   -1,136
989,402;  531,843;    0,091;    0,682
989,952;  555,116;   -2,182;    0,864
990,502;  393,843;   -0,091;    0,682
991,052;  287,753;   -0,727;    0,045
991,602;  338,025;   -2,909;    1,318
992,152;  396,843;    0,455;    0,682
992,702;  433,662;    1,364;   -0,045
993,252;  370,025;   -3,000;   -0,500
993,802;  475,843;   -0,273;    1,318
994,352;  430,753;   -1,545;    1,136
994,901;  328,753;   -0,182;    3,227
995,451;  318,843;   -0,182;    0,318
996,000;  360,116;    1,636;    0,318
996,550;  370,934;    2,273;    0,227
997,100;  409,116;    1,273;   -0,045
997,649;  557,207;    2,182;    0,955
998,198;  362,025;    1,727;   -1,500
998,748;  486,298;    1,091;   -2,318
999,297;  415,934;   -0,818;   -0,409
999,846;  554,843;    1,000;   -0,773
1000,395;  461,025;   -0,818;    0,500
1000,945;  584,753;    1,818;   -0,773
1001,494;  583,389;    2,364;    0,682
1002,043;  564,571;    4,636;    0,864
1002,592;  360,934;   -1,091;    1,955
1003,141;  364,025;   -0,455;   -0,682
1003,690;  531,116;    1,727;    0,500
1004,238;  400,480;    1,455;   -0,045
1004,787;  318,753;    1,364;    1,227
1005,336;  509,662;    0,364;    0,682
1005,885;  454,753;    1,364;   -2,773
1006,433;  445,480;    0,545;    0,955
1006,982;  654,025;    0,455;    1,682
1007,531;  483,116;   -1,818;   -0,227
1008,079;  431,571;   -2,273;    0,500
1008,627;  371,389;   -1,455;    0,409
1009,176;  390,571;    0,000;   -1,955
1009,724;  334,207;    1,091;    0,864
1010,273;  503,025;    1,273;    0,500
1010,821;  371,116;    0,091;    1,409
1011,369;  336,662;   -1,364;    1,318
1011,917;  356,753;   -1,364;   -0,591
1012,465;  440,753;    1,273;   -1,591
1013,013;  425,298;    2,091;   -1,682
1013,561;  548,207;    0,455;   -0,773
1014,109;  638,207;   -1,909;    1,682
1014,657;  502,662;    0,364;    0,591
1015,205;  390,207;    1,636;   -0,955
1015,753;  335,298;   -0,545;   -1,409
1016,301;  415,753;   -2,636;    3,045
1016,848;  496,116;   -1,273;    0,409
1017,396;  499,480;    2,545;    0,045
1017,944;  495,753;    1,182;    1,864
1018,491;  391,934;    0,273;    1,409
1019,039;  720,025;    0,455;    0,591
1019,586;  461,843;   -1,364;    1,682
1020,134;  453,480;    0,455;    1,500
1020,681;  534,116;    0,182;   -1,136
1021,228;  431,753;    2,909;   -2,227
1021,776;  415,207;    1,182;   -1,136
1022,323;  648,207;    0,455;    0,773
1022,870;  552,116;   -1,000;   -0,045
1023,417;  606,025;    2,636;    1,864
1023,964;  428,934;    2,636;    1,227
1024,511;  404,389;    1,000;    0,773
1025,058;  432,934;    3,182;   -0,045
1025,605;  378,662;   -2,273;    3,136
1026,152;  614,116;    1,727;   -0,591
1026,699;  464,662;    1,818;    1,318
1027,245;  435,025;   -0,091;    0,318
1027,792;  368,934;   -1,000;    1,409
1028,339;  610,662;    2,364;   -0,045
1028,885;  457,207;    1,000;   -0,227
1029,432;  398,662;   -0,091;    0,227
1029,978;  522,207;   -1,000;   -1,591
1030,525;  506,298;    1,000;    0,409
1031,071;  375,389;   -1,364;    1,136
1031,618;  690,298;    0,364;    1,682
1032,164;  504,934;   -0,091;    3,045
1032,710;  549,934;    1,636;   -1,500
1033,256;  508,662;   -0,636;   -0,136
1033,803;  347,025;   -0,545;    1,500
1034,349;  210,298;   -1,364;    0,136
1034,895;  263,298;    0,000;   -0,318
1035,441;  344,116;   -0,818;    0,318
1035,987;  397,389;   -2,364;   -0,682
1036,533;  474,753;   -1,455;   -0,955
1037,078;  680,843;    1,455;    1,682
1037,624;  526,662;    2,455;   -0,955
1038,170;  383,116;    0,455;   -0,318
1038,716;  471,662;    1,636;   -0,409
1039,261;  346,025;   -2,273;   -0,773
1039,807;  366,207;   -0,091;    3,409
1040,352;  399,571;   -1,909;   -0,318
1040,898;  384,480;   -1,545;   -0,682
1041,443;  302,207;   -1,455;   -2,591
1041,989;  614,298;    1,091;    1,591
1042,534;  405,753;   -0,364;    2,591
1043,079;  293,025;    2,909;    0,955
1043,625;  410,116;    1,818;    0,500
1044,170;  434,843;   -1,364;    1,045
1044,715;  634,298;    2,455;    0,955
1045,260;  525,207;    2,182;   -0,955
1045,805;  358,843;    1,182;   -0,591
1046,350;  326,298;    1,364;   -0,409
1046,895;  519,116;    2,909;    1,591
1047,440;  515,753;    5,364;    0,409
1047,985;  375,207;    2,818;   -0,955
1048,530;  339,480;    1,545;    1,227
1049,074;  403,389;    0,000;    0,318
1049,619;  334,843;   -1,364;    1,955
1050,164;  329,480;    0,455;    0,227
1050,708;  415,934;   -0,455;    0,045
1051,253;  677,753;    1,273;   -2,227
1051,797;  464,025;    0,818;   -1,318
1052,342;  288,571;   -1,182;    1,045
1052,886;  395,843;    0,364;   -1,409
1053,430;  271,662;   -1,364;    0,136
1053,975;  371,207;   -0,818;   -0,318
1054,519;  374,480;   -0,727;    3,227
1055,063;  451,116;    0,909;    1,318
1055,607;  424,934;   -0,182;    0,227
1056,151;  420,025;    2,909;    1,682
1056,695;  330,207;    2,273;   -1,136
1057,239;  332,480;   -1,727;   -0,682
1057,783;  379,843;    0,818;   -1,500
1058,327;  446,934;    0,000;    1,409
1058,871;  598,480;   -0,545;    1,318
1059,415;  465,298;   -0,818;   -0,045
1059,958;  625,298;    1,455;    2,591
1060,502;  381,753;   -1,000;   -0,773
1061,046;  279,934;    0,364;   -0,955
1061,589;  259,571;   -3,000;   -1,136
1062,133;  225,207;   -1,273;    1,864
1062,676;  266,298;    1,182;    0,864
1063,220;  313,116;    1,091;    0,500
1063,763;  341,207;    0,909;    1,136
1064,306;  369,571;   -0,909;    1,864
1064,849;  363,753;   -0,909;    0,591
1065,393;  343,207;    2,000;   -1,500
1065,936;  345,753;    0,182;   -0,409
1066,479;  250,116;   -1,455;    1,318
1067,022;  283,116;   -0,273;   -0,227
1067,565;  256,298;   -0,091;   -1,318
1068,108;  229,116;    0,727;   -0,591
1068,651;  200,116;   -0,636;    1,409
1069,194;  213,116;   -0,455;   -1,682
1069,736;  240,207;   -1,273;    0,955
1070,279;  210,207;   -1,364;   -0,500
1070,822;  306,025;   -2,000;   -0,318
1071,364;  429,480;   -0,364;    1,318
1071,907;  285,843;   -0,727;    3,227
1072,450;  133,934;    0,000;   -0,045
1072,992;  220,298;   -0,273;    3,136
1073,535;  300,116;    2,091;    2,136
1074,077;  207,116;   -0,727;    2,045
1074,619;  202,207;   -1,364;    0,591
1075,161;  234,389;   -1,091;    1,500
1075,704;  365,843;    1,545;    1,227
1076,246;  228,571;   -0,182;    0,682
1076,788;  159,389;   -0,364;    1,773
1077,330;  163,025;    1,273;    2,136
1077,872;  208,025;    0,909;    0,955
1078,414;  383,207;    2,727;    0,773
1078,956;  231,934;    1,273;   -0,227
1079,498;  374,571;    1,636;    0,318
1080,040;  242,480;    1,909;   -1,318
1080,581;  199,116;    1,636;   -0,318
1081,123;  137,389;    0,091;   -0,773
1081,665;  147,389;   -1,182;   -0,955
1082,206;  345,480;    1,364;   -0,500
1082,748;  253,480;    0,727;    2,045
1083,289;  166,025;   -2,000;    1,318
1083,831;  159,298;   -0,545;    0,227
1084,372;  208,934;    0,000;    0,591
1084,913;  206,207;    1,091;    0,864
1085,455;  148,480;   -1,909;   -2,045
1085,996;  154,662;   -2,273;    0,136
1086,537;  189,298;   -0,091;    0,864
1087,078;  196,753;   -0,909;   -2,136
1087,619;  243,571;   -1,273;    0,227
1088,160;  203,843;    0,000;    1,318
1088,701;  180,662;   -1,091;    0,682
1089,242;  165,389;    1,364;   -2,227
1089,783;  223,480;   -0,273;    1,409
1090,324;  195,571;    0,455;    0,682
1090,865;  141,116;    2,727;   -0,409
1091,405;  110,298;    0,727;    2,227
1091,946;  159,025;    0,182;   -0,955
1092,487;  107,480;    0,818;   -1,409
1093,027;  218,298;   -1,364;   -1,500
1093,568;  152,207;   -0,364;    1,227
1094,108;  191,480;    0,273;    1,773
1094,649;  157,298;   -1,182;    0,136
1095,189;  125,207;   -0,636;   -0,682
1095,729;  125,298;   -0,091;    0,955
1096,269;  115,389;    0,727;   -0,955
1096,810;  271,207;   -1,364;    0,500
1097,350;  209,662;    1,364;   -0,773
1097,890;  156,389;    0,364;    1,227
1098,430;  325,207;    2,364;    2,864
1098,970;  251,298;    2,182;    1,682
1099,510;  140,389;    0,545;   -2,318
1100,050;  119,207;    1,000;   -1,591
1100,589;  133,843;   -0,727;   -0,318
1101,129;  183,298;    0,818;   -0,955
1101,669;  269,116;    1,727;    2,136
1102,209;  187,480;   -0,091;    2,227
1102,748;  156,298;    0,000;    0,955
1103,288;  165,843;    1,273;   -1,227
1103,827;  154,662;    3,091;   -2,227
1104,367;  111,571;   -0,091;   -2,409
1104,906;  109,934;    1,364;   -1,136
1105,445;  158,934;    0,636;   -1,136
1105,985;  137,480;   -0,727;    1,500
1106,524;  146,207;   -1,727;   -0,682
1107,063;  136,389;   -2,727;    1,409
1107,602;  109,116;   -1,909;   -1,500
1108,141;   92,753;   -1,909;    1,500
1108,680;  157,934;   -3,455;   -0,591
1109,219;  126,843;   -0,909;   -0,500
1109,758;  116,843;    0,455;    0,682
1110,297;  113,025;    1,000;   -0,682
1110,836;   84,025;   -0,727;    0,955
1111,375;  125,843;   -2,545;    0,409
1111,913;  163,298;   -1,000;    0,773
1112,452;  133,298;   -0,273;    0,136
1112,991;   83,571;    1,091;    1,955
1113,529;   83,116;   -0,818;   -0,045
1114,068;  109,480;   -0,273;    2,955
1114,606;   76,298;   -0,364;   -0,955
1115,144;  145,389;   -1,273;    1,045
1115,683;  115,934;   -0,727;    0,318
1116,221;  149,753;   -0,455;   -0,864
1116,759;   99,753;    0,636;   -0,864
1117,297;  180,298;    0,000;    1,864
1117,836;  104,389;   -2,182;   -1,227
1118,374;  103,025;    0,182;   -0,682
1118,912;  101,934;    0,909;    2,682
1119,450;  102,116;    1,000;    0,864
1119,988;  100,571;    1,545;    2,136
1120,525;  370,116;    5,091;    3,318
1121,063;  195,480;    1,182;    1,864
1121,601;  107,389;   -0,909;   -1,227
1122,139;   84,934;   -0,727;   -2,045
1122,676;  186,571;   -0,727;    2,773
1123,214;  156,480;   -1,182;    4,409
1123,751;   75,298;    1,727;    2,227
1124,289;  115,934;   -0,091;   -0,409
1124,826;   81,116;    1,727;    0,227
1125,364;   47,571;    1,727;   -0,955
1125,901;  146,662;    1,182;    1,227
1126,438;  159,843;    0,818;    0,955
1126,975;   50,662;   -0,727;   -0,773
1127,513;   77,207;    0,273;    2,136
1128,050;   50,934;    1,636;   -0,682
1128,587;   90,116;    2,000;   -0,227
1129,124;  115,389;    0,091;    1,318
1129,661;   61,571;    0,273;    0,227
1130,198;  134,298;    1,636;    0,773
1130,734;   98,662;    0,182;    1,409
1131,271;   46,298;   -0,909;    0,864
1131,808;  115,207;    2,909;    3,045
1132,345;   69,389;    1,545;    0,318
1132,881;   27,753;   -1,545;   -1,864
1133,418;   83,480;    0,727;   -1,136
1133,954;   56,843;    2,455;   -2,682
1134,491;   88,571;    1,364;   -0,773
1135,027;   51,753;    2,364;    0,864
1135,564;   80,025;    0,273;    2,955
1136,100;   75,480;    0,364;    2,136
1136,636;   39,934;   -1,273;   -1,045
1137,172;   60,480;    0,000;   -1,045
1137,708;   47,116;   -1,364;   -1,045
1138,245;   39,662;    1,273;   -1,227
1138,781;   31,843;    1,091;   -3,318
1139,317;   52,207;    1,273;   -1,409
1139,852;   58,480;    3,091;    0,136
1140,388;   87,753;   -1,182;   -0,409
1140,924;   48,571;   -1,091;   -2,227
1141,460;   25,662;   -1,636;    0,136
1141,996;   13,025;   -1,364;    2,682
1142,531;   30,207;    1,364;    3,318
1143,067;  109,025;    1,182;    1,045
1143,602;  141,753;   -0,091;   -0,318
1144,138;   72,389;   -2,636;    1,045
1144,673;   26,753;   -1,455;    1,409
1145,209;   45,025;   -1,909;   -0,318
1145,744;   22,207;   -0,727;    0,864
1146,279;   66,298;    1,818;   -0,136
1146,815;   40,934;    1,545;   -2,682
1147,350;   62,298;   -1,364;    0,045
1147,885;   32,207;   -0,818;   -1,318
1148,420;   29,480;   -2,273;    0,773
1148,955;   25,934;   -1,727;    1,864
1149,490;   29,571;   -0,909;   -1,591
1150,025;   21,662;    0,455;   -1,773
1150,560;   65,298;    1,091;   -0,955
1151,094;   50,571;    1,455;   -0,591
1151,629;   49,934;    1,636;    0,864
1152,164;   32,207;    1,364;    1,318
1152,698;   19,298;   -0,182;   -0,136
1153,233;    8,934;    0,091;   -0,682
1153,767;   21,480;   -3,000;   -2,318
1154,302;   36,298;   -1,455;    1,773
1154,836;   36,389;   -0,455;   -2,136
1155,371;   50,934;   -1,364;    3,682
1155,905;   33,116;   -0,636;    1,682
1156,439;   34,298;   -0,636;   -0,500
1156,973;   39,025;    0,364;    0,318
1157,507;   22,662;   -0,364;    0,682
1158,042;   29,480;   -0,727;    1,045
1158,576;   38,025;    0,182;    1,773
1159,110;   41,662;   -0,818;    2,409
1159,643;   30,571;    0,636;   -0,045
1160,177;   16,753;   -1,545;    1,500

