
Integration time [ms]:   0,040
Averaging Nr. [scans]: 11
Smoothing Nr. [pixels]: 0
Data measured with spectrometer [name]: 7318044SP
Wave   ;Sample   ;Dark     ;Reference
[nm]   ;[counts] ;[counts] ;[counts] 

186,757;   32,561;   31,551;    1,318
187,357;   23,922;   22,551;    0,955
187,958;   15,014;   15,460;   -1,591
188,558;   11,561;    8,915;   -1,227
189,159;    7,923;    6,733;   -4,500
189,759;    6,286;    7,278;   -3,591
190,360;    6,827;    2,824;   -2,136
190,960;    5,005;    2,915;   -4,136
191,560;    5,087;    3,189;   -6,591
192,161;    5,885;    4,372;   -3,500
192,761;    3,503;    4,010;   -3,227
193,361;    0,865;    1,556;   -3,773
193,962;   -0,397;    2,010;   -2,682
194,562;   -0,009;    1,189;   -3,955
195,162;   -1,815;   -2,448;   -2,227
195,762;   -0,991;   -3,176;   -0,045
196,362;   -1,535;    1,370;   -2,500
196,963;   -1,261;    2,006;   -0,864
197,563;    3,379;    1,551;   -0,955
198,163;    1,110;    0,096;   -0,682
198,763;    2,563;    1,733;   -0,500
199,363;   -0,164;    3,096;   -0,500
199,963;    2,112;    0,369;    0,409
200,563;    1,386;    2,823;   -1,409
201,163;    2,569;    3,277;   -0,227
201,763;    2,841;    3,732;    0,318
202,363;    0,388;    1,459;    1,500
202,963;    1,026;    1,459;    1,045
203,563;    3,297;    0,277;    0,500
204,162;    1,661;    2,096;   -1,864
204,762;    3,393;    0,550;    0,591
205,362;    2,209;    3,004;    1,955
205,962;    1,478;    3,096;    1,955
206,562;    1,845;    1,823;    2,318
207,161;    1,030;   -0,087;    0,318
207,761;    2,481;    1,277;    2,409
208,361;   -0,975;   -0,268;    1,409
208,960;    1,299;    0,459;    1,500
209,560;    2,666;    1,277;    1,591
210,160;    0,483;    0,550;    1,864
210,759;    0,845;    4,186;    1,227
211,359;    2,667;    1,459;    1,045
211,958;    3,483;    1,277;    2,045
212,558;   -0,336;    1,732;    1,864
213,157;    0,847;    1,822;    1,500
213,757;    9,304;    3,822;   -0,227
214,356;    1,848;    1,277;   -0,409
214,956;    4,573;    3,095;    0,409
215,555;    2,305;    2,095;    2,136
216,154;    2,214;   -2,723;   -0,591
216,754;   -0,332;    0,277;    0,773
217,353;   -0,516;   -0,268;   -1,045
217,952;   -0,603;   -0,178;    0,318
218,552;    1,579;    1,368;   -0,773
219,151;    0,671;    0,277;    0,955
219,750;    1,673;    0,004;   -0,227
220,349;   -0,057;   -0,451;    1,045
220,948;    2,036;   -1,360;    1,136
221,548;   -0,512;    0,913;    1,227
222,147;    0,033;   -0,087;   -0,409
222,746;    2,672;   -0,451;   -0,955
223,345;    3,036;    0,731;    0,500
223,944;    1,852;   -0,451;    0,773
224,543;   -0,422;    1,004;   -1,409
225,142;    0,492;    0,094;    0,136
225,741;    1,126;   -0,814;    1,045
226,340;    0,853;   -0,451;   -0,955
226,939;    3,305;   -0,996;   -0,136
227,538;    1,762;   -0,360;   -0,773
228,137;    1,396;   -0,814;    0,864
228,735;    2,032;   -0,541;    1,227
229,334;    0,304;   -0,905;   -0,227
229,933;    5,486;    0,459;    0,591
230,532;    3,303;    1,186;   -0,409
231,131;    4,757;    1,732;    0,318
231,729;    2,213;   -2,450;   -2,318
232,328;    3,758;   -0,723;   -1,500
232,927;    1,575;    1,004;   -0,500
233,525;   -0,603;    3,640;    0,045
234,124;   -1,151;    2,368;   -1,591
234,723;   -0,241;    0,913;   -1,045
235,321;   -1,331;    2,277;    0,136
235,920;    0,850;    1,186;   -1,227
236,518;    5,851;    3,459;    0,318
237,117;    3,306;    0,004;   -0,227
237,715;    2,486;    0,640;   -0,500
238,314;    2,849;   -0,087;   -2,318
238,912;    4,758;   -0,723;   -1,409
239,510;    3,667;    0,459;   -1,227
240,109;   11,483;    0,004;    3,773
240,707;    6,665;   -0,996;    1,227
241,305;    0,939;    0,550;    0,136
241,904;    3,484;   -0,178;   -2,045
242,502;    9,121;   -0,632;   -0,227
243,100;    4,213;   -0,087;   -0,955
243,698;    1,575;    0,732;    1,682
244,297;    2,850;   -0,632;    0,682
244,895;    3,215;   -0,269;   -2,318
245,493;    7,034;    2,186;   -0,591
246,091;    9,397;    1,368;   -1,318
246,689;    3,488;    1,004;    0,591
247,287;    5,579;    0,822;   -1,136
247,885;    3,126;   -1,451;    1,227
248,483;    3,215;    1,822;   -0,500
249,081;    2,946;    0,185;    1,591
249,679;    5,946;   -0,178;    1,682
250,277;    0,762;   -1,723;    0,864
250,875;    2,759;   -1,087;   -1,045
251,473;    1,670;   -1,178;    0,500
252,071;    8,215;    1,459;    1,045
252,669;    5,852;   -1,814;    0,318
253,267;    3,946;   -0,087;    0,773
253,864;    4,760;   -0,360;    0,682
254,462;    6,853;    1,640;    1,591
255,060;    4,034;   -0,269;    1,318
255,658;    4,580;    0,822;   -0,136
256,255;    4,033;    0,186;   -2,045
256,853;    8,035;   -0,269;    1,409
257,451;    2,306;    0,822;    1,864
258,048;   22,397;    1,822;    1,864
258,646;    9,216;    1,731;   -1,045
259,243;   12,944;   -0,087;    2,227
259,841;    9,761;   -0,814;    0,318
260,438;    1,853;   -0,087;    0,864
261,036;    5,123;   -1,905;    1,409
261,633;    4,852;   -0,087;    2,227
262,231;    3,216;    2,731;   -0,045
262,828;    2,122;   -0,905;    1,136
263,425;    2,124;    0,913;   -0,591
264,023;    0,671;    0,186;    0,045
264,620;    5,580;   -0,360;   -0,318
265,217;   12,216;   -2,087;    3,136
265,815;    2,400;   -1,905;    2,136
266,412;    4,034;    0,731;    0,136
267,009;    6,670;   -1,451;    0,773
267,606;   10,853;    0,822;   -0,955
268,203;    6,396;   -0,269;   -0,591
268,801;    3,125;    1,731;    0,591
269,398;    1,035;   -0,360;    2,500
269,995;    8,486;    0,277;    1,591
270,592;    6,032;   -0,632;   -0,500
271,189;    3,126;    0,186;    0,409
271,786;    1,033;   -0,632;    1,227
272,383;    7,396;   -1,087;    0,227
272,980;    6,579;    0,277;    0,318
273,577;    1,758;    0,004;    1,227
274,174;    1,213;    0,822;    2,591
274,771;    5,307;   -0,814;   -0,773
275,367;   36,121;    2,277;    1,409
275,964;   15,577;    0,731;   -0,500
276,561;    4,307;    1,549;   -1,045
277,158;   -0,054;    0,095;   -1,773
277,755;   15,219;    2,185;    0,409
278,351;    9,944;   -0,451;   -1,500
278,948;    7,309;   -0,815;    0,045
279,545;    6,672;   -1,360;    2,318
280,141;   12,215;   -1,723;   -2,045
280,738;   12,488;   -0,451;   -0,136
281,334;    3,399;   -1,633;    0,591
281,931;   -0,871;   -0,087;   -1,318
282,528;   10,493;    0,822;   -0,500
283,124;   16,853;   -1,087;   -0,500
283,721;   13,129;   -0,451;    1,409
284,317;    4,311;    0,185;    2,500
284,913;   12,493;   -1,360;    0,591
285,510;    9,947;    0,640;   -0,318
286,106;   14,310;   -2,269;   -0,955
286,703;    9,309;   -0,360;    1,955
287,299;    7,852;   -1,451;   -0,591
287,895;    9,125;    0,822;   -1,045
288,491;    6,399;    0,186;    2,136
289,088;    7,854;   -2,360;    2,409
289,684;    5,943;   -1,723;    1,500
290,280;   15,578;    0,368;    0,682
290,876;   11,762;    1,822;    5,500
291,472;    7,491;    1,276;    2,227
292,068;    9,219;    1,367;    0,227
292,665;    5,216;    2,095;    0,773
293,261;    2,763;    0,276;    2,136
293,857;   10,669;    2,913;    2,136
294,453;    6,577;    3,550;    0,955
295,049;   15,208;   -0,268;    1,955
295,644;    7,575;    0,095;    0,136
296,240;    4,846;   -0,905;   -0,136
296,836;    6,389;   -0,995;    0,318
297,432;   13,387;    1,096;   -0,500
298,028;    7,933;    0,732;    0,773
298,624;    4,935;    1,459;    1,864
299,220;    8,479;    2,368;    0,591
299,815;    5,753;    1,005;   -0,409
300,411;   11,663;    0,914;    1,773
301,007;   10,478;    1,368;    0,227
301,602;    5,753;   -0,541;   -2,318
302,198;   15,114;    0,732;   -0,773
302,794;   10,025;    1,187;   -0,500
303,389;    6,843;   -1,177;    1,045
303,985;    5,571;    0,550;    1,409
304,580;   24,115;    1,459;    1,591
305,176;    8,572;   -3,086;    0,136
305,771;    2,300;   -1,268;   -1,227
306,367;   38,028;    4,095;    0,136
306,962;   15,571;    0,641;    1,500
307,558;   14,026;   -0,450;    0,136
308,153;    8,754;    1,095;   -1,136
308,748;    3,481;   -0,814;    1,682
309,344;   20,392;   -0,632;   -1,318
309,939;   16,845;   -1,905;   -1,318
310,534;    7,300;   -0,086;   -1,682
311,130;    7,481;    0,459;   -2,500
311,725;    6,391;    1,004;   -0,500
312,320;    5,935;    2,459;    0,045
312,915;    9,937;    1,459;   -1,045
313,510;   21,936;    1,550;   -0,500
314,105;    7,479;    1,096;    1,409
314,700;    1,752;   -3,086;   -1,045
315,295;    4,934;   -0,904;    0,045
315,890;    4,844;    1,277;    0,864
316,485;   10,754;   -0,359;   -0,318
317,080;    3,844;   -3,086;    1,591
317,675;   26,299;    2,005;   -0,682
318,270;   55,478;    5,550;    3,318
318,865;   28,841;    3,278;    3,045
319,460;   16,753;   -0,904;    0,591
320,055;    5,477;   -0,541;   -1,227
320,650;    4,658;   -1,995;   -0,591
321,244;    7,023;   -0,177;   -1,409
321,839;    4,661;   -1,541;   -0,227
322,434;    7,480;   -1,086;   -1,591
323,029;    3,205;    1,732;    1,591
323,623;    6,026;    1,550;    0,773
324,218;   23,750;    2,368;    1,409
324,812;   12,661;    1,096;    1,591
325,407;    8,389;   -0,814;    2,045
326,002;   26,026;    0,277;   -0,409
326,596;   15,843;    0,914;    1,318
327,191;    6,389;    0,823;   -1,045
327,785;    7,934;   -0,813;   -0,227
328,379;    6,753;    1,368;    0,136
328,974;    3,480;    0,914;   -3,955
329,568;    9,752;    0,186;   -2,409
330,163;   14,115;    2,096;    1,045
330,757;    5,846;    2,459;    1,591
331,351;    1,117;    0,459;    0,682
331,945;    3,661;    0,914;    1,409
332,540;    8,845;   -1,723;   -0,591
333,134;    6,119;   -1,086;    0,773
333,728;    7,299;    0,005;    0,318
334,322;    4,662;   -1,177;   -0,864
334,916;    1,392;    0,277;    0,955
335,510;   11,208;   -0,450;   -0,136
336,105;    8,934;   -1,086;    1,591
336,699;    2,845;   -1,086;    0,591
337,293;    6,392;   -1,723;    0,318
337,887;    5,571;   -2,723;    1,955
338,481;   11,026;    0,459;    0,591
339,074;   21,483;   -0,359;    2,682
339,668;   15,664;   -1,632;    1,227
340,262;   75,846;    1,732;    3,227
340,856;   29,484;    1,822;   -0,682
341,450;    5,394;    1,004;    1,864
342,044;   12,301;    1,459;    0,136
342,637;   16,756;    0,913;   -2,136
343,231;    5,579;   -2,360;    0,682
343,825;    2,663;   -1,086;   -0,591
344,419;    6,752;   -1,995;    0,500
345,012;   51,479;    2,459;    4,045
345,606;   31,115;    4,641;    1,591
346,199;    9,386;   -1,813;   -0,227
346,793;   15,295;    1,914;    2,045
347,386;    2,297;   -0,813;   -1,136
347,980;    2,566;   -0,268;   -0,045
348,573;    5,746;    2,278;    0,409
349,167;   46,836;    5,278;    4,773
349,760;   20,836;    2,914;    2,682
350,354;   14,195;   -0,813;    1,136
350,947;   14,743;    1,096;    1,682
351,540;    8,742;   -0,358;   -1,409
352,134;    3,200;    1,096;    1,136
352,727;    5,566;   -0,086;    1,136
353,320;    4,655;    0,005;    0,591
353,913;    1,292;   -1,995;    1,864
354,507;    7,110;    0,823;   -1,227
355,100;   -1,436;    0,460;    0,864
355,693;   47,833;    2,005;    2,409
356,286;   18,109;    0,823;    2,773
356,879;    7,654;   -0,722;    1,227
357,472;   10,836;   -0,904;    1,500
358,065;    7,744;   -0,722;    2,500
358,658;    1,200;   -0,540;    2,318
359,251;    4,563;   -1,631;   -0,591
359,844;   11,925;   -1,904;   -1,136
360,437;   13,655;   -2,995;    0,045
361,030;    7,563;    1,369;   -0,682
361,623;    7,106;    2,824;    0,318
362,215;   18,925;   -0,086;    2,045
362,808;    6,290;   -2,358;   -1,682
363,401;    5,378;   -2,449;    0,136
363,994;   22,286;   -0,631;   -1,500
364,586;   11,011;    0,824;   -1,500
365,179;    5,009;   -0,449;   -1,136
365,772;    0,198;   -1,995;    2,045
366,364;    5,919;    1,915;   -3,227
366,957;    7,460;    2,279;   -0,045
367,549;    7,277;    2,188;   -0,864
368,142;    5,093;    1,825;   -1,500
368,734;    2,634;    0,734;   -2,136
369,327;    1,541;    1,643;   -0,500
369,919;    3,083;   -1,538;    0,409
370,512;    5,352;   -1,083;   -0,500
371,104;   25,434;   -0,901;    1,591
371,696;   22,788;    1,191;   -0,955
372,289;    5,691;    0,373;    1,136
372,881;    5,499;   -2,080;    1,318
373,473;    3,581;   -2,170;    1,136
374,066;    4,837;   -0,169;    0,500
374,658;    4,269;    0,378;    1,136
375,250;    1,885;    0,653;   -1,409
375,842;    2,861;    0,473;   -0,045
376,434;    2,843;   -0,435;   -0,409
377,026;    3,545;    0,204;   -2,500
377,618;    7,975;   -0,158;   -0,682
378,210;    4,044;   -0,338;   -1,955
378,802;    6,756;    0,754;   -0,591
379,394;   27,289;    1,846;    0,682
379,986;   11,007;    1,393;   -0,955
380,578;    6,368;   -0,153;    0,773
381,170;   18,922;   -0,972;    0,045
381,762;   10,662;    0,755;    1,409
382,354;    8,770;   -0,065;   -1,318
382,945;    5,243;   -2,976;    0,318
383,537;    1,717;   -2,705;   -1,955
384,129;    1,914;   -2,160;   -1,136
384,721;    4,647;   -0,252;    0,955
385,312;    5,196;   -0,161;   -0,955
385,904;    7,830;   -2,706;    1,591
386,496;    4,281;   -0,979;    1,045
387,087;   19,911;    1,022;    2,500
387,679;   13,090;   -1,160;    0,045
388,270;    7,179;    2,840;    2,045
388,862;    7,544;    1,295;   -0,318
389,453;   10,089;   -0,887;    1,045
390,045;    6,271;   -0,705;   -2,682
390,636;    2,814;    0,204;   -0,591
391,227;    4,726;   -0,523;   -0,045
391,819;    5,182;    0,204;    0,773
392,410;   22,457;    1,022;    0,045
393,001;    8,827;   -0,979;   -1,591
393,593;    7,193;    1,930;   -0,045
394,184;    6,100;    1,385;   -0,409
394,775;    4,828;    1,839;    2,136
395,366;    2,733;    1,385;    0,773
395,957;    8,912;    0,113;    0,136
396,548;    1,914;   -0,342;    2,682
397,139;   10,183;   -2,433;    0,591
397,730;    7,915;   -1,888;    0,955
398,321;    7,190;   -1,252;    0,955
398,912;    3,191;   -0,615;    0,136
399,503;    4,191;   -3,524;   -1,409
400,094;    4,556;    0,294;    1,682
400,685;    8,281;   -0,433;    0,045
401,276;    4,371;    0,930;   -0,955
401,867;    3,918;   -0,888;    0,773
402,458;    3,007;   -2,251;   -2,318
403,048;    5,464;    1,112;    0,591
403,639;    3,643;    0,840;    0,864
404,230;   14,555;    2,476;    0,318
404,821;   16,463;   -0,615;    0,045
405,411;   10,011;    1,203;   -2,591
406,002;    3,283;   -1,252;   -1,136
406,592;   24,376;    2,294;    0,045
407,183;   14,470;    0,566;   -1,500
407,774;   11,105;    3,475;   -0,136
408,364;    6,195;    0,930;    0,409
408,954;   12,287;    0,384;    1,227
409,545;   14,014;    1,021;    1,045
410,135;   10,562;    1,293;    0,500
410,726;    4,203;    1,838;    0,318
411,316;   21,109;    0,111;    0,773
411,906;   11,202;   -0,253;   -0,409
412,497;    8,835;   -1,070;   -0,045
413,087;    6,653;   -1,980;   -0,227
413,677;    0,840;   -0,707;    3,864
414,267;    2,476;    0,656;    1,409
414,857;    2,113;   -2,980;    4,227
415,448;    3,290;    0,839;    0,500
416,038;    6,018;    0,020;   -0,591
416,628;    5,112;   -0,889;    0,409
417,218;    9,113;    0,565;    3,318
417,808;   23,569;    0,202;   -0,409
418,398;   12,023;    0,020;    2,682
418,988;    7,387;    2,020;    0,591
419,578;   13,840;   -0,707;    1,409
420,168;    7,293;   -1,343;   -0,955
420,757;   16,927;   -1,343;   -1,500
421,347;    7,026;    0,111;   -0,227
421,937;    4,571;    2,292;    1,409
422,527;   12,754;    0,838;   -0,773
423,116;   32,023;   -0,253;   -0,045
423,706;    8,570;   -1,889;    0,318
424,296;    6,933;    1,384;    0,682
424,885;   11,024;   -0,071;   -3,045
425,475;    6,844;    1,474;   -2,864
426,065;    5,298;   -0,980;   -0,318
426,654;    4,757;   -0,435;   -0,318
427,244;   23,844;    0,020;    1,409
427,833;   17,298;    1,383;   -0,500
428,423;    7,574;   -0,526;    1,136
429,012;    9,213;   -0,344;   -1,136
429,601;   16,214;   -1,344;    0,136
430,191;    8,303;    1,292;    4,318
430,780;    3,938;   -0,344;   -0,409
431,369;   19,032;    0,746;   -0,045
431,959;    8,124;   -1,254;    0,500
432,548;    4,942;   -1,163;   -0,045
433,137;    3,125;   -1,254;   -1,318
433,726;    9,034;    0,292;    0,500
434,315;    7,762;   -0,526;    2,409
434,905;   20,856;   -1,254;    1,409
435,494;   12,400;    0,746;    0,955
436,083;    5,852;   -0,981;   -0,955
436,672;   19,490;    0,110;    0,500
437,261;   11,946;    0,292;   -1,955
437,850;   27,582;    1,383;    0,682
438,439;   38,222;    3,291;    1,955
439,027;   62,131;    3,655;    1,773
439,616;   34,224;    2,927;    1,227
440,205;   11,041;    0,200;   -2,136
440,794;   10,861;    2,109;   -0,045
441,383;    8,863;   -1,346;   -0,591
441,971;    6,954;   -2,436;    0,591
442,560;    5,774;    0,563;   -1,773
443,149;    0,347;    0,379;   -1,318
443,737;    4,691;   -0,074;   -2,318
444,326;    5,866;    0,018;    0,318
444,915;    7,774;   -1,982;    0,864
445,503;   10,137;   -2,891;   -0,318
446,092;   57,956;    0,382;    2,136
446,680;   39,503;    0,382;    0,318
447,269;   16,413;   -0,346;   -0,318
447,857;   14,687;    0,018;   -1,773
448,445;   12,052;    0,563;    1,318
449,034;    7,233;   -1,528;   -1,136
449,622;    7,324;   -1,073;    3,500
450,210;   31,237;    2,017;    2,227
450,799;   24,420;    0,290;   -0,591
451,387;   21,057;    1,381;   -0,591
451,975;   20,692;    2,654;    0,864
452,563;   26,599;    3,472;    2,318
453,151;   11,875;   -0,528;   -1,227
453,739;    9,242;   -1,347;    0,136
454,328;   17,241;    2,381;   -2,136
454,916;   14,334;    2,562;   -0,136
455,504;   20,605;    1,017;    1,227
456,092;   10,695;    0,017;   -1,591
456,679;    6,059;    1,472;    0,682
457,267;   65,515;    4,017;    1,045
457,855;   21,880;    1,017;    1,409
458,443;    5,609;   -0,165;    1,682
459,031;   11,881;    0,108;    2,409
459,619;    8,516;   -1,801;    2,864
460,206;    4,335;    0,835;    2,045
460,794;    6,063;   -2,983;   -0,227
461,382;    5,703;   -0,529;   -0,864
461,970;    8,794;    1,198;    1,864
462,557;    3,884;   -0,711;   -0,682
463,145;    9,611;   -3,165;   -1,682
463,732;   46,068;    2,016;   -1,045
464,320;   15,980;   -0,075;   -3,045
464,907;   26,888;    2,743;   -0,773
465,495;   14,620;    0,743;   -1,227
466,082;    8,252;   -1,984;   -0,045
466,670;   12,343;   -2,529;    1,227
467,257;    1,072;   -1,711;    2,045
467,844;   10,709;   -0,075;    0,045
468,432;    8,164;    0,834;    3,500
469,019;    6,076;    0,925;   -1,773
469,606;   18,256;    0,470;    3,682
470,193;   16,441;   -1,439;    0,227
470,780;    9,347;   -2,075;    0,864
471,368;    6,531;   -1,257;   -0,773
471,955;   16,257;    1,379;   -0,682
472,542;   10,896;    0,652;   -1,136
473,129;    2,712;   -0,166;    0,136
473,716;    5,257;    1,470;    0,591
474,303;    4,621;    0,652;   -0,864
474,890;    4,353;   -1,439;   -0,500
475,477;   23,354;   -1,621;    0,409
476,064;   12,084;    1,106;   -1,591
476,650;   27,900;    0,288;    0,318
477,237;   11,354;   -0,258;    0,955
477,824;    8,991;   -1,076;    0,864
478,411;    2,991;   -1,894;   -0,318
478,997;    1,902;    0,560;   -0,773
479,584;    2,269;    1,196;   -0,409
480,171;   12,813;   -0,440;   -0,773
480,757;   16,906;    2,651;    0,773
481,344;    7,268;    0,469;    0,409
481,931;    2,184;    1,105;    1,045
482,517;   12,454;   -1,258;    0,318
483,104;   23,996;    1,106;    2,864
483,690;    9,360;   -1,804;    0,045
484,276;    3,453;   -0,895;    0,227
484,863;   38,633;    2,469;    1,136
485,449;   15,909;   -0,077;    0,318
486,035;    8,273;   -1,986;   -0,136
486,622;   16,998;   -0,895;    0,045
487,208;    9,000;    1,378;    1,500
487,794;    0,638;    0,741;    0,318
488,380;    0,820;    0,105;   -1,409
488,967;    3,461;   -1,168;   -0,409
489,553;    2,823;   -1,895;   -1,409
490,139;    9,823;    1,559;    0,773
490,725;    6,005;    0,741;   -0,227
491,311;    8,914;    3,287;    3,045
491,897;    6,914;   -0,986;    1,500
492,483;    6,369;    0,105;    1,227
493,069;   73,278;    3,923;    0,864
493,655;   29,007;    1,650;    0,682
494,241;   10,188;    1,377;   -0,955
494,826;   10,459;    0,287;   -1,045
495,412;   11,823;    2,559;   -0,682
495,998;    5,828;   -0,805;   -0,318
496,584;    9,917;    0,377;    1,045
497,169;   14,736;    1,014;   -0,682
497,755;    5,831;    0,650;    1,227
498,341;   18,827;    0,559;    0,318
498,926;   36,829;    1,832;    1,955
499,512;   11,109;    1,286;    2,955
500,097;    7,106;    0,195;   -0,318
500,683;    6,286;   -0,350;    2,136
501,268;    4,832;   -0,169;   -0,955
501,854;    7,651;   -0,169;    1,227
502,439;    7,745;   -0,624;   -1,773
503,024;    6,107;    0,195;    0,500
503,610;    7,652;   -0,078;   -0,682
504,195;    6,653;    0,558;    1,955
504,780;   17,742;    2,922;    1,227
505,366;   36,559;    3,013;    2,864
505,951;   18,293;    0,740;    1,045
506,536;    8,565;   -3,260;   -3,682
507,121;   14,837;    0,285;   -0,318
507,706;    9,473;    2,376;    1,045
508,291;    4,293;    2,649;    1,136
508,876;    3,298;   -0,988;    2,591
509,461;    5,842;   -0,169;   -0,773
510,046;    6,478;    0,194;    0,318
510,631;   12,385;   -0,351;   -0,773
511,216;    6,387;    2,467;   -0,500
511,801;   13,474;   -0,442;    2,591
512,386;   11,386;    0,740;    0,500
512,971;    9,116;   -2,988;    0,955
513,555;   10,296;   -0,897;   -1,500
514,140;   10,387;   -0,442;   -3,136
514,725;   29,845;   -0,715;   -1,136
515,309;   13,117;   -0,533;    0,318
515,894;    4,390;   -0,624;   -2,227
516,479;   11,209;   -0,624;   -0,955
517,063;    8,935;    0,376;    1,227
517,648;    4,572;    1,012;   -1,136
518,232;    2,850;   -0,261;   -1,409
518,817;    9,850;   -0,079;    1,682
519,401;   18,576;    2,194;    0,591
519,985;   16,757;    1,103;    1,136
520,570;    6,850;    0,830;   -1,955
521,154;    9,579;    2,102;    0,591
521,738;   17,945;   -2,352;    2,409
522,323;    9,669;   -0,170;    1,682
522,907;    4,945;    0,466;   -0,136
523,491;    6,672;    0,557;    0,955
524,075;    4,672;    2,284;    0,591
524,659;   20,944;    1,466;    0,591
525,243;   14,944;    1,739;    0,409
525,827;    9,945;    0,648;   -0,045
526,411;    9,671;   -1,989;   -0,136
526,995;   15,217;   -0,352;    1,409
527,579;   16,948;   -0,443;   -1,045
528,163;   13,404;    0,375;   -1,500
528,747;   13,585;    2,466;   -0,773
529,331;   12,949;   -0,080;   -1,409
529,915;    4,404;    1,738;    0,955
530,499;    9,950;   -0,807;    1,227
531,082;   23,584;   -0,534;    1,591
531,666;   41,679;    1,374;    0,773
532,250;   22,131;    1,284;    2,682
532,833;   26,042;    0,920;    2,773
533,417;   16,588;   -1,807;    0,864
534,001;   33,772;    1,647;   -0,318
534,584;   20,501;    0,374;    0,500
535,168;    7,410;    0,465;    1,409
535,751;   46,952;    0,647;    0,045
536,334;   18,771;   -0,898;   -0,409
536,918;    3,498;    0,011;    1,591
537,501;    4,500;   -0,899;    1,318
538,085;    7,409;   -0,444;    1,045
538,668;   17,137;    0,829;    2,409
539,251;   32,864;    1,829;    3,773
539,834;   11,864;    0,101;    0,773
540,418;   16,957;   -1,990;    4,318
541,001;   33,866;   -0,990;    1,773
541,584;   18,416;    2,101;    2,227
542,167;   24,140;    1,374;    2,955
542,750;    8,050;    1,919;   -0,773
543,333;    2,235;    0,555;    2,136
543,916;   20,596;    0,192;    2,500
544,499;   11,688;   -1,354;    0,227
545,082;   18,052;    1,374;    3,591
545,665;   10,778;    1,919;    1,500
546,248;   23,871;    1,010;   -0,318
546,830;   18,689;   -0,445;    1,955
547,413;   14,782;    1,010;   -0,773
547,996;    8,601;    0,555;    0,500
548,579;    2,785;    0,919;    0,955
549,161;   38,512;    1,828;    2,682
549,744;   17,605;   -0,809;    0,409
550,326;    7,059;   -0,809;   -1,136
550,909;   46,242;    2,737;    0,591
551,492;   18,059;   -0,263;    0,227
552,074;   20,698;   -0,173;   -1,318
552,657;   28,880;    2,373;    0,045
553,239;   15,517;   -0,173;   -0,773
553,821;    4,696;   -1,082;    1,045
554,404;   34,152;    1,282;    1,136
554,986;   35,153;    0,464;    1,045
555,568;   19,608;    1,191;   -0,955
556,151;   44,427;    1,191;   -0,227
556,733;   16,517;   -0,264;   -0,864
557,315;   31,156;    0,100;    0,500
557,897;   11,701;    0,554;   -0,500
558,479;   10,338;   -1,991;    1,318
559,061;   10,795;   -0,719;   -0,864
559,643;   16,703;   -0,264;    0,045
560,225;   16,881;    1,645;    2,864
560,807;    7,703;    0,918;    0,318
561,389;    7,703;    0,554;    2,318
561,971;   10,161;    0,463;    2,136
562,553;    5,886;   -1,628;    1,591
563,135;    7,431;   -0,537;    1,136
563,717;   68,704;    3,372;    1,136
564,298;   56,796;    3,645;   -0,045
564,880;   18,345;    0,645;   -1,409
565,462;    5,618;    0,645;    1,318
566,043;   10,706;   -0,446;    2,318
566,625;   61,251;    1,918;    1,227
567,207;   27,707;    1,099;    1,682
567,788;    8,526;   -1,264;    1,500
568,370;    9,892;    1,917;   -0,500
568,951;    9,436;    0,190;    0,227
569,533;    7,984;   -0,628;   -0,500
570,114;    7,343;   -0,446;    0,682
570,695;   15,892;   -0,174;   -1,318
571,277;   13,621;   -0,265;   -1,682
571,858;   25,165;    2,008;   -1,136
572,439;   12,073;    1,554;   -1,045
573,021;    7,896;    2,099;   -2,773
573,602;   21,622;   -1,265;    0,318
574,183;   16,896;   -2,083;    2,227
574,764;    8,169;   -1,629;    0,409
575,345;   10,533;    0,917;   -0,136
575,926;    7,713;   -0,356;    0,136
576,507;   15,895;    1,099;   -0,227
577,088;   11,895;    3,099;    1,682
577,669;   34,351;    0,735;    1,955
578,250;   45,169;    0,644;   -1,045
578,831;   22,990;   -1,356;   -2,227
579,412;   23,261;   -0,810;    0,955
579,993;   16,534;    1,008;    0,227
580,573;    8,534;   -0,629;   -0,955
581,154;   25,897;    0,735;   -0,591
581,735;   20,260;    0,644;    0,773
582,315;   47,533;   -0,629;    2,136
582,896;   18,441;   -0,174;    1,227
583,477;    6,626;    0,189;    1,227
584,057;   14,533;    0,553;    0,955
584,638;   27,352;    2,553;    2,318
585,218;   44,079;   -0,538;    2,682
585,799;   24,714;    0,281;   -0,227
586,379;   18,895;    0,372;    1,591
586,959;   18,169;    0,735;    0,318
587,540;    9,081;   -0,629;    2,227
588,120;    2,265;    1,007;   -0,045
588,700;   21,536;    2,553;    2,136
589,281;   37,715;    0,462;   -0,955
589,861;   21,171;    0,099;   -1,682
590,441;    8,443;    2,371;   -2,682
591,021;    8,443;   -0,265;   -2,591
591,601;   14,258;   -0,537;    0,500
592,181;   11,258;   -0,719;   -0,773
592,761;    4,719;    0,007;    1,409
593,341;   14,987;   -0,901;    0,045
593,921;   18,986;   -0,265;    1,591
594,501;   13,987;   -0,538;    1,318
595,081;   13,531;    0,917;   -0,318
595,661;   15,078;   -1,447;    0,955
596,240;    8,258;   -0,537;    0,136
596,820;   59,347;    0,372;    1,955
597,400;   23,896;    2,008;    0,773
597,980;   10,075;    2,008;    1,045
598,559;    8,350;    2,735;   -0,227
599,139;    6,805;   -0,174;   -1,227
599,718;    8,350;   -0,174;   -0,409
600,298;    7,986;    0,735;    0,682
600,877;   79,985;    2,917;    1,409
601,457;   27,528;    2,281;    1,136
602,036;    9,531;    0,190;    2,045
602,616;   15,348;    0,644;    1,682
603,195;   26,892;   -0,355;    3,500
603,774;   34,256;   -0,901;    2,045
604,354;   33,893;    0,826;   -0,500
604,933;   26,439;    0,463;    1,864
605,512;   23,711;    3,554;    0,591
606,091;   24,619;   -0,537;    3,773
606,671;   18,983;    0,281;    0,773
607,250;   52,620;    1,644;    3,136
607,829;   33,527;    2,372;    3,227
608,408;   20,437;    1,190;    2,591
608,987;   34,615;    1,281;    3,409
609,566;    7,805;   -1,265;   -2,500
610,145;   26,525;   -1,082;    0,682
610,723;   45,434;    4,372;    6,864
611,302;   26,251;   -0,446;    1,682
611,881;   76,797;    5,008;   11,227
612,460;   32,434;    1,645;    3,955
613,039;   10,796;   -0,082;    2,045
613,617;    9,072;    1,736;    4,773
614,196;   13,979;    1,099;    1,227
614,775;   14,159;    1,009;    2,409
615,353;   19,158;    0,736;    0,864
615,932;   29,067;    0,100;    2,409
616,510;   18,613;    0,554;    0,591
617,089;  110,704;    7,100;   17,591
617,667;   44,340;    2,372;    6,136
618,246;   13,521;   -1,537;    1,318
618,824;   15,157;   -3,355;   -0,955
619,402;   12,794;   -2,900;   -1,773
619,981;   25,156;   -0,173;   -1,045
620,559;   15,883;    0,009;    1,682
621,137;   13,520;   -0,718;    1,864
621,715;    8,247;   -1,173;   -0,682
622,293;   13,701;   -0,537;   -0,773
622,871;   13,156;   -0,718;    0,500
623,450;   11,427;    0,373;   -0,864
624,028;   35,519;    0,191;   -0,955
624,606;   21,609;   -1,718;    1,682
625,183;   10,153;   -1,536;   -1,136
625,761;   38,607;    1,009;    1,136
626,339;   60,700;    1,373;    2,591
626,917;   19,514;   -0,172;   -0,045
627,495;   11,697;   -0,354;    1,318
628,073;   20,695;   -0,263;    2,864
628,650;   28,970;    0,100;    2,136
629,228;   26,063;    0,373;    4,409
629,806;   11,789;    2,282;    1,136
630,383;   13,514;    1,464;   -0,318
630,961;   10,061;    2,555;   -0,955
631,539;   17,605;    2,464;    0,227
632,116;  177,970;   11,373;   15,409
632,694;   76,242;    2,555;    6,500
633,271;   50,057;    0,828;    2,682
633,848;   58,058;    1,828;    2,045
634,426;   21,056;   -1,081;    1,773
635,003;    7,780;    1,101;   -0,409
635,580;   57,688;    1,192;    3,682
636,158;   44,782;    3,737;    1,227
636,735;   19,420;    0,555;   -0,500
637,312;   13,877;   -0,809;   -0,682
637,889;   11,964;   -4,354;   -0,682
638,466;   13,324;   -3,990;   -0,409
639,043;   19,958;    2,101;   -1,136
639,620;   10,412;   -2,262;   -0,955
640,197;   20,967;    1,100;    1,682
640,774;    7,240;   -0,172;    1,136
641,351;    9,604;    0,737;    1,136
641,928;   44,604;   -0,627;    1,409
642,505;   44,786;    0,828;   -0,500
643,082;   21,877;   -1,718;    1,227
643,658;   14,786;   -0,718;    1,500
644,235;   11,968;    1,191;    2,500
644,812;   22,423;    1,918;    0,773
645,388;   19,242;   -0,991;    1,409
645,965;   10,787;   -0,809;    1,682
646,542;   13,515;   -1,445;   -0,227
647,118;   47,970;    1,009;   -0,955
647,695;   20,424;   -0,263;    1,136
648,271;    9,879;   -0,536;    0,500
648,848;   24,607;    0,736;    2,227
649,424;   38,516;    0,827;    1,318
650,000;   16,698;   -0,354;   -1,045
650,577;   18,244;   -0,627;   -0,955
651,153;   11,517;   -1,809;    0,955
651,729;   10,244;    1,191;    0,864
652,305;   68,699;    0,645;    2,773
652,881;   36,699;   -0,082;    1,136
653,458;   23,245;    1,100;    0,227
654,034;   13,336;    0,282;    1,591
654,610;   23,427;    0,554;    0,773
655,186;   97,700;    0,645;    3,045
655,762;   32,519;   -0,991;    0,409
656,338;   26,337;    0,100;    0,136
656,913;   26,519;   -0,082;    0,409
657,489;   12,338;    0,827;   -0,318
658,065;   23,611;   -0,173;   -1,591
658,641;   15,611;   -0,900;   -0,864
659,217;   15,793;   -0,991;    0,409
659,792;   41,611;    0,645;   -0,409
660,368;   25,248;   -2,173;   -0,682
660,944;   15,794;   -2,082;    1,227
661,519;   16,157;   -0,628;    0,409
662,095;   12,067;   -1,719;    0,591
662,670;   10,340;    1,281;   -0,136
663,246;    8,613;    1,009;   -0,409
663,821;   22,067;    0,281;    1,682
664,396;   11,340;    0,009;    1,864
664,972;   14,886;    0,009;   -0,500
665,547;   15,341;    1,372;    0,136
666,122;   17,523;   -1,082;    0,318
666,698;   35,614;   -0,173;    0,318
667,273;   16,251;   -0,173;    0,136
667,848;   16,251;    2,372;    1,500
668,423;   30,433;    2,190;    2,318
668,998;   16,524;    2,827;   -0,682
669,573;   13,343;   -3,264;   -1,500
670,148;   20,343;   -1,446;   -0,682
670,723;    8,798;   -1,810;    0,318
671,298;   39,525;    2,372;    1,045
671,873;   27,980;   -0,082;   -0,136
672,448;   25,526;    0,645;    0,136
673,023;   22,980;   -1,992;   -0,227
673,597;   27,072;    0,827;    2,318
674,172;   31,890;   -0,355;    0,318
674,747;   25,981;    0,372;   -1,045
675,321;   10,254;   -0,628;    3,318
675,896;    8,163;    0,645;    1,045
676,471;   35,982;    2,645;    1,591
677,045;   18,255;   -1,264;    0,682
677,620;   19,891;    0,190;    1,136
678,194;   11,255;   -2,628;    1,136
678,769;   26,074;   -1,083;   -0,318
679,343;   23,347;   -0,628;    1,773
679,917;   31,620;   -1,446;    1,955
680,492;   20,983;    0,826;    3,227
681,066;   19,984;    3,372;    0,409
681,640;   16,984;    1,463;   -0,318
682,214;   16,166;    0,735;    0,500
682,788;   18,075;   -1,356;   -0,773
683,363;   30,530;   -1,810;    1,682
683,937;   17,621;   -1,719;   -0,318
684,511;   17,712;    0,463;   -0,591
685,085;   15,713;   -1,356;    0,318
685,659;   10,531;   -2,538;    0,864
686,232;   36,895;   -0,356;   -0,318
686,806;   22,532;   -0,901;    0,409
687,380;   10,986;   -0,174;    0,591
687,954;    5,805;   -1,174;    1,136
688,528;   36,805;   -0,719;    1,955
689,101;   17,714;   -3,992;    1,045
689,675;    9,896;   -0,356;   -0,136
690,249;   32,169;   -0,719;    0,409
690,822;   27,351;    0,280;    0,318
691,396;   24,988;   -0,265;    1,227
691,969;   15,534;    1,280;    0,136
692,543;    8,261;   -0,447;   -1,955
693,116;    9,807;   -0,265;   -1,409
693,690;   14,353;    0,099;    0,500
694,263;    9,716;   -1,083;    2,955
694,836;   50,535;    1,371;    3,591
695,410;   33,899;   -0,265;    1,773
695,983;   44,081;    0,189;    0,591
696,556;   15,263;   -0,447;   -1,045
697,129;    4,990;   -0,356;    1,409
697,703;   34,991;   -1,629;    1,955
698,276;   18,809;    1,462;   -0,773
698,849;   37,355;    1,280;    1,409
699,422;   14,991;   -1,083;    0,591
699,995;    7,355;    0,007;    0,136
700,568;   10,810;   -0,629;    3,045
701,140;   15,628;   -2,811;    1,682
701,713;   26,810;   -0,174;    2,409
702,286;   16,993;   -0,538;    0,864
702,859;   26,538;   -0,902;   -0,591
703,432;   49,357;    0,825;    0,682
704,004;   29,993;    0,462;    0,318
704,577;   11,266;   -0,629;    0,136
705,150;   24,903;    0,189;    2,500
705,722;   29,176;   -0,356;   -3,227
706,295;   35,358;   -0,175;   -0,591
706,867;   23,540;   -0,175;    1,955
707,440;   26,540;   -1,720;   -0,409
708,012;   34,995;    0,462;    0,591
708,584;   42,450;    2,462;    0,227
709,157;   10,905;    1,825;   -0,591
709,729;   29,814;    2,280;    2,045
710,301;   13,632;    0,734;    0,045
710,874;    8,814;   -1,447;   -0,227
711,446;    4,360;    0,371;    0,864
712,018;    6,815;    0,098;    0,500
712,590;    7,088;   -1,993;    1,682
713,162;   20,543;    0,825;    1,318
713,734;   11,997;    1,825;   -2,045
714,306;    5,816;   -1,902;   -0,409
714,878;    8,361;    0,825;    0,864
715,450;    7,453;    0,643;    0,864
716,022;    8,635;    1,552;    1,318
716,593;    7,908;    0,189;    0,591
717,165;   14,272;   -3,175;   -1,227
717,737;   40,999;    0,280;    0,409
718,309;   18,636;    0,280;   -0,045
718,880;    9,818;   -0,539;   -1,409
719,452;   14,091;   -0,175;   -1,591
720,024;   25,818;    0,734;   -0,591
720,595;   21,546;   -2,902;    0,955
721,167;   14,455;    0,370;   -2,045
721,738;   24,728;   -0,812;   -1,045
722,309;   57,910;   -0,993;   -1,227
722,881;   20,456;   -1,357;    0,773
723,452;   19,365;   -2,630;    2,864
724,023;   16,820;   -0,721;    2,682
724,595;   21,366;    0,007;    0,682
725,166;   17,729;    0,007;   -0,409
725,737;   36,366;    1,734;    0,227
726,308;   15,639;   -0,266;    0,318
726,879;    9,185;   -1,630;    1,227
727,450;   11,821;    0,552;   -0,045
728,021;   14,822;    3,097;    0,682
728,592;   30,276;    0,734;    0,500
729,163;   38,822;    0,643;   -0,136
729,734;   35,095;    0,188;   -0,227
730,305;   29,004;    1,734;    0,136
730,876;   23,914;    0,188;    2,955
731,447;   57,277;    2,188;    2,682
732,017;   47,460;    1,097;    1,864
732,588;   18,642;    0,734;    1,227
733,159;   74,187;    0,643;   -1,045
733,729;   31,733;    0,006;    0,409
734,300;   46,097;    0,915;    0,864
734,870;   19,733;    3,461;    0,591
735,441;   21,370;    0,370;   -0,591
736,011;   22,279;    0,643;   -1,591
736,582;   14,552;   -0,812;    0,045
737,152;   31,825;   -1,721;   -2,045
737,722;   26,189;   -0,267;   -0,682
738,293;   12,826;   -1,358;    1,318
738,863;   32,644;    2,461;    2,318
739,433;   72,463;    5,279;    0,318
740,003;   29,827;   -0,994;   -0,682
740,573;   43,009;    2,097;   -1,591
741,143;   24,918;   -1,085;    0,318
741,713;   15,555;    1,188;   -0,500
742,283;   23,009;    0,915;    1,591
742,853;   20,282;    1,915;    1,591
743,423;    7,919;    1,733;    0,045
743,993;   16,555;   -0,358;    1,500
744,563;   23,010;    0,097;   -0,864
745,133;   21,829;   -0,812;   -0,864
745,702;   12,102;   -0,267;    1,773
746,272;   29,284;   -0,176;    0,591
746,842;   32,829;   -1,358;   -0,591
747,411;   13,011;   -0,267;   -0,318
747,981;    6,739;    0,097;    0,500
748,551;    7,648;    2,278;   -1,045
749,120;   18,376;    0,642;   -0,227
749,690;   14,194;   -0,631;    2,409
750,259;   25,831;    1,369;    2,955
750,828;   28,377;    1,551;   -1,955
751,398;   12,831;    1,278;   -0,045
751,967;   72,013;    2,187;    0,409
752,536;   32,468;   -0,813;   -0,227
753,105;   35,196;    0,096;    0,227
753,675;   19,650;    0,096;    1,773
754,244;   14,560;   -0,904;    3,591
754,813;   18,105;    0,551;    1,227
755,382;   15,924;    0,460;    0,955
755,951;   21,742;    1,551;    3,682
756,520;   47,015;   -0,085;    1,864
757,089;   48,834;    0,278;    0,500
757,658;   23,652;    1,733;    1,227
758,227;    8,925;    1,096;    0,318
758,795;   12,289;    1,187;    1,136
759,364;   11,380;   -0,086;   -0,591
759,933;   12,380;   -1,176;   -0,045
760,501;    6,017;    0,733;   -1,318
761,070;   18,472;   -2,813;   -1,409
761,639;   10,199;   -1,904;    1,318
762,207;   12,290;    1,551;   -0,955
762,776;   24,654;    0,369;    0,864
763,344;   14,291;   -0,995;    0,591
763,913;    5,291;   -0,722;    1,409
764,481;   56,291;    1,005;   -0,136
765,049;   49,655;   -1,358;    1,409
765,618;   46,746;   -0,086;    0,318
766,186;   25,747;    0,278;    0,136
766,754;   26,383;    0,005;    1,864
767,322;   13,565;   -1,995;    0,409
767,890;   13,747;   -0,722;   -1,773
768,459;   12,384;   -2,177;   -0,318
769,027;   29,657;    1,641;    3,409
769,595;   12,657;    3,278;    2,591
770,163;   56,748;    3,823;    2,955
770,730;   26,930;    0,732;   -0,136
771,298;   18,840;    0,187;   -1,409
771,866;   12,022;   -1,541;    4,955
772,434;   13,477;   -0,631;   -1,864
773,002;   43,477;    0,005;    0,682
773,569;   31,841;    0,914;    1,682
774,137;   28,932;   -0,268;   -0,045
774,705;   11,023;    0,278;   -0,136
775,272;   13,114;    0,641;    0,682
775,840;   11,478;   -0,177;    2,682
776,407;   19,387;    0,277;    1,955
776,975;   14,297;   -0,632;    0,318
777,542;    7,933;   -1,086;   -0,045
778,110;   10,206;   -1,268;   -0,045
778,677;    5,297;   -2,359;   -0,864
779,244;   12,298;    2,186;    1,045
779,812;    9,298;    1,823;    0,864
780,379;   24,571;    0,005;    1,136
780,946;   19,207;    1,005;   -0,773
781,513;    9,480;   -1,450;    0,318
782,080;   10,390;   -0,086;    2,864
782,647;   13,935;   -0,268;    3,045
783,214;    9,390;   -0,177;    3,864
783,781;   23,209;   -0,723;   -0,682
784,348;   26,482;   -0,632;    1,500
784,915;    8,027;   -3,177;    0,318
785,482;   52,482;    1,368;    2,591
786,049;   23,482;    0,186;   -0,591
786,615;    7,937;    0,277;   -0,955
787,182;    5,937;    0,186;   -0,682
787,749;    2,119;   -2,814;    1,409
788,315;   19,301;   -1,632;   -0,409
788,882;    9,302;    1,550;   -1,227
789,448;   57,938;    1,732;   -0,955
790,015;   23,484;    1,095;    3,227
790,581;   24,484;    1,459;    0,227
791,148;   17,030;    0,641;    1,045
791,714;    9,757;   -0,541;    3,136
792,280;    8,576;    0,186;    1,591
792,847;    5,758;    0,550;    2,500
793,413;   11,031;   -0,269;   -0,318
793,979;   39,758;    3,459;   -1,318
794,545;   85,577;    4,459;    2,682
795,111;   43,213;    2,186;    1,318
795,678;   30,305;    0,731;   -1,682
796,244;   55,305;    3,368;    0,136
796,810;   30,669;    1,731;    0,773
797,375;   19,305;    0,549;   -2,136
797,941;    8,942;   -0,541;    0,591
798,507;    5,397;   -0,451;   -0,955
799,073;   11,306;   -0,360;    0,591
799,639;    5,852;   -2,632;    3,136
800,205;    3,852;    0,095;    2,682
800,770;   10,761;    0,640;    1,773
801,336;   16,671;    1,368;   -0,955
801,901;  108,398;    4,549;    3,136
802,467;   48,671;   -0,542;    2,045
803,033;   17,308;   -0,087;    0,864
803,598;   14,217;    1,913;   -1,045
804,163;   11,944;    1,095;   -0,318
804,729;   18,490;   -0,178;    1,136
805,294;   12,490;    0,822;    2,227
805,859;    5,400;    0,731;   -0,409
806,425;   68,764;    1,186;    2,682
806,990;   48,764;    2,186;    4,318
807,555;   18,128;   -1,451;    2,591
808,120;   29,128;    0,822;   -0,409
808,685;   13,765;    0,185;   -2,500
809,250;    9,310;    0,004;   -0,500
809,815;    4,674;    1,913;    0,682
810,380;   12,402;   -0,269;    1,591
810,945;   37,220;   -1,087;    2,045
811,510;   17,675;    2,094;    1,591
812,075;   14,221;   -0,633;   -1,409
812,640;   49,039;    2,003;    1,409
813,204;   27,676;    0,822;   -0,227
813,769;   25,676;    2,094;   -0,045
814,334;   29,312;    0,458;    0,864
814,898;   12,222;    0,367;    0,591
815,463;   13,677;    1,276;   -0,773
816,027;    6,131;   -0,724;   -2,318
816,592;    4,313;    0,640;   -2,045
817,156;   23,859;    2,094;    1,136
817,721;   41,132;    4,276;    2,318
818,285;   14,860;    2,912;    1,500
818,849;   17,042;   -1,451;    1,682
819,414;    9,587;   -0,269;    2,955
819,978;    6,133;   -1,269;    1,773
820,542;   23,860;    2,003;    0,500
821,106;   10,770;   -0,815;    0,682
821,670;   41,316;   -0,815;    2,591
822,234;   17,770;   -0,270;    1,409
822,798;    9,771;    0,003;    0,500
823,362;   23,771;   -0,633;    4,227
823,926;   16,135;    0,094;    1,136
824,490;   28,589;   -0,997;   -0,682
825,054;   13,590;   -0,088;   -1,136
825,618;   10,044;   -1,542;   -1,500
826,181;   13,954;    0,458;   -1,318
826,745;   25,499;    1,367;   -1,045
827,309;   70,682;    1,185;    1,318
827,872;   35,773;    1,367;    0,955
828,436;   19,773;    1,185;   -0,773
828,999;   13,046;   -0,997;    1,227
829,563;    7,682;   -0,179;    1,136
830,126;   12,501;   -0,179;   -0,591
830,690;   24,774;   -1,997;    2,864
831,253;   12,047;   -0,543;    2,227
831,816;   17,593;   -1,906;    0,500
832,380;   15,047;    0,185;    0,864
832,943;    9,411;   -1,361;   -0,500
833,506;    4,230;    2,639;   -1,227
834,069;   25,412;    3,912;   -0,955
834,632;   13,230;    1,730;    1,318
835,195;   11,776;    1,003;    0,955
835,758;   10,958;   -0,997;    1,955
836,321;   15,322;    0,730;   -1,045
836,884;   13,231;   -0,725;   -0,955
837,447;    6,231;   -2,816;    1,773
838,010;   20,050;    0,366;    3,227
838,573;   15,414;   -1,179;    0,773
839,135;    6,141;   -1,361;   -0,955
839,698;   12,414;    1,275;    0,409
840,261;    9,869;    1,003;   -0,227
840,823;    8,415;   -0,543;    0,864
841,386;   10,233;   -0,452;   -2,409
841,948;   31,688;   -1,361;    1,773
842,511;   12,052;    0,912;    1,682
843,073;   18,234;    1,912;    0,227
843,636;    9,052;   -0,361;   -0,227
844,198;   19,689;    0,911;    0,591
844,760;   14,325;    1,093;    1,955
845,322;    2,598;    0,548;    1,136
845,885;   19,962;    0,730;    0,591
846,447;   12,599;   -1,998;    0,227
847,009;   56,235;    1,911;   -0,682
847,571;   20,327;    0,820;   -2,045
848,133;   12,690;   -1,089;   -1,864
848,695;    4,236;   -0,543;    1,409
849,257;    7,509;   -1,089;   -1,682
849,819;   15,964;   -0,998;   -0,409
850,381;    8,873;   -0,725;   -0,864
850,942;    5,419;    1,093;   -0,591
851,504;   15,965;    1,184;    0,227
852,066;    8,510;    1,275;   -1,591
852,628;   10,147;   -0,180;    1,955
853,189;    7,420;    1,638;    2,682
853,751;    6,875;   -0,907;    1,409
854,312;    5,693;   -0,453;   -1,682
854,874;   14,421;   -2,089;   -0,773
855,435;   10,330;   -0,907;   -1,682
855,997;   13,421;   -1,816;   -0,136
856,558;   22,876;    0,366;    1,773
857,119;   11,240;    0,820;    2,864
857,681;    3,149;    0,002;    0,318
858,242;   36,149;    1,911;   -2,136
858,803;   20,695;    0,456;   -0,773
859,364;   14,695;    0,184;   -4,773
859,925;   15,059;   -2,453;   -0,955
860,486;    7,696;   -0,453;   -0,955
861,047;    6,150;   -0,544;   -1,227
861,608;    5,969;   -1,089;   -0,773
862,169;    1,333;    0,638;   -0,045
862,730;    6,060;    0,456;    1,409
863,291;   11,606;   -0,635;   -0,500
863,852;   10,970;   -0,635;    1,955
864,412;   12,061;   -0,271;   -0,864
864,973;   38,334;   -0,089;    0,500
865,534;   33,425;   -1,726;    0,227
866,094;   15,425;    1,820;    0,227
866,655;   43,335;    1,274;    3,318
867,215;   16,608;    0,274;    0,136
867,776;    4,699;    0,547;   -0,136
868,336;   12,335;   -1,453;    0,136
868,897;   53,517;    2,638;    1,682
869,457;   26,063;    1,365;    0,318
870,017;    8,245;    0,547;   -1,227
870,578;    7,700;   -0,817;    0,773
871,138;   11,882;   -2,089;   -0,955
871,698;    7,064;   -0,817;   -1,318
872,258;   14,519;   -0,453;   -2,864
872,818;   24,155;    2,729;    0,045
873,378;   15,156;    0,638;    1,045
873,938;   11,883;    0,547;    0,500
874,498;    8,429;    0,274;   -1,955
875,058;   17,156;    2,183;    1,773
875,618;   15,520;    1,910;   -2,682
876,177;   19,884;    1,274;    0,136
876,737;    6,430;   -0,090;    1,955
877,297;   42,794;    0,183;    1,955
877,856;   28,703;   -0,362;    0,318
878,416;    9,431;    1,183;   -0,136
878,976;    7,158;   -1,817;    0,409
879,535;    8,522;    0,092;    3,136
880,095;    7,431;   -0,544;    0,045
880,654;    4,613;   -1,090;    1,318
881,213;   32,614;    2,456;    1,500
881,773;   14,705;    2,637;    2,682
882,332;   78,432;    3,365;    5,136
882,891;   23,887;    3,092;    2,136
883,451;   14,524;   -1,272;    1,682
884,010;   13,160;   -2,908;   -0,409
884,569;    7,070;   -0,999;   -0,045
885,128;   17,524;    2,819;   -1,864
885,687;   40,343;    4,455;    0,682
886,246;   64,252;    1,455;    2,136
886,805;   42,434;    2,455;    2,045
887,364;   11,798;   -0,999;   -0,500
887,922;    4,707;   -1,181;    0,045
888,481;   25,889;   -1,545;    0,591
889,040;   23,981;    1,183;    2,136
889,599;   16,526;    2,455;    1,409
890,157;   16,799;    1,455;    2,409
890,716;    6,709;   -0,090;    0,227
891,274;   17,709;    0,092;   -1,136
891,833;   25,800;    1,546;    0,864
892,391;    9,527;   -0,454;    0,500
892,950;   13,891;    1,819;   -0,773
893,508;    7,892;    0,455;   -0,409
894,067;    3,528;    0,637;    0,136
894,625;    5,074;   -0,636;   -1,500
895,183;    7,620;   -0,363;   -0,682
895,741;   34,983;    1,728;   -1,773
896,299;   16,529;   -0,545;   -2,409
896,858;    7,166;    0,819;   -1,591
897,416;   23,802;    2,728;   -1,318
897,974;   13,621;    1,819;    0,318
898,532;   81,348;    6,091;    2,682
899,089;   34,439;    2,091;   -0,682
899,647;   16,167;   -1,454;    1,318
900,205;    9,076;    1,182;    1,045
900,763;   13,531;   -0,454;    0,227
901,321;   10,622;    2,364;   -1,409
901,878;    3,350;   -1,000;   -0,773
902,436;    8,441;   -1,363;    1,318
902,994;  109,532;    4,728;    3,682
903,551;   35,714;    0,728;    0,409
904,109;   10,623;    0,182;   -1,409
904,666;    9,260;    2,455;    1,045
905,224;    4,715;    0,182;   -0,409
905,781;   15,260;    0,727;   -0,318
906,338;   11,443;   -1,363;    1,045
906,895;    5,079;    0,637;    2,045
907,453;   28,170;    1,727;    1,136
908,010;   16,352;   -0,909;    0,409
908,567;   17,171;    1,273;    0,591
909,124;    6,171;    0,364;   -1,500
909,681;    4,717;   -2,909;    0,682
910,238;    4,808;    0,636;   -1,318
910,795;    3,808;   -0,273;   -1,136
911,352;    4,081;   -2,909;   -2,682
911,909;    6,626;   -1,364;   -0,864
912,466;    6,990;   -3,182;    1,500
913,022;   14,444;   -1,636;    0,500
913,579;   25,263;   -0,909;    2,045
914,136;   11,354;    1,636;    0,955
914,692;    8,172;    0,091;   -1,227
915,249;   13,626;    1,455;    0,409
915,806;   17,717;    0,182;    1,955
916,362;    6,990;    1,909;    1,864
916,918;    9,808;    2,000;    1,045
917,475;   12,354;   -1,182;    0,955
918,031;    5,081;    3,364;   -0,045
918,587;   11,717;   -0,909;   -0,318
919,144;    6,990;   -2,273;    0,227
919,700;    3,990;    1,727;    0,773
920,256;    4,899;    0,727;    0,045
920,812;    7,172;   -0,727;   -1,045
921,368;    6,081;   -1,727;   -1,045
921,924;    5,808;    0,182;   -0,136
922,480;   10,808;   -0,545;    1,227
923,036;   13,263;    1,273;    1,955
923,592;    7,899;    0,455;    0,318
924,148;    7,535;    0,455;   -0,955
924,704;   11,444;   -1,364;   -0,409
925,259;    4,990;   -0,273;    0,591
925,815;    6,263;    1,455;    0,500
926,371;    4,808;    2,909;    1,409
926,926;   16,444;    2,091;    0,591
927,482;   12,717;   -1,364;    0,773
928,037;    9,899;    0,909;    2,045
928,593;   29,263;    1,636;    1,045
929,148;   11,990;   -1,818;   -1,500
929,704;   12,263;   -1,455;   -0,500
930,259;    8,081;    0,091;   -0,136
930,814;   18,535;   -0,818;    1,955
931,369;   12,354;    1,091;   -0,773
931,925;    6,263;   -0,091;    0,136
932,480;   10,535;   -2,818;   -2,591
933,035;   38,626;    0,545;   -0,318
933,590;   28,172;    0,364;   -1,773
934,145;    7,263;   -1,364;   -0,318
934,700;    3,626;    0,455;   -0,591
935,255;    5,808;   -0,091;    0,045
935,809;   42,354;    3,182;    0,864
936,364;   12,444;   -0,455;   -0,136
936,919;    7,081;    0,455;   -1,773
937,474;    1,626;    1,455;    0,136
938,028;    3,081;   -1,636;    1,136
938,583;   48,444;    1,818;    4,682
939,138;   14,899;    2,091;    2,136
939,692;    2,626;    1,636;   -1,136
940,247;    2,444;   -0,727;   -1,045
940,801;    2,808;   -0,636;    0,227
941,355;    4,081;   -0,364;    2,591
941,910;    2,535;   -0,273;   -2,136
942,464;    5,717;   -0,818;   -0,318
943,018;   10,081;    1,000;   -0,227
943,572;    5,808;    2,545;   -0,682
944,126;   13,263;    0,091;   -0,409
944,681;    4,899;    3,091;    0,227
945,235;    1,444;    1,000;   -0,591
945,789;   -1,101;    0,364;   -1,864
946,342;   12,444;    0,455;   -0,591
946,896;    3,717;   -2,273;    0,955
947,450;    1,626;    1,545;   -0,227
948,004;   15,263;    1,727;   -0,045
948,558;    4,990;    0,273;   -0,864
949,111;    5,444;   -0,273;   -0,318
949,665;   13,081;    1,636;   -0,682
950,219;   13,263;   -0,091;   -1,045
950,772;    8,172;   -1,909;    1,864
951,326;    5,899;    0,545;   -0,955
951,879;    4,354;    0,727;   -2,318
952,433;   12,354;    0,000;    2,227
952,986;    4,899;    2,909;    0,682
953,539;    4,354;   -0,273;    0,591
954,093;    0,535;    0,545;   -1,318
954,646;    3,444;    0,909;    1,318
955,199;    0,172;    0,000;   -0,500
955,752;   18,899;   -0,455;    1,773
956,305;    9,808;   -0,091;    2,955
956,858;   10,172;    0,818;   -0,318
957,411;   11,808;   -0,545;    2,136
957,964;   10,626;    1,364;    2,136
958,517;    3,808;   -1,545;    3,136
959,070;    1,990;   -0,455;    1,955
959,623;   17,808;    1,091;    1,500
960,176;   12,172;    1,727;    2,045
960,728;    6,172;   -2,727;    0,773
961,281;    6,899;    0,545;    0,500
961,834;    2,717;   -0,909;    0,864
962,386;    4,354;    1,727;    1,045
962,939;    2,899;    0,364;   -0,318
963,491;    7,717;    0,455;    1,136
964,043;    4,990;    1,182;    2,409
964,596;   10,899;   -1,000;    2,227
965,148;    5,626;   -1,000;    1,773
965,700;    3,717;    1,091;   -0,227
966,253;   13,172;   -0,636;    0,318
966,805;   11,354;   -2,273;    0,773
967,357;    6,444;    1,091;   -1,500
967,909;    9,354;    0,455;   -1,227
968,461;    6,535;    0,545;    3,136
969,013;    4,263;   -0,182;   -0,864
969,565;   15,717;   -0,455;   -1,136
970,117;   27,354;   -0,364;    1,045
970,669;   15,899;    0,182;   -0,136
971,220;    5,535;   -0,455;   -1,500
971,772;    8,444;   -0,636;   -0,318
972,324;   11,899;    0,091;   -0,500
972,876;    6,263;    0,818;   -0,045
973,427;    9,626;    1,909;   -1,045
973,979;   11,717;   -0,727;   -2,500
974,530;    6,535;    1,818;    1,318
975,082;   12,444;   -0,545;    1,682
975,633;    5,263;    1,091;    1,682
976,184;    6,081;    0,909;    0,773
976,736;    5,717;    0,091;    0,227
977,287;   10,263;   -0,909;   -0,500
977,838;    6,626;    0,909;   -0,318
978,389;    4,444;   -1,000;   -0,500
978,940;    3,263;    0,545;   -0,409
979,491;    4,626;    0,091;   -0,500
980,042;    3,990;    0,182;    3,045
980,593;    9,444;   -2,545;    0,227
981,144;    9,535;    2,545;   -0,500
981,695;    6,263;    1,455;    1,500
982,246;    5,263;   -0,273;    1,045
982,797;    5,444;   -1,727;    0,682
983,347;    8,899;    0,364;    0,591
983,898;   25,263;    3,091;    0,409
984,449;   25,172;    2,182;    0,773
984,999;   10,899;    1,455;   -1,136
985,550;    7,172;    0,182;   -0,318
986,100;    2,899;   -0,455;   -0,318
986,651;    1,717;   -0,818;    0,045
987,201;    5,354;   -1,000;   -0,591
987,751;    3,626;    0,818;    2,864
988,302;    3,808;    2,636;    1,500
988,852;    7,899;    0,455;   -1,136
989,402;   10,717;    0,091;    0,682
989,952;   12,717;   -2,182;    0,864
990,502;    6,717;   -0,091;    0,682
991,052;    4,263;   -0,727;    0,045
991,602;    4,535;   -2,909;    1,318
992,152;    6,354;    0,455;    0,682
992,702;    6,717;    1,364;   -0,045
993,252;    5,081;   -3,000;   -0,500
993,802;    8,354;   -0,273;    1,318
994,352;    3,899;   -1,545;    1,136
994,901;    2,081;   -0,182;    3,227
995,451;    4,172;   -0,182;    0,318
996,000;    3,354;    1,636;    0,318
996,550;    4,808;    2,273;    0,227
997,100;    4,717;    1,273;   -0,045
997,649;    9,535;    2,182;    0,955
998,198;    4,808;    1,727;   -1,500
998,748;    5,354;    1,091;   -2,318
999,297;    4,444;   -0,818;   -0,409
999,846;    4,990;    1,000;   -0,773
1000,395;    4,263;   -0,818;    0,500
1000,945;    5,535;    1,818;   -0,773
1001,494;    7,172;    2,364;    0,682
1002,043;   11,172;    4,636;    0,864
1002,592;    5,172;   -1,091;    1,955
1003,141;    2,444;   -0,455;   -0,682
1003,690;   10,808;    1,727;    0,500
1004,238;    5,626;    1,455;   -0,045
1004,787;    2,535;    1,364;    1,227
1005,336;    8,263;    0,364;    0,682
1005,885;    6,444;    1,364;   -2,773
1006,433;    5,444;    0,545;    0,955
1006,982;    7,172;    0,455;    1,682
1007,531;    6,626;   -1,818;   -0,227
1008,079;    3,990;   -2,273;    0,500
1008,627;    1,899;   -1,455;    0,409
1009,176;    3,808;    0,000;   -1,955
1009,724;    1,990;    1,091;    0,864
1010,273;    5,990;    1,273;    0,500
1010,821;    5,081;    0,091;    1,409
1011,369;    1,808;   -1,364;    1,318
1011,917;    2,535;   -1,364;   -0,591
1012,465;    4,717;    1,273;   -1,591
1013,013;    4,081;    2,091;   -1,682
1013,561;   10,263;    0,455;   -0,773
1014,109;    9,899;   -1,909;    1,682
1014,657;    2,354;    0,364;    0,591
1015,205;    1,899;    1,636;   -0,955
1015,753;    2,626;   -0,545;   -1,409
1016,301;    2,626;   -2,636;    3,045
1016,848;    7,626;   -1,273;    0,409
1017,396;    5,899;    2,545;    0,045
1017,944;    2,626;    1,182;    1,864
1018,491;    3,263;    0,273;    1,409
1019,039;    7,263;    0,455;    0,591
1019,586;    3,717;   -1,364;    1,682
1020,134;    4,354;    0,455;    1,500
1020,681;    8,444;    0,182;   -1,136
1021,228;    4,172;    2,909;   -2,227
1021,776;    5,535;    1,182;   -1,136
1022,323;   14,081;    0,455;    0,773
1022,870;    8,172;   -1,000;   -0,045
1023,417;    8,444;    2,636;    1,864
1023,964;    4,717;    2,636;    1,227
1024,511;    2,899;    1,000;    0,773
1025,058;    5,717;    3,182;   -0,045
1025,605;    3,535;   -2,273;    3,136
1026,152;   10,354;    1,727;   -0,591
1026,699;    5,081;    1,818;    1,318
1027,245;    6,081;   -0,091;    0,318
1027,792;    3,626;   -1,000;    1,409
1028,339;   11,626;    2,364;   -0,045
1028,885;    7,535;    1,000;   -0,227
1029,432;    5,263;   -0,091;    0,227
1029,978;    5,172;   -1,000;   -1,591
1030,525;    8,263;    1,000;    0,409
1031,071;    3,717;   -1,364;    1,136
1031,618;   14,081;    0,364;    1,682
1032,164;    7,808;   -0,091;    3,045
1032,710;    9,535;    1,636;   -1,500
1033,256;    6,808;   -0,636;   -0,136
1033,803;    1,172;   -0,545;    1,500
1034,349;    1,444;   -1,364;    0,136
1034,895;    2,354;    0,000;   -0,318
1035,441;    3,354;   -0,818;    0,318
1035,987;    3,626;   -2,364;   -0,682
1036,533;    4,172;   -1,455;   -0,955
1037,078;   20,535;    1,455;    1,682
1037,624;    9,444;    2,455;   -0,955
1038,170;    2,263;    0,455;   -0,318
1038,716;    6,081;    1,636;   -0,409
1039,261;    3,444;   -2,273;   -0,773
1039,807;    2,444;   -0,091;    3,409
1040,352;    5,081;   -1,909;   -0,318
1040,898;    3,081;   -1,545;   -0,682
1041,443;    1,263;   -1,455;   -2,591
1041,989;   15,444;    1,091;    1,591
1042,534;    7,354;   -0,364;    2,591
1043,079;    2,263;    2,909;    0,955
1043,625;    3,444;    1,818;    0,500
1044,170;    3,535;   -1,364;    1,045
1044,715;   10,444;    2,455;    0,955
1045,260;    8,808;    2,182;   -0,955
1045,805;    3,263;    1,182;   -0,591
1046,350;    0,899;    1,364;   -0,409
1046,895;    7,444;    2,909;    1,591
1047,440;    4,808;    5,364;    0,409
1047,985;    2,717;    2,818;   -0,955
1048,530;    0,899;    1,545;    1,227
1049,074;    5,172;    0,000;    0,318
1049,619;    0,990;   -1,364;    1,955
1050,164;    3,354;    0,455;    0,227
1050,708;    5,717;   -0,455;    0,045
1051,253;   16,263;    1,273;   -2,227
1051,797;    8,899;    0,818;   -1,318
1052,342;    1,990;   -1,182;    1,045
1052,886;    2,081;    0,364;   -1,409
1053,430;    1,081;   -1,364;    0,136
1053,975;    5,081;   -0,818;   -0,318
1054,519;    4,899;   -0,727;    3,227
1055,063;    4,172;    0,909;    1,318
1055,607;    4,899;   -0,182;    0,227
1056,151;    4,626;    2,909;    1,682
1056,695;    1,263;    2,273;   -1,136
1057,239;    1,899;   -1,727;   -0,682
1057,783;    4,081;    0,818;   -1,500
1058,327;    9,717;    0,000;    1,409
1058,871;   13,354;   -0,545;    1,318
1059,415;    5,717;   -0,818;   -0,045
1059,958;    6,626;    1,455;    2,591
1060,502;    2,354;   -1,000;   -0,773
1061,046;    2,626;    0,364;   -0,955
1061,589;    1,172;   -3,000;   -1,136
1062,133;    3,535;   -1,273;    1,864
1062,676;    1,263;    1,182;    0,864
1063,220;    0,808;    1,091;    0,500
1063,763;    3,626;    0,909;    1,136
1064,306;   -0,646;   -0,909;    1,864
1064,849;    3,808;   -0,909;    0,591
1065,393;    5,990;    2,000;   -1,500
1065,936;    2,354;    0,182;   -0,409
1066,479;   -2,465;   -1,455;    1,318
1067,022;   -0,101;   -0,273;   -0,227
1067,565;    1,899;   -0,091;   -1,318
1068,108;    2,626;    0,727;   -0,591
1068,651;   -0,374;   -0,636;    1,409
1069,194;    0,535;   -0,455;   -1,682
1069,736;    2,444;   -1,273;    0,955
1070,279;    1,535;   -1,364;   -0,500
1070,822;    2,626;   -2,000;   -0,318
1071,364;    8,172;   -0,364;    1,318
1071,907;    3,899;   -0,727;    3,227
1072,450;    0,990;    0,000;   -0,045
1072,992;    1,717;   -0,273;    3,136
1073,535;    2,263;    2,091;    2,136
1074,077;    6,172;   -0,727;    2,045
1074,619;    0,354;   -1,364;    0,591
1075,161;    0,808;   -1,091;    1,500
1075,704;    5,444;    1,545;    1,227
1076,246;    0,535;   -0,182;    0,682
1076,788;    0,808;   -0,364;    1,773
1077,330;    4,172;    1,273;    2,136
1077,872;    3,172;    0,909;    0,955
1078,414;    5,899;    2,727;    0,773
1078,956;    2,263;    1,273;   -0,227
1079,498;    5,626;    1,636;    0,318
1080,040;    4,808;    1,909;   -1,318
1080,581;    1,990;    1,636;   -0,318
1081,123;    2,081;    0,091;   -0,773
1081,665;    1,808;   -1,182;   -0,955
1082,206;    3,444;    1,364;   -0,500
1082,748;   -0,374;    0,727;    2,045
1083,289;    0,444;   -2,000;    1,318
1083,831;    0,172;   -0,545;    0,227
1084,372;    1,172;    0,000;    0,591
1084,913;    0,717;    1,091;    0,864
1085,455;    1,354;   -1,909;   -2,045
1085,996;   -0,192;   -2,273;    0,136
1086,537;    2,081;   -0,091;    0,864
1087,078;    1,626;   -0,909;   -2,136
1087,619;    3,990;   -1,273;    0,227
1088,160;    1,444;    0,000;    1,318
1088,701;    0,626;   -1,091;    0,682
1089,242;    1,990;    1,364;   -2,227
1089,783;    2,172;   -0,273;    1,409
1090,324;   -0,465;    0,455;    0,682
1090,865;    0,444;    2,727;   -0,409
1091,405;   -0,374;    0,727;    2,227
1091,946;    0,808;    0,182;   -0,955
1092,487;    0,354;    0,818;   -1,409
1093,027;    2,263;   -1,364;   -1,500
1093,568;    0,535;   -0,364;    1,227
1094,108;    2,899;    0,273;    1,773
1094,649;    0,263;   -1,182;    0,136
1095,189;   -1,374;   -0,636;   -0,682
1095,729;    1,081;   -0,091;    0,955
1096,269;    0,081;    0,727;   -0,955
1096,810;    2,535;   -1,364;    0,500
1097,350;   -0,374;    1,364;   -0,773
1097,890;    1,626;    0,364;    1,227
1098,430;    7,808;    2,364;    2,864
1098,970;    3,990;    2,182;    1,682
1099,510;    3,354;    0,545;   -2,318
1100,050;    1,444;    1,000;   -1,591
1100,589;    1,081;   -0,727;   -0,318
1101,129;    3,899;    0,818;   -0,955
1101,669;    4,444;    1,727;    2,136
1102,209;    2,444;   -0,091;    2,227
1102,748;    1,899;    0,000;    0,955
1103,288;    0,535;    1,273;   -1,227
1103,827;    0,899;    3,091;   -2,227
1104,367;    0,444;   -0,091;   -2,409
1104,906;    0,626;    1,364;   -1,136
1105,445;    2,354;    0,636;   -1,136
1105,985;    2,535;   -0,727;    1,500
1106,524;    2,535;   -1,727;   -0,682
1107,063;    1,535;   -2,727;    1,409
1107,602;    2,535;   -1,909;   -1,500
1108,141;    2,444;   -1,909;    1,500
1108,680;    3,263;   -3,455;   -0,591
1109,219;    1,081;   -0,909;   -0,500
1109,758;    0,444;    0,455;    0,682
1110,297;   -0,465;    1,000;   -0,682
1110,836;    3,172;   -0,727;    0,955
1111,375;    0,263;   -2,545;    0,409
1111,913;    2,354;   -1,000;    0,773
1112,452;    1,081;   -0,273;    0,136
1112,991;    0,808;    1,091;    1,955
1113,529;    0,444;   -0,818;   -0,045
1114,068;    3,444;   -0,273;    2,955
1114,606;    3,717;   -0,364;   -0,955
1115,144;    2,990;   -1,273;    1,045
1115,683;    3,354;   -0,727;    0,318
1116,221;    4,172;   -0,455;   -0,864
1116,759;    1,172;    0,636;   -0,864
1117,297;    3,172;    0,000;    1,864
1117,836;   -0,010;   -2,182;   -1,227
1118,374;    0,899;    0,182;   -0,682
1118,912;    2,626;    0,909;    2,682
1119,450;    0,263;    1,000;    0,864
1119,988;   -1,283;    1,545;    2,136
1120,525;   10,444;    5,091;    3,318
1121,063;    2,263;    1,182;    1,864
1121,601;   -0,646;   -0,909;   -1,227
1122,139;   -0,556;   -0,727;   -2,045
1122,676;    3,263;   -0,727;    2,773
1123,214;    2,808;   -1,182;    4,409
1123,751;   -1,283;    1,727;    2,227
1124,289;   -0,646;   -0,091;   -0,409
1124,826;    2,263;    1,727;    0,227
1125,364;    0,535;    1,727;   -0,955
1125,901;    9,444;    1,182;    1,227
1126,438;    3,263;    0,818;    0,955
1126,975;    2,172;   -0,727;   -0,773
1127,513;    1,263;    0,273;    2,136
1128,050;   -0,465;    1,636;   -0,682
1128,587;    0,808;    2,000;   -0,227
1129,124;    1,444;    0,091;    1,318
1129,661;    0,990;    0,273;    0,227
1130,198;    0,263;    1,636;    0,773
1130,734;    0,172;    0,182;    1,409
1131,271;    0,717;   -0,909;    0,864
1131,808;    1,354;    2,909;    3,045
1132,345;   -1,374;    1,545;    0,318
1132,881;   -0,737;   -1,545;   -1,864
1133,418;    0,990;    0,727;   -1,136
1133,954;   -2,828;    2,455;   -2,682
1134,491;    0,808;    1,364;   -0,773
1135,027;    1,354;    2,364;    0,864
1135,564;    0,354;    0,273;    2,955
1136,100;    1,263;    0,364;    2,136
1136,636;    1,263;   -1,273;   -1,045
1137,172;   -1,374;    0,000;   -1,045
1137,708;    0,263;   -1,364;   -1,045
1138,245;    0,899;    1,273;   -1,227
1138,781;    1,444;    1,091;   -3,318
1139,317;    1,899;    1,273;   -1,409
1139,852;    1,172;    3,091;    0,136
1140,388;    1,808;   -1,182;   -0,409
1140,924;    0,172;   -1,091;   -2,227
1141,460;    0,354;   -1,636;    0,136
1141,996;   -1,828;   -1,364;    2,682
1142,531;    1,444;    1,364;    3,318
1143,067;    2,990;    1,182;    1,045
1143,602;    4,354;   -0,091;   -0,318
1144,138;    2,263;   -2,636;    1,045
1144,673;    0,990;   -1,455;    1,409
1145,209;   -0,556;   -1,909;   -0,318
1145,744;   -0,556;   -0,727;    0,864
1146,279;    3,081;    1,818;   -0,136
1146,815;    1,444;    1,545;   -2,682
1147,350;    2,444;   -1,364;    0,045
1147,885;    0,081;   -0,818;   -1,318
1148,420;   -0,283;   -2,273;    0,773
1148,955;   -0,192;   -1,727;    1,864
1149,490;   -0,646;   -0,909;   -1,591
1150,025;   -0,374;    0,455;   -1,773
1150,560;    1,081;    1,091;   -0,955
1151,094;    1,444;    1,455;   -0,591
1151,629;    0,990;    1,636;    0,864
1152,164;   -0,556;    1,364;    1,318
1152,698;    0,172;   -0,182;   -0,136
1153,233;    1,081;    0,091;   -0,682
1153,767;    1,899;   -3,000;   -2,318
1154,302;    2,990;   -1,455;    1,773
1154,836;    0,535;   -0,455;   -2,136
1155,371;   -0,010;   -1,364;    3,682
1155,905;    0,354;   -0,636;    1,682
1156,439;   -1,828;   -0,636;   -0,500
1156,973;    0,808;    0,364;    0,318
1157,507;    1,535;   -0,364;    0,682
1158,042;    0,626;   -0,727;    1,045
1158,576;   -1,919;    0,182;    1,773
1159,110;    1,172;   -0,818;    2,409
1159,643;    0,263;    0,636;   -0,045
1160,177;   -0,192;   -1,545;    1,500

