
Integration time [ms]:   0,040
Averaging Nr. [scans]: 11
Smoothing Nr. [pixels]: 0
Data measured with spectrometer [name]: 7318044SP
Wave   ;Sample   ;Dark     ;Reference
[nm]   ;[counts] ;[counts] ;[counts] 

186,757;   41,118;   31,551;    1,318
187,357;   38,248;   22,551;    0,955
187,958;   24,826;   15,460;   -1,591
188,558;   38,555;    8,915;   -1,227
189,159;   23,002;    6,733;   -4,500
189,759;   11,354;    7,278;   -3,591
190,360;   13,792;    2,824;   -2,136
190,960;   24,215;    2,915;   -4,136
191,560;   29,904;    3,189;   -6,591
192,161;  133,482;    4,372;   -3,500
192,761;   72,162;    4,010;   -3,227
193,361;   47,998;    1,556;   -3,773
193,962;   63,056;    2,010;   -2,682
194,562;   25,032;    1,189;   -3,955
195,162;   19,873;   -2,448;   -2,227
195,762;   73,393;   -3,176;   -0,045
196,362;   48,408;    1,370;   -2,500
196,963;   14,287;    2,006;   -0,864
197,563;   30,746;    1,551;   -0,955
198,163;   10,329;    0,096;   -0,682
198,763;   12,637;    1,733;   -0,500
199,363;   29,206;    3,096;   -0,500
199,963;   19,487;    0,369;    0,409
200,563;   18,240;    2,823;   -1,409
201,163;   11,383;    3,277;   -0,227
201,763;   22,521;    3,732;    0,318
202,363;   10,597;    1,459;    1,500
202,963;   21,834;    1,459;    1,045
203,563;   44,195;    0,277;    0,500
204,162;   16,230;    2,096;   -1,864
204,762;   14,244;    0,550;    0,591
205,362;    5,364;    3,004;    1,955
205,962;   15,283;    3,096;    1,955
206,562;   17,561;    1,823;    2,318
207,161;    8,246;   -0,087;    0,318
207,761;   42,837;    1,277;    2,409
208,361;   18,975;   -0,268;    1,409
208,960;   21,341;    0,459;    1,500
209,560;   11,088;    1,277;    1,591
210,160;   25,965;    0,550;    1,864
210,759;   14,972;    4,186;    1,227
211,359;    8,856;    1,459;    1,045
211,958;   53,355;    1,277;    2,045
212,558;   48,485;    1,732;    1,864
213,157;   21,780;    1,822;    1,500
213,757;   82,091;    3,822;   -0,227
214,356;   36,044;    1,277;   -0,409
214,956;   69,969;    3,095;    0,409
215,555;   26,498;    2,095;    2,136
216,154;    9,774;   -2,723;   -0,591
216,754;   10,847;    0,277;    0,773
217,353;   17,296;   -0,268;   -1,045
217,952;   -0,321;   -0,178;    0,318
218,552;   21,052;    1,368;   -0,773
219,151;   10,887;    0,277;    0,955
219,750;    4,696;    0,004;   -0,227
220,349;    3,911;   -0,451;    1,045
220,948;   28,488;   -1,360;    1,136
221,548;   11,726;    0,913;    1,227
222,147;    6,049;   -0,087;   -0,409
222,746;   32,371;   -0,451;   -0,955
223,345;   13,869;    0,731;    0,500
223,944;   16,518;   -0,451;    0,773
224,543;   16,949;    1,004;   -1,409
225,142;   12,224;    0,094;    0,136
225,741;   17,395;   -0,814;    1,045
226,340;   15,623;   -0,451;   -0,955
226,939;   29,668;   -0,996;   -0,136
227,538;   11,371;   -0,360;   -0,773
228,137;   34,686;   -0,814;    0,864
228,735;   23,404;   -0,541;    1,227
229,334;    3,387;   -0,905;   -0,227
229,933;   35,046;    0,459;    0,591
230,532;   27,487;    1,186;   -0,409
231,131;   51,238;    1,732;    0,318
231,729;   22,093;   -2,450;   -2,318
232,328;    9,428;   -0,723;   -1,500
232,927;   12,364;    1,004;   -0,500
233,525;   12,644;    3,640;    0,045
234,124;   17,120;    2,368;   -1,591
234,723;   11,554;    0,913;   -1,045
235,321;    4,328;    2,277;    0,136
235,920;    7,648;    1,186;   -1,227
236,518;   34,058;    3,459;    0,318
237,117;   12,550;    0,004;   -0,227
237,715;   17,393;    0,640;   -0,500
238,314;   13,240;   -0,087;   -2,318
238,912;   32,698;   -0,723;   -1,409
239,510;   23,026;    0,459;   -1,227
240,109;   42,115;    0,004;    3,773
240,707;   31,428;   -0,996;    1,227
241,305;    9,402;    0,550;    0,136
241,904;   17,311;   -0,178;   -2,045
242,502;   48,428;   -0,632;   -0,227
243,100;   24,102;   -0,087;   -0,955
243,698;    7,308;    0,732;    1,682
244,297;   13,577;   -0,632;    0,682
244,895;   13,583;   -0,269;   -2,318
245,493;   34,668;    2,186;   -0,591
246,091;   42,539;    1,368;   -1,318
246,689;   23,621;    1,004;    0,591
247,287;   22,427;    0,822;   -1,136
247,885;   14,603;   -1,451;    1,227
248,483;   12,507;    1,822;   -0,500
249,081;   18,676;    0,185;    1,591
249,679;   22,371;   -0,178;    1,682
250,277;    8,723;   -1,723;    0,864
250,875;   23,202;   -1,087;   -1,045
251,473;    8,198;   -1,178;    0,500
252,071;   33,234;    1,459;    1,045
252,669;   15,336;   -1,814;    0,318
253,267;    9,362;   -0,087;    0,773
253,864;   16,518;   -0,360;    0,682
254,462;   37,940;    1,640;    1,591
255,060;   10,805;   -0,269;    1,318
255,658;   10,609;    0,822;   -0,136
256,255;   18,237;    0,186;   -2,045
256,853;   31,421;   -0,269;    1,409
257,451;   14,559;    0,822;    1,864
258,048;  109,788;    1,822;    1,864
258,646;   50,477;    1,731;   -1,045
259,243;   68,966;   -0,087;    2,227
259,841;   46,524;   -0,814;    0,318
260,438;   19,518;   -0,087;    0,864
261,036;   42,407;   -1,905;    1,409
261,633;   20,717;   -0,087;    2,227
262,231;   12,404;    2,731;   -0,045
262,828;   10,618;   -0,905;    1,136
263,425;   19,680;    0,913;   -0,591
264,023;   18,351;    0,186;    0,045
264,620;   56,732;   -0,360;   -0,318
265,217;   82,527;   -2,087;    3,136
265,815;   29,385;   -1,905;    2,136
266,412;   53,453;    0,731;    0,136
267,009;   50,732;   -1,451;    0,773
267,606;   74,568;    0,822;   -0,955
268,203;   37,900;   -0,269;   -0,591
268,801;   38,967;    1,731;    0,591
269,398;   26,268;   -0,360;    2,500
269,995;   60,618;    0,277;    1,591
270,592;   46,844;   -0,632;   -0,500
271,189;   23,089;    0,186;    0,409
271,786;   19,782;   -0,632;    1,227
272,383;   76,243;   -1,087;    0,227
272,980;   41,020;    0,277;    0,318
273,577;   31,193;    0,004;    1,227
274,174;   27,141;    0,822;    2,591
274,771;   65,154;   -0,814;   -0,773
275,367;  205,457;    2,277;    1,409
275,964;  108,841;    0,731;   -0,500
276,561;   45,726;    1,549;   -1,045
277,158;   19,552;    0,095;   -1,773
277,755;   96,676;    2,185;    0,409
278,351;   71,377;   -0,451;   -1,500
278,948;   76,300;   -0,815;    0,045
279,545;   60,834;   -1,360;    2,318
280,141;  103,160;   -1,723;   -2,045
280,738;  107,500;   -0,451;   -0,136
281,334;   50,814;   -1,633;    0,591
281,931;   37,555;   -0,087;   -1,318
282,528;   85,241;    0,822;   -0,500
283,124;  105,758;   -1,087;   -0,500
283,721;   99,338;   -0,451;    1,409
284,317;   56,024;    0,185;    2,500
284,913;  107,080;   -1,360;    0,591
285,510;  166,716;    0,640;   -0,318
286,106;  126,327;   -2,269;   -0,955
286,703;   80,271;   -0,360;    1,955
287,299;   58,433;   -1,451;   -0,591
287,895;   53,462;    0,822;   -1,045
288,491;   44,996;    0,186;    2,136
289,088;   88,435;   -2,360;    2,409
289,684;   98,882;   -1,723;    1,500
290,280;  176,225;    0,368;    0,682
290,876;  152,357;    1,822;    5,500
291,472;  128,283;    1,276;    2,227
292,068;  140,526;    1,367;    0,227
292,665;   96,433;    2,095;    0,773
293,261;   59,652;    0,276;    2,136
293,857;  159,753;    2,913;    2,136
294,453;  119,856;    3,550;    0,955
295,049;  247,016;   -0,268;    1,955
295,644;  162,895;    0,095;    0,136
296,240;   96,379;   -0,905;   -0,136
296,836;  162,277;   -0,995;    0,318
297,432;  240,031;    1,096;   -0,500
298,028;  271,219;    0,732;    0,773
298,624;  199,940;    1,459;    1,864
299,220;  191,403;    2,368;    0,591
299,815;  186,605;    1,005;   -0,409
300,411;  265,743;    0,914;    1,773
301,007;  336,647;    1,368;    0,227
301,602;  226,019;   -0,541;   -2,318
302,198;  336,650;    0,732;   -0,773
302,794;  232,738;    1,187;   -0,500
303,389;  180,855;   -1,177;    1,045
303,985;  223,151;    0,550;    1,409
304,580;  338,183;    1,459;    1,591
305,176;  267,104;   -3,086;    0,136
305,771;  165,458;   -1,268;   -1,227
306,367;  478,880;    4,095;    0,136
306,962;  296,837;    0,641;    1,500
307,558;  346,559;   -0,450;    0,136
308,153;  374,749;    1,095;   -1,136
308,748;  217,875;   -0,814;    1,682
309,344;  504,520;   -0,632;   -1,318
309,939;  499,989;   -1,905;   -1,318
310,534;  266,118;   -0,086;   -1,682
311,130;  239,253;    0,459;   -2,500
311,725;  209,324;    1,004;   -0,500
312,320;  244,579;    2,459;    0,045
312,915;  306,945;    1,459;   -1,045
313,510;  460,608;    1,550;   -0,500
314,105;  231,319;    1,096;    1,409
314,700;  146,752;   -3,086;   -1,045
315,295;  203,820;   -0,904;    0,045
315,890;  164,547;    1,277;    0,864
316,485;  239,796;   -0,359;   -0,318
317,080;  158,855;   -3,086;    1,591
317,675;  379,860;    2,005;   -0,682
318,270;  532,058;    5,550;    3,318
318,865;  425,685;    3,278;    3,045
319,460;  305,016;   -0,904;    0,591
320,055;  179,058;   -0,541;   -1,227
320,650;  175,557;   -1,995;   -0,591
321,244;  180,375;   -0,177;   -1,409
321,839;  170,233;   -1,541;   -0,227
322,434;  206,943;   -1,086;   -1,591
323,029;  168,377;    1,732;    1,591
323,623;  145,057;    1,550;    0,773
324,218;  285,770;    2,368;    1,409
324,812;  225,201;    1,096;    1,591
325,407;  216,289;   -0,814;    2,045
326,002;  322,940;    0,277;   -0,409
326,596;  280,817;    0,914;    1,318
327,191;  171,623;    0,823;   -1,045
327,785;  177,817;   -0,813;   -0,227
328,379;  168,990;    1,368;    0,136
328,974;  213,356;    0,914;   -3,955
329,568;  239,304;    0,186;   -2,409
330,163;  310,307;    2,096;    1,045
330,757;  185,819;    2,459;    1,591
331,351;  148,816;    0,459;    0,682
331,945;  147,729;    0,914;    1,409
332,540;  272,916;   -1,723;   -0,591
333,134;  274,379;   -1,086;    0,773
333,728;  289,277;    0,005;    0,318
334,322;  200,430;   -1,177;   -0,864
334,916;  202,018;    0,277;    0,955
335,510;  358,347;   -0,450;   -0,136
336,105;  355,805;   -1,086;    1,591
336,699;  272,488;   -1,086;    0,591
337,293;  318,634;   -1,723;    0,318
337,887;  276,946;   -2,723;    1,955
338,481;  421,456;    0,459;    0,591
339,074;  523,373;   -0,359;    2,682
339,668;  513,781;   -1,632;    1,227
340,262; 1064,482;    1,732;    3,227
340,856;  695,739;    1,822;   -0,682
341,450;  389,361;    1,004;    1,864
342,044;  456,088;    1,459;    0,136
342,637;  616,751;    0,913;   -2,136
343,231;  614,656;   -2,360;    0,682
343,825;  507,024;   -1,086;   -0,591
344,419;  493,509;   -1,995;    0,500
345,012; 1048,706;    2,459;    4,045
345,606;  857,741;    4,641;    1,591
346,199;  539,539;   -1,813;   -0,227
346,793;  689,583;    1,914;    2,045
347,386;  474,826;   -0,813;   -1,136
347,980;  374,753;   -0,268;   -0,045
348,573;  505,065;    2,278;    0,409
349,167;  820,722;    5,278;    4,773
349,760;  711,015;    2,914;    2,682
350,354;  674,606;   -0,813;    1,136
350,947;  736,611;    1,096;    1,682
351,540;  569,869;   -0,358;   -1,409
352,134;  424,382;    1,096;    1,136
352,727;  466,528;   -0,086;    1,136
353,320;  495,974;    0,005;    0,591
353,913;  415,302;   -1,995;    1,864
354,507;  656,892;    0,823;   -1,227
355,100;  517,930;    0,460;    0,864
355,693;  966,696;    2,005;    2,409
356,286;  706,373;    0,823;    2,773
356,879;  528,033;   -0,722;    1,227
357,472;  516,335;   -0,904;    1,500
358,065;  587,555;   -0,722;    2,500
358,658;  413,479;   -0,540;    2,318
359,251;  369,587;   -1,631;   -0,591
359,844;  592,711;   -1,904;   -1,136
360,437;  682,945;   -2,995;    0,045
361,030;  500,766;    1,369;   -0,682
361,623;  496,259;    2,824;    0,318
362,215;  752,077;   -0,086;    2,045
362,808;  581,857;   -2,358;   -1,682
363,401;  496,459;   -2,449;    0,136
363,994;  746,559;   -0,631;   -1,500
364,586;  493,217;    0,824;   -1,500
365,179;  430,153;   -0,449;   -1,136
365,772;  277,655;   -1,995;    2,045
366,364;  459,425;    1,915;   -3,227
366,957;  535,022;    2,279;   -0,045
367,549;  459,738;    2,188;   -0,864
368,142;  463,064;    1,825;   -1,500
368,734;  414,992;    0,734;   -2,136
369,327;  326,825;    1,643;   -0,500
369,919;  377,169;   -1,538;    0,409
370,512;  403,660;   -1,083;   -0,500
371,104;  696,358;   -0,901;    1,591
371,696;  729,466;    1,191;   -0,955
372,289;  565,638;    0,373;    1,136
372,881;  503,098;   -2,080;    1,318
373,473;  372,555;   -2,170;    1,136
374,066;  485,666;   -0,169;    0,500
374,658;  451,121;    0,378;    1,136
375,250;  368,218;    0,653;   -1,409
375,842;  430,515;    0,473;   -0,045
376,434;  386,538;   -0,435;   -0,409
377,026;  371,205;    0,204;   -2,500
377,618;  425,153;   -0,158;   -0,682
378,210;  349,992;   -0,338;   -1,955
378,802;  332,595;    0,754;   -0,591
379,394;  773,721;    1,846;    0,682
379,986;  501,041;    1,393;   -0,955
380,578;  401,974;   -0,153;    0,773
381,170;  675,010;   -0,972;    0,045
381,762;  552,868;    0,755;    1,409
382,354;  504,646;   -0,065;   -1,318
382,945;  396,817;   -2,976;    0,318
383,537;  328,524;   -2,705;   -1,955
384,129;  330,581;   -2,160;   -1,136
384,721;  458,715;   -0,252;    0,955
385,312;  381,241;   -0,161;   -0,955
385,904;  487,248;   -2,706;    1,591
386,496;  406,041;   -0,979;    1,045
387,087;  556,324;    1,022;    2,500
387,679;  497,161;   -1,160;    0,045
388,270;  475,413;    2,840;    2,045
388,862;  437,829;    1,295;   -0,318
389,453;  414,833;   -0,887;    1,045
390,045;  425,648;   -0,705;   -2,682
390,636;  300,499;    0,204;   -0,591
391,227;  379,161;   -0,523;   -0,045
391,819;  362,401;    0,204;    0,773
392,410;  656,245;    1,022;    0,045
393,001;  436,143;   -0,979;   -1,591
393,593;  513,096;    1,930;   -0,045
394,184;  568,888;    1,385;   -0,409
394,775;  422,354;    1,839;    2,136
395,366;  335,581;    1,385;    0,773
395,957;  559,174;    0,113;    0,136
396,548;  425,675;   -0,342;    2,682
397,139;  574,233;   -2,433;    0,591
397,730;  470,561;   -1,888;    0,955
398,321;  478,680;   -1,252;    0,955
398,912;  399,208;   -0,615;    0,136
399,503;  403,284;   -3,524;   -1,409
400,094;  465,791;    0,294;    1,682
400,685;  454,648;   -0,433;    0,045
401,276;  385,850;    0,930;   -0,955
401,867;  362,199;   -0,888;    0,773
402,458;  315,648;   -2,251;   -2,318
403,048;  504,533;    1,112;    0,591
403,639;  429,625;    0,840;    0,864
404,230;  565,008;    2,476;    0,318
404,821;  618,193;   -0,615;    0,045
405,411;  499,990;    1,203;   -2,591
406,002;  395,463;   -1,252;   -1,136
406,592;  657,227;    2,294;    0,045
407,183;  486,792;    0,566;   -1,500
407,774;  456,403;    3,475;   -0,136
408,364;  405,503;    0,930;    0,409
408,954;  535,324;    0,384;    1,227
409,545;  532,115;    1,021;    1,045
410,135;  475,270;    1,293;    0,500
410,726;  416,075;    1,838;    0,318
411,316;  622,120;    0,111;    0,773
411,906;  415,134;   -0,253;   -0,409
412,497;  422,631;   -1,070;   -0,045
413,087;  353,381;   -1,980;   -0,227
413,677;  271,351;   -0,707;    3,864
414,267;  258,949;    0,656;    1,409
414,857;  224,365;   -2,980;    4,227
415,448;  229,155;    0,839;    0,500
416,038;  262,839;    0,020;   -0,591
416,628;  308,779;   -0,889;    0,409
417,218;  366,808;    0,565;    3,318
417,808;  506,861;    0,202;   -0,409
418,398;  365,145;    0,020;    2,682
418,988;  235,459;    2,020;    0,591
419,578;  330,400;   -0,707;    1,409
420,168;  259,788;   -1,343;   -0,955
420,757;  410,158;   -1,343;   -1,500
421,347;  288,106;    0,111;   -0,227
421,937;  245,810;    2,292;    1,409
422,527;  374,106;    0,838;   -0,773
423,116;  507,503;   -0,253;   -0,045
423,706;  218,250;   -1,889;    0,318
424,296;  169,324;    1,384;    0,682
424,885;  280,505;   -0,071;   -3,045
425,475;  248,910;    1,474;   -2,864
426,065;  147,077;   -0,980;   -0,318
426,654;  119,897;   -0,435;   -0,318
427,244;  359,584;    0,020;    1,409
427,833;  316,705;    1,383;   -0,500
428,423;  194,343;   -0,526;    1,136
429,012;  182,671;   -0,344;   -1,136
429,601;  288,342;   -1,344;    0,136
430,191;  194,389;    1,292;    4,318
430,780;  111,721;   -0,344;   -0,409
431,369;  245,260;    0,746;   -0,045
431,959;  149,488;   -1,254;    0,500
432,548;  100,154;   -1,163;   -0,045
433,137;   58,441;   -1,254;   -1,318
433,726;  102,453;    0,292;    0,500
434,315;  119,802;   -0,526;    2,409
434,905;  184,519;   -1,254;    1,409
435,494;  165,347;    0,746;    0,955
436,083;   79,585;   -0,981;   -0,955
436,672;  143,235;    0,110;    0,500
437,261;  107,244;    0,292;   -1,955
437,850;  240,244;    1,383;    0,682
438,439;  273,565;    3,291;    1,955
439,027;  350,454;    3,655;    1,773
439,616;  262,178;    2,927;    1,227
440,205;  112,190;    0,200;   -2,136
440,794;   87,312;    2,109;   -0,045
441,383;   54,892;   -1,346;   -0,591
441,971;   42,675;   -2,436;    0,591
442,560;   41,707;    0,563;   -1,773
443,149;    0,365;    0,379;   -1,318
443,737;   12,467;   -0,074;   -2,318
444,326;   25,097;    0,018;    0,318
444,915;   39,420;   -1,982;    0,864
445,503;   43,141;   -2,891;   -0,318
446,092;  191,666;    0,382;    2,136
446,680;  144,798;    0,382;    0,318
447,269;   74,510;   -0,346;   -0,318
447,857;   67,231;    0,018;   -1,773
448,445;   48,477;    0,563;    1,318
449,034;   25,973;   -1,528;   -1,136
449,622;   28,163;   -1,073;    3,500
450,210;  125,722;    2,017;    2,227
450,799;   85,875;    0,290;   -0,591
451,387;   82,402;    1,381;   -0,591
451,975;   70,124;    2,654;    0,864
452,563;   95,327;    3,472;    2,318
453,151;   38,308;   -0,528;   -1,227
453,739;   38,211;   -1,347;    0,136
454,328;   71,457;    2,381;   -2,136
454,916;   50,146;    2,562;   -0,136
455,504;   68,290;    1,017;    1,227
456,092;   29,543;    0,017;   -1,591
456,679;   17,111;    1,472;    0,682
457,267;  182,378;    4,017;    1,045
457,855;   59,207;    1,017;    1,409
458,443;    7,691;   -0,165;    1,682
459,031;   39,377;    0,108;    2,409
459,619;   31,533;   -1,801;    2,864
460,206;    6,069;    0,835;    2,045
460,794;    6,377;   -2,983;   -0,227
461,382;   15,643;   -0,529;   -0,864
461,970;   22,273;    1,198;    1,864
462,557;    3,986;   -0,711;   -0,682
463,145;   28,432;   -3,165;   -1,682
463,732;  127,713;    2,016;   -1,045
464,320;   44,472;   -0,075;   -3,045
464,907;   85,935;    2,743;   -0,773
465,495;   45,717;    0,743;   -1,227
466,082;   26,721;   -1,984;   -0,045
466,670;   40,120;   -2,529;    1,227
467,257;    8,207;   -1,711;    2,045
467,844;   33,653;   -0,075;    0,045
468,432;   22,055;    0,834;    3,500
469,019;   16,388;    0,925;   -1,773
469,606;   53,336;    0,470;    3,682
470,193;   57,194;   -1,439;    0,227
470,780;   34,573;   -2,075;    0,864
471,368;   14,825;   -1,257;   -0,773
471,955;   47,473;    1,379;   -0,682
472,542;   37,522;    0,652;   -1,136
473,129;    7,341;   -0,166;    0,136
473,716;    6,549;    1,470;    0,591
474,303;   17,658;    0,652;   -0,864
474,890;   15,891;   -1,439;   -0,500
475,477;   58,911;   -1,621;    0,409
476,064;   23,438;    1,106;   -1,591
476,650;   71,029;    0,288;    0,318
477,237;   31,120;   -0,258;    0,955
477,824;   24,721;   -1,076;    0,864
478,411;    1,776;   -1,894;   -0,318
478,997;   -3,749;    0,560;   -0,773
479,584;  -12,489;    1,196;   -0,409
480,171;   31,133;   -0,440;   -0,773
480,757;   42,100;    2,651;    0,773
481,344;   16,057;    0,469;    0,409
481,931;   -4,690;    1,105;    1,045
482,517;   26,193;   -1,258;    0,318
483,104;   59,235;    1,106;    2,864
483,690;   14,171;   -1,804;    0,045
484,276;   10,730;   -0,895;    0,227
484,863;   84,980;    2,469;    1,136
485,449;   31,070;   -0,077;    0,318
486,035;    9,744;   -1,986;   -0,136
486,622;   37,742;   -0,895;    0,045
487,208;   18,407;    1,378;    1,500
487,794;   -2,514;    0,741;    0,318
488,380;   -3,989;    0,105;   -1,409
488,967;   -4,011;   -1,168;   -0,409
489,553;   -1,785;   -1,895;   -1,409
490,139;   23,048;    1,559;    0,773
490,725;    6,183;    0,741;   -0,227
491,311;   14,681;    3,287;    3,045
491,897;    8,071;   -0,986;    1,500
492,483;   15,872;    0,105;    1,227
493,069;  186,104;    3,923;    0,864
493,655;   71,819;    1,650;    0,682
494,241;   20,135;    1,377;   -0,955
494,826;   21,661;    0,287;   -1,045
495,412;   37,573;    2,559;   -0,682
495,998;   13,929;   -0,805;   -0,318
496,584;   31,000;    0,377;    1,045
497,169;   44,275;    1,014;   -0,682
497,755;   19,043;    0,650;    1,227
498,341;   61,994;    0,559;    0,318
498,926;  112,404;    1,832;    1,955
499,512;   18,282;    1,286;    2,955
500,097;    8,620;    0,195;   -0,318
500,683;   19,242;   -0,350;    2,136
501,268;   12,171;   -0,169;   -0,955
501,854;   22,910;   -0,169;    1,227
502,439;   14,883;   -0,624;   -1,773
503,024;    7,250;    0,195;    0,500
503,610;   17,772;   -0,078;   -0,682
504,195;   10,235;    0,558;    1,955
504,780;   53,479;    2,922;    1,227
505,366;   93,245;    3,013;    2,864
505,951;   56,099;    0,740;    1,045
506,536;   25,504;   -3,260;   -3,682
507,121;   49,493;    0,285;   -0,318
507,706;   38,519;    2,376;    1,045
508,291;   18,290;    2,649;    1,136
508,876;   17,684;   -0,988;    2,591
509,461;   41,955;   -0,169;   -0,773
510,046;   73,741;    0,194;    0,318
510,631;   99,864;   -0,351;   -0,773
511,216;   54,439;    2,467;   -0,500
511,801;  115,618;   -0,442;    2,591
512,386;  141,386;    0,740;    0,500
512,971;  175,541;   -2,988;    0,955
513,555;  232,371;   -0,897;   -1,500
514,140;  212,799;   -0,442;   -3,136
514,725;  366,713;   -0,715;   -1,136
515,309;  294,933;   -0,533;    0,318
515,894;  216,194;   -0,624;   -2,227
516,479;  292,373;   -0,624;   -0,955
517,063;  332,658;    0,376;    1,227
517,648;  296,511;    1,012;   -1,136
518,232;  296,853;   -0,261;   -1,409
518,817;  442,958;   -0,079;    1,682
519,401;  639,721;    2,194;    0,591
519,985;  617,287;    1,103;    1,136
520,570;  462,811;    0,830;   -1,955
521,154;  655,295;    2,102;    0,591
521,738;  942,813;   -2,352;    2,409
522,323;  766,424;   -0,170;    1,682
522,907;  766,966;    0,466;   -0,136
523,491;  674,083;    0,557;    0,955
524,075;  647,007;    2,284;    0,591
524,659;  929,770;    1,466;    0,591
525,243;  866,899;    1,739;    0,409
525,827;  813,740;    0,648;   -0,045
526,411;  880,315;   -1,989;   -0,136
526,995; 1074,582;   -0,352;    1,409
527,579; 1158,997;   -0,443;   -1,045
528,163; 1093,413;    0,375;   -1,500
528,747; 1285,187;    2,466;   -0,773
529,331; 1234,510;   -0,080;   -1,409
529,915; 1010,434;    1,738;    0,955
530,499; 1153,612;   -0,807;    1,227
531,082; 1323,798;   -0,534;    1,591
531,666; 1402,008;    1,374;    0,773
532,250; 1322,384;    1,284;    2,682
532,833; 1500,325;    0,920;    2,773
533,417; 1281,891;   -1,807;    0,864
534,001; 1408,606;    1,647;   -0,318
534,584; 1346,338;    0,374;    0,500
535,168; 1152,775;    0,465;    1,409
535,751; 1606,474;    0,647;    0,045
536,334; 1236,189;   -0,898;   -0,409
536,918; 1185,893;    0,011;    1,591
537,501; 1184,107;   -0,899;    1,318
538,085; 1257,168;   -0,444;    1,045
538,668; 1285,546;    0,829;    2,409
539,251; 1693,379;    1,829;    3,773
539,834; 1411,617;    0,101;    0,773
540,418; 1535,865;   -1,990;    4,318
541,001; 1735,611;   -0,990;    1,773
541,584; 1442,747;    2,101;    2,227
542,167; 1527,449;    1,374;    2,955
542,750; 1395,803;    1,919;   -0,773
543,333; 1169,635;    0,555;    2,136
543,916; 1512,809;    0,192;    2,500
544,499; 1389,712;   -1,354;    0,227
545,082; 1500,463;    1,374;    3,591
545,665; 1412,668;    1,919;    1,500
546,248; 1560,817;    1,010;   -0,318
546,830; 1524,589;   -0,445;    1,955
547,413; 1550,697;    1,010;   -0,773
547,996; 1622,444;    0,555;    0,500
548,579; 1425,045;    0,919;    0,955
549,161; 1685,159;    1,828;    2,682
549,744; 1571,760;   -0,809;    0,409
550,326; 1511,232;   -0,809;   -1,136
550,909; 1990,897;    2,737;    0,591
551,492; 1682,543;   -0,263;    0,227
552,074; 1737,061;   -0,173;   -1,318
552,657; 1810,158;    2,373;    0,045
553,239; 1632,565;   -0,173;   -0,773
553,821; 1554,117;   -1,082;    1,045
554,404; 1750,510;    1,282;    1,136
554,986; 1879,706;    0,464;    1,045
555,568; 1774,386;    1,191;   -0,955
556,151; 1972,310;    1,191;   -0,227
556,733; 1649,753;   -0,264;   -0,864
557,315; 1644,488;    0,100;    0,500
557,897; 1441,996;    0,554;   -0,500
558,479; 1477,743;   -1,991;    1,318
559,061; 1605,279;   -0,719;   -0,864
559,643; 1732,790;   -0,264;    0,045
560,225; 1768,955;    1,645;    2,864
560,807; 1642,426;    0,918;    0,318
561,389; 1572,840;    0,554;    2,318
561,971; 1634,536;    0,463;    2,136
562,553; 1643,109;   -1,628;    1,591
563,135; 1746,904;   -0,537;    1,136
563,717; 2078,619;    3,372;    1,136
564,298; 1958,346;    3,645;   -0,045
564,880; 1687,357;    0,645;   -1,409
565,462; 1567,175;    0,645;    1,318
566,043; 1920,343;   -0,446;    2,318
566,625; 2057,425;    1,918;    1,227
567,207; 1826,765;    1,099;    1,682
567,788; 1822,082;   -1,264;    1,500
568,370; 1970,753;    1,917;   -0,500
568,951; 1821,686;    0,190;    0,227
569,533; 2017,239;   -0,628;   -0,500
570,114; 2147,516;   -0,446;    0,682
570,695; 2197,313;   -0,174;   -1,318
571,277; 2154,054;   -0,265;   -1,682
571,858; 2404,242;    2,008;   -1,136
572,439; 2436,216;    1,554;   -1,045
573,021; 2396,502;    2,099;   -2,773
573,602; 2531,843;   -1,265;    0,318
574,183; 2597,045;   -2,083;    2,227
574,764; 2591,015;   -1,629;    0,409
575,345; 2693,930;    0,917;   -0,136
575,926; 2687,983;   -0,356;    0,136
576,507; 2771,834;    1,099;   -0,227
577,088; 2903,740;    3,099;    1,682
577,669; 3027,631;    0,735;    1,955
578,250; 3278,954;    0,644;   -1,045
578,831; 3133,067;   -1,356;   -2,227
579,412; 3002,464;   -0,810;    0,955
579,993; 3289,942;    1,008;    0,227
580,573; 3307,499;   -0,629;   -0,955
581,154; 2979,370;    0,735;   -0,591
581,735; 3183,892;    0,644;    0,773
582,315; 3049,528;   -0,629;    2,136
582,896; 3227,015;   -0,174;    1,227
583,477; 3046,771;    0,189;    1,227
584,057; 3142,575;    0,553;    0,955
584,638; 3201,760;    2,553;    2,318
585,218; 3368,648;   -0,538;    2,682
585,799; 3286,672;    0,281;   -0,227
586,379; 3208,104;    0,372;    1,591
586,959; 3032,141;    0,735;    0,318
587,540; 2863,123;   -0,629;    2,227
588,120; 2779,462;    1,007;   -0,045
588,700; 2634,536;    2,553;    2,136
589,281; 2907,857;    0,462;   -0,955
589,861; 2789,367;    0,099;   -1,682
590,441; 2707,147;    2,371;   -2,682
591,021; 2509,297;   -0,265;   -2,591
591,601; 2632,045;   -0,537;    0,500
592,181; 2733,922;   -0,719;   -0,773
592,761; 2398,961;    0,007;    1,409
593,341; 2551,221;   -0,901;    0,045
593,921; 2493,919;   -0,265;    1,591
594,501; 2400,235;   -0,538;    1,318
595,081; 2373,813;    0,917;   -0,318
595,661; 2602,089;   -1,447;    0,955
596,240; 2652,775;   -0,537;    0,136
596,820; 2793,975;    0,372;    1,955
597,400; 2525,793;    2,008;    0,773
597,980; 2559,163;    2,008;    1,045
598,559; 2566,584;    2,735;   -0,227
599,139; 2510,728;   -0,174;   -1,227
599,718; 2496,092;   -0,174;   -0,409
600,298; 2574,769;    0,735;    0,682
600,877; 2917,553;    2,917;    1,409
601,457; 2836,662;    2,281;    1,136
602,036; 2699,036;    0,190;    2,045
602,616; 2650,063;    0,644;    1,682
603,195; 2800,107;   -0,355;    3,500
603,774; 2732,703;   -0,901;    2,045
604,354; 2637,444;    0,826;   -0,500
604,933; 2536,746;    0,463;    1,864
605,512; 2748,559;    3,554;    0,591
606,091; 2745,043;   -0,537;    3,773
606,671; 2792,213;    0,281;    0,773
607,250; 2774,685;    1,644;    3,136
607,829; 2766,665;    2,372;    3,227
608,408; 2676,477;    1,190;    2,591
608,987; 2615,114;    1,281;    3,409
609,566; 2489,279;   -1,265;   -2,500
610,145; 2586,328;   -1,082;    0,682
610,723; 2731,275;    4,372;    6,864
611,302; 2481,308;   -0,446;    1,682
611,881; 2589,378;    5,008;   11,227
612,460; 2511,311;    1,645;    3,955
613,039; 2584,229;   -0,082;    2,045
613,617; 2286,612;    1,736;    4,773
614,196; 2308,405;    1,099;    1,227
614,775; 2481,663;    1,009;    2,409
615,353; 2474,837;    0,736;    0,864
615,932; 2399,951;    0,100;    2,409
616,510; 2556,836;    0,554;    0,591
617,089; 2914,065;    7,100;   17,591
617,667; 2594,960;    2,372;    6,136
618,246; 2241,403;   -1,537;    1,318
618,824; 2368,526;   -3,355;   -0,955
619,402; 2310,080;   -2,900;   -1,773
619,981; 2481,512;   -0,173;   -1,045
620,559; 2464,339;    0,009;    1,682
621,137; 2461,389;   -0,718;    1,864
621,715; 2136,881;   -1,173;   -0,682
622,293; 2173,559;   -0,537;   -0,773
622,871; 2460,852;   -0,718;    0,500
623,450; 2284,014;    0,373;   -0,864
624,028; 2401,333;    0,191;   -0,955
624,606; 2331,149;   -1,718;    1,682
625,183; 2243,750;   -1,536;   -1,136
625,761; 2245,650;    1,009;    1,136
626,339; 2625,280;    1,373;    2,591
626,917; 2365,921;   -0,172;   -0,045
627,495; 2391,768;   -0,354;    1,318
628,073; 2334,912;   -0,263;    2,864
628,650; 2289,120;    0,100;    2,136
629,228; 2368,982;    0,373;    4,409
629,806; 2093,865;    2,282;    1,136
630,383; 2182,985;    1,464;   -0,318
630,961; 2188,686;    2,555;   -0,955
631,539; 2127,874;    2,464;    0,227
632,116; 2768,413;   11,373;   15,409
632,694; 2448,094;    2,555;    6,500
633,271; 2253,271;    0,828;    2,682
633,848; 2386,393;    1,828;    2,045
634,426; 2198,635;   -1,081;    1,773
635,003; 2023,952;    1,101;   -0,409
635,580; 2379,372;    1,192;    3,682
636,158; 2219,978;    3,737;    1,227
636,735; 2078,274;    0,555;   -0,500
637,312; 2089,980;   -0,809;   -0,682
637,889; 2120,406;   -4,354;   -0,682
638,466; 2090,319;   -3,990;   -0,409
639,043; 2068,250;    2,101;   -1,136
639,620; 2071,965;   -2,262;   -0,955
640,197; 2225,895;    1,100;    1,682
640,774; 2216,826;   -0,172;    1,136
641,351; 2275,212;    0,737;    1,136
641,928; 2306,325;   -0,627;    1,409
642,505; 2432,529;    0,828;   -0,500
643,082; 2325,187;   -1,718;    1,227
643,658; 1993,754;   -0,718;    1,500
644,235; 2105,503;    1,191;    2,500
644,812; 2258,889;    1,918;    0,773
645,388; 2193,820;   -0,991;    1,409
645,965; 1996,024;   -0,809;    1,682
646,542; 2017,864;   -1,445;   -0,227
647,118; 2465,977;    1,009;   -0,955
647,695; 2281,726;   -0,263;    1,136
648,271; 2098,384;   -0,536;    0,500
648,848; 2220,588;    0,736;    2,227
649,424; 2339,064;    0,827;    1,318
650,000; 2057,450;   -0,354;   -1,045
650,577; 2131,108;   -0,627;   -0,955
651,153; 2250,675;   -1,809;    0,955
651,729; 2266,697;    1,191;    0,864
652,305; 2544,446;    0,645;    2,773
652,881; 3005,559;   -0,082;    1,136
653,458; 3962,490;    1,100;    0,227
654,034; 4551,148;    0,282;    1,591
654,610; 4582,261;    0,554;    0,773
655,186; 5004,010;    0,645;    3,045
655,762; 4676,032;   -0,991;    0,409
656,338; 4642,236;    0,100;    0,136
656,913; 4959,167;   -0,082;    0,409
657,489; 4673,553;    0,827;   -0,318
658,065; 4779,484;   -0,173;   -1,591
658,641; 5015,505;   -0,900;   -0,864
659,217; 4753,982;   -0,991;    0,409
659,792; 4497,640;    0,645;   -0,409
660,368; 4603,844;   -2,173;   -0,682
660,944; 4807,229;   -2,082;    1,227
661,519; 4103,342;   -0,628;    0,409
662,095; 3198,182;   -1,719;    0,591
662,670; 2469,932;    1,281;   -0,136
663,246; 2439,317;    1,009;   -0,409
663,821; 2487,794;    0,281;    1,682
664,396; 2213,452;    0,009;    1,864
664,972; 2262,019;    0,009;   -0,500
665,547; 2424,859;    1,372;    0,136
666,122; 2356,245;   -1,082;    0,318
666,698; 2513,085;   -0,173;    0,318
667,273; 2175,016;   -0,173;    0,136
667,848; 2357,492;    2,372;    1,500
668,423; 2436,332;    2,190;    2,318
668,998; 2377,082;    2,827;   -0,682
669,573; 2438,285;   -3,264;   -1,500
670,148; 2579,489;   -1,446;   -0,682
670,723; 2311,056;   -1,810;    0,318
671,298; 2673,169;    2,372;    1,045
671,873; 2529,827;   -0,082;   -0,136
672,448; 2508,486;    0,645;    0,136
673,023; 2532,235;   -1,992;   -0,227
673,597; 2726,530;    0,827;    2,318
674,172; 2679,642;   -0,355;    0,318
674,747; 2554,392;    0,372;   -1,045
675,321; 2342,959;   -0,628;    3,318
675,896; 2200,163;    0,645;    1,045
676,471; 2456,094;    2,645;    1,591
677,045; 2348,206;   -1,264;    0,682
677,620; 2371,774;    0,190;    1,136
678,194; 2410,523;   -2,628;    1,136
678,769; 2398,636;   -1,083;   -0,318
679,343; 2485,112;   -0,628;    1,773
679,917; 2542,498;   -1,446;    1,955
680,492; 2389,792;    0,826;    3,227
681,066; 2435,269;    3,372;    0,409
681,640; 2434,018;    1,463;   -0,318
682,214; 2574,858;    0,735;    0,500
682,788; 2494,880;   -1,356;   -0,773
683,363; 2516,266;   -1,810;    1,682
683,937; 2367,197;   -1,719;   -0,318
684,511; 2601,673;    0,463;   -0,591
685,085; 2542,422;   -1,356;    0,318
685,659; 2393,353;   -2,538;    0,864
686,232; 2637,193;   -0,356;   -0,318
686,806; 2510,942;   -0,901;    0,409
687,380; 2581,237;   -0,174;    0,591
687,954; 2612,350;   -1,174;    1,136
688,528; 2703,190;   -0,719;    1,955
689,101; 2804,848;   -3,992;    1,045
689,675; 2569,052;   -0,356;   -0,136
690,249; 2629,528;   -0,719;    0,409
690,822; 2687,823;    0,280;    0,318
691,396; 2577,936;   -0,265;    1,227
691,969; 2436,230;    1,280;    0,136
692,543; 2541,616;   -0,447;   -1,955
693,116; 2360,547;   -0,265;   -1,409
693,690; 2406,387;    0,099;    0,500
694,263; 2555,500;   -1,083;    2,955
694,836; 2791,522;    1,371;    3,591
695,410; 2495,362;   -0,265;    1,773
695,983; 2540,475;    0,189;    0,591
696,556; 2413,951;   -0,447;   -1,045
697,129; 2476,155;   -0,356;    1,409
697,703; 2451,722;   -1,629;    1,955
698,276; 2473,290;    1,462;   -0,773
698,849; 2499,857;    1,280;    1,409
699,422; 2378,061;   -1,083;    0,591
699,995; 2282,355;    0,007;    0,136
700,568; 2465,741;   -0,629;    3,045
701,140; 2488,763;   -2,811;    1,682
701,713; 2589,876;   -0,174;    2,409
702,286; 2481,170;   -0,538;    0,864
702,859; 2452,738;   -0,902;   -0,591
703,432; 2402,396;    0,825;    0,682
704,004; 2375,236;    0,462;    0,318
704,577; 2226,349;   -0,629;    0,136
705,150; 2342,825;    0,189;    2,500
705,722; 2434,756;   -0,356;   -3,227
706,295; 2445,051;   -0,175;   -0,591
706,867; 2277,164;   -0,175;    1,955
707,440; 2470,367;   -1,720;   -0,409
708,012; 2561,207;    0,462;    0,591
708,584; 2405,593;    2,462;    0,227
709,157; 2390,888;    1,825;   -0,591
709,729; 2524,182;    2,280;    2,045
710,301; 2657,113;    0,734;    0,045
710,874; 2616,226;   -1,447;   -0,227
711,446; 2220,248;    0,371;    0,864
712,018; 2314,906;    0,098;    0,500
712,590; 2232,564;   -1,993;    1,682
713,162; 2551,495;    0,825;    1,318
713,734; 2431,245;    1,825;   -2,045
714,306; 2376,539;   -1,902;   -0,409
714,878; 2207,652;    0,825;    0,864
715,450; 2343,038;    0,643;    0,864
716,022; 2391,878;    1,552;    1,318
716,593; 2419,990;    0,189;    0,591
717,165; 2466,285;   -3,175;   -1,227
717,737; 2571,489;    0,280;    0,409
718,309; 2416,874;    0,280;   -0,045
718,880; 2332,714;   -0,539;   -1,409
719,452; 2440,827;   -0,175;   -1,591
720,024; 2424,849;    0,734;   -0,591
720,595; 2448,053;   -2,902;    0,955
721,167; 2343,348;    0,370;   -2,045
721,738; 2298,642;   -0,812;   -1,045
722,309; 2349,119;   -0,993;   -1,227
722,881; 2212,413;   -1,357;    0,773
723,452; 2409,344;   -2,630;    2,864
724,023; 2465,548;   -0,721;    2,682
724,595; 2477,024;    0,007;    0,682
725,166; 2260,864;    0,007;   -0,409
725,737; 2431,341;    1,734;    0,227
726,308; 2353,545;   -0,266;    0,318
726,879; 2271,021;   -1,630;    1,227
727,450; 2390,134;    0,552;   -0,045
728,021; 2280,247;    3,097;    0,682
728,592; 2426,632;    0,734;    0,500
729,163; 2582,291;    0,643;   -0,136
729,734; 2568,222;    0,188;   -0,227
730,305; 2430,698;    1,734;    0,136
730,876; 2419,538;    0,188;    2,955
731,447; 2735,105;    2,188;    2,682
732,017; 2625,036;    1,097;    1,864
732,588; 2495,695;    0,734;    1,227
733,159; 2652,080;    0,643;   -1,045
733,729; 2391,738;    0,006;    0,409
734,300; 2416,669;    0,915;    0,864
734,870; 2365,510;    3,461;    0,591
735,441; 2414,350;    0,370;   -0,591
736,011; 2291,917;    0,643;   -1,591
736,582; 2321,212;   -0,812;    0,045
737,152; 2294,143;   -1,721;   -2,045
737,722; 2374,528;   -0,267;   -0,682
738,293; 2217,005;   -1,358;    1,318
738,863; 2377,936;    2,461;    2,318
739,433; 2608,594;    5,279;    0,318
740,003; 2509,707;   -0,994;   -0,682
740,573; 2519,183;    2,097;   -1,591
741,143; 2463,023;   -1,085;    0,318
741,713; 2445,591;    1,188;   -0,500
742,283; 2414,703;    0,915;    1,591
742,853; 2321,089;    1,915;    1,591
743,423; 2151,293;    1,733;    0,045
743,993; 2232,133;   -0,358;    1,500
744,563; 2105,973;    0,097;   -0,864
745,133; 2147,358;   -0,812;   -0,864
745,702; 2258,380;   -0,267;    1,773
746,272; 2285,948;   -0,176;    0,591
746,842; 2281,970;   -1,358;   -0,591
747,411; 2201,446;   -0,267;   -0,318
747,981; 2146,468;    0,097;    0,500
748,551; 2166,126;    2,278;   -1,045
749,120; 2250,239;    0,642;   -0,227
749,690; 2278,534;   -0,631;    2,409
750,259; 2411,465;    1,369;    2,955
750,828; 2425,577;    1,551;   -1,955
751,398; 2319,417;    1,278;   -0,045
751,967; 2619,985;    2,187;    0,409
752,536; 2379,643;   -0,813;   -0,227
753,105; 2517,756;    0,096;    0,227
753,675; 2295,051;    0,096;    1,773
754,244; 2305,709;   -0,904;    3,591
754,813; 2335,367;    0,551;    1,227
755,382; 2234,116;    0,460;    0,955
755,951; 2400,684;    1,551;    3,682
756,520; 2454,342;   -0,085;    1,864
757,089; 2690,546;    0,278;    0,500
757,658; 2409,477;    1,733;    1,227
758,227; 2302,317;    1,096;    0,318
758,795; 2389,611;    1,187;    1,136
759,364; 2538,088;   -0,086;   -0,591
759,933; 2220,291;   -1,176;   -0,045
760,501; 2154,677;    0,733;   -1,318
761,070; 2307,699;   -2,813;   -1,409
761,639; 2546,539;   -1,904;    1,318
762,207; 2376,652;    1,551;   -0,955
762,776; 2423,128;    0,369;    0,864
763,344; 2300,968;   -0,995;    0,591
763,913; 1949,172;   -0,722;    1,409
764,481; 2592,830;    1,005;   -0,136
765,049; 2523,489;   -1,358;    1,409
765,618; 2408,238;   -0,086;    0,318
766,186; 2336,351;    0,278;    0,136
766,754; 2367,373;    0,005;    1,864
767,322; 2048,031;   -1,995;    0,409
767,890; 2007,235;   -0,722;   -1,773
768,459; 2199,438;   -2,177;   -0,318
769,027; 2405,460;    1,641;    3,409
769,595; 2131,118;    3,278;    2,591
770,163; 2185,140;    3,823;    2,955
770,730; 2191,344;    0,732;   -0,136
771,298; 2150,002;    0,187;   -1,409
771,866; 2154,297;   -1,541;    4,955
772,434; 2186,228;   -0,631;   -1,864
773,002; 2430,977;    0,005;    0,682
773,569; 2301,544;    0,914;    1,682
774,137; 2362,385;   -0,268;   -0,045
774,705; 2350,406;    0,278;   -0,136
775,272; 2164,065;    0,641;    0,682
775,840; 2260,178;   -0,177;    2,682
776,407; 2233,199;    0,277;    1,955
776,975; 1990,676;   -0,632;    0,318
777,542; 2163,334;   -1,086;   -0,045
778,110; 2156,811;   -1,268;   -0,045
778,677; 2024,105;   -2,359;   -0,864
779,244; 2065,673;    2,186;    1,045
779,812; 2214,422;    1,823;    0,864
780,379; 2252,535;    0,005;    1,136
780,946; 2148,829;    1,005;   -0,773
781,513; 2169,487;   -1,450;    0,318
782,080; 2012,600;   -0,086;    2,864
782,647; 2132,531;   -0,268;    3,045
783,214; 2054,190;   -0,177;    3,864
783,781; 2191,393;   -0,723;   -0,682
784,348; 2164,779;   -0,632;    1,500
784,915; 2028,983;   -3,177;    0,318
785,482; 2198,823;    1,368;    2,591
786,049; 2270,935;    0,186;   -0,591
786,615; 2177,685;    0,277;   -0,955
787,182; 2085,979;    0,186;   -0,682
787,749; 2060,819;   -2,814;    1,409
788,315; 2063,387;   -1,632;   -0,409
788,882; 2109,318;    1,550;   -1,227
789,448; 2394,794;    1,732;   -0,955
790,015; 2198,452;    1,095;    3,227
790,581; 2285,292;    1,459;    0,227
791,148; 2081,405;    0,641;    1,045
791,714; 2079,064;   -0,541;    3,136
792,280; 2038,722;    0,186;    1,591
792,847; 1964,835;    0,550;    2,500
793,413; 2056,038;   -0,269;   -0,318
793,979; 2131,788;    3,459;   -1,318
794,545; 2470,173;    4,459;    2,682
795,111; 2266,377;    2,186;    1,318
795,678; 2129,126;    0,731;   -1,682
796,244; 2311,057;    3,368;    0,136
796,810; 2260,261;    1,731;    0,773
797,375; 2225,373;    0,549;   -2,136
797,941; 1863,123;   -0,541;    0,591
798,507; 1850,781;   -0,451;   -0,955
799,073; 1846,803;   -0,360;    0,591
799,639; 1929,370;   -2,632;    3,136
800,205; 1876,574;    0,095;    2,682
800,770; 1825,323;    0,640;    1,773
801,336; 1778,163;    1,368;   -0,955
801,901; 2396,185;    4,549;    3,136
802,467; 2143,025;   -0,542;    2,045
803,033; 1798,593;   -0,087;    0,864
803,598; 1812,705;    1,913;   -1,045
804,163; 1876,545;    1,095;   -0,318
804,729; 1981,749;   -0,178;    1,136
805,294; 1906,226;    0,822;    2,227
805,859; 1786,793;    0,731;   -0,409
806,425; 2146,633;    1,186;    2,682
806,990; 2116,200;    2,186;    4,318
807,555; 1931,131;   -1,451;    2,591
808,120; 2092,153;    0,822;   -0,409
808,685; 1814,993;    0,185;   -2,500
809,250; 1664,743;    0,004;   -0,500
809,815; 1763,401;    1,913;    0,682
810,380; 1979,514;   -0,269;    1,591
810,945; 2127,263;   -1,087;    2,045
811,510; 1946,285;    2,094;    1,591
812,075; 1862,034;   -0,633;   -1,409
812,640; 2140,692;    2,003;    1,409
813,204; 1955,169;    0,822;   -0,227
813,769; 2155,009;    2,094;   -0,045
814,334; 2095,758;    0,458;    0,864
814,898; 1858,325;    0,367;    0,591
815,463; 1874,893;    1,276;   -0,773
816,027; 1807,278;   -0,724;   -2,318
816,592; 1840,391;    0,640;   -2,045
817,156; 1867,413;    2,094;    1,136
817,721; 1922,162;    4,276;    2,318
818,285; 1716,093;    2,912;    1,500
818,849; 1852,206;   -1,451;    1,682
819,414; 1738,591;   -0,269;    2,955
819,978; 1680,613;   -1,269;    1,773
820,542; 2089,272;    2,003;    0,500
821,106; 1917,293;   -0,815;    0,682
821,670; 2071,497;   -0,815;    2,591
822,234; 1822,065;   -0,270;    1,409
822,798; 1672,723;    0,003;    0,500
823,362; 2003,926;   -0,633;    4,227
823,926; 1696,221;    0,094;    1,136
824,490; 1907,788;   -0,997;   -0,682
825,054; 1834,174;   -0,088;   -1,136
825,618; 1668,560;   -1,542;   -1,500
826,181; 1699,400;    0,458;   -1,318
826,745; 1760,876;    1,367;   -1,045
827,309; 2050,625;    1,185;    1,318
827,872; 1904,647;    1,367;    0,955
828,436; 1883,124;    1,185;   -0,773
828,999; 1839,055;   -0,997;    1,227
829,563; 1752,531;   -0,179;    1,136
830,126; 1696,098;   -0,179;   -0,591
830,690; 1701,666;   -1,997;    2,864
831,253; 1580,779;   -0,543;    2,227
831,816; 1657,437;   -1,906;    0,500
832,380; 1570,822;    0,185;    0,864
832,943; 1613,026;   -1,361;   -0,500
833,506; 1599,593;    2,639;   -1,227
834,069; 1843,343;    3,912;   -0,955
834,632; 1724,001;    1,730;    1,318
835,195; 1726,386;    1,003;    0,955
835,758; 1616,408;   -0,997;    1,955
836,321; 1556,430;    0,730;   -1,045
836,884; 1568,816;   -0,725;   -0,955
837,447; 1578,474;   -2,816;    1,773
838,010; 1710,314;    0,366;    3,227
838,573; 1783,882;   -1,179;    0,773
839,135; 1697,176;   -1,361;   -0,955
839,698; 1624,198;    1,275;    0,409
840,261; 1560,493;    1,003;   -0,227
840,823; 1516,696;   -0,543;    0,864
841,386; 1495,536;   -0,452;   -2,409
841,948; 1848,195;   -1,361;    1,773
842,511; 1558,944;    0,912;    1,682
843,073; 1825,239;    1,912;    0,227
843,636; 1565,988;   -0,361;   -0,227
844,198; 1784,010;    0,911;    0,591
844,760; 1765,668;    1,093;    1,955
845,322; 1498,508;    0,548;    1,136
845,885; 1655,257;    0,730;    0,591
846,447; 1644,097;   -1,998;    0,227
847,009; 1965,756;    1,911;   -0,682
847,571; 1648,323;    0,820;   -2,045
848,133; 1621,163;   -1,089;   -1,864
848,695; 1476,185;   -0,543;    1,409
849,257; 1540,570;   -1,089;   -1,682
849,819; 1723,047;   -0,998;   -0,409
850,381; 1565,978;   -0,725;   -0,864
850,942; 1649,272;    1,093;   -0,591
851,504; 1670,840;    1,184;    0,227
852,066; 1594,225;    1,275;   -1,591
852,628; 1598,156;   -0,180;    1,955
853,189; 1411,996;    1,638;    2,682
853,751; 1471,382;   -0,907;    1,409
854,312; 1653,858;   -0,453;   -1,682
854,874; 1813,426;   -2,089;   -0,773
855,435; 1626,811;   -0,907;   -1,682
855,997; 1739,288;   -1,816;   -0,136
856,558; 1751,946;    0,366;    1,773
857,119; 1602,241;    0,820;    2,864
857,681; 1448,808;    0,002;    0,318
858,242; 1680,739;    1,911;   -2,136
858,803; 1770,397;    0,456;   -0,773
859,364; 1700,783;    0,184;   -4,773
859,925; 1716,896;   -2,453;   -0,955
860,486; 1609,736;   -0,453;   -0,955
861,047; 1496,121;   -0,544;   -1,227
861,608; 1512,052;   -1,089;   -0,773
862,169; 1453,074;    0,638;   -0,045
862,730; 1510,187;    0,456;    1,409
863,291; 1568,936;   -0,635;   -0,500
863,852; 1566,049;   -0,635;    1,955
864,412; 1501,525;   -0,271;   -0,864
864,973; 1656,275;   -0,089;    0,500
865,534; 1820,115;   -1,726;    0,227
866,094; 1651,500;    1,820;    0,227
866,655; 1746,431;    1,274;    3,318
867,215; 1609,544;    0,274;    0,136
867,776; 1491,293;    0,547;   -0,136
868,336; 1534,861;   -1,453;    0,136
868,897; 1936,246;    2,638;    1,682
869,457; 1709,632;    1,365;    0,318
870,017; 1543,290;    0,547;   -1,227
870,578; 1564,948;   -0,817;    0,773
871,138; 1504,606;   -2,089;   -0,955
871,698; 1396,810;   -0,817;   -1,318
872,258; 1520,832;   -0,453;   -2,864
872,818; 1758,763;    2,729;    0,045
873,378; 1563,330;    0,638;    1,045
873,938; 1485,716;    0,547;    0,500
874,498; 1408,738;    0,274;   -1,955
875,058; 1459,214;    2,183;    1,773
875,618; 1452,327;    1,910;   -2,682
876,177; 1496,258;    1,274;    0,136
876,737; 1278,916;   -0,090;    1,955
877,297; 1735,575;    0,183;    1,955
877,856; 1633,778;   -0,362;    0,318
878,416; 1376,891;    1,183;   -0,136
878,976; 1355,004;   -1,817;    0,409
879,535; 1428,480;    0,092;    3,136
880,095; 1409,139;   -0,544;    0,045
880,654; 1287,070;   -1,090;    1,318
881,213; 1652,546;    2,456;    1,500
881,773; 1452,750;    2,637;    2,682
882,332; 2080,045;    3,365;    5,136
882,891; 1487,157;    3,092;    2,136
883,451; 1502,816;   -1,272;    1,682
884,010; 1384,019;   -2,908;   -0,409
884,569; 1349,223;   -0,999;   -0,045
885,128; 1591,427;    2,819;   -1,864
885,687; 1902,085;    4,455;    0,682
886,246; 2072,652;    1,455;    2,136
886,805; 1754,038;    2,455;    2,045
887,364; 1415,333;   -0,999;   -0,500
887,922; 1333,991;   -1,181;    0,045
888,481; 1481,649;   -1,545;    0,591
889,040; 1650,126;    1,183;    2,136
889,599; 1527,147;    2,455;    1,409
890,157; 1524,169;    1,455;    2,409
890,716; 1419,919;   -0,090;    0,227
891,274; 1512,122;    0,092;   -1,136
891,833; 1623,326;    1,546;    0,864
892,391; 1419,984;   -0,454;    0,500
892,950; 1623,552;    1,819;   -0,773
893,508; 1439,574;    0,455;   -0,409
894,067; 1271,141;    0,637;    0,136
894,625; 1391,617;   -0,636;   -1,500
895,183; 1367,912;   -0,363;   -0,682
895,741; 1699,025;    1,728;   -1,773
896,299; 1456,683;   -0,545;   -2,409
896,858; 1353,614;    0,819;   -1,591
897,416; 1504,000;    2,728;   -1,318
897,974; 1431,749;    1,819;    0,318
898,532; 1932,680;    6,091;    2,682
899,089; 1560,702;    2,091;   -0,682
899,647; 1442,451;   -1,454;    1,318
900,205; 1497,109;    1,182;    1,045
900,763; 1505,222;   -0,454;    0,227
901,321; 1474,062;    2,364;   -1,409
901,878; 1247,811;   -1,000;   -0,773
902,436; 1300,651;   -1,363;    1,318
902,994; 2151,219;    4,728;    3,682
903,551; 1625,150;    0,728;    0,409
904,109; 1506,535;    0,182;   -1,409
904,666; 1434,193;    2,455;    1,045
905,224; 1295,306;    0,182;   -0,409
905,781; 1459,874;    0,727;   -0,318
906,338; 1372,441;   -1,363;    1,045
906,895; 1260,645;    0,637;    2,045
907,453; 1554,667;    1,727;    1,136
908,010; 1394,507;   -0,909;    0,409
908,567; 1318,619;    1,273;    0,591
909,124; 1112,914;    0,364;   -1,500
909,681; 1190,300;   -2,909;    0,682
910,238; 1270,322;    0,636;   -1,318
910,795; 1251,525;   -0,273;   -1,136
911,352; 1242,798;   -2,909;   -2,682
911,909; 1233,616;   -1,364;   -0,864
912,466; 1297,253;   -3,182;    1,500
913,022; 1294,434;   -1,636;    0,500
913,579; 1426,889;   -0,909;    2,045
914,136; 1283,253;    1,636;    0,955
914,692; 1363,525;    0,091;   -1,227
915,249; 1286,253;    1,455;    0,409
915,806; 1377,525;    0,182;    1,955
916,362; 1289,525;    1,909;    1,864
916,918; 1163,707;    2,000;    1,045
917,475; 1390,253;   -1,182;    0,955
918,031; 1191,616;    3,364;   -0,045
918,587; 1261,525;   -0,909;   -0,318
919,144; 1182,798;   -2,273;    0,227
919,700; 1126,071;    1,727;    0,773
920,256; 1094,071;    0,727;    0,045
920,812; 1129,707;   -0,727;   -1,045
921,368; 1087,707;   -1,727;   -1,045
921,924; 1054,253;    0,182;   -0,136
922,480; 1167,434;   -0,545;    1,227
923,036; 1196,343;    1,273;    1,955
923,592; 1097,889;    0,455;    0,318
924,148; 1140,162;    0,455;   -0,955
924,704; 1278,798;   -1,364;   -0,409
925,259; 1119,707;   -0,273;    0,591
925,815; 1067,071;    1,455;    0,500
926,371; 1016,889;    2,909;    1,409
926,926; 1183,434;    2,091;    0,591
927,482; 1136,434;   -1,364;    0,773
928,037; 1060,253;    0,909;    2,045
928,593; 1287,980;    1,636;    1,045
929,148; 1026,071;   -1,818;   -1,500
929,704; 1081,707;   -1,455;   -0,500
930,259;  953,071;    0,091;   -0,136
930,814; 1170,616;   -0,818;    1,955
931,369; 1083,434;    1,091;   -0,773
931,925;  857,071;   -0,091;    0,136
932,480;  964,343;   -2,818;   -2,591
933,035; 1385,980;    0,545;   -0,318
933,590; 1256,162;    0,364;   -1,773
934,145;  819,162;   -1,364;   -0,318
934,700;  734,798;    0,455;   -0,591
935,255;  808,162;   -0,091;    0,045
935,809; 1151,343;    3,182;    0,864
936,364;  737,616;   -0,455;   -0,136
936,919;  748,343;    0,455;   -1,773
937,474;  648,798;    1,455;    0,136
938,028;  679,889;   -1,636;    1,136
938,583; 1099,980;    1,818;    4,682
939,138;  736,071;    2,091;    2,136
939,692;  580,343;    1,636;   -1,136
940,247;  628,616;   -0,727;   -1,045
940,801;  694,707;   -0,636;    0,227
941,355;  588,798;   -0,364;    2,591
941,910;  464,980;   -0,273;   -2,136
942,464;  512,253;   -0,818;   -0,318
943,018;  803,343;    1,000;   -0,227
943,572;  606,889;    2,545;   -0,682
944,126;  657,798;    0,091;   -0,409
944,681;  524,980;    3,091;    0,227
945,235;  468,343;    1,000;   -0,591
945,789;  415,434;    0,364;   -1,864
946,342;  741,798;    0,455;   -0,591
946,896;  469,343;   -2,273;    0,955
947,450;  442,798;    1,545;   -0,227
948,004;  727,343;    1,727;   -0,045
948,558;  502,343;    0,273;   -0,864
949,111;  502,616;   -0,273;   -0,318
949,665;  728,616;    1,636;   -0,682
950,219;  671,434;   -0,091;   -1,045
950,772;  586,889;   -1,909;    1,864
951,326;  583,343;    0,545;   -0,955
951,879;  505,162;    0,727;   -2,318
952,433;  644,253;    0,000;    2,227
952,986;  455,343;    2,909;    0,682
953,539;  414,889;   -0,273;    0,591
954,093;  355,980;    0,545;   -1,318
954,646;  519,343;    0,909;    1,318
955,199;  426,343;    0,000;   -0,500
955,752;  648,980;   -0,455;    1,773
956,305;  486,980;   -0,091;    2,955
956,858;  545,253;    0,818;   -0,318
957,411;  604,343;   -0,545;    2,136
957,964;  497,798;    1,364;    2,136
958,517;  413,434;   -1,545;    3,136
959,070;  365,889;   -0,455;    1,955
959,623;  674,162;    1,091;    1,500
960,176;  612,253;    1,727;    2,045
960,728;  578,616;   -2,727;    0,773
961,281;  512,889;    0,545;    0,500
961,834;  428,253;   -0,909;    0,864
962,386;  428,253;    1,727;    1,045
962,939;  384,707;    0,364;   -0,318
963,491;  441,616;    0,455;    1,136
964,043;  374,889;    1,182;    2,409
964,596;  568,616;   -1,000;    2,227
965,148;  463,889;   -1,000;    1,773
965,700;  370,434;    1,091;   -0,227
966,253;  543,616;   -0,636;    0,318
966,805;  506,707;   -2,273;    0,773
967,357;  420,980;    1,091;   -1,500
967,909;  555,707;    0,455;   -1,227
968,461;  422,071;    0,545;    3,136
969,013;  374,071;   -0,182;   -0,864
969,565;  541,071;   -0,455;   -1,136
970,117;  802,707;   -0,364;    1,045
970,669;  542,434;    0,182;   -0,136
971,220;  325,071;   -0,455;   -1,500
971,772;  417,071;   -0,636;   -0,318
972,324;  528,525;    0,091;   -0,500
972,876;  420,343;    0,818;   -0,045
973,427;  560,162;    1,909;   -1,045
973,979;  624,525;   -0,727;   -2,500
974,530;  405,162;    1,818;    1,318
975,082;  477,616;   -0,545;    1,682
975,633;  416,071;    1,091;    1,682
976,184;  491,343;    0,909;    0,773
976,736;  477,707;    0,091;    0,227
977,287;  486,434;   -0,909;   -0,500
977,838;  450,162;    0,909;   -0,318
978,389;  460,889;   -1,000;   -0,500
978,940;  310,434;    0,545;   -0,409
979,491;  303,707;    0,091;   -0,500
980,042;  417,071;    0,182;    3,045
980,593;  418,434;   -2,545;    0,227
981,144;  522,434;    2,545;   -0,500
981,695;  578,434;    1,455;    1,500
982,246;  515,525;   -0,273;    1,045
982,797;  366,889;   -1,727;    0,682
983,347;  521,071;    0,364;    0,591
983,898;  738,253;    3,091;    0,409
984,449;  690,071;    2,182;    0,773
984,999;  521,525;    1,455;   -1,136
985,550;  481,162;    0,182;   -0,318
986,100;  321,253;   -0,455;   -0,318
986,651;  317,071;   -0,818;    0,045
987,201;  358,253;   -1,000;   -0,591
987,751;  374,343;    0,818;    2,864
988,302;  424,616;    2,636;    1,500
988,852;  464,889;    0,455;   -1,136
989,402;  538,162;    0,091;    0,682
989,952;  559,071;   -2,182;    0,864
990,502;  394,525;   -0,091;    0,682
991,052;  285,434;   -0,727;    0,045
991,602;  337,525;   -2,909;    1,318
992,152;  398,980;    0,455;    0,682
992,702;  435,071;    1,364;   -0,045
993,252;  373,889;   -3,000;   -0,500
993,802;  479,525;   -0,273;    1,318
994,352;  431,343;   -1,545;    1,136
994,901;  328,980;   -0,182;    3,227
995,451;  316,980;   -0,182;    0,318
996,000;  356,434;    1,636;    0,318
996,550;  366,889;    2,273;    0,227
997,100;  414,707;    1,273;   -0,045
997,649;  562,071;    2,182;    0,955
998,198;  366,434;    1,727;   -1,500
998,748;  494,343;    1,091;   -2,318
999,297;  418,798;   -0,818;   -0,409
999,846;  563,616;    1,000;   -0,773
1000,395;  468,798;   -0,818;    0,500
1000,945;  589,980;    1,818;   -0,773
1001,494;  586,162;    2,364;    0,682
1002,043;  561,253;    4,636;    0,864
1002,592;  366,071;   -1,091;    1,955
1003,141;  368,616;   -0,455;   -0,682
1003,690;  536,707;    1,727;    0,500
1004,238;  402,434;    1,455;   -0,045
1004,787;  315,889;    1,364;    1,227
1005,336;  516,525;    0,364;    0,682
1005,885;  462,707;    1,364;   -2,773
1006,433;  445,889;    0,545;    0,955
1006,982;  653,889;    0,455;    1,682
1007,531;  482,162;   -1,818;   -0,227
1008,079;  426,525;   -2,273;    0,500
1008,627;  366,434;   -1,455;    0,409
1009,176;  393,616;    0,000;   -1,955
1009,724;  335,980;    1,091;    0,864
1010,273;  508,798;    1,273;    0,500
1010,821;  378,434;    0,091;    1,409
1011,369;  330,434;   -1,364;    1,318
1011,917;  356,616;   -1,364;   -0,591
1012,465;  445,343;    1,273;   -1,591
1013,013;  429,616;    2,091;   -1,682
1013,561;  534,798;    0,455;   -0,773
1014,109;  643,253;   -1,909;    1,682
1014,657;  511,798;    0,364;    0,591
1015,205;  392,889;    1,636;   -0,955
1015,753;  329,980;   -0,545;   -1,409
1016,301;  416,980;   -2,636;    3,045
1016,848;  500,980;   -1,273;    0,409
1017,396;  498,798;    2,545;    0,045
1017,944;  498,253;    1,182;    1,864
1018,491;  395,616;    0,273;    1,409
1019,039;  724,980;    0,455;    0,591
1019,586;  461,707;   -1,364;    1,682
1020,134;  446,343;    0,455;    1,500
1020,681;  533,798;    0,182;   -1,136
1021,228;  430,343;    2,909;   -2,227
1021,776;  415,798;    1,182;   -1,136
1022,323;  656,253;    0,455;    0,773
1022,870;  553,980;   -1,000;   -0,045
1023,417;  617,071;    2,636;    1,864
1023,964;  426,343;    2,636;    1,227
1024,511;  399,980;    1,000;    0,773
1025,058;  436,525;    3,182;   -0,045
1025,605;  386,616;   -2,273;    3,136
1026,152;  621,162;    1,727;   -0,591
1026,699;  458,434;    1,818;    1,318
1027,245;  440,253;   -0,091;    0,318
1027,792;  370,434;   -1,000;    1,409
1028,339;  603,980;    2,364;   -0,045
1028,885;  461,343;    1,000;   -0,227
1029,432;  405,889;   -0,091;    0,227
1029,978;  521,162;   -1,000;   -1,591
1030,525;  511,162;    1,000;    0,409
1031,071;  368,434;   -1,364;    1,136
1031,618;  684,162;    0,364;    1,682
1032,164;  503,434;   -0,091;    3,045
1032,710;  551,889;    1,636;   -1,500
1033,256;  507,162;   -0,636;   -0,136
1033,803;  354,616;   -0,545;    1,500
1034,349;  207,707;   -1,364;    0,136
1034,895;  259,889;    0,000;   -0,318
1035,441;  345,616;   -0,818;    0,318
1035,987;  401,889;   -2,364;   -0,682
1036,533;  471,889;   -1,455;   -0,955
1037,078;  681,343;    1,455;    1,682
1037,624;  527,071;    2,455;   -0,955
1038,170;  386,889;    0,455;   -0,318
1038,716;  469,253;    1,636;   -0,409
1039,261;  344,343;   -2,273;   -0,773
1039,807;  358,980;   -0,091;    3,409
1040,352;  394,071;   -1,909;   -0,318
1040,898;  385,707;   -1,545;   -0,682
1041,443;  307,525;   -1,455;   -2,591
1041,989;  627,889;    1,091;    1,591
1042,534;  408,162;   -0,364;    2,591
1043,079;  294,616;    2,909;    0,955
1043,625;  407,798;    1,818;    0,500
1044,170;  431,071;   -1,364;    1,045
1044,715;  636,889;    2,455;    0,955
1045,260;  530,434;    2,182;   -0,955
1045,805;  370,798;    1,182;   -0,591
1046,350;  326,162;    1,364;   -0,409
1046,895;  523,162;    2,909;    1,591
1047,440;  514,980;    5,364;    0,409
1047,985;  376,980;    2,818;   -0,955
1048,530;  346,616;    1,545;    1,227
1049,074;  414,525;    0,000;    0,318
1049,619;  340,889;   -1,364;    1,955
1050,164;  329,434;    0,455;    0,227
1050,708;  420,889;   -0,455;    0,045
1051,253;  676,980;    1,273;   -2,227
1051,797;  460,616;    0,818;   -1,318
1052,342;  288,707;   -1,182;    1,045
1052,886;  402,253;    0,364;   -1,409
1053,430;  277,616;   -1,364;    0,136
1053,975;  370,162;   -0,818;   -0,318
1054,519;  376,343;   -0,727;    3,227
1055,063;  445,525;    0,909;    1,318
1055,607;  427,071;   -0,182;    0,227
1056,151;  429,162;    2,909;    1,682
1056,695;  336,071;    2,273;   -1,136
1057,239;  331,707;   -1,727;   -0,682
1057,783;  376,707;    0,818;   -1,500
1058,327;  448,798;    0,000;    1,409
1058,871;  600,889;   -0,545;    1,318
1059,415;  465,162;   -0,818;   -0,045
1059,958;  628,525;    1,455;    2,591
1060,502;  389,253;   -1,000;   -0,773
1061,046;  275,616;    0,364;   -0,955
1061,589;  261,525;   -3,000;   -1,136
1062,133;  225,616;   -1,273;    1,864
1062,676;  274,162;    1,182;    0,864
1063,220;  315,525;    1,091;    0,500
1063,763;  342,616;    0,909;    1,136
1064,306;  371,071;   -0,909;    1,864
1064,849;  364,253;   -0,909;    0,591
1065,393;  339,434;    2,000;   -1,500
1065,936;  344,707;    0,182;   -0,409
1066,479;  264,525;   -1,455;    1,318
1067,022;  288,980;   -0,273;   -0,227
1067,565;  259,434;   -0,091;   -1,318
1068,108;  230,798;    0,727;   -0,591
1068,651;  204,889;   -0,636;    1,409
1069,194;  211,616;   -0,455;   -1,682
1069,736;  239,162;   -1,273;    0,955
1070,279;  206,525;   -1,364;   -0,500
1070,822;  303,343;   -2,000;   -0,318
1071,364;  435,162;   -0,364;    1,318
1071,907;  279,980;   -0,727;    3,227
1072,450;  133,707;    0,000;   -0,045
1072,992;  220,980;   -0,273;    3,136
1073,535;  304,707;    2,091;    2,136
1074,077;  212,162;   -0,727;    2,045
1074,619;  202,616;   -1,364;    0,591
1075,161;  236,071;   -1,091;    1,500
1075,704;  372,071;    1,545;    1,227
1076,246;  226,707;   -0,182;    0,682
1076,788;  156,889;   -0,364;    1,773
1077,330;  166,707;    1,273;    2,136
1077,872;  210,434;    0,909;    0,955
1078,414;  393,889;    2,727;    0,773
1078,956;  240,343;    1,273;   -0,227
1079,498;  386,253;    1,636;    0,318
1080,040;  241,525;    1,909;   -1,318
1080,581;  198,162;    1,636;   -0,318
1081,123;  131,798;    0,091;   -0,773
1081,665;  149,071;   -1,182;   -0,955
1082,206;  345,525;    1,364;   -0,500
1082,748;  261,162;    0,727;    2,045
1083,289;  165,798;   -2,000;    1,318
1083,831;  159,071;   -0,545;    0,227
1084,372;  209,707;    0,000;    0,591
1084,913;  205,162;    1,091;    0,864
1085,455;  143,162;   -1,909;   -2,045
1085,996;  150,343;   -2,273;    0,136
1086,537;  187,253;   -0,091;    0,864
1087,078;  195,798;   -0,909;   -2,136
1087,619;  246,434;   -1,273;    0,227
1088,160;  206,889;    0,000;    1,318
1088,701;  185,343;   -1,091;    0,682
1089,242;  165,798;    1,364;   -2,227
1089,783;  221,343;   -0,273;    1,409
1090,324;  203,162;    0,455;    0,682
1090,865;  140,434;    2,727;   -0,409
1091,405;  108,162;    0,727;    2,227
1091,946;  160,162;    0,182;   -0,955
1092,487;  107,434;    0,818;   -1,409
1093,027;  223,889;   -1,364;   -1,500
1093,568;  151,434;   -0,364;    1,227
1094,108;  188,071;    0,273;    1,773
1094,649;  158,434;   -1,182;    0,136
1095,189;  125,434;   -0,636;   -0,682
1095,729;  126,980;   -0,091;    0,955
1096,269;  113,253;    0,727;   -0,955
1096,810;  268,980;   -1,364;    0,500
1097,350;  208,434;    1,364;   -0,773
1097,890;  156,525;    0,364;    1,227
1098,430;  316,798;    2,364;    2,864
1098,970;  258,525;    2,182;    1,682
1099,510;  144,889;    0,545;   -2,318
1100,050;  120,889;    1,000;   -1,591
1100,589;  134,525;   -0,727;   -0,318
1101,129;  187,798;    0,818;   -0,955
1101,669;  269,798;    1,727;    2,136
1102,209;  192,162;   -0,091;    2,227
1102,748;  158,162;    0,000;    0,955
1103,288;  162,525;    1,273;   -1,227
1103,827;  156,162;    3,091;   -2,227
1104,367;  112,434;   -0,091;   -2,409
1104,906;  113,434;    1,364;   -1,136
1105,445;  156,071;    0,636;   -1,136
1105,985;  131,253;   -0,727;    1,500
1106,524;  150,071;   -1,727;   -0,682
1107,063;  136,162;   -2,727;    1,409
1107,602;  107,616;   -1,909;   -1,500
1108,141;   89,253;   -1,909;    1,500
1108,680;  152,889;   -3,455;   -0,591
1109,219;  124,889;   -0,909;   -0,500
1109,758;  120,162;    0,455;    0,682
1110,297;  114,162;    1,000;   -0,682
1110,836;   87,071;   -0,727;    0,955
1111,375;  125,798;   -2,545;    0,409
1111,913;  156,434;   -1,000;    0,773
1112,452;  133,707;   -0,273;    0,136
1112,991;   86,434;    1,091;    1,955
1113,529;   86,889;   -0,818;   -0,045
1114,068;  115,071;   -0,273;    2,955
1114,606;   81,980;   -0,364;   -0,955
1115,144;  151,798;   -1,273;    1,045
1115,683;  115,707;   -0,727;    0,318
1116,221;  149,253;   -0,455;   -0,864
1116,759;  100,889;    0,636;   -0,864
1117,297;  177,434;    0,000;    1,864
1117,836;  101,525;   -2,182;   -1,227
1118,374;  105,707;    0,182;   -0,682
1118,912;  104,616;    0,909;    2,682
1119,450;   97,434;    1,000;    0,864
1119,988;  101,343;    1,545;    2,136
1120,525;  372,434;    5,091;    3,318
1121,063;  195,980;    1,182;    1,864
1121,601;  106,162;   -0,909;   -1,227
1122,139;   82,253;   -0,727;   -2,045
1122,676;  184,798;   -0,727;    2,773
1123,214;  159,707;   -1,182;    4,409
1123,751;   79,980;    1,727;    2,227
1124,289;  115,343;   -0,091;   -0,409
1124,826;   85,525;    1,727;    0,227
1125,364;   44,707;    1,727;   -0,955
1125,901;  150,343;    1,182;    1,227
1126,438;  160,616;    0,818;    0,955
1126,975;   56,434;   -0,727;   -0,773
1127,513;   70,707;    0,273;    2,136
1128,050;   47,343;    1,636;   -0,682
1128,587;   92,889;    2,000;   -0,227
1129,124;  116,616;    0,091;    1,318
1129,661;   59,980;    0,273;    0,227
1130,198;  138,253;    1,636;    0,773
1130,734;   99,798;    0,182;    1,409
1131,271;   51,980;   -0,909;    0,864
1131,808;  123,616;    2,909;    3,045
1132,345;   71,525;    1,545;    0,318
1132,881;   26,253;   -1,545;   -1,864
1133,418;   79,162;    0,727;   -1,136
1133,954;   56,525;    2,455;   -2,682
1134,491;   89,434;    1,364;   -0,773
1135,027;   50,980;    2,364;    0,864
1135,564;   83,434;    0,273;    2,955
1136,100;   75,616;    0,364;    2,136
1136,636;   37,980;   -1,273;   -1,045
1137,172;   66,162;    0,000;   -1,045
1137,708;   45,616;   -1,364;   -1,045
1138,245;   41,616;    1,273;   -1,227
1138,781;   28,798;    1,091;   -3,318
1139,317;   51,071;    1,273;   -1,409
1139,852;   62,889;    3,091;    0,136
1140,388;   89,343;   -1,182;   -0,409
1140,924;   52,616;   -1,091;   -2,227
1141,460;   33,343;   -1,636;    0,136
1141,996;   16,980;   -1,364;    2,682
1142,531;   26,162;    1,364;    3,318
1143,067;  109,343;    1,182;    1,045
1143,602;  136,162;   -0,091;   -0,318
1144,138;   69,071;   -2,636;    1,045
1144,673;   30,525;   -1,455;    1,409
1145,209;   43,616;   -1,909;   -0,318
1145,744;   20,707;   -0,727;    0,864
1146,279;   68,889;    1,818;   -0,136
1146,815;   39,162;    1,545;   -2,682
1147,350;   59,253;   -1,364;    0,045
1147,885;   29,798;   -0,818;   -1,318
1148,420;   28,162;   -2,273;    0,773
1148,955;   26,798;   -1,727;    1,864
1149,490;   33,616;   -0,909;   -1,591
1150,025;   22,525;    0,455;   -1,773
1150,560;   67,616;    1,091;   -0,955
1151,094;   53,253;    1,455;   -0,591
1151,629;   53,343;    1,636;    0,864
1152,164;   32,616;    1,364;    1,318
1152,698;   21,798;   -0,182;   -0,136
1153,233;    7,525;    0,091;   -0,682
1153,767;   17,343;   -3,000;   -2,318
1154,302;   33,616;   -1,455;    1,773
1154,836;   33,253;   -0,455;   -2,136
1155,371;   45,980;   -1,364;    3,682
1155,905;   28,707;   -0,636;    1,682
1156,439;   28,253;   -0,636;   -0,500
1156,973;   40,889;    0,364;    0,318
1157,507;   20,525;   -0,364;    0,682
1158,042;   23,434;   -0,727;    1,045
1158,576;   37,616;    0,182;    1,773
1159,110;   35,616;   -0,818;    2,409
1159,643;   29,162;    0,636;   -0,045
1160,177;   13,525;   -1,545;    1,500

