
Integration time [ms]:   0,040
Averaging Nr. [scans]: 11
Smoothing Nr. [pixels]: 0
Data measured with spectrometer [name]: 7318044SP
Wave   ;Sample   ;Dark     ;Reference
[nm]   ;[counts] ;[counts] ;[counts] 

186,757;   36,767;   31,551;    1,318
187,357;   41,441;   22,551;    0,955
187,958;   28,200;   15,460;   -1,591
188,558;   44,931;    8,915;   -1,227
189,159;   29,194;    6,733;   -4,500
189,759;   13,728;    7,278;   -3,591
190,360;   14,709;    2,824;   -2,136
190,960;   26,220;    2,915;   -4,136
191,560;   37,176;    3,189;   -6,591
192,161;  154,740;    4,372;   -3,500
192,761;   88,044;    4,010;   -3,227
193,361;   53,425;    1,556;   -3,773
193,962;   78,945;    2,010;   -2,682
194,562;   31,664;    1,189;   -3,955
195,162;   32,513;   -2,448;   -2,227
195,762;  105,946;   -3,176;   -0,045
196,362;   72,052;    1,370;   -2,500
196,963;   25,387;    2,006;   -0,864
197,563;   53,667;    1,551;   -0,955
198,163;   21,252;    0,096;   -0,682
198,763;   31,923;    1,733;   -0,500
199,363;   64,401;    3,096;   -0,500
199,963;   48,320;    0,369;    0,409
200,563;   41,529;    2,823;   -1,409
201,163;   32,855;    3,277;   -0,227
201,763;   59,629;    3,732;    0,318
202,363;   33,342;    1,459;    1,500
202,963;   61,853;    1,459;    1,045
203,563;  116,668;    0,277;    0,500
204,162;   57,703;    2,096;   -1,864
204,762;   47,538;    0,550;    0,591
205,362;   33,748;    3,004;    1,955
205,962;   62,301;    3,096;    1,955
206,562;   62,490;    1,823;    2,318
207,161;   45,814;   -0,087;    0,318
207,761;  127,493;    1,277;    2,409
208,361;   61,448;   -0,268;    1,409
208,960;   92,997;    0,459;    1,500
209,560;   93,200;    1,277;    1,591
210,160;  108,531;    0,550;    1,864
210,759;   82,173;    4,186;    1,227
211,359;   70,333;    1,459;    1,045
211,958;  202,740;    1,277;    2,045
212,558;  223,141;    1,732;    1,864
213,157;  139,256;    1,822;    1,500
213,757;  339,477;    3,822;   -0,227
214,356;  186,611;    1,277;   -0,409
214,956;  332,443;    3,095;    0,409
215,555;  158,703;    2,095;    2,136
216,154;  120,888;   -2,723;   -0,591
216,754;  121,779;    0,277;    0,773
217,353;  157,772;   -0,268;   -1,045
217,952;   72,249;   -0,178;    0,318
218,552;  202,985;    1,368;   -0,773
219,151;  136,094;    0,277;    0,955
219,750;  119,359;    0,004;   -0,227
220,349;  105,935;   -0,451;    1,045
220,948;  225,695;   -1,360;    1,136
221,548;  148,205;    0,913;    1,227
222,147;  193,982;   -0,087;   -0,409
222,746;  355,669;   -0,451;   -0,955
223,345;  242,531;    0,731;    0,500
223,944;  248,179;   -0,451;    0,773
224,543;  279,155;    1,004;   -1,409
225,142;  299,614;    0,094;    0,136
225,741;  278,056;   -0,814;    1,045
226,340;  260,830;   -0,451;   -0,955
226,939;  422,964;   -0,996;   -0,136
227,538;  258,214;   -0,360;   -0,773
228,137;  422,072;   -0,814;    0,864
228,735;  371,700;   -0,541;    1,227
229,334;  238,682;   -0,905;   -0,227
229,933;  475,342;    0,459;    0,591
230,532;  508,691;    1,186;   -0,409
231,131;  594,077;    1,732;    0,318
231,729;  451,934;   -2,450;   -2,318
232,328;  370,723;   -0,723;   -1,500
232,927;  391,658;    1,004;   -0,500
233,525;  367,305;    3,640;    0,045
234,124;  439,415;    2,368;   -1,591
234,723;  342,940;    0,913;   -1,045
235,321;  358,351;    2,277;    0,136
235,920;  416,670;    1,186;   -1,227
236,518;  624,445;    3,459;    0,318
237,117;  423,847;    0,004;   -0,227
237,715;  435,324;    0,640;   -0,500
238,314;  522,626;   -0,087;   -2,318
238,912;  704,629;   -0,723;   -1,409
239,510;  555,230;    0,459;   -1,227
240,109;  720,772;    0,004;    3,773
240,707;  659,540;   -0,996;    1,227
241,305;  485,333;    0,550;    0,136
241,904;  638,333;   -0,178;   -2,045
242,502;  746,359;   -0,632;   -0,227
243,100;  616,943;   -0,087;   -0,955
243,698;  553,148;    0,732;    1,682
244,297;  599,600;   -0,632;    0,682
244,895;  602,606;   -0,269;   -2,318
245,493;  845,328;    2,186;   -0,591
246,091;  817,290;    1,368;   -1,318
246,689;  743,372;    1,004;    0,591
247,287;  697,906;    0,822;   -1,136
247,885;  672,900;   -1,451;    1,227
248,483;  634,621;    1,822;   -0,500
249,081;  732,974;    0,185;    1,591
249,679;  795,124;   -0,178;    1,682
250,277;  630,748;   -1,723;    0,864
250,875;  801,134;   -1,087;   -1,045
251,473;  675,677;   -1,178;    0,500
252,071;  799,894;    1,459;    1,045
252,669;  713,997;   -1,814;    0,318
253,267;  651,297;   -0,087;    0,773
253,864;  682,997;   -0,360;    0,682
254,462;  896,601;    1,640;    1,591
255,060;  630,739;   -0,269;    1,318
255,658;  619,451;    0,822;   -0,136
256,255;  757,442;    0,186;   -2,045
256,853;  786,719;   -0,269;    1,409
257,451;  763,220;    0,822;    1,864
258,048; 1281,903;    1,822;    1,864
258,646;  895,047;    1,731;   -1,045
259,243; 1018,173;   -0,087;    2,227
259,841;  895,548;   -0,814;    0,318
260,438;  716,906;   -0,087;    0,864
261,036;  871,794;   -1,905;    1,409
261,633;  764,105;   -0,087;    2,227
262,231;  702,064;    2,731;   -0,045
262,828;  731,005;   -0,905;    1,136
263,425;  786,430;    0,913;   -0,591
264,023;  796,375;    0,186;    0,045
264,620;  959,938;   -0,360;   -0,318
265,217; 1105,278;   -2,087;    3,136
265,815;  787,139;   -1,905;    2,136
266,412;  932,478;    0,731;    0,136
267,009;  984,029;   -1,451;    0,773
267,606; 1095,865;    0,822;   -0,955
268,203;  826,650;   -0,269;   -0,591
268,801;  908,536;    1,731;    0,591
269,398;  816,839;   -0,360;    2,500
269,995;  985,096;    0,277;    1,591
270,592;  870,867;   -0,632;   -0,500
271,189;  801,842;    0,186;    0,409
271,786;  774,624;   -0,632;    1,227
272,383; 1086,084;   -1,087;    0,227
272,980;  898,316;    0,277;    0,318
273,577;  867,215;    0,004;    1,227
274,174;  787,708;    0,822;    2,591
274,771;  935,906;   -0,814;   -0,773
275,367; 1406,843;    2,277;    1,409
275,964; 1200,864;    0,731;   -0,500
276,561;  972,114;    1,549;   -1,045
277,158;  886,760;    0,095;   -1,773
277,755; 1165,702;    2,185;    0,409
278,351;  970,311;   -0,451;   -1,500
278,948; 1087,417;   -0,815;    0,045
279,545;  979,041;   -1,360;    2,318
280,141; 1282,912;   -1,723;   -2,045
280,738; 1139,707;   -0,451;   -0,136
281,334;  921,112;   -1,633;    0,591
281,931;  943,309;   -0,087;   -1,318
282,528; 1062,086;    0,822;   -0,500
283,124; 1210,147;   -1,087;   -0,500
283,721; 1178,456;   -0,451;    1,409
284,317;  991,324;    0,185;    2,500
284,913; 1255,471;   -1,360;    0,591
285,510; 1584,562;    0,640;   -0,318
286,106; 1359,444;   -2,269;   -0,955
286,703; 1010,661;   -0,360;    1,955
287,299;  980,185;   -1,451;   -0,591
287,895;  993,032;    0,822;   -1,045
288,491; 1025,566;    0,186;    2,136
289,088; 1165,006;   -2,360;    2,409
289,684; 1190,997;   -1,723;    1,500
290,280; 1359,612;    0,368;    0,682
290,876; 1338,472;    1,822;    5,500
291,472; 1194,490;    1,276;    2,227
292,068; 1206,825;    1,367;    0,227
292,665; 1031,457;    2,095;    0,773
293,261;  900,223;    0,276;    2,136
293,857; 1124,867;    2,913;    2,136
294,453; 1040,151;    3,550;    0,955
295,049; 1267,399;   -0,268;    1,955
295,644; 1073,552;    0,095;    0,136
296,240;  930,308;   -0,905;   -0,136
296,836; 1104,296;   -0,995;    0,318
297,432; 1285,594;    1,096;   -0,500
298,028; 1348,236;    0,732;    0,773
298,624; 1170,959;    1,459;    1,864
299,220; 1142,967;    2,368;    0,591
299,815; 1095,806;    1,005;   -0,409
300,411; 1204,581;    0,914;    1,773
301,007; 1355,574;    1,368;    0,227
301,602; 1153,310;   -0,541;   -2,318
302,198; 1287,576;    0,732;   -0,773
302,794; 1138,938;    1,187;   -0,500
303,389; 1108,510;   -1,177;    1,045
303,985; 1184,988;    0,550;    1,409
304,580; 1294,474;    1,459;    1,591
305,176; 1166,214;   -3,086;    0,136
305,771; 1046,478;   -1,268;   -1,227
306,367; 1484,901;    4,095;    0,136
306,962; 1236,583;    0,641;    1,500
307,558; 1219,214;   -0,450;    0,136
308,153; 1343,677;    1,095;   -1,136
308,748; 1144,076;   -0,814;    1,682
309,344; 1557,904;   -0,632;   -1,318
309,939; 1589,464;   -1,905;   -1,318
310,534; 1244,865;   -0,086;   -1,682
311,130; 1161,545;    0,459;   -2,500
311,725; 1083,525;    1,004;   -0,500
312,320; 1187,052;    2,459;    0,045
312,915; 1346,238;    1,459;   -1,045
313,510; 1570,264;    1,550;   -0,500
314,105; 1330,063;    1,096;    1,409
314,700; 1070,589;   -3,086;   -1,045
315,295; 1136,747;   -0,904;    0,045
315,890; 1029,475;    1,277;    0,864
316,485; 1173,270;   -0,359;   -0,318
317,080; 1115,692;   -3,086;    1,591
317,675; 1477,243;    2,005;   -0,682
318,270; 1646,893;    5,550;    3,318
318,865; 1572,975;    3,278;    3,045
319,460; 1347,580;   -0,904;    0,591
320,055; 1205,711;   -0,541;   -1,227
320,650; 1165,664;   -1,995;   -0,591
321,244; 1188,482;   -0,177;   -1,409
321,839; 1329,342;   -1,541;   -0,227
322,434; 1366,416;   -1,086;   -1,591
323,029; 1234,758;    1,732;    1,591
323,623; 1169,985;    1,550;    0,773
324,218; 1317,151;    2,368;    1,409
324,812; 1242,583;    1,096;    1,591
325,407; 1244,398;   -0,814;    2,045
326,002; 1354,413;    0,277;   -0,409
326,596; 1310,653;    0,914;    1,318
327,191; 1155,823;    0,823;   -1,045
327,785; 1072,108;   -0,813;   -0,227
328,379; 1186,645;    1,368;    0,136
328,974; 1187,648;    0,914;   -3,955
329,568; 1247,595;    0,186;   -2,409
330,163; 1309,870;    2,096;    1,045
330,757; 1187,384;    2,459;    1,591
331,351; 1091,563;    0,459;    0,682
331,945; 1109,111;    0,914;    1,409
332,540; 1254,117;   -1,723;   -0,591
333,134; 1217,763;   -1,086;    0,773
333,728; 1191,932;    0,005;    0,318
334,322; 1131,084;   -1,177;   -0,864
334,916; 1028,675;    0,277;    0,955
335,510; 1250,366;   -0,450;   -0,136
336,105; 1291,369;   -1,086;    1,591
336,699; 1118,416;   -1,086;    0,591
337,293; 1154,745;   -1,723;    0,318
337,887; 1081,419;   -2,723;    1,955
338,481; 1275,839;    0,459;    0,591
339,074; 1424,939;   -0,359;    2,682
339,668; 1372,801;   -1,632;    1,227
340,262; 2047,956;    1,732;    3,227
340,856; 1554,670;    1,822;   -0,682
341,450; 1101,564;    1,004;    1,864
342,044; 1231,018;    1,459;    0,136
342,637; 1386,408;    0,913;   -2,136
343,231; 1420,498;   -2,360;    0,682
343,825; 1200,953;   -1,086;   -0,591
344,419; 1180,618;   -1,995;    0,500
345,012; 1804,178;    2,459;    4,045
345,606; 1588,576;    4,641;    1,591
346,199; 1221,283;   -1,813;   -0,227
346,793; 1352,417;    1,914;    2,045
347,386; 1136,935;   -0,813;   -1,136
347,980;  992,314;   -0,268;   -0,045
348,573; 1133,170;    2,278;    0,409
349,167; 1422,645;    5,278;    4,773
349,760; 1363,120;    2,914;    2,682
350,354; 1276,889;   -0,813;    1,136
350,947; 1334,623;    1,096;    1,682
351,540; 1092,245;   -0,358;   -1,409
352,134;  931,486;    1,096;    1,136
352,727; 1006,179;   -0,086;    1,136
353,320; 1040,352;    0,005;    0,591
353,913;  914,498;   -1,995;    1,864
354,507; 1177,815;    0,823;   -1,227
355,100; 1063,853;    0,460;    0,864
355,693; 1501,345;    2,005;    2,409
356,286; 1196,750;    0,823;    2,773
356,879; 1033,410;   -0,722;    1,227
357,472;  977,803;   -0,904;    1,500
358,065; 1073,295;   -0,722;    2,500
358,658;  911,310;   -0,540;    2,318
359,251;  831,601;   -1,631;   -0,591
359,844; 1043,541;   -1,904;   -1,136
360,437; 1158,504;   -2,995;    0,045
361,030; 1000,689;    1,369;   -0,682
361,623;  966,453;    2,824;    0,318
362,215; 1239,272;   -0,086;    2,045
362,808; 1054,961;   -2,358;   -1,682
363,401;  977,925;   -2,449;    0,136
363,994; 1241,115;   -0,631;   -1,500
364,586;  975,135;    0,824;   -1,500
365,179;  922,615;   -0,449;   -1,136
365,772;  719,122;   -1,995;    2,045
366,364;  900,797;    1,915;   -3,227
366,957; 1031,845;    2,279;   -0,045
367,549;  926,833;    2,188;   -0,864
368,142;  920,067;    1,825;   -1,500
368,734;  877,901;    0,734;   -2,136
369,327;  788,006;    1,643;   -0,500
369,919;  842,620;   -1,538;    0,409
370,512;  897,108;   -1,083;   -0,500
371,104; 1176,709;   -0,901;    1,591
371,696; 1235,539;    1,191;   -0,955
372,289; 1069,615;    0,373;    1,136
372,881;  998,523;   -2,080;    1,318
373,473;  840,974;   -2,170;    1,136
374,066;  974,619;   -0,169;    0,500
374,658;  930,969;    0,378;    1,136
375,250;  874,870;    0,653;   -1,409
375,842;  946,606;    0,473;   -0,045
376,434;  882,798;   -0,435;   -0,409
377,026;  929,721;    0,204;   -2,500
377,618;  950,289;   -0,158;   -0,682
378,210;  853,841;   -0,338;   -1,955
378,802;  794,797;    0,754;   -0,591
379,394; 1321,007;    1,846;    0,682
379,986; 1054,502;    1,393;   -0,955
380,578;  959,069;   -0,153;    0,773
381,170; 1223,111;   -0,972;    0,045
381,762; 1077,433;    0,755;    1,409
382,354; 1026,131;   -0,065;   -1,318
382,945;  918,496;   -2,976;    0,318
383,537;  871,943;   -2,705;   -1,955
384,129;  881,283;   -2,160;   -1,136
384,721; 1025,602;   -0,252;    0,955
385,312;  910,586;   -0,161;   -0,955
385,904; 1063,227;   -2,706;    1,591
386,496;  886,563;   -0,979;    1,045
387,087; 1077,570;    1,022;    2,500
387,679; 1004,768;   -1,160;    0,045
388,270; 1029,019;    2,840;    2,045
388,862;  966,436;    1,295;   -0,318
389,453;  879,075;   -0,887;    1,045
390,045;  946,891;   -0,705;   -2,682
390,636;  852,922;    0,204;   -0,591
391,227;  893,586;   -0,523;   -0,045
391,819;  905,009;    0,204;    0,773
392,410; 1200,945;    1,022;    0,045
393,001;  985,484;   -0,979;   -1,591
393,593; 1084,711;    1,930;   -0,045
394,184; 1148,229;    1,385;   -0,409
394,775;  927,968;    1,839;    2,136
395,366;  915,193;    1,385;    0,773
395,957; 1146,966;    0,113;    0,136
396,548; 1013,650;   -0,342;    2,682
397,139; 1207,478;   -2,433;    0,591
397,730; 1068,172;   -1,888;    0,955
398,321; 1057,202;   -1,252;    0,955
398,912;  994,185;   -0,615;    0,136
399,503; 1034,625;   -3,524;   -1,409
400,094; 1025,587;    0,294;    1,682
400,685; 1018,534;   -0,433;    0,045
401,276;  912,190;    0,930;   -0,955
401,867;  927,358;   -0,888;    0,773
402,458;  902,715;   -2,251;   -2,318
403,048; 1094,965;    1,112;    0,591
403,639;  965,782;    0,840;    0,864
404,230; 1196,895;    2,476;    0,318
404,821; 1253,170;   -0,615;    0,045
405,411; 1118,241;    1,203;   -2,591
406,002;  951,441;   -1,252;   -1,136
406,592; 1263,934;    2,294;    0,045
407,183; 1088,956;    0,566;   -1,500
407,774; 1029,747;    3,475;   -0,136
408,364; 1004,574;    0,930;    0,409
408,954; 1143,850;    0,384;    1,227
409,545; 1154,278;    1,021;    1,045
410,135; 1034,253;    1,293;    0,500
410,726;  995,424;    1,838;    0,318
411,316; 1257,831;    0,111;    0,773
411,906; 1010,483;   -0,253;   -0,409
412,497;  996,613;   -1,070;   -0,045
413,087;  966,273;   -1,980;   -0,227
413,677;  931,973;   -0,707;    3,864
414,267;  892,571;    0,656;    1,409
414,857;  849,806;   -2,980;    4,227
415,448;  897,593;    0,839;    0,500
416,038;  908,458;    0,020;   -0,591
416,628;  971,219;   -0,889;    0,409
417,218; 1065,613;    0,565;    3,318
417,808; 1269,120;    0,202;   -0,409
418,398; 1082,677;    0,020;    2,682
418,988;  935,446;    2,020;    0,591
419,578; 1062,750;   -0,707;    1,409
420,168; 1062,046;   -1,343;   -0,955
420,757; 1234,141;   -1,343;   -1,500
421,347; 1053,549;    0,111;   -0,227
421,937; 1008,617;    2,292;    1,409
422,527; 1178,913;    0,838;   -0,773
423,116; 1347,399;   -0,253;   -0,045
423,706; 1011,056;   -1,889;    0,318
424,296;  903,947;    1,384;    0,682
424,885; 1158,038;   -0,071;   -3,045
425,475; 1113,444;    1,474;   -2,864
426,065;  953,338;   -0,980;   -0,318
426,654;  923,342;   -0,435;   -0,318
427,244; 1333,936;    0,020;    1,409
427,833; 1263,966;    1,383;   -0,500
428,423; 1085,788;   -0,526;    1,136
429,012; 1157,663;   -0,344;   -1,136
429,601; 1260,426;   -1,344;    0,136
430,191; 1112,653;    1,292;    4,318
430,780;  923,166;   -0,344;   -0,409
431,369; 1269,616;    0,746;   -0,045
431,959; 1191,754;   -1,254;    0,500
432,548; 1034,056;   -1,163;   -0,045
433,137;  939,617;   -1,254;   -1,318
433,726; 1124,356;    0,292;    0,500
434,315; 1080,887;   -0,526;    2,409
434,905; 1231,789;   -1,254;    1,409
435,494; 1303,342;    0,746;    0,955
436,083; 1110,124;   -0,981;   -0,955
436,672; 1174,594;    0,110;    0,500
437,261; 1120,967;    0,292;   -1,955
437,850; 1516,967;    1,383;    0,682
438,439; 1554,836;    3,291;    1,955
439,027; 1668,816;    3,655;    1,773
439,616; 1620,177;    2,927;    1,227
440,205; 1289,097;    0,200;   -2,136
440,794; 1171,858;    2,109;   -0,045
441,383; 1070,894;   -1,346;   -0,591
441,971;  962,859;   -2,436;    0,591
442,560;  988,619;    0,563;   -1,773
443,149;  857,113;    0,379;   -1,318
443,737;  985,748;   -0,074;   -2,318
444,326;  997,191;    0,018;    0,318
444,915; 1075,059;   -1,982;    0,864
445,503; 1115,598;   -2,891;   -0,318
446,092; 1441,669;    0,382;    2,136
446,680; 1397,347;    0,382;    0,318
447,269; 1311,969;   -0,346;   -0,318
447,857; 1226,873;    0,018;   -1,773
448,445; 1153,937;    0,563;    1,318
449,034; 1119,160;   -1,528;   -1,136
449,622; 1095,442;   -1,073;    3,500
450,210; 1570,276;    2,017;    2,227
450,799; 1461,974;    0,290;   -0,591
451,387; 1309,411;    1,381;   -0,591
451,975; 1295,587;    2,654;    0,864
452,563; 1466,607;    3,472;    2,318
453,151; 1139,863;   -0,528;   -1,227
453,739; 1213,131;   -1,347;    0,136
454,328; 1442,286;    2,381;   -2,136
454,916; 1282,249;    2,562;   -0,136
455,504; 1271,392;    1,017;    1,227
456,092; 1134,280;    0,017;   -1,591
456,679; 1034,667;    1,472;    0,682
457,267; 1754,935;    4,017;    1,045
457,855; 1219,129;    1,017;    1,409
458,443;  923,250;   -0,165;    1,682
459,031; 1337,299;    0,108;    2,409
459,619; 1258,909;   -1,801;    2,864
460,206; 1061,809;    0,835;    2,045
460,794; 1088,572;   -2,983;   -0,227
461,382; 1210,295;   -0,529;   -0,864
461,970; 1117,380;    1,198;    1,864
462,557; 1048,456;   -0,711;   -0,682
463,145; 1298,356;   -3,165;   -1,682
463,732; 1642,002;    2,016;   -1,045
464,320; 1269,308;   -0,075;   -3,045
464,907; 1495,226;    2,743;   -0,773
465,495; 1346,738;    0,743;   -1,227
466,082; 1195,648;   -1,984;   -0,045
466,670; 1175,047;   -2,529;    1,227
467,257; 1077,408;   -1,711;    2,045
467,844; 1269,491;   -0,075;    0,045
468,432; 1242,984;    0,834;    3,500
469,019; 1118,228;    0,925;   -1,773
469,606; 1238,447;    0,470;    3,682
470,193; 1305,126;   -1,439;    0,227
470,780; 1264,594;   -2,075;    0,864
471,368; 1145,393;   -1,257;   -0,773
471,955; 1300,768;    1,379;   -0,682
472,542; 1194,909;    0,652;   -1,136
473,129; 1005,272;   -0,166;    0,136
473,716;  989,935;    1,470;    0,591
474,303; 1057,680;    0,652;   -0,864
474,890; 1104,189;   -1,439;   -0,500
475,477; 1263,391;   -1,621;    0,409
476,064; 1086,102;    1,106;   -1,591
476,650; 1256,782;    0,288;    0,318
477,237; 1151,600;   -0,258;    0,955
477,824; 1109,656;   -1,076;    0,864
478,411;  940,166;   -1,894;   -0,318
478,997;  953,460;    0,560;   -0,773
479,584;  857,449;    1,196;   -0,409
480,171; 1277,343;   -0,440;   -0,773
480,757; 1392,221;    2,651;    0,773
481,344; 1183,903;    0,469;    0,409
481,931;  943,252;    1,105;    1,045
482,517; 1314,225;   -1,258;    0,318
483,104; 1473,992;    1,106;    2,864
483,690; 1332,018;   -1,804;    0,045
484,276; 1296,670;   -0,895;    0,227
484,863; 1659,010;    2,469;    1,136
485,449; 1419,738;   -0,077;    0,318
486,035; 1307,958;   -1,986;   -0,136
486,622; 1530,955;   -0,895;    0,045
487,208; 1383,075;    1,378;    1,500
487,794; 1254,973;    0,741;    0,318
488,380; 1295,317;    0,105;   -1,409
488,967; 1270,843;   -1,168;   -0,409
489,553; 1291,614;   -1,895;   -1,409
490,139; 1458,356;    1,559;    0,773
490,725; 1260,855;    0,741;   -0,227
491,311; 1267,353;    3,287;    3,045
491,897; 1113,561;   -0,986;    1,500
492,483; 1124,180;    0,105;    1,227
493,069; 1937,594;    3,923;    0,864
493,655; 1385,583;    1,650;    0,682
494,241; 1186,626;    1,377;   -0,955
494,826; 1277,605;    0,287;   -1,045
495,412; 1347,153;    2,559;   -0,682
495,998; 1205,968;   -0,805;   -0,318
496,584; 1282,310;    0,377;    1,045
497,169; 1223,495;    1,014;   -0,682
497,755; 1086,629;    0,650;    1,227
498,341; 1494,032;    0,559;    0,318
498,926; 1656,898;    1,832;    1,955
499,512; 1246,689;    1,286;    2,955
500,097; 1168,116;    0,195;   -0,318
500,683; 1205,556;   -0,350;    2,136
501,268; 1154,031;   -0,169;   -0,955
501,854; 1192,861;   -0,169;    1,227
502,439; 1118,109;   -0,624;   -1,773
503,024; 1249,565;    0,195;    0,500
503,610; 1309,269;   -0,078;   -0,682
504,195; 1108,915;    0,558;    1,955
504,780; 1285,612;    2,922;    1,227
505,366; 1461,650;    3,013;    2,864
505,951; 1295,145;    0,740;    1,045
506,536; 1191,731;   -3,260;   -3,682
507,121; 1248,355;    0,285;   -0,318
507,706; 1219,382;    2,376;    1,045
508,291; 1132,790;    2,649;    1,136
508,876; 1084,279;   -0,988;    2,591
509,461; 1152,639;   -0,169;   -0,773
510,046; 1255,061;    0,194;    0,318
510,631; 1236,274;   -0,351;   -0,773
511,216; 1119,577;    2,467;   -0,500
511,801; 1265,209;   -0,442;    2,591
512,386; 1279,251;    0,740;    0,500
512,971; 1310,408;   -2,988;    0,955
513,555; 1383,055;   -0,897;   -1,500
514,140; 1366,483;   -0,442;   -3,136
514,725; 1476,581;   -0,715;   -1,136
515,309; 1349,165;   -0,533;    0,318
515,894; 1199,244;   -0,624;   -2,227
516,479; 1245,514;   -0,624;   -0,955
517,063; 1228,798;    0,376;    1,227
517,648; 1217,924;    1,012;   -1,136
518,232; 1116,360;   -0,261;   -1,409
518,817; 1246,466;   -0,079;    1,682
519,401; 1453,410;    2,194;    0,591
519,985; 1262,976;    1,103;    1,136
520,570; 1100,956;    0,830;   -1,955
521,154; 1296,804;    2,102;    0,591
521,738; 1589,687;   -2,352;    2,409
522,323; 1437,751;   -0,170;    1,682
522,907; 1337,476;    0,466;   -0,136
523,491; 1216,139;    0,557;    0,955
524,075; 1138,790;    2,284;    0,591
524,659; 1382,370;    1,466;    0,591
525,243; 1264,954;    1,739;    0,409
525,827; 1195,432;    0,648;   -0,045
526,411; 1265,188;   -1,989;   -0,136
526,995; 1446,637;   -0,352;    1,409
527,579; 1461,873;   -0,443;   -1,045
528,163; 1391,654;    0,375;   -1,500
528,747; 1584,792;    2,466;   -0,773
529,331; 1533,932;   -0,080;   -1,409
529,915; 1271,402;    1,738;    0,955
530,499; 1386,217;   -0,807;    1,227
531,082; 1517,765;   -0,534;    1,591
531,666; 1581,341;    1,374;    0,773
532,250; 1499,261;    1,284;    2,682
532,833; 1666,930;    0,920;    2,773
533,417; 1424,678;   -1,807;    0,864
534,001; 1543,213;    1,647;   -0,318
534,584; 1491,856;    0,374;    0,500
535,168; 1295,838;    0,465;    1,409
535,751; 1718,535;    0,647;    0,045
536,334; 1347,341;   -0,898;   -0,409
536,918; 1308,500;    0,011;    1,591
537,501; 1307,987;   -0,899;    1,318
538,085; 1348,503;   -0,444;    1,045
538,668; 1369,064;    0,829;    2,409
539,251; 1767,351;    1,829;    3,773
539,834; 1497,407;    0,101;    0,773
540,418; 1619,930;   -1,990;    4,318
541,001; 1783,856;   -0,990;    1,773
541,584; 1514,996;    2,101;    2,227
542,167; 1587,332;    1,374;    2,955
542,750; 1449,959;    1,919;   -0,773
543,333; 1222,430;    0,555;    2,136
543,916; 1580,784;    0,192;    2,500
544,499; 1440,142;   -1,354;    0,227
545,082; 1556,620;    1,374;    3,591
545,665; 1465,189;    1,919;    1,500
546,248; 1607,339;    1,010;   -0,318
546,830; 1570,110;   -0,445;    1,955
547,413; 1605,310;    1,010;   -0,773
547,996; 1671,240;    0,555;    0,500
548,579; 1472,297;    0,919;    0,955
549,161; 1742,411;    1,828;    2,682
549,744; 1622,104;   -0,809;    0,409
550,326; 1548,212;   -0,809;   -1,136
550,909; 2035,515;    2,737;    0,591
551,492; 1716,887;   -0,263;    0,227
552,074; 1787,498;   -0,173;   -1,318
552,657; 1850,594;    2,373;    0,045
553,239; 1674,911;   -0,173;   -0,773
553,821; 1587,371;   -1,082;    1,045
554,404; 1772,401;    1,282;    1,136
554,986; 1917,780;    0,464;    1,045
555,568; 1823,642;    1,191;   -0,955
556,151; 2006,929;    1,191;   -0,227
556,733; 1680,099;   -0,264;   -0,864
557,315; 1685,473;    0,100;    0,500
557,897; 1487,071;    0,554;   -0,500
558,479; 1498,273;   -1,991;    1,318
559,061; 1624,447;   -0,719;   -0,864
559,643; 1764,684;   -0,264;    0,045
560,225; 1799,575;    1,645;    2,864
560,807; 1683,412;    0,918;    0,318
561,389; 1609,643;    0,554;    2,318
561,971; 1676,161;    0,463;    2,136
562,553; 1677,914;   -1,628;    1,591
563,135; 1760,981;   -0,537;    1,136
563,717; 2096,333;    3,372;    1,136
564,298; 1997,515;    3,645;   -0,045
564,880; 1718,437;    0,645;   -1,409
565,462; 1600,619;    0,645;    1,318
566,043; 1945,967;   -0,446;    2,318
566,625; 2083,049;    1,918;    1,227
567,207; 1839,572;    1,099;    1,682
567,788; 1857,798;   -1,264;    1,500
568,370; 1994,561;    1,917;   -0,500
568,951; 1857,129;    0,190;    0,227
569,533; 2068,594;   -0,628;   -0,500
570,114; 2197,413;   -0,446;    0,682
570,695; 2235,212;   -0,174;   -1,318
571,277; 2189,864;   -0,265;   -1,682
571,858; 2430,687;    2,008;   -1,136
572,439; 2473,933;    1,554;   -1,045
573,021; 2438,404;    2,099;   -2,773
573,602; 2557,199;   -1,265;    0,318
574,183; 2621,401;   -2,083;    2,227
574,764; 2630,645;   -1,629;    0,409
575,345; 2747,742;    0,917;   -0,136
575,926; 2721,339;   -0,356;    0,136
576,507; 2781,008;    1,099;   -0,227
577,088; 2927,187;    3,099;    1,682
577,669; 3051,624;    0,735;    1,955
578,250; 3303,038;    0,644;   -1,045
578,831; 3169,062;   -1,356;   -2,227
579,412; 3044,639;   -0,810;    0,955
579,993; 3349,754;    1,008;    0,227
580,573; 3359,129;   -0,629;   -0,955
581,154; 3023,363;    0,735;   -0,591
581,735; 3223,704;    0,644;    0,773
582,315; 3085,704;   -0,629;    2,136
582,896; 3265,917;   -0,174;    1,227
583,477; 3071,675;    0,189;    1,227
584,057; 3157,478;    0,553;    0,955
584,638; 3240,845;    2,553;    2,318
585,218; 3414,824;   -0,538;    2,682
585,799; 3329,756;    0,281;   -0,227
586,379; 3237,732;    0,372;    1,591
586,959; 3070,680;    0,735;    0,318
587,540; 2917,300;   -0,629;    2,227
588,120; 2827,005;    1,007;   -0,045
588,700; 2696,077;    2,553;    2,136
589,281; 2941,850;    0,462;   -0,955
589,861; 2818,361;    0,099;   -1,682
590,441; 2746,686;    2,371;   -2,682
591,021; 2541,017;   -0,265;   -2,591
591,601; 2641,037;   -0,537;    0,500
592,181; 2754,459;   -0,719;   -0,773
592,761; 2426,230;    0,007;    1,409
593,341; 2581,941;   -0,901;    0,045
593,921; 2549,275;   -0,265;    1,591
594,501; 2432,047;   -0,538;    1,318
595,081; 2401,078;    0,917;   -0,318
595,661; 2636,991;   -1,447;    0,955
596,240; 2702,858;   -0,537;    0,136
596,820; 2843,966;    0,372;    1,955
597,400; 2570,785;    2,008;    0,773
597,980; 2595,609;    2,008;    1,045
598,559; 2587,941;    2,735;   -0,227
599,139; 2523,357;   -0,174;   -1,227
599,718; 2514,994;   -0,174;   -0,409
600,298; 2597,853;    0,735;    0,682
600,877; 2949,181;    2,917;    1,409
601,457; 2876,561;    2,281;    1,136
602,036; 2740,846;    0,190;    2,045
602,616; 2683,600;    0,644;    1,682
603,195; 2835,916;   -0,355;    3,500
603,774; 2751,784;   -0,901;    2,045
604,354; 2664,526;    0,826;   -0,500
604,933; 2572,283;    0,463;    1,864
605,512; 2772,822;    3,554;    0,591
606,091; 2770,760;   -0,537;    3,773
606,671; 2838,203;    0,281;    0,773
607,250; 2810,403;    1,644;    3,136
607,829; 2810,745;    2,372;    3,227
608,408; 2688,740;    1,190;    2,591
608,987; 2627,829;    1,281;    3,409
609,566; 2510,363;   -1,265;   -2,500
610,145; 2606,953;   -1,082;    0,682
610,723; 2763,991;    4,372;    6,864
611,302; 2504,204;   -0,446;    1,682
611,881; 2628,002;    5,008;   11,227
612,460; 2533,935;    1,645;    3,955
613,039; 2610,670;   -0,082;    2,045
613,617; 2319,783;    1,736;    4,773
614,196; 2353,938;    1,099;    1,227
614,775; 2507,922;    1,009;    2,409
615,353; 2504,368;    0,736;    0,864
615,932; 2441,119;    0,100;    2,409
616,510; 2578,095;    0,554;    0,591
617,089; 2947,324;    7,100;   17,591
617,667; 2634,127;    2,372;    6,136
618,246; 2297,570;   -1,537;    1,318
618,824; 2403,330;   -3,355;   -0,955
619,402; 2350,338;   -2,900;   -1,773
619,981; 2505,860;   -0,173;   -1,045
620,559; 2466,232;    0,009;    1,682
621,137; 2473,827;   -0,718;    1,864
621,715; 2165,775;   -1,173;   -0,682
622,293; 2209,907;   -0,537;   -0,773
622,871; 2491,291;   -0,718;    0,500
623,450; 2318,269;    0,373;   -0,864
624,028; 2426,135;    0,191;   -0,955
624,606; 2345,677;   -1,718;    1,682
625,183; 2251,278;   -1,536;   -1,136
625,761; 2272,178;    1,009;    1,136
626,339; 2645,537;    1,373;    2,591
626,917; 2394,902;   -0,172;   -0,045
627,495; 2417,295;   -0,354;    1,318
628,073; 2357,529;   -0,263;    2,864
628,650; 2298,829;    0,100;    2,136
629,228; 2396,964;    0,373;    4,409
629,806; 2115,756;    2,282;    1,136
630,383; 2200,966;    1,464;   -0,318
630,961; 2205,304;    2,555;   -0,955
631,539; 2148,946;    2,464;    0,227
632,116; 2798,486;   11,373;   15,409
632,694; 2471,893;    2,555;    6,500
633,271; 2277,522;    0,828;    2,682
633,848; 2402,555;    1,828;    2,045
634,426; 2216,704;   -1,081;    1,773
635,003; 2051,201;    1,101;   -0,409
635,580; 2388,529;    1,192;    3,682
636,158; 2247,137;    3,737;    1,227
636,735; 2105,343;    0,555;   -0,500
637,312; 2113,687;   -0,809;   -0,682
637,889; 2130,111;   -4,354;   -0,682
638,466; 2101,931;   -3,990;   -0,409
639,043; 2089,041;    2,101;   -1,136
639,620; 2095,757;   -2,262;   -0,955
640,197; 2242,966;    1,100;    1,682
640,774; 2238,897;   -0,172;    1,136
641,351; 2306,010;    0,737;    1,136
641,928; 2348,850;   -0,627;    1,409
642,505; 2454,509;    0,828;   -0,500
643,082; 2351,894;   -1,718;    1,227
643,658; 2005,462;   -0,718;    1,500
644,235; 2123,393;    1,191;    2,500
644,812; 2280,688;    1,918;    0,773
645,388; 2212,801;   -0,991;    1,409
645,965; 2014,823;   -0,809;    1,682
646,542; 2051,027;   -1,445;   -0,227
647,118; 2480,594;    1,009;   -0,955
647,695; 2325,071;   -0,263;    1,136
648,271; 2132,548;   -0,536;    0,500
648,848; 2246,570;    0,736;    2,227
649,424; 2369,683;    0,827;    1,318
650,000; 2081,250;   -0,354;   -1,045
650,577; 2167,181;   -0,627;   -0,955
651,153; 2284,203;   -1,809;    0,955
651,729; 2283,044;    1,191;    0,864
652,305; 2561,975;    0,645;    2,773
652,881; 3024,633;   -0,082;    1,136
653,458; 3991,201;    1,100;    0,227
654,034; 4568,768;    0,282;    1,591
654,610; 4623,881;    0,554;    0,773
655,186; 5033,449;    0,645;    3,045
655,762; 4716,471;   -0,991;    0,409
656,338; 4659,402;    0,100;    0,136
656,913; 4982,333;   -0,082;    0,409
657,489; 4713,810;    0,827;   -0,318
658,065; 4810,559;   -0,173;   -1,591
658,641; 5069,763;   -0,900;   -0,864
659,217; 4787,694;   -0,991;    0,409
659,792; 4545,080;    0,645;   -0,409
660,368; 4656,374;   -2,173;   -0,682
660,944; 4836,033;   -2,082;    1,227
661,519; 4123,691;   -0,628;    0,409
662,095; 3224,713;   -1,719;    0,591
662,670; 2512,554;    1,281;   -0,136
663,246; 2474,121;    1,009;   -0,409
663,821; 2511,961;    0,281;    1,682
664,396; 2234,529;    0,009;    1,864
664,972; 2291,915;    0,009;   -0,500
665,547; 2461,482;    1,372;    0,136
666,122; 2373,050;   -1,082;    0,318
666,698; 2542,163;   -0,173;    0,318
667,273; 2195,912;   -0,173;    0,136
667,848; 2379,207;    2,372;    1,500
668,423; 2467,229;    2,190;    2,318
668,998; 2384,796;    2,827;   -0,682
669,573; 2448,273;   -3,264;   -1,500
670,148; 2583,568;   -1,446;   -0,682
670,723; 2319,953;   -1,810;    0,318
671,298; 2679,612;    2,372;    1,045
671,873; 2545,634;   -0,082;   -0,136
672,448; 2531,292;    0,645;    0,136
673,023; 2573,496;   -1,992;   -0,227
673,597; 2753,791;    0,827;    2,318
674,172; 2726,631;   -0,355;    0,318
674,747; 2566,471;    0,372;   -1,045
675,321; 2354,766;   -0,628;    3,318
675,896; 2235,243;    0,645;    1,045
676,471; 2472,083;    2,645;    1,591
677,045; 2361,378;   -1,264;    0,682
677,620; 2393,582;    0,190;    1,136
678,194; 2445,695;   -2,628;    1,136
678,769; 2425,444;   -1,083;   -0,318
679,343; 2505,830;   -0,628;    1,773
679,917; 2562,852;   -1,446;    1,955
680,492; 2410,328;    0,826;    3,227
681,066; 2461,623;    3,372;    0,409
681,640; 2466,827;    1,463;   -0,318
682,214; 2598,486;    0,735;    0,500
682,788; 2507,053;   -1,356;   -0,773
683,363; 2536,530;   -1,810;    1,682
683,937; 2394,188;   -1,719;   -0,318
684,511; 2614,665;    0,463;   -0,591
685,085; 2560,505;   -1,356;    0,318
685,659; 2417,072;   -2,538;    0,864
686,232; 2655,913;   -0,356;   -0,318
686,806; 2551,753;   -0,901;    0,409
687,380; 2622,866;   -0,174;    0,591
687,954; 2630,706;   -1,174;    1,136
688,528; 2727,910;   -0,719;    1,955
689,101; 2816,569;   -3,992;    1,045
689,675; 2613,318;   -0,356;   -0,136
690,249; 2649,158;   -0,719;    0,409
690,822; 2722,907;    0,280;    0,318
691,396; 2609,566;   -0,265;    1,227
691,969; 2462,406;    1,280;    0,136
692,543; 2567,428;   -0,447;   -1,955
693,116; 2368,087;   -0,265;   -1,409
693,690; 2431,745;    0,099;    0,500
694,263; 2568,040;   -1,083;    2,955
694,836; 2801,971;    1,371;    3,591
695,410; 2504,811;   -0,265;    1,773
695,983; 2531,561;    0,189;    0,591
696,556; 2438,037;   -0,447;   -1,045
697,129; 2493,877;   -0,356;    1,409
697,703; 2475,081;   -1,629;    1,955
698,276; 2490,376;    1,462;   -0,773
698,849; 2523,762;    1,280;    1,409
699,422; 2383,511;   -1,083;    0,591
699,995; 2291,079;    0,007;    0,136
700,568; 2496,192;   -0,629;    3,045
701,140; 2502,395;   -2,811;    1,682
701,713; 2619,690;   -0,174;    2,409
702,286; 2510,076;   -0,538;    0,864
702,859; 2486,098;   -0,902;   -0,591
703,432; 2416,211;    0,825;    0,682
704,004; 2396,597;    0,462;    0,318
704,577; 2228,255;   -0,629;    0,136
705,150; 2354,277;    0,189;    2,500
705,722; 2450,299;   -0,356;   -3,227
706,295; 2463,685;   -0,175;   -0,591
706,867; 2297,980;   -0,175;    1,955
707,440; 2505,547;   -1,720;   -0,409
708,012; 2575,933;    0,462;    0,591
708,584; 2423,319;    2,462;    0,227
709,157; 2413,432;    1,825;   -0,591
709,729; 2525,636;    2,280;    2,045
710,301; 2672,748;    0,734;    0,045
710,874; 2626,134;   -1,447;   -0,227
711,446; 2250,793;    0,371;    0,864
712,018; 2348,633;    0,098;    0,500
712,590; 2252,109;   -1,993;    1,682
713,162; 2562,859;    0,825;    1,318
713,734; 2441,608;    1,825;   -2,045
714,306; 2413,812;   -1,902;   -0,409
714,878; 2238,470;    0,825;    0,864
715,450; 2377,674;    0,643;    0,864
716,022; 2411,333;    1,552;    1,318
716,593; 2425,446;    0,189;    0,591
717,165; 2475,741;   -3,175;   -1,227
717,737; 2588,944;    0,280;    0,409
718,309; 2438,330;    0,280;   -0,045
718,880; 2357,352;   -0,539;   -1,409
719,452; 2466,101;   -0,175;   -1,591
720,024; 2442,578;    0,734;   -0,591
720,595; 2456,418;   -2,902;    0,955
721,167; 2343,622;    0,370;   -2,045
721,738; 2319,099;   -0,812;   -1,045
722,309; 2389,030;   -0,993;   -1,227
722,881; 2235,325;   -1,357;    0,773
723,452; 2419,983;   -2,630;    2,864
724,023; 2476,278;   -0,721;    2,682
724,595; 2497,391;    0,007;    0,682
725,166; 2296,049;    0,007;   -0,409
725,737; 2448,708;    1,734;    0,227
726,308; 2364,003;   -0,266;    0,318
726,879; 2283,025;   -1,630;    1,227
727,450; 2412,138;    0,552;   -0,045
728,021; 2289,069;    3,097;    0,682
728,592; 2422,000;    0,734;    0,500
729,163; 2571,295;    0,643;   -0,136
729,734; 2597,771;    0,188;   -0,227
730,305; 2459,521;    1,734;    0,136
730,876; 2432,543;    0,188;    2,955
731,447; 2748,110;    2,188;    2,682
732,017; 2635,314;    1,097;    1,864
732,588; 2502,882;    0,734;    1,227
733,159; 2653,267;    0,643;   -1,045
733,729; 2391,562;    0,006;    0,409
734,300; 2431,675;    0,915;    0,864
734,870; 2384,879;    3,461;    0,591
735,441; 2422,356;    0,370;   -0,591
736,011; 2306,105;    0,643;   -1,591
736,582; 2354,491;   -0,812;    0,045
737,152; 2319,058;   -1,721;   -2,045
737,722; 2384,807;   -0,267;   -0,682
738,293; 2219,011;   -1,358;    1,318
738,863; 2387,306;    2,461;    2,318
739,433; 2626,692;    5,279;    0,318
740,003; 2519,896;   -0,994;   -0,682
740,573; 2534,100;    2,097;   -1,591
741,143; 2479,304;   -1,085;    0,318
741,713; 2473,962;    1,188;   -0,500
742,283; 2432,711;    0,915;    1,591
742,853; 2336,824;    1,915;    1,591
743,423; 2163,210;    1,733;    0,045
743,993; 2232,232;   -0,358;    1,500
744,563; 2117,163;    0,097;   -0,864
745,133; 2148,367;   -0,812;   -0,864
745,702; 2273,207;   -0,267;    1,773
746,272; 2310,775;   -0,176;    0,591
746,842; 2303,161;   -1,358;   -0,591
747,411; 2219,273;   -0,267;   -0,318
747,981; 2147,841;    0,097;    0,500
748,551; 2168,772;    2,278;   -1,045
749,120; 2257,158;    0,642;   -0,227
749,690; 2292,907;   -0,631;    2,409
750,259; 2441,020;    1,369;    2,955
750,828; 2441,769;    1,551;   -1,955
751,398; 2320,701;    1,278;   -0,045
751,967; 2629,086;    2,187;    0,409
752,536; 2405,290;   -0,813;   -0,227
753,105; 2561,676;    0,096;    0,227
753,675; 2345,880;    0,096;    1,773
754,244; 2335,720;   -0,904;    3,591
754,813; 2339,378;    0,551;    1,227
755,382; 2247,673;    0,460;    0,955
755,951; 2420,514;    1,551;    3,682
756,520; 2456,717;   -0,085;    1,864
757,089; 2708,558;    0,278;    0,500
757,658; 2418,034;    1,733;    1,227
758,227; 2303,420;    1,096;    0,318
758,795; 2393,169;    1,187;    1,136
759,364; 2544,555;   -0,086;   -0,591
759,933; 2227,395;   -1,176;   -0,045
760,501; 2189,326;    0,733;   -1,318
761,070; 2333,985;   -2,813;   -1,409
761,639; 2576,643;   -1,904;    1,318
762,207; 2373,483;    1,551;   -0,955
762,776; 2440,869;    0,369;    0,864
763,344; 2325,619;   -0,995;    0,591
763,913; 1964,277;   -0,722;    1,409
764,481; 2607,208;    1,005;   -0,136
765,049; 2544,867;   -1,358;    1,409
765,618; 2430,070;   -0,086;    0,318
766,186; 2352,456;    0,278;    0,136
766,754; 2374,296;    0,005;    1,864
767,322; 2066,227;   -1,995;    0,409
767,890; 2037,250;   -0,722;   -1,773
768,459; 2233,726;   -2,177;   -0,318
769,027; 2434,294;    1,641;    3,409
769,595; 2141,588;    3,278;    2,591
770,163; 2195,520;    3,823;    2,955
770,730; 2198,360;    0,732;   -0,136
771,298; 2162,200;    0,187;   -1,409
771,866; 2164,404;   -1,541;    4,955
772,434; 2197,517;   -0,631;   -1,864
773,002; 2452,812;    0,005;    0,682
773,569; 2321,561;    0,914;    1,682
774,137; 2375,947;   -0,268;   -0,045
774,705; 2378,787;    0,278;   -0,136
775,272; 2183,809;    0,641;    0,682
775,840; 2286,649;   -0,177;    2,682
776,407; 2253,217;    0,277;    1,955
776,975; 2023,421;   -0,632;    0,318
777,542; 2189,534;   -1,086;   -0,045
778,110; 2189,010;   -1,268;   -0,045
778,677; 2040,851;   -2,359;   -0,864
779,244; 2076,418;    2,186;    1,045
779,812; 2226,622;    1,823;    0,864
780,379; 2260,462;    0,005;    1,136
780,946; 2160,121;    1,005;   -0,773
781,513; 2175,415;   -1,450;    0,318
782,080; 2024,710;   -0,086;    2,864
782,647; 2160,914;   -0,268;    3,045
783,214; 2085,027;   -0,177;    3,864
783,781; 2215,686;   -0,723;   -0,682
784,348; 2189,798;   -0,632;    1,500
784,915; 2045,639;   -3,177;    0,318
785,482; 2194,206;    1,368;    2,591
786,049; 2270,046;    0,186;   -0,591
786,615; 2215,705;    0,277;   -0,955
787,182; 2115,636;    0,186;   -0,682
787,749; 2075,204;   -2,814;    1,409
788,315; 2080,407;   -1,632;   -0,409
788,882; 2118,884;    1,550;   -1,227
789,448; 2405,724;    1,732;   -0,955
790,015; 2224,110;    1,095;    3,227
790,581; 2314,041;    1,459;    0,227
791,148; 2129,063;    0,641;    1,045
791,714; 2106,358;   -0,541;    3,136
792,280; 2058,107;    0,186;    1,591
792,847; 1982,493;    0,550;    2,500
793,413; 2072,515;   -0,269;   -0,318
793,979; 2142,446;    3,459;   -1,318
794,545; 2489,741;    4,459;    2,682
795,111; 2265,218;    2,186;    1,318
795,678; 2145,058;    0,731;   -1,682
796,244; 2309,080;    3,368;    0,136
796,810; 2275,829;    1,731;    0,773
797,375; 2250,851;    0,549;   -2,136
797,941; 1886,510;   -0,541;    0,591
798,507; 1865,168;   -0,451;   -0,955
799,073; 1876,827;   -0,360;    0,591
799,639; 1944,485;   -2,632;    3,136
800,205; 1883,144;    0,095;    2,682
800,770; 1835,893;    0,640;    1,773
801,336; 1794,824;    1,368;   -0,955
801,901; 2410,755;    4,549;    3,136
802,467; 2157,232;   -0,542;    2,045
803,033; 1817,345;   -0,087;    0,864
803,598; 1846,003;    1,913;   -1,045
804,163; 1902,662;    1,095;   -0,318
804,729; 1989,775;   -0,178;    1,136
805,294; 1922,524;    0,822;    2,227
805,859; 1790,910;    0,731;   -0,409
806,425; 2156,023;    1,186;    2,682
806,990; 2125,681;    2,186;    4,318
807,555; 1951,612;   -1,451;    2,591
808,120; 2105,271;    0,822;   -0,409
808,685; 1837,020;    0,185;   -2,500
809,250; 1689,497;    0,004;   -0,500
809,815; 1777,064;    1,913;    0,682
810,380; 1977,359;   -0,269;    1,591
810,945; 2129,108;   -1,087;    2,045
811,510; 1964,676;    2,094;    1,591
812,075; 1872,061;   -0,633;   -1,409
812,640; 2157,811;    2,003;    1,409
813,204; 1964,196;    0,822;   -0,227
813,769; 2179,128;    2,094;   -0,045
814,334; 2116,059;    0,458;    0,864
814,898; 1888,263;    0,367;    0,591
815,463; 1885,285;    1,276;   -0,773
816,027; 1828,034;   -0,724;   -2,318
816,592; 1854,329;    0,640;   -2,045
817,156; 1876,442;    2,094;    1,136
817,721; 1931,918;    4,276;    2,318
818,285; 1734,940;    2,912;    1,500
818,849; 1871,053;   -1,451;    1,682
819,414; 1755,439;   -0,269;    2,955
819,978; 1690,188;   -1,269;    1,773
820,542; 2106,847;    2,003;    0,500
821,106; 1942,505;   -0,815;    0,682
821,670; 2084,709;   -0,815;    2,591
822,234; 1856,459;   -0,270;    1,409
822,798; 1692,753;    0,003;    0,500
823,362; 2004,412;   -0,633;    4,227
823,926; 1724,343;    0,094;    1,136
824,490; 1928,638;   -0,997;   -0,682
825,054; 1836,478;   -0,088;   -1,136
825,618; 1683,045;   -1,542;   -1,500
826,181; 1721,613;    0,458;   -1,318
826,745; 1775,544;    1,367;   -1,045
827,309; 2073,293;    1,185;    1,318
827,872; 1923,225;    1,367;    0,955
828,436; 1898,065;    1,185;   -0,773
828,999; 1847,996;   -0,997;    1,227
829,563; 1765,927;   -0,179;    1,136
830,126; 1710,586;   -0,179;   -0,591
830,690; 1718,971;   -1,997;    2,864
831,253; 1602,993;   -0,543;    2,227
831,816; 1678,743;   -1,906;    0,500
832,380; 1588,583;    0,185;    0,864
832,943; 1612,241;   -1,361;   -0,500
833,506; 1614,991;    2,639;   -1,227
834,069; 1838,195;    3,912;   -0,955
834,632; 1732,580;    1,730;    1,318
835,195; 1742,693;    1,003;    0,955
835,758; 1638,624;   -0,997;    1,955
836,321; 1563,828;    0,730;   -1,045
836,884; 1584,123;   -0,725;   -0,955
837,447; 1581,781;   -2,816;    1,773
838,010; 1724,531;    0,366;    3,227
838,573; 1797,644;   -1,179;    0,773
839,135; 1710,848;   -1,361;   -0,955
839,698; 1625,233;    1,275;    0,409
840,261; 1571,528;    1,003;   -0,227
840,823; 1519,550;   -0,543;    0,864
841,386; 1517,481;   -0,452;   -2,409
841,948; 1866,594;   -1,361;    1,773
842,511; 1564,707;    0,912;    1,682
843,073; 1841,638;    1,912;    0,227
843,636; 1578,297;   -0,361;   -0,227
844,198; 1787,137;    0,911;    0,591
844,760; 1759,341;    1,093;    1,955
845,322; 1493,999;    0,548;    1,136
845,885; 1664,749;    0,730;    0,591
846,447; 1655,589;   -1,998;    0,227
847,009; 1972,520;    1,911;   -0,682
847,571; 1667,997;    0,820;   -2,045
848,133; 1630,928;   -1,089;   -1,864
848,695; 1489,132;   -0,543;    1,409
849,257; 1560,518;   -1,089;   -1,682
849,819; 1728,449;   -0,998;   -0,409
850,381; 1589,834;   -0,725;   -0,864
850,942; 1656,038;    1,093;   -0,591
851,504; 1689,969;    1,184;    0,227
852,066; 1603,082;    1,275;   -1,591
852,628; 1612,923;   -0,180;    1,955
853,189; 1415,127;    1,638;    2,682
853,751; 1499,694;   -0,907;    1,409
854,312; 1680,807;   -0,453;   -1,682
854,874; 1829,011;   -2,089;   -0,773
855,435; 1652,306;   -0,907;   -1,682
855,997; 1765,237;   -1,816;   -0,136
856,558; 1762,077;    0,366;    1,773
857,119; 1614,917;    0,820;    2,864
857,681; 1468,485;    0,002;    0,318
858,242; 1698,871;    1,911;   -2,136
858,803; 1790,347;    0,456;   -0,773
859,364; 1715,733;    0,184;   -4,773
859,925; 1732,664;   -2,453;   -0,955
860,486; 1630,413;   -0,453;   -0,955
861,047; 1504,254;   -0,544;   -1,227
861,608; 1521,821;   -1,089;   -0,773
862,169; 1476,480;    0,638;   -0,045
862,730; 1504,502;    0,456;    1,409
863,291; 1582,160;   -0,635;   -0,500
863,852; 1563,273;   -0,635;    1,955
864,412; 1501,568;   -0,271;   -0,864
864,973; 1664,499;   -0,089;    0,500
865,534; 1831,430;   -1,726;    0,227
866,094; 1656,543;    1,820;    0,227
866,655; 1745,020;    1,274;    3,318
867,215; 1617,951;    0,274;    0,136
867,776; 1497,609;    0,547;   -0,136
868,336; 1561,449;   -1,453;    0,136
868,897; 1946,108;    2,638;    1,682
869,457; 1710,494;    1,365;    0,318
870,017; 1554,879;    0,547;   -1,227
870,578; 1558,992;   -0,817;    0,773
871,138; 1516,742;   -2,089;   -0,955
871,698; 1401,582;   -0,817;   -1,318
872,258; 1538,513;   -0,453;   -2,864
872,818; 1769,171;    2,729;    0,045
873,378; 1572,466;    0,638;    1,045
873,938; 1491,034;    0,547;    0,500
874,498; 1407,238;    0,274;   -1,955
875,058; 1470,442;    2,183;    1,773
875,618; 1462,373;    1,910;   -2,682
876,177; 1507,486;    1,274;    0,136
876,737; 1276,690;   -0,090;    1,955
877,297; 1736,075;    0,183;    1,955
877,856; 1646,734;   -0,362;    0,318
878,416; 1379,483;    1,183;   -0,136
878,976; 1376,323;   -1,817;    0,409
879,535; 1432,163;    0,092;    3,136
880,095; 1419,913;   -0,544;    0,045
880,654; 1302,208;   -1,090;    1,318
881,213; 1665,139;    2,456;    1,500
881,773; 1463,070;    2,637;    2,682
882,332; 2094,819;    3,365;    5,136
882,891; 1501,841;    3,092;    2,136
883,451; 1507,772;   -1,272;    1,682
884,010; 1386,158;   -2,908;   -0,409
884,569; 1365,544;   -0,999;   -0,045
885,128; 1590,384;    2,819;   -1,864
885,687; 1903,497;    4,455;    0,682
886,246; 2061,701;    1,455;    2,136
886,805; 1752,723;    2,455;    2,045
887,364; 1428,109;   -0,999;   -0,500
887,922; 1340,404;   -1,181;    0,045
888,481; 1483,062;   -1,545;    0,591
889,040; 1655,811;    1,183;    2,136
889,599; 1532,561;    2,455;    1,409
890,157; 1530,583;    1,455;    2,409
890,716; 1432,150;   -0,090;    0,227
891,274; 1521,081;    0,092;   -1,136
891,833; 1634,467;    1,546;    0,864
892,391; 1436,216;   -0,454;    0,500
892,950; 1629,238;    1,819;   -0,773
893,508; 1450,988;    0,455;   -0,409
894,067; 1290,464;    0,637;    0,136
894,625; 1401,396;   -0,636;   -1,500
895,183; 1376,145;   -0,363;   -0,682
895,741; 1700,076;    1,728;   -1,773
896,299; 1459,098;   -0,545;   -2,409
896,858; 1370,302;    0,819;   -1,591
897,416; 1514,506;    2,728;   -1,318
897,974; 1431,437;    1,819;    0,318
898,532; 1946,005;    6,091;    2,682
899,089; 1567,754;    2,091;   -0,682
899,647; 1447,140;   -1,454;    1,318
900,205; 1503,616;    1,182;    1,045
900,763; 1504,456;   -0,454;    0,227
901,321; 1470,478;    2,364;   -1,409
901,878; 1266,137;   -1,000;   -0,773
902,436; 1318,250;   -1,363;    1,318
902,994; 2167,817;    4,728;    3,682
903,551; 1627,021;    0,728;    0,409
904,109; 1520,771;    0,182;   -1,409
904,666; 1448,611;    2,455;    1,045
905,224; 1314,724;    0,182;   -0,409
905,781; 1476,382;    0,727;   -0,318
906,338; 1390,404;   -1,363;    1,045
906,895; 1257,426;    0,637;    2,045
907,453; 1558,994;    1,727;    1,136
908,010; 1399,834;   -0,909;    0,409
908,567; 1331,038;    1,273;    0,591
909,124; 1126,969;    0,364;   -1,500
909,681; 1197,537;   -2,909;    0,682
910,238; 1286,104;    0,636;   -1,318
910,795; 1268,490;   -0,273;   -1,136
911,352; 1247,581;   -2,909;   -2,682
911,909; 1229,672;   -1,364;   -0,864
912,466; 1303,944;   -3,182;    1,500
913,022; 1302,399;   -1,636;    0,500
913,579; 1428,763;   -0,909;    2,045
914,136; 1290,217;    1,636;    0,955
914,692; 1365,399;    0,091;   -1,227
915,249; 1285,399;    1,455;    0,409
915,806; 1373,490;    0,182;    1,955
916,362; 1285,035;    1,909;    1,864
916,918; 1163,217;    2,000;    1,045
917,475; 1392,944;   -1,182;    0,955
918,031; 1195,672;    3,364;   -0,045
918,587; 1271,308;   -0,909;   -0,318
919,144; 1182,944;   -2,273;    0,227
919,700; 1141,854;    1,727;    0,773
920,256; 1109,217;    0,727;    0,045
920,812; 1132,581;   -0,727;   -1,045
921,368; 1093,217;   -1,727;   -1,045
921,924; 1064,308;    0,182;   -0,136
922,480; 1164,944;   -0,545;    1,227
923,036; 1215,217;    1,273;    1,955
923,592; 1107,763;    0,455;    0,318
924,148; 1139,217;    0,455;   -0,955
924,704; 1279,399;   -1,364;   -0,409
925,259; 1114,399;   -0,273;    0,591
925,815; 1068,217;    1,455;    0,500
926,371; 1026,308;    2,909;    1,409
926,926; 1197,399;    2,091;    0,591
927,482; 1141,672;   -1,364;    0,773
928,037; 1065,399;    0,909;    2,045
928,593; 1291,308;    1,636;    1,045
929,148; 1033,035;   -1,818;   -1,500
929,704; 1092,944;   -1,455;   -0,500
930,259;  960,763;    0,091;   -0,136
930,814; 1174,854;   -0,818;    1,955
931,369; 1092,763;    1,091;   -0,773
931,925;  881,581;   -0,091;    0,136
932,480;  979,672;   -2,818;   -2,591
933,035; 1395,581;    0,545;   -0,318
933,590; 1256,763;    0,364;   -1,773
934,145;  816,672;   -1,364;   -0,318
934,700;  729,126;    0,455;   -0,591
935,255;  809,308;   -0,091;    0,045
935,809; 1148,763;    3,182;    0,864
936,364;  734,035;   -0,455;   -0,136
936,919;  749,308;    0,455;   -1,773
937,474;  658,308;    1,455;    0,136
938,028;  686,490;   -1,636;    1,136
938,583; 1099,035;    1,818;    4,682
939,138;  734,581;    2,091;    2,136
939,692;  577,763;    1,636;   -1,136
940,247;  625,490;   -0,727;   -1,045
940,801;  696,763;   -0,636;    0,227
941,355;  592,035;   -0,364;    2,591
941,910;  465,399;   -0,273;   -2,136
942,464;  511,217;   -0,818;   -0,318
943,018;  797,581;    1,000;   -0,227
943,572;  603,854;    2,545;   -0,682
944,126;  659,581;    0,091;   -0,409
944,681;  527,854;    3,091;    0,227
945,235;  469,490;    1,000;   -0,591
945,789;  417,581;    0,364;   -1,864
946,342;  747,763;    0,455;   -0,591
946,896;  475,217;   -2,273;    0,955
947,450;  448,126;    1,545;   -0,227
948,004;  725,035;    1,727;   -0,045
948,558;  507,399;    0,273;   -0,864
949,111;  501,399;   -0,273;   -0,318
949,665;  726,126;    1,636;   -0,682
950,219;  670,763;   -0,091;   -1,045
950,772;  586,126;   -1,909;    1,864
951,326;  581,944;    0,545;   -0,955
951,879;  496,581;    0,727;   -2,318
952,433;  643,399;    0,000;    2,227
952,986;  467,035;    2,909;    0,682
953,539;  414,308;   -0,273;    0,591
954,093;  358,308;    0,545;   -1,318
954,646;  518,126;    0,909;    1,318
955,199;  433,854;    0,000;   -0,500
955,752;  649,126;   -0,455;    1,773
956,305;  486,035;   -0,091;    2,955
956,858;  544,854;    0,818;   -0,318
957,411;  618,217;   -0,545;    2,136
957,964;  502,672;    1,364;    2,136
958,517;  411,763;   -1,545;    3,136
959,070;  362,490;   -0,455;    1,955
959,623;  679,308;    1,091;    1,500
960,176;  613,581;    1,727;    2,045
960,728;  577,035;   -2,727;    0,773
961,281;  521,126;    0,545;    0,500
961,834;  430,126;   -0,909;    0,864
962,386;  435,035;    1,727;    1,045
962,939;  397,126;    0,364;   -0,318
963,491;  444,581;    0,455;    1,136
964,043;  379,490;    1,182;    2,409
964,596;  573,308;   -1,000;    2,227
965,148;  469,672;   -1,000;    1,773
965,700;  371,763;    1,091;   -0,227
966,253;  547,035;   -0,636;    0,318
966,805;  501,763;   -2,273;    0,773
967,357;  429,035;    1,091;   -1,500
967,909;  560,308;    0,455;   -1,227
968,461;  426,763;    0,545;    3,136
969,013;  375,854;   -0,182;   -0,864
969,565;  542,763;   -0,455;   -1,136
970,117;  802,035;   -0,364;    1,045
970,669;  541,399;    0,182;   -0,136
971,220;  320,581;   -0,455;   -1,500
971,772;  421,672;   -0,636;   -0,318
972,324;  524,581;    0,091;   -0,500
972,876;  430,399;    0,818;   -0,045
973,427;  567,035;    1,909;   -1,045
973,979;  633,763;   -0,727;   -2,500
974,530;  409,672;    1,818;    1,318
975,082;  479,035;   -0,545;    1,682
975,633;  421,308;    1,091;    1,682
976,184;  488,854;    0,909;    0,773
976,736;  472,490;    0,091;    0,227
977,287;  489,217;   -0,909;   -0,500
977,838;  448,763;    0,909;   -0,318
978,389;  463,308;   -1,000;   -0,500
978,940;  315,581;    0,545;   -0,409
979,491;  306,217;    0,091;   -0,500
980,042;  421,490;    0,182;    3,045
980,593;  422,854;   -2,545;    0,227
981,144;  522,217;    2,545;   -0,500
981,695;  582,126;    1,455;    1,500
982,246;  515,763;   -0,273;    1,045
982,797;  370,672;   -1,727;    0,682
983,347;  530,944;    0,364;    0,591
983,898;  752,308;    3,091;    0,409
984,449;  693,944;    2,182;    0,773
984,999;  515,763;    1,455;   -1,136
985,550;  477,126;    0,182;   -0,318
986,100;  314,854;   -0,455;   -0,318
986,651;  316,672;   -0,818;    0,045
987,201;  356,217;   -1,000;   -0,591
987,751;  366,944;    0,818;    2,864
988,302;  427,490;    2,636;    1,500
988,852;  473,581;    0,455;   -1,136
989,402;  538,490;    0,091;    0,682
989,952;  569,217;   -2,182;    0,864
990,502;  401,854;   -0,091;    0,682
991,052;  291,035;   -0,727;    0,045
991,602;  339,308;   -2,909;    1,318
992,152;  402,672;    0,455;    0,682
992,702;  435,308;    1,364;   -0,045
993,252;  374,035;   -3,000;   -0,500
993,802;  483,490;   -0,273;    1,318
994,352;  433,944;   -1,545;    1,136
994,901;  336,944;   -0,182;    3,227
995,451;  324,399;   -0,182;    0,318
996,000;  359,490;    1,636;    0,318
996,550;  369,490;    2,273;    0,227
997,100;  411,490;    1,273;   -0,045
997,649;  570,126;    2,182;    0,955
998,198;  367,126;    1,727;   -1,500
998,748;  498,581;    1,091;   -2,318
999,297;  423,035;   -0,818;   -0,409
999,846;  565,672;    1,000;   -0,773
1000,395;  465,217;   -0,818;    0,500
1000,945;  583,581;    1,818;   -0,773
1001,494;  589,672;    2,364;    0,682
1002,043;  561,854;    4,636;    0,864
1002,592;  368,035;   -1,091;    1,955
1003,141;  370,035;   -0,455;   -0,682
1003,690;  536,126;    1,727;    0,500
1004,238;  404,854;    1,455;   -0,045
1004,787;  314,308;    1,364;    1,227
1005,336;  514,672;    0,364;    0,682
1005,885;  459,399;    1,364;   -2,773
1006,433;  448,672;    0,545;    0,955
1006,982;  657,490;    0,455;    1,682
1007,531;  486,035;   -1,818;   -0,227
1008,079;  432,944;   -2,273;    0,500
1008,627;  369,854;   -1,455;    0,409
1009,176;  388,944;    0,000;   -1,955
1009,724;  339,126;    1,091;    0,864
1010,273;  506,490;    1,273;    0,500
1010,821;  374,672;    0,091;    1,409
1011,369;  330,126;   -1,364;    1,318
1011,917;  367,399;   -1,364;   -0,591
1012,465;  454,399;    1,273;   -1,591
1013,013;  432,944;    2,091;   -1,682
1013,561;  547,126;    0,455;   -0,773
1014,109;  642,581;   -1,909;    1,682
1014,657;  510,581;    0,364;    0,591
1015,205;  392,854;    1,636;   -0,955
1015,753;  338,490;   -0,545;   -1,409
1016,301;  424,035;   -2,636;    3,045
1016,848;  499,581;   -1,273;    0,409
1017,396;  503,308;    2,545;    0,045
1017,944;  500,126;    1,182;    1,864
1018,491;  400,308;    0,273;    1,409
1019,039;  733,763;    0,455;    0,591
1019,586;  467,308;   -1,364;    1,682
1020,134;  455,399;    0,455;    1,500
1020,681;  533,944;    0,182;   -1,136
1021,228;  436,035;    2,909;   -2,227
1021,776;  414,672;    1,182;   -1,136
1022,323;  656,217;    0,455;    0,773
1022,870;  560,126;   -1,000;   -0,045
1023,417;  611,944;    2,636;    1,864
1023,964;  428,217;    2,636;    1,227
1024,511;  405,035;    1,000;    0,773
1025,058;  432,490;    3,182;   -0,045
1025,605;  387,035;   -2,273;    3,136
1026,152;  619,944;    1,727;   -0,591
1026,699;  462,763;    1,818;    1,318
1027,245;  439,490;   -0,091;    0,318
1027,792;  375,126;   -1,000;    1,409
1028,339;  610,581;    2,364;   -0,045
1028,885;  459,763;    1,000;   -0,227
1029,432;  405,763;   -0,091;    0,227
1029,978;  526,490;   -1,000;   -1,591
1030,525;  520,126;    1,000;    0,409
1031,071;  377,763;   -1,364;    1,136
1031,618;  686,399;    0,364;    1,682
1032,164;  501,126;   -0,091;    3,045
1032,710;  545,217;    1,636;   -1,500
1033,256;  517,581;   -0,636;   -0,136
1033,803;  356,854;   -0,545;    1,500
1034,349;  217,399;   -1,364;    0,136
1034,895;  264,944;    0,000;   -0,318
1035,441;  345,399;   -0,818;    0,318
1035,987;  400,490;   -2,364;   -0,682
1036,533;  480,763;   -1,455;   -0,955
1037,078;  682,308;    1,455;    1,682
1037,624;  529,490;    2,455;   -0,955
1038,170;  387,854;    0,455;   -0,318
1038,716;  479,763;    1,636;   -0,409
1039,261;  346,854;   -2,273;   -0,773
1039,807;  363,308;   -0,091;    3,409
1040,352;  398,308;   -1,909;   -0,318
1040,898;  389,944;   -1,545;   -0,682
1041,443;  309,399;   -1,455;   -2,591
1041,989;  624,672;    1,091;    1,591
1042,534;  408,581;   -0,364;    2,591
1043,079;  293,308;    2,909;    0,955
1043,625;  405,944;    1,818;    0,500
1044,170;  432,399;   -1,364;    1,045
1044,715;  640,308;    2,455;    0,955
1045,260;  532,490;    2,182;   -0,955
1045,805;  369,308;    1,182;   -0,591
1046,350;  328,581;    1,364;   -0,409
1046,895;  525,308;    2,909;    1,591
1047,440;  515,854;    5,364;    0,409
1047,985;  371,399;    2,818;   -0,955
1048,530;  348,854;    1,545;    1,227
1049,074;  407,581;    0,000;    0,318
1049,619;  342,035;   -1,364;    1,955
1050,164;  334,126;    0,455;    0,227
1050,708;  416,944;   -0,455;    0,045
1051,253;  676,399;    1,273;   -2,227
1051,797;  469,399;    0,818;   -1,318
1052,342;  294,581;   -1,182;    1,045
1052,886;  396,944;    0,364;   -1,409
1053,430;  270,490;   -1,364;    0,136
1053,975;  371,035;   -0,818;   -0,318
1054,519;  379,763;   -0,727;    3,227
1055,063;  454,035;    0,909;    1,318
1055,607;  433,763;   -0,182;    0,227
1056,151;  425,944;    2,909;    1,682
1056,695;  339,763;    2,273;   -1,136
1057,239;  334,308;   -1,727;   -0,682
1057,783;  388,217;    0,818;   -1,500
1058,327;  456,126;    0,000;    1,409
1058,871;  598,854;   -0,545;    1,318
1059,415;  466,490;   -0,818;   -0,045
1059,958;  635,399;    1,455;    2,591
1060,502;  391,035;   -1,000;   -0,773
1061,046;  275,399;    0,364;   -0,955
1061,589;  257,308;   -3,000;   -1,136
1062,133;  229,217;   -1,273;    1,864
1062,676;  274,399;    1,182;    0,864
1063,220;  311,763;    1,091;    0,500
1063,763;  346,399;    0,909;    1,136
1064,306;  376,944;   -0,909;    1,864
1064,849;  368,672;   -0,909;    0,591
1065,393;  344,854;    2,000;   -1,500
1065,936;  349,944;    0,182;   -0,409
1066,479;  266,944;   -1,455;    1,318
1067,022;  291,672;   -0,273;   -0,227
1067,565;  259,581;   -0,091;   -1,318
1068,108;  232,944;    0,727;   -0,591
1068,651;  201,490;   -0,636;    1,409
1069,194;  213,581;   -0,455;   -1,682
1069,736;  241,763;   -1,273;    0,955
1070,279;  208,399;   -1,364;   -0,500
1070,822;  302,672;   -2,000;   -0,318
1071,364;  441,672;   -0,364;    1,318
1071,907;  287,035;   -0,727;    3,227
1072,450;  135,672;    0,000;   -0,045
1072,992;  217,308;   -0,273;    3,136
1073,535;  302,490;    2,091;    2,136
1074,077;  213,308;   -0,727;    2,045
1074,619;  205,672;   -1,364;    0,591
1075,161;  238,854;   -1,091;    1,500
1075,704;  376,672;    1,545;    1,227
1076,246;  224,581;   -0,182;    0,682
1076,788;  152,399;   -0,364;    1,773
1077,330;  162,944;    1,273;    2,136
1077,872;  211,308;    0,909;    0,955
1078,414;  388,672;    2,727;    0,773
1078,956;  238,399;    1,273;   -0,227
1079,498;  390,944;    1,636;    0,318
1080,040;  238,854;    1,909;   -1,318
1080,581;  196,854;    1,636;   -0,318
1081,123;  134,308;    0,091;   -0,773
1081,665;  149,581;   -1,182;   -0,955
1082,206;  346,944;    1,364;   -0,500
1082,748;  261,854;    0,727;    2,045
1083,289;  167,672;   -2,000;    1,318
1083,831;  160,399;   -0,545;    0,227
1084,372;  211,035;    0,000;    0,591
1084,913;  208,672;    1,091;    0,864
1085,455;  156,763;   -1,909;   -2,045
1085,996;  157,854;   -2,273;    0,136
1086,537;  185,944;   -0,091;    0,864
1087,078;  195,854;   -0,909;   -2,136
1087,619;  253,672;   -1,273;    0,227
1088,160;  206,126;    0,000;    1,318
1088,701;  181,581;   -1,091;    0,682
1089,242;  162,672;    1,364;   -2,227
1089,783;  218,035;   -0,273;    1,409
1090,324;  195,217;    0,455;    0,682
1090,865;  142,854;    2,727;   -0,409
1091,405;  112,490;    0,727;    2,227
1091,946;  157,035;    0,182;   -0,955
1092,487;  107,035;    0,818;   -1,409
1093,027;  228,944;   -1,364;   -1,500
1093,568;  151,217;   -0,364;    1,227
1094,108;  193,763;    0,273;    1,773
1094,649;  160,490;   -1,182;    0,136
1095,189;  123,854;   -0,636;   -0,682
1095,729;  120,399;   -0,091;    0,955
1096,269;  109,035;    0,727;   -0,955
1096,810;  273,308;   -1,364;    0,500
1097,350;  211,763;    1,364;   -0,773
1097,890;  160,217;    0,364;    1,227
1098,430;  330,308;    2,364;    2,864
1098,970;  258,217;    2,182;    1,682
1099,510;  142,854;    0,545;   -2,318
1100,050;  127,308;    1,000;   -1,591
1100,589;  133,581;   -0,727;   -0,318
1101,129;  184,763;    0,818;   -0,955
1101,669;  273,944;    1,727;    2,136
1102,209;  193,944;   -0,091;    2,227
1102,748;  162,944;    0,000;    0,955
1103,288;  166,490;    1,273;   -1,227
1103,827;  152,763;    3,091;   -2,227
1104,367;  113,581;   -0,091;   -2,409
1104,906;  113,126;    1,364;   -1,136
1105,445;  160,490;    0,636;   -1,136
1105,985;  131,490;   -0,727;    1,500
1106,524;  150,308;   -1,727;   -0,682
1107,063;  140,763;   -2,727;    1,409
1107,602;  108,490;   -1,909;   -1,500
1108,141;   93,035;   -1,909;    1,500
1108,680;  155,581;   -3,455;   -0,591
1109,219;  126,035;   -0,909;   -0,500
1109,758;  117,399;    0,455;    0,682
1110,297;  115,490;    1,000;   -0,682
1110,836;   89,035;   -0,727;    0,955
1111,375;  126,217;   -2,545;    0,409
1111,913;  161,399;   -1,000;    0,773
1112,452;  133,854;   -0,273;    0,136
1112,991;   83,126;    1,091;    1,955
1113,529;   80,399;   -0,818;   -0,045
1114,068;  110,854;   -0,273;    2,955
1114,606;   75,944;   -0,364;   -0,955
1115,144;  149,308;   -1,273;    1,045
1115,683;  114,490;   -0,727;    0,318
1116,221;  149,581;   -0,455;   -0,864
1116,759;  101,308;    0,636;   -0,864
1117,297;  178,944;    0,000;    1,864
1117,836;  102,672;   -2,182;   -1,227
1118,374;  107,126;    0,182;   -0,682
1118,912;  110,035;    0,909;    2,682
1119,450;  101,763;    1,000;    0,864
1119,988;  104,035;    1,545;    2,136
1120,525;  373,399;    5,091;    3,318
1121,063;  196,490;    1,182;    1,864
1121,601;  106,490;   -0,909;   -1,227
1122,139;   85,490;   -0,727;   -2,045
1122,676;  192,672;   -0,727;    2,773
1123,214;  161,035;   -1,182;    4,409
1123,751;   79,854;    1,727;    2,227
1124,289;  117,490;   -0,091;   -0,409
1124,826;   83,217;    1,727;    0,227
1125,364;   43,763;    1,727;   -0,955
1125,901;  147,944;    1,182;    1,227
1126,438;  166,763;    0,818;    0,955
1126,975;   53,308;   -0,727;   -0,773
1127,513;   72,854;    0,273;    2,136
1128,050;   50,854;    1,636;   -0,682
1128,587;   90,035;    2,000;   -0,227
1129,124;  115,490;    0,091;    1,318
1129,661;   61,944;    0,273;    0,227
1130,198;  137,035;    1,636;    0,773
1130,734;   95,581;    0,182;    1,409
1131,271;   46,308;   -0,909;    0,864
1131,808;  120,490;    2,909;    3,045
1132,345;   71,490;    1,545;    0,318
1132,881;   25,126;   -1,545;   -1,864
1133,418;   78,490;    0,727;   -1,136
1133,954;   55,581;    2,455;   -2,682
1134,491;   91,399;    1,364;   -0,773
1135,027;   54,399;    2,364;    0,864
1135,564;   85,763;    0,273;    2,955
1136,100;   79,490;    0,364;    2,136
1136,636;   40,217;   -1,273;   -1,045
1137,172;   65,944;    0,000;   -1,045
1137,708;   46,763;   -1,364;   -1,045
1138,245;   46,308;    1,273;   -1,227
1138,781;   33,672;    1,091;   -3,318
1139,317;   54,490;    1,273;   -1,409
1139,852;   60,217;    3,091;    0,136
1140,388;   83,854;   -1,182;   -0,409
1140,924;   49,217;   -1,091;   -2,227
1141,460;   30,763;   -1,636;    0,136
1141,996;   17,126;   -1,364;    2,682
1142,531;   32,308;    1,364;    3,318
1143,067;  109,854;    1,182;    1,045
1143,602;  139,126;   -0,091;   -0,318
1144,138;   70,944;   -2,636;    1,045
1144,673;   28,944;   -1,455;    1,409
1145,209;   48,308;   -1,909;   -0,318
1145,744;   23,581;   -0,727;    0,864
1146,279;   68,399;    1,818;   -0,136
1146,815;   41,944;    1,545;   -2,682
1147,350;   55,308;   -1,364;    0,045
1147,885;   27,581;   -0,818;   -1,318
1148,420;   27,217;   -2,273;    0,773
1148,955;   26,581;   -1,727;    1,864
1149,490;   28,944;   -0,909;   -1,591
1150,025;   20,672;    0,455;   -1,773
1150,560;   67,399;    1,091;   -0,955
1151,094;   53,035;    1,455;   -0,591
1151,629;   49,308;    1,636;    0,864
1152,164;   30,217;    1,364;    1,318
1152,698;   23,126;   -0,182;   -0,136
1153,233;    9,581;    0,091;   -0,682
1153,767;   19,763;   -3,000;   -2,318
1154,302;   34,126;   -1,455;    1,773
1154,836;   32,035;   -0,455;   -2,136
1155,371;   42,672;   -1,364;    3,682
1155,905;   31,763;   -0,636;    1,682
1156,439;   29,126;   -0,636;   -0,500
1156,973;   38,944;    0,364;    0,318
1157,507;   17,490;   -0,364;    0,682
1158,042;   26,763;   -0,727;    1,045
1158,576;   36,308;    0,182;    1,773
1159,110;   41,035;   -0,818;    2,409
1159,643;   33,126;    0,636;   -0,045
1160,177;   17,399;   -1,545;    1,500

