
Integration time [ms]:   0,040
Averaging Nr. [scans]: 11
Smoothing Nr. [pixels]: 0
Data measured with spectrometer [name]: 7318044SP
Wave   ;Sample   ;Dark     ;Reference
[nm]   ;[counts] ;[counts] ;[counts] 

186,757;   37,108;   31,551;    1,318
187,357;   43,434;   22,551;    0,955
187,958;   25,828;   15,460;   -1,591
188,558;   41,728;    8,915;   -1,227
189,159;   28,913;    6,733;   -4,500
189,759;   17,084;    7,278;   -3,591
190,360;   17,273;    2,824;   -2,136
190,960;   28,630;    2,915;   -4,136
191,560;   33,372;    3,189;   -6,591
192,161;  146,060;    4,372;   -3,500
192,761;   78,480;    4,010;   -3,227
193,361;   55,872;    1,556;   -3,773
193,962;   75,780;    2,010;   -2,682
194,562;   30,343;    1,189;   -3,955
195,162;   30,661;   -2,448;   -2,227
195,762;   95,877;   -3,176;   -0,045
196,362;   69,793;    1,370;   -2,500
196,963;   24,936;    2,006;   -0,864
197,563;   53,736;    1,551;   -0,955
198,163;   21,845;    0,096;   -0,682
198,763;   31,708;    1,733;   -0,500
199,363;   66,912;    3,096;   -0,500
199,963;   46,084;    0,369;    0,409
200,563;   40,376;    2,823;   -1,409
201,163;   32,237;    3,277;   -0,227
201,763;   55,014;    3,732;    0,318
202,363;   32,722;    1,459;    1,500
202,963;   56,586;    1,459;    1,045
203,563;  102,589;    0,277;    0,500
204,162;   54,622;    2,096;   -1,864
204,762;   47,249;    0,550;    0,591
205,362;   35,379;    3,004;    1,955
205,962;   61,956;    3,096;    1,955
206,562;   60,126;    1,823;    2,318
207,161;   39,791;   -0,087;    0,318
207,761;  118,765;    1,277;    2,409
208,361;   55,548;   -0,268;    1,409
208,960;   85,545;    0,459;    1,500
209,560;   81,183;    1,277;    1,591
210,160;   99,340;    0,550;    1,864
210,759;   80,261;    4,186;    1,227
211,359;   70,033;    1,459;    1,045
211,958;  199,729;    1,277;    2,045
212,558;  214,043;    1,732;    1,864
213,157;  130,332;    1,822;    1,500
213,757;  322,446;    3,822;   -0,227
214,356;  173,227;    1,277;   -0,409
214,956;  324,531;    3,095;    0,409
215,555;  148,760;    2,095;    2,136
216,154;  108,672;   -2,723;   -0,591
216,754;  110,110;    0,277;    0,773
217,353;  149,844;   -0,268;   -1,045
217,952;   63,112;   -0,178;    0,318
218,552;  190,757;    1,368;   -0,773
219,151;  127,676;    0,277;    0,955
219,750;  116,202;    0,004;   -0,227
220,349;   98,250;   -0,451;    1,045
220,948;  220,092;   -1,360;    1,136
221,548;  138,707;    0,913;    1,227
222,147;  179,033;   -0,087;   -0,409
222,746;  335,067;   -0,451;   -0,955
223,345;  228,290;    0,731;    0,500
223,944;  231,768;   -0,451;    0,773
224,543;  256,842;    1,004;   -1,409
225,142;  280,816;    0,094;    0,136
225,741;  261,004;   -0,814;    1,045
226,340;  242,139;   -0,451;   -0,955
226,939;  400,652;   -0,996;   -0,136
227,538;  246,255;   -0,360;   -0,773
228,137;  408,493;   -0,814;    0,864
228,735;  355,394;   -0,541;    1,227
229,334;  222,286;   -0,905;   -0,227
229,933;  447,854;    0,459;    0,591
230,532;  479,755;    1,186;   -0,409
231,131;  563,965;    1,732;    0,318
231,729;  433,085;   -2,450;   -2,318
232,328;  355,694;   -0,723;   -1,500
232,927;  365,367;    1,004;   -0,500
233,525;  346,170;    3,640;    0,045
234,124;  406,207;    2,368;   -1,591
234,723;  322,182;    0,913;   -1,045
235,321;  323,038;    2,277;    0,136
235,920;  384,730;    1,186;   -1,227
236,518;  586,132;    3,459;    0,318
237,117;  395,349;    0,004;   -0,227
237,715;  408,928;    0,640;   -0,500
238,314;  487,416;   -0,087;   -2,318
238,912;  667,964;   -0,723;   -1,409
239,510;  507,477;    0,459;   -1,227
240,109;  666,759;    0,004;    3,773
240,707;  620,615;   -0,996;    1,227
241,305;  448,676;    0,550;    0,136
241,904;  596,585;   -0,178;   -2,045
242,502;  706,791;   -0,632;   -0,227
243,100;  582,548;   -0,087;   -0,955
243,698;  529,491;    0,732;    1,682
244,297;  563,022;   -0,632;    0,682
244,895;  568,658;   -0,269;   -2,318
245,493;  799,465;    2,186;   -0,591
246,091;  772,884;    1,368;   -1,318
246,689;  707,512;    1,004;    0,591
247,287;  655,864;    0,822;   -1,136
247,885;  621,847;   -1,451;    1,227
248,483;  584,672;    1,822;   -0,500
249,081;  682,455;    0,185;    1,591
249,679;  755,607;   -0,178;    1,682
250,277;  588,880;   -1,723;    0,864
250,875;  755,011;   -1,087;   -1,045
251,473;  632,087;   -1,178;    0,500
252,071;  748,399;    1,459;    1,045
252,669;  668,949;   -1,814;    0,318
253,267;  603,956;   -0,087;    0,773
253,864;  646,137;   -0,360;    0,682
254,462;  845,186;    1,640;    1,591
255,060;  578,145;   -0,269;    1,318
255,658;  567,131;    0,822;   -0,136
256,255;  702,493;    0,186;   -2,045
256,853;  743,484;   -0,269;    1,409
257,451;  716,357;    0,822;    1,864
258,048; 1229,407;    1,822;    1,864
258,646;  849,087;    1,731;   -1,045
259,243;  979,302;   -0,087;    2,227
259,841;  842,864;   -0,814;    0,318
260,438;  666,853;   -0,087;    0,864
261,036;  815,669;   -1,905;    1,409
261,633;  704,330;   -0,087;    2,227
262,231;  651,109;    2,731;   -0,045
262,828;  671,884;   -0,905;    1,136
263,425;  734,027;    0,913;   -0,591
264,023;  738,145;    0,186;    0,045
264,620;  904,434;   -0,360;   -0,318
265,217; 1048,139;   -2,087;    3,136
265,815;  724,802;   -1,905;    2,136
266,412;  876,883;    0,731;    0,136
267,009;  922,804;   -1,451;    0,773
267,606; 1038,723;    0,822;   -0,955
268,203;  763,887;   -0,269;   -0,591
268,801;  843,399;    1,731;    0,591
269,398;  749,875;   -0,360;    2,500
269,995;  927,521;    0,277;    1,591
270,592;  810,562;   -0,632;   -0,500
271,189;  747,241;    0,186;    0,409
271,786;  724,220;   -0,632;    1,227
272,383; 1029,504;   -1,087;    0,227
272,980;  838,363;    0,277;    0,318
273,577;  803,100;    0,004;    1,227
274,174;  732,044;    0,822;    2,591
274,771;  876,222;   -0,814;   -0,773
275,367; 1348,728;    2,277;    1,409
275,964; 1143,923;    0,731;   -0,500
276,561;  902,974;    1,549;   -1,045
277,158;  816,425;    0,095;   -1,773
277,755; 1102,455;    2,185;    0,409
278,351;  919,442;   -0,451;   -1,500
278,948; 1015,081;   -0,815;    0,045
279,545;  916,712;   -1,360;    2,318
280,141; 1221,234;   -1,723;   -2,045
280,738; 1082,933;   -0,451;   -0,136
281,334;  865,056;   -1,633;    0,591
281,931;  890,507;   -0,087;   -1,318
282,528; 1002,378;    0,822;   -0,500
283,124; 1141,732;   -1,087;   -0,500
283,721; 1122,201;   -0,451;    1,409
284,317;  927,521;    0,185;    2,500
284,913; 1183,397;   -1,360;    0,591
285,510; 1520,488;    0,640;   -0,318
286,106; 1292,833;   -2,269;   -0,955
286,703;  947,144;   -0,360;    1,955
287,299;  908,682;   -1,451;   -0,591
287,895;  918,255;    0,822;   -1,045
288,491;  939,511;    0,186;    2,136
289,088; 1072,310;   -2,360;    2,409
289,684; 1117,222;   -1,723;    1,500
290,280; 1292,209;    0,368;    0,682
290,876; 1252,969;    1,822;    5,500
291,472; 1120,155;    1,276;    2,227
292,068; 1137,667;    1,367;    0,227
292,665;  958,046;    2,095;    0,773
293,261;  817,167;    0,276;    2,136
293,857; 1049,738;    2,913;    2,136
294,453;  964,937;    3,550;    0,955
295,049; 1204,126;   -0,268;    1,955
295,644; 1000,535;    0,095;    0,136
296,240;  847,484;   -0,905;   -0,136
296,836; 1027,939;   -0,995;    0,318
297,432; 1207,703;    1,096;   -0,500
298,028; 1276,708;    0,732;    0,773
298,624; 1086,055;    1,459;    1,864
299,220; 1056,432;    2,368;    0,591
299,815; 1017,991;    1,005;   -0,409
300,411; 1129,217;    0,914;    1,773
301,007; 1285,684;    1,368;    0,227
301,602; 1087,225;   -0,541;   -2,318
302,198; 1220,783;    0,732;   -0,773
302,794; 1057,314;    1,187;   -0,500
303,389; 1038,793;   -1,177;    1,045
303,985; 1112,997;    0,550;    1,409
304,580; 1219,942;    1,459;    1,591
305,176; 1098,214;   -3,086;    0,136
305,771;  969,018;   -1,268;   -1,227
306,367; 1422,073;    4,095;    0,136
306,962; 1174,862;    0,641;    1,500
307,558; 1156,493;   -0,450;    0,136
308,153; 1272,404;    1,095;   -1,136
308,748; 1046,988;   -0,814;    1,682
309,344; 1469,712;   -0,632;   -1,318
309,939; 1509,095;   -1,905;   -1,318
310,534; 1159,495;   -0,086;   -1,682
311,130; 1079,820;    0,459;   -2,500
311,725; 1001,432;    1,004;   -0,500
312,320; 1102,603;    2,459;    0,045
312,915; 1258,230;    1,459;   -1,045
313,510; 1488,897;    1,550;   -0,500
314,105; 1237,898;    1,096;    1,409
314,700;  980,600;   -3,086;   -1,045
315,295; 1065,760;   -0,904;    0,045
315,890;  956,664;    1,277;    0,864
316,485; 1099,084;   -0,359;   -0,318
317,080; 1042,606;   -3,086;    1,591
317,675; 1396,702;    2,005;   -0,682
318,270; 1588,733;    5,550;    3,318
318,865; 1491,816;    3,278;    3,045
319,460; 1269,495;   -0,904;    0,591
320,055; 1135,012;   -0,541;   -1,227
320,650; 1095,786;   -1,995;   -0,591
321,244; 1102,780;   -0,177;   -1,409
321,839; 1240,807;   -1,541;   -0,227
322,434; 1293,421;   -1,086;   -1,591
323,029; 1145,414;    1,732;    1,591
323,623; 1080,716;    1,550;    0,773
324,218; 1247,447;    2,368;    1,409
324,812; 1169,413;    1,096;    1,591
325,407; 1185,495;   -0,814;    2,045
326,002; 1283,145;    0,277;   -0,409
326,596; 1225,939;    0,914;    1,318
327,191; 1079,104;    0,823;   -1,045
327,785; 1012,848;   -0,813;   -0,227
328,379; 1106,016;    1,368;    0,136
328,974; 1111,110;    0,914;   -3,955
329,568; 1170,697;    0,186;   -2,409
330,163; 1237,978;    2,096;    1,045
330,757; 1109,288;    2,459;    1,591
331,351; 1018,928;    0,459;    0,682
331,945; 1022,760;    0,914;    1,409
332,540; 1167,663;   -1,723;   -0,591
333,134; 1140,847;   -1,086;    0,773
333,728; 1110,479;    0,005;    0,318
334,322; 1054,639;   -1,177;   -0,864
334,916;  963,026;    0,277;    0,955
335,510; 1171,641;   -0,450;   -0,136
336,105; 1209,559;   -1,086;    1,591
336,699; 1046,961;   -1,086;    0,591
337,293; 1073,643;   -1,723;    0,318
337,887; 1008,060;   -2,723;    1,955
338,481; 1193,112;    0,459;    0,591
339,074; 1350,200;   -0,359;    2,682
339,668; 1294,337;   -1,632;    1,227
340,262; 1961,949;    1,732;    3,227
340,856; 1483,651;    1,822;   -0,682
341,450; 1044,995;    1,004;    1,864
342,044; 1156,461;    1,459;    0,136
342,637; 1320,031;    0,913;   -2,136
343,231; 1342,636;   -2,360;    0,682
343,825; 1126,043;   -1,086;   -0,591
344,419; 1106,991;   -1,995;    0,500
345,012; 1743,920;    2,459;    4,045
345,606; 1523,050;    4,641;    1,591
346,199; 1143,309;   -1,813;   -0,227
346,793; 1287,265;    1,914;    2,045
347,386; 1075,493;   -0,813;   -1,136
347,980;  913,260;   -0,268;   -0,045
348,573; 1050,126;    2,278;    0,409
349,167; 1345,157;    5,278;    4,773
349,760; 1298,358;    2,914;    2,682
350,354; 1207,519;   -0,813;    1,136
350,947; 1256,422;    1,096;    1,682
351,540; 1041,590;   -0,358;   -1,409
352,134;  873,815;    1,096;    1,136
352,727;  943,583;   -0,086;    1,136
353,320;  975,132;    0,005;    0,591
353,913;  859,729;   -1,995;    1,864
354,507; 1128,498;    0,823;   -1,227
355,100;  996,721;    0,460;    0,864
355,693; 1444,053;    2,005;    2,409
356,286; 1153,171;    0,823;    2,773
356,879;  978,374;   -0,722;    1,227
357,472;  918,584;   -0,904;    1,500
358,065; 1018,358;   -0,722;    2,500
358,658;  851,548;   -0,540;    2,318
359,251;  778,474;   -1,631;   -0,591
359,844;  991,697;   -1,904;   -1,136
360,437; 1103,735;   -2,995;    0,045
361,030;  937,744;    1,369;   -0,682
361,623;  900,161;    2,824;    0,318
362,215; 1166,246;   -0,086;    2,045
362,808; 1000,113;   -2,358;   -1,682
363,401;  923,456;   -2,449;    0,136
363,994; 1190,106;   -0,631;   -1,500
364,586;  918,143;    0,824;   -1,500
365,179;  856,907;   -0,449;   -1,136
365,772;  665,463;   -1,995;    2,045
366,364;  856,537;    1,915;   -3,227
366,957;  970,795;    2,279;   -0,045
367,549;  870,426;    2,188;   -0,864
368,142;  869,584;    1,825;   -1,500
368,734;  830,721;    0,734;   -2,136
369,327;  730,383;    1,643;   -0,500
369,919;  793,200;   -1,538;    0,409
370,512;  837,080;   -1,083;   -0,500
371,104; 1125,006;   -0,901;    1,591
371,696; 1185,261;    1,191;   -0,955
372,289; 1017,921;    0,373;    1,136
372,881;  950,080;   -2,080;    1,318
373,473;  787,678;   -2,170;    1,136
374,066;  927,065;   -0,169;    0,500
374,658;  887,553;    0,378;    1,136
375,250;  820,131;    0,653;   -1,409
375,842;  887,107;    0,473;   -0,045
376,434;  831,690;   -0,435;   -0,409
377,026;  867,229;    0,204;   -2,500
377,618;  903,133;   -0,158;   -0,682
378,210;  805,458;   -0,338;   -1,955
378,802;  748,057;    0,754;   -0,591
379,394; 1275,345;    1,846;    0,682
379,986; 1004,991;    1,393;   -0,955
380,578;  902,121;   -0,153;    0,773
381,170; 1164,377;   -0,972;    0,045
381,762; 1019,165;    0,755;    1,409
382,354;  973,390;   -0,065;   -1,318
382,945;  865,187;   -2,976;    0,318
383,537;  798,147;   -2,705;   -1,955
384,129;  812,480;   -2,160;   -1,136
384,721;  971,400;   -0,252;    0,955
385,312;  855,724;   -0,161;   -0,955
385,904; 1006,929;   -2,706;    1,591
386,496;  839,467;   -0,979;    1,045
387,087; 1030,329;    1,022;    2,500
387,679;  943,545;   -1,160;    0,045
388,270;  966,992;    2,840;    2,045
388,862;  905,490;    1,295;   -0,318
389,453;  835,044;   -0,887;    1,045
390,045;  893,769;   -0,705;   -2,682
390,636;  792,271;    0,204;   -0,591
391,227;  837,551;   -0,523;   -0,045
391,819;  851,873;    0,204;    0,773
392,410; 1155,977;    1,022;    0,045
393,001;  930,745;   -0,979;   -1,591
393,593; 1029,235;    1,930;   -0,045
394,184; 1086,671;    1,385;   -0,409
394,775;  868,227;    1,839;    2,136
395,366;  848,201;    1,385;    0,773
395,957; 1086,723;    0,113;    0,136
396,548;  953,755;   -0,342;    2,682
397,139; 1142,335;   -2,433;    0,591
397,730; 1009,727;   -1,888;    0,955
398,321; 1001,834;   -1,252;    0,955
398,912;  930,266;   -0,615;    0,136
399,503;  956,889;   -3,524;   -1,409
400,094;  965,841;    0,294;    1,682
400,685;  957,167;   -0,433;    0,045
401,276;  859,556;    0,930;   -0,955
401,867;  867,531;   -0,888;    0,773
402,458;  830,355;   -2,251;   -2,318
403,048; 1043,134;    1,112;    0,591
403,639;  916,606;    0,840;    0,864
404,230; 1133,607;    2,476;    0,318
404,821; 1191,252;   -0,615;    0,045
405,411; 1043,040;    1,203;   -2,591
406,002;  896,880;   -1,252;   -1,136
406,592; 1219,358;    2,294;    0,045
407,183; 1031,542;    0,566;   -1,500
407,774;  962,887;    3,475;   -0,136
408,364;  951,537;    0,930;    0,409
408,954; 1105,534;    0,384;    1,227
409,545; 1098,782;    1,021;    1,045
410,135;  986,922;    1,293;    0,500
410,726;  946,336;    1,838;    0,318
411,316; 1210,400;    0,111;    0,773
411,906;  959,948;   -0,253;   -0,409
412,497;  952,373;   -1,070;   -0,045
413,087;  898,850;   -1,980;   -0,227
413,677;  866,975;   -0,707;    3,864
414,267;  833,394;    0,656;    1,409
414,857;  797,079;   -2,980;    4,227
415,448;  824,985;    0,839;    0,500
416,038;  856,574;    0,020;   -0,591
416,628;  913,586;   -0,889;    0,409
417,218;  998,790;    0,565;    3,318
417,808; 1214,112;    0,202;   -0,409
418,398; 1026,305;    0,020;    2,682
418,988;  878,525;    2,020;    0,591
419,578;  986,840;   -0,707;    1,409
420,168;  998,873;   -1,343;   -0,955
420,757; 1172,260;   -1,343;   -1,500
421,347;  995,706;    0,111;   -0,227
421,937;  941,320;    2,292;    1,409
422,527; 1126,336;    0,838;   -0,773
423,116; 1290,481;   -0,253;   -0,045
423,706;  937,676;   -1,889;    0,318
424,296;  844,114;    1,384;    0,682
424,885; 1098,660;   -0,071;   -3,045
425,475; 1050,238;    1,474;   -2,864
426,065;  882,951;   -0,980;   -0,318
426,654;  861,567;   -0,435;   -0,318
427,244; 1263,728;    0,020;    1,409
427,833; 1207,943;    1,383;   -0,500
428,423; 1026,746;   -0,526;    1,136
429,012; 1080,514;   -0,344;   -1,136
429,601; 1211,541;   -1,344;    0,136
430,191; 1054,602;    1,292;    4,318
430,780;  876,033;   -0,344;   -0,409
431,369; 1213,822;    0,746;   -0,045
431,959; 1130,411;   -1,254;    0,500
432,548;  974,802;   -1,163;   -0,045
433,137;  866,446;   -1,254;   -1,318
433,726; 1049,281;    0,292;    0,500
434,315; 1020,625;   -0,526;    2,409
434,905; 1172,321;   -1,254;    1,409
435,494; 1243,432;    0,746;    0,955
436,083; 1040,320;   -0,981;   -0,955
436,672; 1105,873;    0,110;    0,500
437,261; 1038,233;    0,292;   -1,955
437,850; 1449,330;    1,383;    0,682
438,439; 1485,632;    3,291;    1,955
439,027; 1607,879;    3,655;    1,773
439,616; 1562,319;    2,927;    1,227
440,205; 1209,524;    0,200;   -2,136
440,794; 1091,633;    2,109;   -0,045
441,383; 1004,018;   -1,346;   -0,591
441,971;  897,803;   -2,436;    0,591
442,560;  929,913;    0,563;   -1,773
443,149;  794,508;    0,379;   -1,318
443,737;  915,450;   -0,074;   -2,318
444,326;  940,483;    0,018;    0,318
444,915; 1023,444;   -1,982;    0,864
445,503; 1048,899;   -2,891;   -0,318
446,092; 1387,420;    0,382;    2,136
446,680; 1332,998;    0,382;    0,318
447,269; 1238,796;   -0,346;   -0,318
447,857; 1158,233;    0,018;   -1,773
448,445; 1087,021;    0,563;    1,318
449,034; 1055,883;   -1,528;   -1,136
449,622; 1024,710;   -1,073;    3,500
450,210; 1518,427;    2,017;    2,227
450,799; 1403,667;    0,290;   -0,591
451,387; 1248,553;    1,381;   -0,591
451,975; 1242,008;    2,654;    0,864
452,563; 1412,676;    3,472;    2,318
453,151; 1070,278;   -0,528;   -1,227
453,739; 1141,703;   -1,347;    0,136
454,328; 1377,321;    2,381;   -2,136
454,916; 1225,637;    2,562;   -0,136
455,504; 1217,607;    1,017;    1,227
456,092; 1064,867;    0,017;   -1,591
456,679;  965,071;    1,472;    0,682
457,267; 1682,417;    4,017;    1,045
457,855; 1143,877;    1,017;    1,409
458,443;  855,529;   -0,165;    1,682
459,031; 1264,223;    0,108;    2,409
459,619; 1194,205;   -1,801;    2,864
460,206;  992,281;    0,835;    2,045
460,794; 1020,218;   -2,983;   -0,227
461,382; 1129,740;   -0,529;   -0,864
461,970; 1059,553;    1,198;    1,864
462,557;  975,539;   -0,711;   -0,682
463,145; 1231,991;   -3,165;   -1,682
463,732; 1571,254;    2,016;   -1,045
464,320; 1192,273;   -0,075;   -3,045
464,907; 1427,469;    2,743;   -0,773
465,495; 1277,134;    0,743;   -1,227
466,082; 1134,251;   -1,984;   -0,045
466,670; 1112,647;   -2,529;    1,227
467,257;  996,548;   -1,711;    2,045
467,844; 1197,352;   -0,075;    0,045
468,432; 1181,387;    0,834;    3,500
469,019; 1056,524;    0,925;   -1,773
469,606; 1165,663;    0,470;    3,682
470,193; 1233,229;   -1,439;    0,227
470,780; 1197,715;   -2,075;    0,864
471,368; 1074,229;   -1,257;   -0,773
471,955; 1222,428;    1,379;   -0,682
472,542; 1127,099;    0,652;   -1,136
473,129;  934,020;   -0,166;    0,136
473,716;  927,050;    1,470;    0,591
474,303; 1002,158;    0,652;   -0,864
474,890; 1027,275;   -1,439;   -0,500
475,477; 1204,197;   -1,621;    0,409
476,064; 1039,890;    1,106;   -1,591
476,650; 1191,494;    0,288;    0,318
477,237; 1081,858;   -0,258;    0,955
477,824; 1043,728;   -1,076;    0,864
478,411;  885,604;   -1,894;   -0,318
478,997;  895,066;    0,560;   -0,773
479,584;  793,856;    1,196;   -0,409
480,171; 1213,666;   -0,440;   -0,773
480,757; 1323,346;    2,651;    0,773
481,344; 1108,225;    0,469;    0,409
481,931;  880,526;    1,105;    1,045
482,517; 1251,700;   -1,258;    0,318
483,104; 1402,580;    1,106;    2,864
483,690; 1251,332;   -1,804;    0,045
484,276; 1213,698;   -0,895;    0,227
484,863; 1586,773;    2,469;    1,136
485,449; 1338,664;   -0,077;    0,318
486,035; 1223,609;   -1,986;   -0,136
486,622; 1449,618;   -0,895;    0,045
487,208; 1293,821;    1,378;    1,500
487,794; 1162,617;    0,741;    0,318
488,380; 1177,683;    0,105;   -1,409
488,967; 1180,731;   -1,168;   -0,409
489,553; 1203,420;   -1,895;   -1,409
490,139; 1363,797;    1,559;    0,773
490,725; 1181,020;    0,741;   -0,227
491,311; 1195,340;    3,287;    3,045
491,897; 1041,456;   -0,986;    1,500
492,483; 1048,797;    0,105;    1,227
493,069; 1862,395;    3,923;    0,864
493,655; 1313,827;    1,650;    0,682
494,241; 1112,692;    1,377;   -0,955
494,826; 1202,412;    0,287;   -1,045
495,412; 1265,778;    2,559;   -0,682
495,998; 1126,198;   -0,805;   -0,318
496,584; 1204,366;    0,377;    1,045
497,169; 1156,363;    1,014;   -0,682
497,755; 1014,475;    0,650;    1,227
498,341; 1417,446;    0,559;    0,318
498,926; 1589,484;    1,832;    1,955
499,512; 1161,228;    1,286;    2,955
500,097; 1103,220;    0,195;   -0,318
500,683; 1131,122;   -0,350;    2,136
501,268; 1083,232;   -0,169;   -0,955
501,854; 1112,328;   -0,169;    1,227
502,439; 1035,740;   -0,624;   -1,773
503,024; 1169,664;    0,195;    0,500
503,610; 1234,642;   -0,078;   -0,682
504,195; 1036,826;    0,558;    1,955
504,780; 1210,538;    2,922;    1,227
505,366; 1392,670;    3,013;    2,864
505,951; 1232,307;    0,740;    1,045
506,536; 1117,533;   -3,260;   -3,682
507,121; 1177,255;    0,285;   -0,318
507,706; 1138,371;    2,376;    1,045
508,291; 1041,315;    2,649;    1,136
508,876; 1018,316;   -0,988;    2,591
509,461; 1086,416;   -0,169;   -0,773
510,046; 1190,840;    0,194;    0,318
510,631; 1159,245;   -0,351;   -0,773
511,216; 1029,903;    2,467;   -0,500
511,801; 1188,373;   -0,442;    2,591
512,386; 1208,763;    0,740;    0,500
512,971; 1224,630;   -2,988;    0,955
513,555; 1295,925;   -0,897;   -1,500
514,140; 1284,895;   -0,442;   -3,136
514,725; 1389,883;   -0,715;   -1,136
515,309; 1259,379;   -0,533;    0,318
515,894; 1116,368;   -0,624;   -2,227
516,479; 1164,905;   -0,624;   -0,955
517,063; 1146,285;    0,376;    1,227
517,648; 1121,863;    1,012;   -1,136
518,232; 1030,906;   -0,261;   -1,409
518,817; 1160,374;   -0,079;    1,682
519,401; 1373,413;    2,194;    0,591
519,985; 1195,711;    1,103;    1,136
520,570; 1032,498;    0,830;   -1,955
521,154; 1212,792;    2,102;    0,591
521,738; 1506,841;   -2,352;    2,409
522,323; 1346,106;   -0,170;    1,682
522,907; 1253,904;    0,466;   -0,136
523,491; 1131,565;    0,557;    0,955
524,075; 1071,942;    2,284;    0,591
524,659; 1306,442;    1,466;    0,591
525,243; 1178,932;    1,739;    0,409
525,827; 1104,039;    0,648;   -0,045
526,411; 1164,805;   -1,989;   -0,136
526,995; 1347,339;   -0,352;    1,409
527,579; 1377,462;   -0,443;   -1,045
528,163; 1305,505;    0,375;   -1,500
528,747; 1489,919;    2,466;   -0,773
529,331; 1425,153;   -0,080;   -1,409
529,915; 1181,252;    1,738;    0,955
530,499; 1289,704;   -0,807;    1,227
531,082; 1430,264;   -0,534;    1,591
531,666; 1504,358;    1,374;    0,773
532,250; 1420,660;    1,284;    2,682
532,833; 1576,769;    0,920;    2,773
533,417; 1336,425;   -1,807;    0,864
534,001; 1466,311;    1,647;   -0,318
534,584; 1394,214;    0,374;    0,500
535,168; 1198,652;    0,465;    1,409
535,751; 1633,097;    0,647;    0,045
536,334; 1260,534;   -0,898;   -0,409
536,918; 1216,240;    0,011;    1,591
537,501; 1201,082;   -0,899;    1,318
538,085; 1248,412;   -0,444;    1,045
538,668; 1283,335;    0,829;    2,409
539,251; 1689,622;    1,829;    3,773
539,834; 1395,225;    0,101;    0,773
540,418; 1512,640;   -1,990;    4,318
541,001; 1696,572;   -0,990;    1,773
541,584; 1413,865;    2,101;    2,227
542,167; 1503,130;    1,374;    2,955
542,750; 1351,753;    1,919;   -0,773
543,333; 1133,294;    0,555;    2,136
543,916; 1462,843;    0,192;    2,500
544,499; 1339,559;   -1,354;    0,227
545,082; 1451,126;    1,374;    3,591
545,665; 1365,609;    1,919;    1,500
546,248; 1516,840;    1,010;   -0,318
546,830; 1476,068;   -0,445;    1,955
547,413; 1493,891;    1,010;   -0,773
547,996; 1551,450;    0,555;    0,500
548,579; 1364,042;    0,919;    0,955
549,161; 1626,336;    1,828;    2,682
549,744; 1503,473;   -0,809;    0,409
550,326; 1437,490;   -0,809;   -1,136
550,909; 1935,057;    2,737;    0,591
551,492; 1597,713;   -0,263;    0,227
552,074; 1674,216;   -0,173;   -1,318
552,657; 1736,949;    2,373;    0,045
553,239; 1549,081;   -0,173;   -0,773
553,821; 1471,735;   -1,082;    1,045
554,404; 1676,938;    1,282;    1,136
554,986; 1809,310;    0,464;    1,045
555,568; 1698,714;    1,191;   -0,955
556,151; 1900,910;    1,191;   -0,227
556,733; 1560,268;   -0,264;   -0,864
557,315; 1554,623;    0,100;    0,500
557,897; 1370,860;    0,554;   -0,500
558,479; 1394,697;   -1,991;    1,318
559,061; 1516,217;   -0,719;   -0,864
559,643; 1646,008;   -0,264;    0,045
560,225; 1678,100;    1,645;    2,864
560,807; 1549,735;    0,918;    0,318
561,389; 1479,236;    0,554;    2,318
561,971; 1549,640;    0,463;    2,136
562,553; 1545,955;   -1,628;    1,591
563,135; 1647,297;   -0,537;    1,136
563,717; 2000,377;    3,372;    1,136
564,298; 1874,643;    3,645;   -0,045
564,880; 1606,722;    0,645;   -1,409
565,462; 1474,176;    0,645;    1,318
566,043; 1812,180;   -0,446;    2,318
566,625; 1972,263;    1,918;    1,227
567,207; 1727,866;    1,099;    1,682
567,788; 1721,998;   -1,264;    1,500
568,370; 1832,655;    1,917;   -0,500
568,951; 1705,962;    0,190;    0,227
569,533; 1898,952;   -0,628;   -0,500
570,114; 2029,893;   -0,446;    0,682
570,695; 2053,123;   -0,174;   -1,318
571,277; 2029,586;   -0,265;   -1,682
571,858; 2256,688;    2,008;   -1,136
572,439; 2281,396;    1,554;   -1,045
573,021; 2247,017;    2,099;   -2,773
573,602; 2367,728;   -1,265;    0,318
574,183; 2422,014;   -2,083;    2,227
574,764; 2423,805;   -1,629;    0,409
575,345; 2547,986;    0,917;   -0,136
575,926; 2530,508;   -0,356;    0,136
576,507; 2601,175;    1,099;   -0,227
577,088; 2705,626;    3,099;    1,682
577,669; 2843,325;    0,735;    1,955
578,250; 3091,651;    0,644;   -1,045
578,831; 2937,382;   -1,356;   -2,227
579,412; 2813,066;   -0,810;    0,955
579,993; 3093,179;    1,008;    0,227
580,573; 3097,918;   -0,629;   -0,955
581,154; 2797,064;    0,735;   -0,591
581,735; 2978,678;    0,644;    0,773
582,315; 2847,042;   -0,629;    2,136
582,896; 3011,441;   -0,174;    1,227
583,477; 2840,366;    0,189;    1,227
584,057; 2932,358;    0,553;    0,955
584,638; 3022,088;    2,553;    2,318
585,218; 3192,342;   -0,538;    2,682
585,799; 3115,370;    0,281;   -0,227
586,379; 2995,536;    0,372;    1,591
586,959; 2847,565;    0,735;    0,318
587,540; 2702,168;   -0,629;    2,227
588,120; 2613,310;    1,007;   -0,045
588,700; 2475,487;    2,553;    2,136
589,281; 2726,276;    0,462;   -0,955
589,861; 2604,055;    0,099;   -1,682
590,441; 2527,838;    2,371;   -2,682
591,021; 2360,171;   -0,265;   -2,591
591,601; 2463,753;   -0,537;    0,500
592,181; 2549,905;   -0,719;   -0,773
592,761; 2246,181;    0,007;    1,409
593,341; 2394,282;   -0,901;    0,045
593,921; 2351,896;   -0,265;    1,591
594,501; 2246,841;   -0,538;    1,318
595,081; 2215,792;    0,917;   -0,318
595,661; 2444,970;   -1,447;    0,955
596,240; 2491,938;   -0,537;    0,136
596,820; 2646,875;    0,372;    1,955
597,400; 2372,767;    2,008;    0,773
597,980; 2388,329;    2,008;    1,045
598,559; 2391,197;    2,735;   -0,227
599,139; 2339,064;   -0,174;   -1,227
599,718; 2312,973;   -0,174;   -0,409
600,298; 2397,836;    0,735;    0,682
600,877; 2767,718;    2,917;    1,409
601,457; 2659,019;    2,281;    1,136
602,036; 2516,018;    0,190;    2,045
602,616; 2469,412;    0,644;    1,682
603,195; 2618,738;   -0,355;    3,500
603,774; 2565,330;   -0,901;    2,045
604,354; 2481,798;    0,826;   -0,500
604,933; 2375,274;    0,463;    1,864
605,512; 2565,093;    3,554;    0,591
606,091; 2584,586;   -0,537;    3,773
606,671; 2626,479;    0,281;    0,773
607,250; 2632,404;    1,644;    3,136
607,829; 2614,488;    2,372;    3,227
608,408; 2499,476;    1,190;    2,591
608,987; 2451,858;    1,281;    3,409
609,566; 2325,797;   -1,265;   -2,500
610,145; 2412,615;   -1,082;    0,682
610,723; 2553,560;    4,372;    6,864
611,302; 2322,602;   -0,446;    1,682
611,881; 2461,849;    5,008;   11,227
612,460; 2333,781;    1,645;    3,955
613,039; 2380,528;   -0,082;    2,045
613,617; 2131,069;    1,736;    4,773
614,196; 2170,147;    1,099;    1,227
614,775; 2321,418;    1,009;    2,409
615,353; 2322,143;    0,736;    0,864
615,932; 2268,437;    0,100;    2,409
616,510; 2408,682;    0,554;    0,591
617,089; 2782,823;    7,100;   17,591
617,667; 2446,446;    2,372;    6,136
618,246; 2101,350;   -1,537;    1,318
618,824; 2221,743;   -3,355;   -0,955
619,402; 2166,661;   -2,900;   -1,773
619,981; 2312,554;   -0,173;   -1,045
620,559; 2281,295;    0,009;    1,682
621,137; 2294,342;   -0,718;    1,864
621,715; 1981,650;   -1,173;   -0,682
622,293; 2023,694;   -0,537;   -0,773
622,871; 2293,986;   -0,718;    0,500
623,450; 2140,615;    0,373;   -0,864
624,028; 2261,562;    0,191;   -0,955
624,606; 2182,202;   -1,718;    1,682
625,183; 2080,266;   -1,536;   -1,136
625,761; 2094,439;    1,009;    1,136
626,339; 2483,149;    1,373;    2,591
626,917; 2201,630;   -0,172;   -0,045
627,495; 2217,203;   -0,354;    1,318
628,073; 2172,446;   -0,263;    2,864
628,650; 2154,550;    0,100;    2,136
629,228; 2227,767;    0,373;    4,409
629,806; 1948,203;    2,282;    1,136
630,383; 2027,151;    1,464;   -0,318
630,961; 2037,478;    2,555;   -0,955
631,539; 1983,495;    2,464;    0,227
632,116; 2652,387;   11,373;   15,409
632,694; 2322,622;    2,555;    6,500
633,271; 2143,180;    0,828;    2,682
633,848; 2250,386;    1,828;    2,045
634,426; 2056,185;   -1,081;    1,773
635,003; 1896,705;    1,101;   -0,409
635,580; 2253,854;    1,192;    3,682
636,158; 2092,354;    3,737;    1,227
636,735; 1933,910;    0,555;   -0,500
637,312; 1940,151;   -0,809;   -0,682
637,889; 1959,869;   -4,354;   -0,682
638,466; 1946,350;   -3,990;   -0,409
639,043; 1933,387;    2,101;   -1,136
639,620; 1929,012;   -2,262;   -0,955
640,197; 2081,981;    1,100;    1,682
640,774; 2050,547;   -0,172;    1,136
641,351; 2114,113;    0,737;    1,136
641,928; 2155,679;   -0,627;    1,409
642,505; 2286,336;    0,828;   -0,500
643,082; 2185,084;   -1,718;    1,227
643,658; 1852,468;   -0,718;    1,500
644,235; 1969,216;    1,191;    2,500
644,812; 2132,873;    1,918;    0,773
645,388; 2067,257;   -0,991;    1,409
645,965; 1857,550;   -0,809;    1,682
646,542; 1876,389;   -1,445;   -0,227
647,118; 2327,501;    1,009;   -0,955
647,695; 2148,339;   -0,263;    1,136
648,271; 1959,087;   -0,536;    0,500
648,848; 2075,926;    0,736;    2,227
649,424; 2189,128;    0,827;    1,318
650,000; 1913,603;   -0,354;   -1,045
650,577; 1994,533;   -0,627;   -0,955
651,153; 2110,099;   -1,809;    0,955
651,729; 2104,483;    1,191;    0,864
652,305; 2397,049;    0,645;    2,773
652,881; 2809,524;   -0,082;    1,136
653,458; 3690,727;    1,100;    0,227
654,034; 4254,565;    0,282;    1,591
654,610; 4309,677;    0,554;    0,773
655,186; 4705,970;    0,645;    3,045
655,762; 4380,718;   -0,991;    0,409
656,338; 4324,193;    0,100;    0,136
656,913; 4639,214;   -0,082;    0,409
657,489; 4356,234;    0,827;   -0,318
658,065; 4471,437;   -0,173;   -1,591
658,641; 4730,912;   -0,900;   -0,864
659,217; 4434,114;   -0,991;    0,409
659,792; 4191,589;    0,645;   -0,409
660,368; 4291,064;   -2,173;   -0,682
660,944; 4488,085;   -2,082;    1,227
661,519; 3830,105;   -0,628;    0,409
662,095; 2963,126;   -1,719;    0,591
662,670; 2293,146;    1,281;   -0,136
663,246; 2256,894;    1,009;   -0,409
663,821; 2312,460;    0,281;    1,682
664,396; 2061,663;    0,009;    1,864
664,972; 2097,319;    0,009;   -0,500
665,547; 2258,613;    1,372;    0,136
666,122; 2196,361;   -1,082;    0,318
666,698; 2353,290;   -0,173;    0,318
667,273; 2019,493;   -0,173;    0,136
667,848; 2189,149;    2,372;    1,500
668,423; 2274,443;    2,190;    2,318
668,998; 2190,736;    2,827;   -0,682
669,573; 2250,847;   -3,264;   -1,500
670,148; 2409,777;   -1,446;   -0,682
670,723; 2133,252;   -1,810;    0,318
671,298; 2493,455;    2,372;    1,045
671,873; 2364,111;   -0,082;   -0,136
672,448; 2351,950;    0,645;    0,136
673,023; 2361,971;   -1,992;   -0,227
673,597; 2539,900;    0,827;    2,318
674,172; 2515,739;   -0,355;    0,318
674,747; 2384,396;    0,372;   -1,045
675,321; 2162,053;   -0,628;    3,318
675,896; 2037,983;    0,645;    1,045
676,471; 2285,185;    2,645;    1,591
677,045; 2178,024;   -1,264;    0,682
677,620; 2199,317;    0,190;    1,136
678,194; 2227,974;   -2,628;    1,136
678,769; 2216,904;   -1,083;   -0,318
679,343; 2324,197;   -0,628;    1,773
679,917; 2385,945;   -1,446;    1,955
680,492; 2228,602;    0,826;    3,227
681,066; 2272,986;    3,372;    0,409
681,640; 2265,461;    1,463;   -0,318
682,214; 2377,481;    0,735;    0,500
682,788; 2314,866;   -1,356;   -0,773
683,363; 2352,341;   -1,810;    1,682
683,937; 2195,725;   -1,719;   -0,318
684,511; 2415,654;    0,463;   -0,591
685,085; 2366,675;   -1,356;    0,318
685,659; 2220,059;   -2,538;    0,864
686,232; 2458,262;   -0,356;   -0,318
686,806; 2348,918;   -0,901;    0,409
687,380; 2399,666;   -0,174;    0,591
687,954; 2403,323;   -1,174;    1,136
688,528; 2523,798;   -0,719;    1,955
689,101; 2597,546;   -3,992;    1,045
689,675; 2377,021;   -0,356;   -0,136
690,249; 2472,405;   -0,719;    0,409
690,822; 2525,335;    0,280;    0,318
691,396; 2402,810;   -0,265;    1,227
691,969; 2275,467;    1,280;    0,136
692,543; 2347,851;   -0,447;   -1,955
693,116; 2174,872;   -0,265;   -1,409
693,690; 2242,256;    0,099;    0,500
694,263; 2374,277;   -1,083;    2,955
694,836; 2631,024;    1,371;    3,591
695,410; 2344,045;   -0,265;    1,773
695,983; 2353,338;    0,189;    0,591
696,556; 2252,086;   -0,447;   -1,045
697,129; 2294,107;   -0,356;    1,409
697,703; 2280,854;   -1,629;    1,955
698,276; 2277,148;    1,462;   -0,773
698,849; 2351,259;    1,280;    1,409
699,422; 2206,007;   -1,083;    0,591
699,995; 2091,209;    0,007;    0,136
700,568; 2276,775;   -0,629;    3,045
701,140; 2311,432;   -2,811;    1,682
701,713; 2418,635;   -0,174;    2,409
702,286; 2319,928;   -0,538;    0,864
702,859; 2299,857;   -0,902;   -0,591
703,432; 2248,333;    0,825;    0,682
704,004; 2229,717;    0,462;    0,318
704,577; 2059,192;   -0,629;    0,136
705,150; 2180,667;    0,189;    2,500
705,722; 2260,051;   -0,356;   -3,227
706,295; 2298,890;   -0,175;   -0,591
706,867; 2108,638;   -0,175;    1,955
707,440; 2314,931;   -1,720;   -0,409
708,012; 2401,042;    0,462;    0,591
708,584; 2243,699;    2,462;    0,227
709,157; 2208,629;    1,825;   -0,591
709,729; 2347,649;    2,280;    2,045
710,301; 2464,761;    0,734;    0,045
710,874; 2416,509;   -1,447;   -0,227
711,446; 2047,802;    0,371;    0,864
712,018; 2151,095;    0,098;    0,500
712,590; 2075,480;   -1,993;    1,682
713,162; 2382,136;    0,825;    1,318
713,734; 2238,884;    1,825;   -2,045
714,306; 2198,268;   -1,902;   -0,409
714,878; 2052,380;    0,825;    0,864
715,450; 2183,855;    0,643;    0,864
716,022; 2211,876;    1,552;    1,318
716,593; 2222,169;    0,189;    0,591
717,165; 2274,371;   -3,175;   -1,227
717,737; 2425,392;    0,280;    0,409
718,309; 2241,685;    0,280;   -0,045
718,880; 2156,978;   -0,539;   -1,409
719,452; 2267,726;   -0,175;   -1,591
720,024; 2259,656;    0,734;   -0,591
720,595; 2262,676;   -2,902;    0,955
721,167; 2172,788;    0,370;   -2,045
721,738; 2156,717;   -0,812;   -1,045
722,309; 2227,374;   -0,993;   -1,227
722,881; 2058,213;   -1,357;    0,773
723,452; 2238,961;   -2,630;    2,864
724,023; 2281,072;   -0,721;    2,682
724,595; 2312,366;    0,007;    0,682
725,166; 2112,386;    0,007;   -0,409
725,737; 2288,861;    1,734;    0,227
726,308; 2189,609;   -0,266;    0,318
726,879; 2102,720;   -1,630;    1,227
727,450; 2236,923;    0,552;   -0,045
728,021; 2121,671;    3,097;    0,682
728,592; 2268,237;    0,734;    0,500
729,163; 2416,530;    0,643;   -0,136
729,734; 2422,823;    0,188;   -0,227
730,305; 2257,935;    1,734;    0,136
730,876; 2245,773;    0,188;    2,955
731,447; 2580,612;    2,188;    2,682
732,017; 2447,542;    1,097;    1,864
732,588; 2323,108;    0,734;    1,227
733,159; 2487,128;    0,643;   -1,045
733,729; 2209,603;    0,006;    0,409
734,300; 2282,897;    0,915;    0,864
734,870; 2206,917;    3,461;    0,591
735,441; 2242,756;    0,370;   -0,591
736,011; 2121,958;    0,643;   -1,591
736,582; 2170,706;   -0,812;    0,045
737,152; 2157,636;   -1,721;   -2,045
737,722; 2217,111;   -0,267;   -0,682
738,293; 2054,404;   -1,358;    1,318
738,863; 2220,879;    2,461;    2,318
739,433; 2476,627;    5,279;    0,318
740,003; 2340,557;   -0,994;   -0,682
740,573; 2378,395;    2,097;   -1,591
741,143; 2315,961;   -1,085;    0,318
741,713; 2257,346;    1,188;   -0,500
742,283; 2246,275;    0,915;    1,591
742,853; 2166,296;    1,915;    1,591
743,423; 1984,862;    1,733;    0,045
743,993; 2066,791;   -0,358;    1,500
744,563; 1954,267;    0,097;   -0,864
745,133; 2003,651;   -0,812;   -0,864
745,702; 2096,399;   -0,267;    1,773
746,272; 2143,783;   -0,176;    0,591
746,842; 2167,621;   -1,358;   -0,591
747,411; 2054,915;   -0,267;   -0,318
747,981; 1970,390;    0,097;    0,500
748,551; 2012,501;    2,278;   -1,045
749,120; 2116,249;    0,642;   -0,227
749,690; 2127,724;   -0,631;    2,409
750,259; 2266,472;    1,369;    2,955
750,828; 2259,493;    1,551;   -1,955
751,398; 2121,059;    1,278;   -0,045
751,967; 2465,988;    2,187;    0,409
752,536; 2208,463;   -0,813;   -0,227
753,105; 2345,666;    0,096;    0,227
753,675; 2153,232;    0,096;    1,773
754,244; 2146,616;   -0,904;    3,591
754,813; 2183,818;    0,551;    1,227
755,382; 2097,657;    0,460;    0,955
755,951; 2244,496;    1,551;    3,682
756,520; 2298,880;   -0,085;    1,864
757,089; 2538,719;    0,278;    0,500
757,658; 2239,557;    1,733;    1,227
758,227; 2113,942;    1,096;    0,318
758,795; 2207,053;    1,187;    1,136
759,364; 2334,346;   -0,086;   -0,591
759,933; 2046,094;   -1,176;   -0,045
760,501; 1990,933;    0,733;   -1,318
761,070; 2148,590;   -2,813;   -1,409
761,639; 2370,701;   -1,904;    1,318
762,207; 2207,813;    1,551;   -0,955
762,776; 2266,924;    0,369;    0,864
763,344; 2134,854;   -0,995;    0,591
763,913; 1799,874;   -0,722;    1,409
764,481; 2446,622;    1,005;   -0,136
765,049; 2391,824;   -1,358;    1,409
765,618; 2256,300;   -0,086;    0,318
766,186; 2181,956;    0,278;    0,136
766,754; 2195,977;    0,005;    1,864
767,322; 1908,725;   -1,995;    0,409
767,890; 1877,018;   -0,722;   -1,773
768,459; 2062,766;   -2,177;   -0,318
769,027; 2285,787;    1,641;    3,409
769,595; 1996,353;    3,278;    2,591
770,163; 2042,282;    3,823;    2,955
770,730; 2038,121;    0,732;   -0,136
771,298; 2010,051;    0,187;   -1,409
771,866; 2005,707;   -1,541;    4,955
772,434; 2033,728;   -0,631;   -1,864
773,002; 2281,930;    0,005;    0,682
773,569; 2152,405;    0,914;    1,682
774,137; 2227,335;   -0,268;   -0,045
774,705; 2199,537;    0,278;   -0,136
775,272; 2017,103;    0,641;    0,682
775,840; 2119,397;   -0,177;    2,682
776,407; 2101,599;    0,277;    1,955
776,975; 1870,892;   -0,632;    0,318
777,542; 1999,640;   -1,086;   -0,045
778,110; 2016,933;   -1,268;   -0,045
778,677; 1885,136;   -2,359;   -0,864
779,244; 1923,884;    2,186;    1,045
779,812; 2082,631;    1,823;    0,864
780,379; 2126,470;    0,005;    1,136
780,946; 2006,945;    1,005;   -0,773
781,513; 2021,784;   -1,450;    0,318
782,080; 1870,805;   -0,086;    2,864
782,647; 1979,189;   -0,268;    3,045
783,214; 1918,391;   -0,177;    3,864
783,781; 2052,048;   -0,723;   -0,682
784,348; 2018,614;   -0,632;    1,500
784,915; 1872,089;   -3,177;    0,318
785,482; 2053,110;    1,368;    2,591
786,049; 2111,494;    0,186;   -0,591
786,615; 2022,423;    0,277;   -0,955
787,182; 1935,171;    0,186;   -0,682
787,749; 1911,919;   -2,814;    1,409
788,315; 1942,303;   -1,632;   -0,409
788,882; 1952,506;    1,550;   -1,227
789,448; 2233,890;    1,732;   -0,955
790,015; 2038,729;    1,095;    3,227
790,581; 2161,295;    1,459;    0,227
791,148; 1952,588;    0,641;    1,045
791,714; 1913,608;   -0,541;    3,136
792,280; 1893,265;    0,186;    1,591
792,847; 1832,740;    0,550;    2,500
793,413; 1919,670;   -0,269;   -0,318
793,979; 2002,054;    3,459;   -1,318
794,545; 2351,984;    4,459;    2,682
795,111; 2153,732;    2,186;    1,318
795,678; 1998,570;    0,731;   -1,682
796,244; 2186,046;    3,368;    0,136
796,810; 2136,339;    1,731;    0,773
797,375; 2092,814;    0,549;   -2,136
797,941; 1740,471;   -0,541;    0,591
798,507; 1710,310;   -0,451;   -0,955
799,073; 1725,148;   -0,360;    0,591
799,639; 1784,714;   -2,632;    3,136
800,205; 1743,462;    0,095;    2,682
800,770; 1710,846;    0,640;    1,773
801,336; 1663,594;    1,368;   -0,955
801,901; 2287,887;    4,549;    3,136
802,467; 2012,181;   -0,542;    2,045
803,033; 1683,474;   -0,087;    0,864
803,598; 1702,404;    1,913;   -1,045
804,163; 1746,879;    1,095;   -0,318
804,729; 1845,808;   -0,178;    1,136
805,294; 1769,374;    0,822;    2,227
805,859; 1648,577;    0,731;   -0,409
806,425; 2043,870;    1,186;    2,682
806,990; 2001,436;    2,186;    4,318
807,555; 1802,184;   -1,451;    2,591
808,120; 1964,204;    0,822;   -0,409
808,685; 1700,134;    0,185;   -2,500
809,250; 1546,427;    0,004;   -0,500
809,815; 1634,902;    1,913;    0,682
810,380; 1839,014;   -0,269;    1,591
810,945; 1987,853;   -1,087;    2,045
811,510; 1814,782;    2,094;    1,591
812,075; 1748,439;   -0,633;   -1,409
812,640; 2047,914;    2,003;    1,409
813,204; 1842,117;    0,822;   -0,227
813,769; 2050,501;    2,094;   -0,045
814,334; 1982,067;    0,458;    0,864
814,898; 1730,178;    0,367;    0,591
815,463; 1760,744;    1,276;   -0,773
816,027; 1689,128;   -0,724;   -2,318
816,592; 1707,967;    0,640;   -2,045
817,156; 1760,988;    2,094;    1,136
817,721; 1822,645;    4,276;    2,318
818,285; 1606,120;    2,912;    1,500
818,849; 1730,686;   -1,451;    1,682
819,414; 1615,797;   -0,269;    2,955
819,978; 1545,727;   -1,269;    1,773
820,542; 1956,202;    2,003;    0,500
821,106; 1792,222;   -0,815;    0,682
821,670; 1959,061;   -0,815;    2,591
822,234; 1710,354;   -0,270;    1,409
822,798; 1559,920;    0,003;    0,500
823,362; 1878,941;   -0,633;    4,227
823,926; 1591,871;    0,094;    1,136
824,490; 1810,164;   -0,997;   -0,682
825,054; 1726,003;   -0,088;   -1,136
825,618; 1567,841;   -1,542;   -1,500
826,181; 1583,680;    0,458;   -1,318
826,745; 1666,337;    1,367;   -1,045
827,309; 1959,903;    1,185;    1,318
827,872; 1787,469;    1,367;    0,955
828,436; 1745,399;    1,185;   -0,773
828,999; 1701,419;   -0,997;    1,227
829,563; 1632,349;   -0,179;    1,136
830,126; 1579,278;   -0,179;   -0,591
830,690; 1597,481;   -1,997;    2,864
831,253; 1485,592;   -0,543;    2,227
831,816; 1551,340;   -1,906;    0,500
832,380; 1470,270;    0,185;    0,864
832,943; 1496,108;   -1,361;   -0,500
833,506; 1505,947;    2,639;   -1,227
834,069; 1729,513;    3,912;   -0,955
834,632; 1616,170;    1,730;    1,318
835,195; 1618,736;    1,003;    0,955
835,758; 1506,302;   -0,997;    1,955
836,321; 1454,504;    0,730;   -1,045
836,884; 1464,707;   -0,725;   -0,955
837,447; 1460,091;   -2,816;    1,773
838,010; 1612,657;    0,366;    3,227
838,573; 1672,859;   -1,179;    0,773
839,135; 1581,425;   -1,361;   -0,955
839,698; 1517,719;    1,275;    0,409
840,261; 1454,012;    1,003;   -0,227
840,823; 1416,669;   -0,543;    0,864
841,386; 1394,962;   -0,452;   -2,409
841,948; 1750,892;   -1,361;    1,773
842,511; 1459,367;    0,912;    1,682
843,073; 1730,933;    1,912;    0,227
843,636; 1463,499;   -0,361;   -0,227
844,198; 1684,065;    0,911;    0,591
844,760; 1650,176;    1,093;    1,955
845,322; 1402,197;    0,548;    1,136
845,885; 1561,399;    0,730;    0,591
846,447; 1536,329;   -1,998;    0,227
847,009; 1859,713;    1,911;   -0,682
847,571; 1550,734;    0,820;   -2,045
848,133; 1513,572;   -1,089;   -1,864
848,695; 1374,502;   -0,543;    1,409
849,257; 1442,795;   -1,089;   -1,682
849,819; 1613,634;   -0,998;   -0,409
850,381; 1466,473;   -0,725;   -0,864
850,942; 1546,493;    1,093;   -0,591
851,504; 1574,423;    1,184;    0,227
852,066; 1480,534;    1,275;   -1,591
852,628; 1492,009;   -0,180;    1,955
853,189; 1319,212;    1,638;    2,682
853,751; 1383,323;   -0,907;    1,409
854,312; 1564,798;   -0,453;   -1,682
854,874; 1728,092;   -2,089;   -0,773
855,435; 1517,294;   -0,907;   -1,682
855,997; 1635,496;   -1,816;   -0,136
856,558; 1658,244;    0,366;    1,773
857,119; 1504,628;    0,820;    2,864
857,681; 1342,467;    0,002;    0,318
858,242; 1593,397;    1,911;   -2,136
858,803; 1670,235;    0,456;   -0,773
859,364; 1593,983;    0,184;   -4,773
859,925; 1607,458;   -2,453;   -0,955
860,486; 1491,388;   -0,453;   -0,955
861,047; 1375,136;   -0,544;   -1,227
861,608; 1418,520;   -1,089;   -0,773
862,169; 1350,813;    0,638;   -0,045
862,730; 1404,379;    0,456;    1,409
863,291; 1462,127;   -0,635;   -0,500
863,852; 1459,420;   -0,635;    1,955
864,412; 1400,896;   -0,271;   -0,864
864,973; 1577,371;   -0,089;    0,500
865,534; 1743,209;   -1,726;    0,227
866,094; 1557,866;    1,820;    0,227
866,655; 1649,614;    1,274;    3,318
867,215; 1504,180;    0,274;    0,136
867,776; 1380,928;    0,547;   -0,136
868,336; 1450,130;   -1,453;    0,136
868,897; 1845,969;    2,638;    1,682
869,457; 1616,353;    1,365;    0,318
870,017; 1448,192;    0,547;   -1,227
870,578; 1455,940;   -0,817;    0,773
871,138; 1418,597;   -2,089;   -0,955
871,698; 1295,799;   -0,817;   -1,318
872,258; 1439,456;   -0,453;   -2,864
872,818; 1670,476;    2,729;    0,045
873,378; 1470,042;    0,638;    1,045
873,938; 1390,608;    0,547;    0,500
874,498; 1298,447;    0,274;   -1,955
875,058; 1359,740;    2,183;    1,773
875,618; 1347,397;    1,910;   -2,682
876,177; 1406,145;    1,274;    0,136
876,737; 1185,893;   -0,090;    1,955
877,297; 1645,368;    0,183;    1,955
877,856; 1554,752;   -0,362;    0,318
878,416; 1282,500;    1,183;   -0,136
878,976; 1266,884;   -1,817;    0,409
879,535; 1332,450;    0,092;    3,136
880,095; 1314,834;   -0,544;    0,045
880,654; 1208,582;   -1,090;    1,318
881,213; 1573,421;    2,456;    1,500
881,773; 1379,533;    2,637;    2,682
882,332; 2008,099;    3,365;    5,136
882,891; 1398,119;    3,092;    2,136
883,451; 1406,594;   -1,272;    1,682
884,010; 1299,251;   -2,908;   -0,409
884,569; 1268,453;   -0,999;   -0,045
885,128; 1496,201;    2,819;   -1,864
885,687; 1815,585;    4,455;    0,682
886,246; 1974,970;    1,455;    2,136
886,805; 1671,172;    2,455;    2,045
887,364; 1326,920;   -0,999;   -0,500
887,922; 1243,031;   -1,181;    0,045
888,481; 1385,052;   -1,545;    0,591
889,040; 1565,891;    1,183;    2,136
889,599; 1425,457;    2,455;    1,409
890,157; 1430,295;    1,455;    2,409
890,716; 1338,498;   -0,090;    0,227
891,274; 1444,155;    0,092;   -1,136
891,833; 1552,084;    1,546;    0,864
892,391; 1348,196;   -0,454;    0,500
892,950; 1547,307;    1,819;   -0,773
893,508; 1329,146;    0,455;   -0,409
894,067; 1180,075;    0,637;    0,136
894,625; 1305,732;   -0,636;   -1,500
895,183; 1272,844;   -0,363;   -0,682
895,741; 1608,955;    1,728;   -1,773
896,299; 1370,158;   -0,545;   -2,409
896,858; 1271,633;    0,819;   -1,591
897,416; 1414,835;    2,728;   -1,318
897,974; 1330,674;    1,819;    0,318
898,532; 1849,513;    6,091;    2,682
899,089; 1473,351;    2,091;   -0,682
899,647; 1354,099;   -1,454;    1,318
900,205; 1412,665;    1,182;    1,045
900,763; 1414,504;   -0,454;    0,227
901,321; 1364,343;    2,364;   -1,409
901,878; 1142,454;   -1,000;   -0,773
902,436; 1215,566;   -1,363;    1,318
902,994; 2071,041;    4,728;    3,682
903,551; 1536,788;    0,728;    0,409
904,109; 1416,900;    0,182;   -1,409
904,666; 1344,830;    2,455;    1,045
905,224; 1216,305;    0,182;   -0,409
905,781; 1375,507;    0,727;   -0,318
906,338; 1291,164;   -1,363;    1,045
906,895; 1168,184;    0,637;    2,045
907,453; 1466,023;    1,727;    1,136
908,010; 1312,498;   -0,909;    0,409
908,567; 1246,519;    1,273;    0,591
909,124; 1032,630;    0,364;   -1,500
909,681; 1106,742;   -2,909;    0,682
910,238; 1197,762;    0,636;   -1,318
910,795; 1165,601;   -0,273;   -1,136
911,352; 1163,328;   -2,909;   -2,682
911,909; 1151,237;   -1,364;   -0,864
912,466; 1202,419;   -3,182;    1,500
913,022; 1223,510;   -1,636;    0,500
913,579; 1341,328;   -0,909;    2,045
914,136; 1200,419;    1,636;    0,955
914,692; 1271,692;    0,091;   -1,227
915,249; 1210,056;    1,455;    0,409
915,806; 1297,419;    0,182;    1,955
916,362; 1198,419;    1,909;    1,864
916,918; 1097,601;    2,000;    1,045
917,475; 1321,419;   -1,182;    0,955
918,031; 1121,874;    3,364;   -0,045
918,587; 1191,419;   -0,909;   -0,318
919,144; 1100,237;   -2,273;    0,227
919,700; 1059,692;    1,727;    0,773
920,256; 1018,419;    0,727;    0,045
920,812; 1059,692;   -0,727;   -1,045
921,368; 1010,783;   -1,727;   -1,045
921,924;  992,419;    0,182;   -0,136
922,480; 1110,601;   -0,545;    1,227
923,036; 1141,601;    1,273;    1,955
923,592; 1034,692;    0,455;    0,318
924,148; 1061,601;    0,455;   -0,955
924,704; 1215,328;   -1,364;   -0,409
925,259; 1044,237;   -0,273;    0,591
925,815;  988,692;    1,455;    0,500
926,371;  945,056;    2,909;    1,409
926,926; 1108,874;    2,091;    0,591
927,482; 1069,965;   -1,364;    0,773
928,037;  996,601;    0,909;    2,045
928,593; 1234,965;    1,636;    1,045
929,148;  963,965;   -1,818;   -1,500
929,704; 1025,601;   -1,455;   -0,500
930,259;  901,419;    0,091;   -0,136
930,814; 1127,146;   -0,818;    1,955
931,369; 1034,056;    1,091;   -0,773
931,925;  814,965;   -0,091;    0,136
932,480;  935,601;   -2,818;   -2,591
933,035; 1331,874;    0,545;   -0,318
933,590; 1197,965;    0,364;   -1,773
934,145;  764,783;   -1,364;   -0,318
934,700;  679,419;    0,455;   -0,591
935,255;  752,601;   -0,091;    0,045
935,809; 1098,601;    3,182;    0,864
936,364;  690,965;   -0,455;   -0,136
936,919;  702,601;    0,455;   -1,773
937,474;  604,510;    1,455;    0,136
938,028;  640,965;   -1,636;    1,136
938,583; 1054,328;    1,818;    4,682
939,138;  685,237;    2,091;    2,136
939,692;  542,874;    1,636;   -1,136
940,247;  590,237;   -0,727;   -1,045
940,801;  661,965;   -0,636;    0,227
941,355;  551,419;   -0,364;    2,591
941,910;  437,601;   -0,273;   -2,136
942,464;  487,601;   -0,818;   -0,318
943,018;  763,146;    1,000;   -0,227
943,572;  567,510;    2,545;   -0,682
944,126;  627,328;    0,091;   -0,409
944,681;  496,237;    3,091;    0,227
945,235;  435,783;    1,000;   -0,591
945,789;  383,783;    0,364;   -1,864
946,342;  716,419;    0,455;   -0,591
946,896;  443,874;   -2,273;    0,955
947,450;  419,874;    1,545;   -0,227
948,004;  691,874;    1,727;   -0,045
948,558;  481,874;    0,273;   -0,864
949,111;  474,692;   -0,273;   -0,318
949,665;  694,510;    1,636;   -0,682
950,219;  632,237;   -0,091;   -1,045
950,772;  556,146;   -1,909;    1,864
951,326;  548,328;    0,545;   -0,955
951,879;  468,146;    0,727;   -2,318
952,433;  614,237;    0,000;    2,227
952,986;  437,874;    2,909;    0,682
953,539;  392,328;   -0,273;    0,591
954,093;  331,237;    0,545;   -1,318
954,646;  481,783;    0,909;    1,318
955,199;  405,692;    0,000;   -0,500
955,752;  623,965;   -0,455;    1,773
956,305;  461,692;   -0,091;    2,955
956,858;  523,419;    0,818;   -0,318
957,411;  589,601;   -0,545;    2,136
957,964;  481,692;    1,364;    2,136
958,517;  389,692;   -1,545;    3,136
959,070;  343,328;   -0,455;    1,955
959,623;  645,237;    1,091;    1,500
960,176;  589,965;    1,727;    2,045
960,728;  554,237;   -2,727;    0,773
961,281;  492,601;    0,545;    0,500
961,834;  405,874;   -0,909;    0,864
962,386;  412,237;    1,727;    1,045
962,939;  367,874;    0,364;   -0,318
963,491;  427,056;    0,455;    1,136
964,043;  353,146;    1,182;    2,409
964,596;  546,056;   -1,000;    2,227
965,148;  442,601;   -1,000;    1,773
965,700;  348,328;    1,091;   -0,227
966,253;  524,510;   -0,636;    0,318
966,805;  480,237;   -2,273;    0,773
967,357;  401,056;    1,091;   -1,500
967,909;  532,510;    0,455;   -1,227
968,461;  404,874;    0,545;    3,136
969,013;  352,056;   -0,182;   -0,864
969,565;  513,601;   -0,455;   -1,136
970,117;  770,328;   -0,364;    1,045
970,669;  515,874;    0,182;   -0,136
971,220;  301,783;   -0,455;   -1,500
971,772;  400,783;   -0,636;   -0,318
972,324;  507,056;    0,091;   -0,500
972,876;  411,419;    0,818;   -0,045
973,427;  537,510;    1,909;   -1,045
973,979;  598,692;   -0,727;   -2,500
974,530;  381,601;    1,818;    1,318
975,082;  453,146;   -0,545;    1,682
975,633;  396,237;    1,091;    1,682
976,184;  466,965;    0,909;    0,773
976,736;  456,419;    0,091;    0,227
977,287;  462,237;   -0,909;   -0,500
977,838;  425,510;    0,909;   -0,318
978,389;  432,601;   -1,000;   -0,500
978,940;  286,874;    0,545;   -0,409
979,491;  288,056;    0,091;   -0,500
980,042;  398,692;    0,182;    3,045
980,593;  399,965;   -2,545;    0,227
981,144;  502,601;    2,545;   -0,500
981,695;  550,237;    1,455;    1,500
982,246;  489,874;   -0,273;    1,045
982,797;  350,419;   -1,727;    0,682
983,347;  506,056;    0,364;    0,591
983,898;  715,874;    3,091;    0,409
984,449;  665,056;    2,182;    0,773
984,999;  487,965;    1,455;   -1,136
985,550;  452,146;    0,182;   -0,318
986,100;  300,874;   -0,455;   -0,318
986,651;  296,510;   -0,818;    0,045
987,201;  335,328;   -1,000;   -0,591
987,751;  350,056;    0,818;    2,864
988,302;  395,783;    2,636;    1,500
988,852;  443,874;    0,455;   -1,136
989,402;  512,237;    0,091;    0,682
989,952;  540,965;   -2,182;    0,864
990,502;  374,419;   -0,091;    0,682
991,052;  267,056;   -0,727;    0,045
991,602;  321,056;   -2,909;    1,318
992,152;  381,783;    0,455;    0,682
992,702;  412,601;    1,364;   -0,045
993,252;  348,692;   -3,000;   -0,500
993,802;  453,965;   -0,273;    1,318
994,352;  407,419;   -1,545;    1,136
994,901;  314,419;   -0,182;    3,227
995,451;  297,783;   -0,182;    0,318
996,000;  337,328;    1,636;    0,318
996,550;  347,146;    2,273;    0,227
997,100;  385,874;    1,273;   -0,045
997,649;  536,056;    2,182;    0,955
998,198;  343,419;    1,727;   -1,500
998,748;  471,692;    1,091;   -2,318
999,297;  402,419;   -0,818;   -0,409
999,846;  531,874;    1,000;   -0,773
1000,395;  438,874;   -0,818;    0,500
1000,945;  562,783;    1,818;   -0,773
1001,494;  556,874;    2,364;    0,682
1002,043;  536,965;    4,636;    0,864
1002,592;  345,146;   -1,091;    1,955
1003,141;  337,056;   -0,455;   -0,682
1003,690;  509,146;    1,727;    0,500
1004,238;  384,692;    1,455;   -0,045
1004,787;  299,692;    1,364;    1,227
1005,336;  490,874;    0,364;    0,682
1005,885;  434,328;    1,364;   -2,773
1006,433;  420,874;    0,545;    0,955
1006,982;  622,237;    0,455;    1,682
1007,531;  463,056;   -1,818;   -0,227
1008,079;  410,965;   -2,273;    0,500
1008,627;  343,510;   -1,455;    0,409
1009,176;  368,237;    0,000;   -1,955
1009,724;  317,146;    1,091;    0,864
1010,273;  479,965;    1,273;    0,500
1010,821;  353,601;    0,091;    1,409
1011,369;  319,510;   -1,364;    1,318
1011,917;  345,510;   -1,364;   -0,591
1012,465;  423,601;    1,273;   -1,591
1013,013;  411,056;    2,091;   -1,682
1013,561;  510,692;    0,455;   -0,773
1014,109;  612,328;   -1,909;    1,682
1014,657;  479,874;    0,364;    0,591
1015,205;  369,328;    1,636;   -0,955
1015,753;  315,874;   -0,545;   -1,409
1016,301;  397,237;   -2,636;    3,045
1016,848;  476,237;   -1,273;    0,409
1017,396;  478,237;    2,545;    0,045
1017,944;  475,056;    1,182;    1,864
1018,491;  376,237;    0,273;    1,409
1019,039;  698,419;    0,455;    0,591
1019,586;  449,783;   -1,364;    1,682
1020,134;  431,601;    0,455;    1,500
1020,681;  504,692;    0,182;   -1,136
1021,228;  407,146;    2,909;   -2,227
1021,776;  392,510;    1,182;   -1,136
1022,323;  631,328;    0,455;    0,773
1022,870;  531,601;   -1,000;   -0,045
1023,417;  584,783;    2,636;    1,864
1023,964;  400,692;    2,636;    1,227
1024,511;  377,965;    1,000;    0,773
1025,058;  412,692;    3,182;   -0,045
1025,605;  365,328;   -2,273;    3,136
1026,152;  589,056;    1,727;   -0,591
1026,699;  436,874;    1,818;    1,318
1027,245;  421,874;   -0,091;    0,318
1027,792;  355,056;   -1,000;    1,409
1028,339;  584,056;    2,364;   -0,045
1028,885;  441,874;    1,000;   -0,227
1029,432;  384,783;   -0,091;    0,227
1029,978;  510,419;   -1,000;   -1,591
1030,525;  493,874;    1,000;    0,409
1031,071;  349,692;   -1,364;    1,136
1031,618;  650,237;    0,364;    1,682
1032,164;  476,510;   -0,091;    3,045
1032,710;  528,965;    1,636;   -1,500
1033,256;  492,965;   -0,636;   -0,136
1033,803;  332,874;   -0,545;    1,500
1034,349;  197,237;   -1,364;    0,136
1034,895;  253,056;    0,000;   -0,318
1035,441;  328,146;   -0,818;    0,318
1035,987;  380,874;   -2,364;   -0,682
1036,533;  461,510;   -1,455;   -0,955
1037,078;  659,783;    1,455;    1,682
1037,624;  499,510;    2,455;   -0,955
1038,170;  367,146;    0,455;   -0,318
1038,716;  446,692;    1,636;   -0,409
1039,261;  323,783;   -2,273;   -0,773
1039,807;  340,874;   -0,091;    3,409
1040,352;  374,783;   -1,909;   -0,318
1040,898;  366,783;   -1,545;   -0,682
1041,443;  293,601;   -1,455;   -2,591
1041,989;  605,601;    1,091;    1,591
1042,534;  393,328;   -0,364;    2,591
1043,079;  274,146;    2,909;    0,955
1043,625;  393,601;    1,818;    0,500
1044,170;  412,692;   -1,364;    1,045
1044,715;  613,419;    2,455;    0,955
1045,260;  506,510;    2,182;   -0,955
1045,805;  345,146;    1,182;   -0,591
1046,350;  300,874;    1,364;   -0,409
1046,895;  494,146;    2,909;    1,591
1047,440;  488,419;    5,364;    0,409
1047,985;  350,601;    2,818;   -0,955
1048,530;  322,419;    1,545;    1,227
1049,074;  387,692;    0,000;    0,318
1049,619;  317,328;   -1,364;    1,955
1050,164;  313,056;    0,455;    0,227
1050,708;  396,056;   -0,455;    0,045
1051,253;  642,874;    1,273;   -2,227
1051,797;  442,146;    0,818;   -1,318
1052,342;  274,783;   -1,182;    1,045
1052,886;  376,237;    0,364;   -1,409
1053,430;  257,328;   -1,364;    0,136
1053,975;  353,874;   -0,818;   -0,318
1054,519;  362,419;   -0,727;    3,227
1055,063;  428,056;    0,909;    1,318
1055,607;  408,783;   -0,182;    0,227
1056,151;  406,146;    2,909;    1,682
1056,695;  319,146;    2,273;   -1,136
1057,239;  312,419;   -1,727;   -0,682
1057,783;  365,146;    0,818;   -1,500
1058,327;  432,601;    0,000;    1,409
1058,871;  577,146;   -0,545;    1,318
1059,415;  448,510;   -0,818;   -0,045
1059,958;  599,237;    1,455;    2,591
1060,502;  362,328;   -1,000;   -0,773
1061,046;  260,237;    0,364;   -0,955
1061,589;  245,601;   -3,000;   -1,136
1062,133;  217,692;   -1,273;    1,864
1062,676;  262,874;    1,182;    0,864
1063,220;  304,146;    1,091;    0,500
1063,763;  326,692;    0,909;    1,136
1064,306;  357,146;   -0,909;    1,864
1064,849;  353,510;   -0,909;    0,591
1065,393;  332,965;    2,000;   -1,500
1065,936;  335,783;    0,182;   -0,409
1066,479;  246,056;   -1,455;    1,318
1067,022;  274,328;   -0,273;   -0,227
1067,565;  240,965;   -0,091;   -1,318
1068,108;  221,237;    0,727;   -0,591
1068,651;  193,874;   -0,636;    1,409
1069,194;  203,874;   -0,455;   -1,682
1069,736;  225,783;   -1,273;    0,955
1070,279;  195,237;   -1,364;   -0,500
1070,822;  286,783;   -2,000;   -0,318
1071,364;  421,056;   -0,364;    1,318
1071,907;  273,510;   -0,727;    3,227
1072,450;  124,146;    0,000;   -0,045
1072,992;  207,146;   -0,273;    3,136
1073,535;  286,783;    2,091;    2,136
1074,077;  200,510;   -0,727;    2,045
1074,619;  201,510;   -1,364;    0,591
1075,161;  225,965;   -1,091;    1,500
1075,704;  357,510;    1,545;    1,227
1076,246;  215,783;   -0,182;    0,682
1076,788;  149,965;   -0,364;    1,773
1077,330;  147,965;    1,273;    2,136
1077,872;  196,419;    0,909;    0,955
1078,414;  373,965;    2,727;    0,773
1078,956;  226,146;    1,273;   -0,227
1079,498;  372,692;    1,636;    0,318
1080,040;  227,783;    1,909;   -1,318
1080,581;  183,419;    1,636;   -0,318
1081,123;  125,056;    0,091;   -0,773
1081,665;  147,328;   -1,182;   -0,955
1082,206;  333,783;    1,364;   -0,500
1082,748;  246,328;    0,727;    2,045
1083,289;  157,510;   -2,000;    1,318
1083,831;  152,692;   -0,545;    0,227
1084,372;  203,056;    0,000;    0,591
1084,913;  193,328;    1,091;    0,864
1085,455;  141,692;   -1,909;   -2,045
1085,996;  146,692;   -2,273;    0,136
1086,537;  181,783;   -0,091;    0,864
1087,078;  185,783;   -0,909;   -2,136
1087,619;  233,328;   -1,273;    0,227
1088,160;  193,328;    0,000;    1,318
1088,701;  175,783;   -1,091;    0,682
1089,242;  157,965;    1,364;   -2,227
1089,783;  210,419;   -0,273;    1,409
1090,324;  188,601;    0,455;    0,682
1090,865;  128,965;    2,727;   -0,409
1091,405;  102,874;    0,727;    2,227
1091,946;  148,510;    0,182;   -0,955
1092,487;   99,783;    0,818;   -1,409
1093,027;  217,874;   -1,364;   -1,500
1093,568;  146,328;   -0,364;    1,227
1094,108;  184,146;    0,273;    1,773
1094,649;  150,601;   -1,182;    0,136
1095,189;  116,692;   -0,636;   -0,682
1095,729;  116,328;   -0,091;    0,955
1096,269;  106,419;    0,727;   -0,955
1096,810;  262,692;   -1,364;    0,500
1097,350;  200,328;    1,364;   -0,773
1097,890;  149,419;    0,364;    1,227
1098,430;  310,328;    2,364;    2,864
1098,970;  240,783;    2,182;    1,682
1099,510;  132,601;    0,545;   -2,318
1100,050;  113,874;    1,000;   -1,591
1100,589;  125,056;   -0,727;   -0,318
1101,129;  173,783;    0,818;   -0,955
1101,669;  260,965;    1,727;    2,136
1102,209;  183,692;   -0,091;    2,227
1102,748;  151,601;    0,000;    0,955
1103,288;  159,510;    1,273;   -1,227
1103,827;  146,965;    3,091;   -2,227
1104,367;  102,510;   -0,091;   -2,409
1104,906;  107,056;    1,364;   -1,136
1105,445;  152,056;    0,636;   -1,136
1105,985;  127,237;   -0,727;    1,500
1106,524;  141,783;   -1,727;   -0,682
1107,063;  132,146;   -2,727;    1,409
1107,602;  102,874;   -1,909;   -1,500
1108,141;   88,783;   -1,909;    1,500
1108,680;  151,146;   -3,455;   -0,591
1109,219;  121,056;   -0,909;   -0,500
1109,758;  112,328;    0,455;    0,682
1110,297;  109,237;    1,000;   -0,682
1110,836;   82,419;   -0,727;    0,955
1111,375;  120,783;   -2,545;    0,409
1111,913;  155,419;   -1,000;    0,773
1112,452;  130,146;   -0,273;    0,136
1112,991;   78,692;    1,091;    1,955
1113,529;   80,419;   -0,818;   -0,045
1114,068;  107,237;   -0,273;    2,955
1114,606;   73,601;   -0,364;   -0,955
1115,144;  144,146;   -1,273;    1,045
1115,683;  117,874;   -0,727;    0,318
1116,221;  147,419;   -0,455;   -0,864
1116,759;   96,146;    0,636;   -0,864
1117,297;  176,146;    0,000;    1,864
1117,836;   98,146;   -2,182;   -1,227
1118,374;   95,965;    0,182;   -0,682
1118,912;   98,419;    0,909;    2,682
1119,450;   94,056;    1,000;    0,864
1119,988;   98,965;    1,545;    2,136
1120,525;  357,965;    5,091;    3,318
1121,063;  190,328;    1,182;    1,864
1121,601;   98,601;   -0,909;   -1,227
1122,139;   77,692;   -0,727;   -2,045
1122,676;  182,237;   -0,727;    2,773
1123,214;  150,965;   -1,182;    4,409
1123,751;   71,692;    1,727;    2,227
1124,289;  111,419;   -0,091;   -0,409
1124,826;   74,056;    1,727;    0,227
1125,364;   39,510;    1,727;   -0,955
1125,901;  146,601;    1,182;    1,227
1126,438;  163,056;    0,818;    0,955
1126,975;   52,146;   -0,727;   -0,773
1127,513;   75,056;    0,273;    2,136
1128,050;   47,328;    1,636;   -0,682
1128,587;   84,601;    2,000;   -0,227
1129,124;  105,692;    0,091;    1,318
1129,661;   58,146;    0,273;    0,227
1130,198;  127,965;    1,636;    0,773
1130,734;   96,146;    0,182;    1,409
1131,271;   47,237;   -0,909;    0,864
1131,808;  115,419;    2,909;    3,045
1132,345;   71,692;    1,545;    0,318
1132,881;   26,419;   -1,545;   -1,864
1133,418;   77,146;    0,727;   -1,136
1133,954;   53,510;    2,455;   -2,682
1134,491;   79,237;    1,364;   -0,773
1135,027;   47,419;    2,364;    0,864
1135,564;   79,419;    0,273;    2,955
1136,100;   73,783;    0,364;    2,136
1136,636;   39,783;   -1,273;   -1,045
1137,172;   60,146;    0,000;   -1,045
1137,708;   45,237;   -1,364;   -1,045
1138,245;   41,146;    1,273;   -1,227
1138,781;   28,328;    1,091;   -3,318
1139,317;   45,237;    1,273;   -1,409
1139,852;   55,783;    3,091;    0,136
1140,388;   85,601;   -1,182;   -0,409
1140,924;   49,419;   -1,091;   -2,227
1141,460;   31,510;   -1,636;    0,136
1141,996;   19,601;   -1,364;    2,682
1142,531;   29,692;    1,364;    3,318
1143,067;  107,056;    1,182;    1,045
1143,602;  132,783;   -0,091;   -0,318
1144,138;   67,692;   -2,636;    1,045
1144,673;   32,510;   -1,455;    1,409
1145,209;   49,510;   -1,909;   -0,318
1145,744;   19,965;   -0,727;    0,864
1146,279;   62,965;    1,818;   -0,136
1146,815;   37,237;    1,545;   -2,682
1147,350;   56,783;   -1,364;    0,045
1147,885;   26,783;   -0,818;   -1,318
1148,420;   29,965;   -2,273;    0,773
1148,955;   23,965;   -1,727;    1,864
1149,490;   29,692;   -0,909;   -1,591
1150,025;   16,965;    0,455;   -1,773
1150,560;   63,056;    1,091;   -0,955
1151,094;   48,146;    1,455;   -0,591
1151,629;   49,146;    1,636;    0,864
1152,164;   30,146;    1,364;    1,318
1152,698;   18,419;   -0,182;   -0,136
1153,233;    9,056;    0,091;   -0,682
1153,767;   21,783;   -3,000;   -2,318
1154,302;   31,419;   -1,455;    1,773
1154,836;   33,237;   -0,455;   -2,136
1155,371;   48,328;   -1,364;    3,682
1155,905;   31,328;   -0,636;    1,682
1156,439;   32,056;   -0,636;   -0,500
1156,973;   39,328;    0,364;    0,318
1157,507;   21,328;   -0,364;    0,682
1158,042;   25,056;   -0,727;    1,045
1158,576;   36,419;    0,182;    1,773
1159,110;   34,783;   -0,818;    2,409
1159,643;   28,783;    0,636;   -0,045
1160,177;   18,965;   -1,545;    1,500

