
Integration time [ms]:   0,040
Averaging Nr. [scans]: 11
Smoothing Nr. [pixels]: 0
Data measured with spectrometer [name]: 7318044SP
Wave   ;Sample   ;Dark     ;Reference
[nm]   ;[counts] ;[counts] ;[counts] 

186,757;   38,964;   31,551;    1,318
187,357;   46,725;   22,551;    0,955
187,958;   32,394;   15,460;   -1,591
188,558;   41,309;    8,915;   -1,227
189,159;   27,843;    6,733;   -4,500
189,759;   15,740;    7,278;   -3,591
190,360;   13,443;    2,824;   -2,136
190,960;   26,767;    2,915;   -4,136
191,560;   30,893;    3,189;   -6,591
192,161;  152,705;    4,372;   -3,500
192,761;   82,259;    4,010;   -3,227
193,361;   51,819;    1,556;   -3,773
193,962;   76,716;    2,010;   -2,682
194,562;   30,738;    1,189;   -3,955
195,162;   30,876;   -2,448;   -2,227
195,762;  101,407;   -3,176;   -0,045
196,362;   70,969;    1,370;   -2,500
196,963;   23,760;    2,006;   -0,864
197,563;   54,955;    1,551;   -0,955
198,163;   26,907;    0,096;   -0,682
198,763;   34,667;    1,733;   -0,500
199,363;   67,509;    3,096;   -0,500
199,963;   51,614;    0,369;    0,409
200,563;   44,733;    2,823;   -1,409
201,163;   32,243;    3,277;   -0,227
201,763;   58,653;    3,732;    0,318
202,363;   35,094;    1,459;    1,500
202,963;   62,425;    1,459;    1,045
203,563;  112,966;    0,277;    0,500
204,162;   52,457;    2,096;   -1,864
204,762;   47,660;    0,550;    0,591
205,362;   31,232;    3,004;    1,955
205,962;   66,416;    3,096;    1,955
206,562;   66,154;    1,823;    2,318
207,161;   45,028;   -0,087;    0,318
207,761;  131,339;    1,277;    2,409
208,361;   64,656;   -0,268;    1,409
208,960;   92,115;    0,459;    1,500
209,560;   95,323;    1,277;    1,591
210,160;  108,652;    0,550;    1,864
210,759;   84,020;    4,186;    1,227
211,359;   75,185;    1,459;    1,045
211,958;  208,588;    1,277;    2,045
212,558;  229,898;    1,732;    1,864
213,157;  140,924;    1,822;    1,500
213,757;  338,329;    3,822;   -0,227
214,356;  185,734;    1,277;   -0,409
214,956;  340,290;    3,095;    0,409
215,555;  161,010;    2,095;    2,136
216,154;  122,650;   -2,723;   -0,591
216,754;  119,177;    0,277;    0,773
217,353;  160,259;   -0,268;   -1,045
217,952;   75,104;   -0,178;    0,318
218,552;  204,023;    1,368;   -0,773
219,151;  137,497;    0,277;    0,955
219,750;  128,036;    0,004;   -0,227
220,349;  111,701;   -0,451;    1,045
220,948;  227,917;   -1,360;    1,136
221,548;  149,605;    0,913;    1,227
222,147;  193,745;   -0,087;   -0,409
222,746;  354,345;   -0,451;   -0,955
223,345;  244,571;    0,731;    0,500
223,944;  248,853;   -0,451;    0,773
224,543;  273,463;    1,004;   -1,409
225,142;  298,838;    0,094;    0,136
225,741;  274,185;   -0,814;    1,045
226,340;  262,506;   -0,451;   -0,955
226,939;  428,636;   -0,996;   -0,136
227,538;  264,888;   -0,360;   -0,773
228,137;  429,471;   -0,814;    0,864
228,735;  374,098;   -0,541;    1,227
229,334;  240,262;   -0,905;   -0,227
229,933;  477,286;    0,459;    0,591
230,532;  513,360;    1,186;   -0,409
231,131;  603,110;    1,732;    0,318
231,729;  464,423;   -2,450;   -2,318
232,328;  377,666;   -0,723;   -1,500
232,927;  398,871;    1,004;   -0,500
233,525;  379,341;    3,640;    0,045
234,124;  448,812;    2,368;   -1,591
234,723;  348,793;    0,913;   -1,045
235,321;  352,478;    2,277;    0,136
235,920;  426,887;    1,186;   -1,227
236,518;  633,845;    3,459;    0,318
237,117;  431,975;    0,004;   -0,227
237,715;  447,995;    0,640;   -0,500
238,314;  529,387;   -0,087;   -2,318
238,912;  708,572;   -0,723;   -1,409
239,510;  550,991;    0,459;   -1,227
240,109;  716,712;    0,004;    3,773
240,707;  663,481;   -0,996;    1,227
241,305;  489,183;    0,550;    0,136
241,904;  633,819;   -0,178;   -2,045
242,502;  757,119;   -0,632;   -0,227
243,100;  623,614;   -0,087;   -0,955
243,698;  565,725;    0,732;    1,682
244,297;  612,998;   -0,632;    0,682
244,895;  618,097;   -0,269;   -2,318
245,493;  847,274;    2,186;   -0,591
246,091;  829,872;    1,368;   -1,318
246,689;  763,408;    1,004;    0,591
247,287;  703,851;    0,822;   -1,136
247,885;  673,485;   -1,451;    1,227
248,483;  635,930;    1,822;   -0,500
249,081;  738,197;    0,185;    1,591
249,679;  806,892;   -0,178;    1,682
250,277;  642,513;   -1,723;    0,864
250,875;  816,896;   -1,087;   -1,045
251,473;  683,441;   -1,178;    0,500
252,071;  800,657;    1,459;    1,045
252,669;  729,307;   -1,814;    0,318
253,267;  660,793;   -0,087;    0,773
253,864;  696,578;   -0,360;    0,682
254,462;  907,821;    1,640;    1,591
255,060;  641,322;   -0,269;    1,318
255,658;  625,671;    0,822;   -0,136
256,255;  765,115;    0,186;   -2,045
256,853;  814,848;   -0,269;    1,409
257,451;  776,347;    0,822;    1,864
258,048; 1295,666;    1,822;    1,864
258,646;  901,631;    1,731;   -1,045
259,243; 1035,485;   -0,087;    2,227
259,841;  901,677;   -0,814;    0,318
260,438;  715,036;   -0,087;    0,864
261,036;  876,374;   -1,905;    1,409
261,633;  779,507;   -0,087;    2,227
262,231;  712,465;    2,731;   -0,045
262,828;  746,857;   -0,905;    1,136
263,425;  798,285;    0,913;   -0,591
264,023;  803,049;    0,186;    0,045
264,620;  965,795;   -0,360;   -0,318
265,217; 1114,589;   -2,087;    3,136
265,815;  800,179;   -1,905;    2,136
266,412;  952,243;    0,731;    0,136
267,009;  994,066;   -1,451;    0,773
267,606; 1100,812;    0,822;   -0,955
268,203;  835,322;   -0,269;   -0,591
268,801;  914,028;    1,731;    0,591
269,398;  827,242;   -0,360;    2,500
269,995;  999,129;    0,277;    1,591
270,592;  885,265;   -0,632;   -0,500
271,189;  812,881;    0,186;    0,409
271,786;  800,660;   -0,632;    1,227
272,383; 1110,210;   -1,087;    0,227
272,980;  914,717;    0,277;    0,318
273,577;  889,976;    0,004;    1,227
274,174;  793,106;    0,822;    2,591
274,771;  952,125;   -0,814;   -0,773
275,367; 1423,331;    2,277;    1,409
275,964; 1217,262;    0,731;   -0,500
276,561;  971,152;    1,549;   -1,045
277,158;  892,892;    0,095;   -1,773
277,755; 1180,106;    2,185;    0,409
278,351;  978,803;   -0,451;   -1,500
278,948; 1083,003;   -0,815;    0,045
279,545;  977,535;   -1,360;    2,318
280,141; 1297,130;   -1,723;   -2,045
280,738; 1165,835;   -0,451;   -0,136
281,334;  944,333;   -1,633;    0,591
281,931;  958,171;   -0,087;   -1,318
282,528; 1063,583;    0,822;   -0,500
283,124; 1220,912;   -1,087;   -0,500
283,721; 1192,498;   -0,451;    1,409
284,317; 1008,186;    0,185;    2,500
284,913; 1271,150;   -1,360;    0,591
285,510; 1608,332;    0,640;   -0,318
286,106; 1379,030;   -2,269;   -0,955
286,703; 1019,701;   -0,360;    1,955
287,299;  990,222;   -1,451;   -0,591
287,895; 1008,616;    0,822;   -1,045
288,491; 1043,242;    0,186;    2,136
289,088; 1168,228;   -2,360;    2,409
289,684; 1202,307;   -1,723;    1,500
290,280; 1370,921;    0,368;    0,682
290,876; 1347,237;    1,822;    5,500
291,472; 1206,804;    1,276;    2,227
292,068; 1219,685;    1,367;    0,227
292,665; 1046,495;    2,095;    0,773
293,261;  913,081;    0,276;    2,136
293,857; 1131,994;    2,913;    2,136
294,453; 1051,550;    3,550;    0,955
295,049; 1283,063;   -0,268;    1,955
295,644; 1092,038;    0,095;    0,136
296,240;  939,247;   -0,905;   -0,136
296,836; 1127,322;   -0,995;    0,318
297,432; 1301,164;    1,096;   -0,500
298,028; 1368,170;    0,732;    0,773
298,624; 1179,986;    1,459;    1,864
299,220; 1149,902;    2,368;    0,591
299,815; 1104,834;    1,005;   -0,409
300,411; 1217,609;    0,914;    1,773
301,007; 1375,780;    1,368;    0,227
301,602; 1173,065;   -0,541;   -2,318
302,198; 1304,690;    0,732;   -0,773
302,794; 1148,327;    1,187;   -0,500
303,389; 1131,263;   -1,177;    1,045
303,985; 1211,105;    0,550;    1,409
304,580; 1306,318;    1,459;    1,591
305,176; 1184,333;   -3,086;    0,136
305,771; 1053,962;   -1,268;   -1,227
306,367; 1517,658;    4,095;    0,136
306,962; 1257,701;    0,641;    1,500
307,558; 1237,422;   -0,450;    0,136
308,153; 1342,342;    1,095;   -1,136
308,748; 1138,103;   -0,814;    1,682
309,344; 1563,934;   -0,632;   -1,318
309,939; 1606,402;   -1,905;   -1,318
310,534; 1259,168;   -0,086;   -1,682
311,130; 1175,391;    0,459;   -2,500
311,725; 1085,008;    1,004;   -0,500
312,320; 1202,352;    2,459;    0,045
312,915; 1358,268;    1,459;   -1,045
313,510; 1591,293;    1,550;   -0,500
314,105; 1350,452;    1,096;    1,409
314,700; 1094,069;   -3,086;   -1,045
315,295; 1166,772;   -0,904;    0,045
315,890; 1041,410;    1,277;    0,864
316,485; 1172,390;   -0,359;   -0,318
317,080; 1133,174;   -3,086;    1,591
317,675; 1491,452;    2,005;   -0,682
318,270; 1669,280;    5,550;    3,318
318,865; 1571,726;    3,278;    3,045
319,460; 1347,425;   -0,904;    0,591
320,055; 1222,733;   -0,541;   -1,227
320,650; 1180,504;   -1,995;   -0,591
321,244; 1190,960;   -0,177;   -1,409
321,839; 1348,278;   -1,541;   -0,227
322,434; 1385,807;   -1,086;   -1,591
323,029; 1235,237;    1,732;    1,591
323,623; 1177,922;    1,550;    0,773
324,218; 1321,902;    2,368;    1,409
324,812; 1258,790;    1,096;    1,591
325,407; 1261,153;   -0,814;    2,045
326,002; 1358,531;    0,277;   -0,409
326,596; 1323,497;    0,914;    1,318
327,191; 1188,759;    0,823;   -1,045
327,785; 1095,497;   -0,813;   -0,227
328,379; 1207,217;    1,368;    0,136
328,974; 1198,220;    0,914;   -3,955
329,568; 1248,711;    0,186;   -2,409
330,163; 1317,804;    2,096;    1,045
330,757; 1195,505;    2,459;    1,591
331,351; 1107,864;    0,459;    0,682
331,945; 1128,227;    0,914;    1,409
332,540; 1259,963;   -1,723;   -0,591
333,134; 1227,429;   -1,086;    0,773
333,728; 1205,142;    0,005;    0,318
334,322; 1132,747;   -1,177;   -0,864
334,916; 1040,251;    0,277;    0,955
335,510; 1265,485;   -0,450;   -0,136
336,105; 1308,395;   -1,086;    1,591
336,699; 1143,990;   -1,086;    0,591
337,293; 1166,321;   -1,723;    0,318
337,887; 1105,992;   -2,723;    1,955
338,481; 1301,503;    0,459;    0,591
339,074; 1444,333;   -0,359;    2,682
339,668; 1391,467;   -1,632;    1,227
340,262; 2062,895;    1,732;    3,227
340,856; 1557,702;    1,822;   -0,682
341,450; 1124,325;    1,004;    1,864
342,044; 1245,049;    1,459;    0,136
342,637; 1406,166;    0,913;   -2,136
343,231; 1437,353;   -2,360;    0,682
343,825; 1208,072;   -1,086;   -0,591
344,419; 1195,917;   -1,995;    0,500
345,012; 1824,476;    2,459;    4,045
345,606; 1603,237;    4,641;    1,591
346,199; 1231,397;   -1,813;   -0,227
346,793; 1357,985;    1,914;    2,045
347,386; 1159,506;   -0,813;   -1,136
347,980;  999,244;   -0,268;   -0,045
348,573; 1144,098;    2,278;    0,409
349,167; 1430,934;    5,278;    4,773
349,760; 1393,137;    2,914;    2,682
350,354; 1294,173;   -0,813;    1,136
350,947; 1340,819;    1,096;    1,682
351,540; 1102,259;   -0,358;   -1,409
352,134;  940,322;    1,096;    1,136
352,727; 1020,018;   -0,086;    1,136
353,320; 1047,733;    0,005;    0,591
353,913;  930,335;   -1,995;    1,864
354,507; 1199,107;    0,823;   -1,227
355,100; 1072,326;    0,460;    0,864
355,693; 1506,449;    2,005;    2,409
356,286; 1211,676;    0,823;    2,773
356,879; 1046,155;   -0,722;    1,227
357,472;  989,730;   -0,904;    1,500
358,065; 1091,311;   -0,722;    2,500
358,658;  925,873;   -0,540;    2,318
359,251;  842,164;   -1,631;   -0,591
359,844; 1050,102;   -1,904;   -1,136
360,437; 1167,523;   -2,995;    0,045
361,030; 1008,706;    1,369;   -0,682
361,623;  976,013;    2,824;    0,318
362,215; 1244,287;   -0,086;    2,045
362,808; 1062,341;   -2,358;   -1,682
363,401;  986,847;   -2,449;    0,136
363,994; 1251,855;   -0,631;   -1,500
364,586;  982,325;    0,824;   -1,500
365,179;  926,894;   -0,449;   -1,136
365,772;  726,500;   -1,995;    2,045
366,364;  914,714;    1,915;   -3,227
366,957; 1041,666;    2,279;   -0,045
367,549;  931,107;    2,188;   -0,864
368,142;  934,247;    1,825;   -1,500
368,734;  891,984;    0,734;   -2,136
369,327;  800,086;    1,643;   -0,500
369,919;  856,061;   -1,538;    0,409
370,512;  905,270;   -1,083;   -0,500
371,104; 1177,952;   -0,901;    1,591
371,696; 1255,496;    1,191;   -0,955
372,289; 1082,838;    0,373;    1,136
372,881; 1017,096;   -2,080;    1,318
373,473;  854,990;   -2,170;    1,136
374,066;  987,887;   -0,169;    0,500
374,658;  942,937;    0,378;    1,136
375,250;  890,357;    0,653;   -1,409
375,842;  952,609;    0,473;   -0,045
376,434;  887,324;   -0,435;   -0,409
377,026;  939,033;    0,204;   -2,500
377,618;  963,662;   -0,158;   -0,682
378,210;  868,823;   -0,338;   -1,955
378,802;  804,305;    0,754;   -0,591
379,394; 1328,317;    1,846;    0,682
379,986; 1073,346;    1,393;   -0,955
380,578;  966,729;   -0,153;    0,773
381,170; 1227,236;   -0,972;    0,045
381,762; 1083,482;    0,755;    1,409
382,354; 1036,567;   -0,065;   -1,318
382,945;  933,862;   -2,976;    0,318
383,537;  872,152;   -2,705;   -1,955
384,129;  883,512;   -2,160;   -1,136
384,721; 1026,928;   -0,252;    0,955
385,312;  912,372;   -0,161;   -0,955
385,904; 1076,009;   -2,706;    1,591
386,496;  889,250;   -0,979;    1,045
387,087; 1092,795;    1,022;    2,500
387,679; 1012,353;   -1,160;    0,045
388,270; 1036,693;    2,840;    2,045
388,862;  987,112;    1,295;   -0,318
389,453;  892,750;   -0,887;    1,045
390,045;  955,201;   -0,705;   -2,682
390,636;  860,047;    0,204;   -0,591
391,227;  899,715;   -0,523;   -0,045
391,819;  918,322;    0,204;    0,773
392,410; 1220,261;    1,022;    0,045
393,001;  998,991;   -0,979;   -1,591
393,593; 1094,128;    1,930;   -0,045
394,184; 1150,009;    1,385;   -0,409
394,775;  934,384;    1,839;    2,136
395,366;  924,332;    1,385;    0,773
395,957; 1156,009;    0,113;    0,136
396,548; 1024,606;   -0,342;    2,682
397,139; 1224,702;   -2,433;    0,591
397,730; 1073,038;   -1,888;    0,955
398,321; 1067,435;   -1,252;    0,955
398,912;  999,782;   -0,615;    0,136
399,503; 1042,495;   -3,524;   -1,409
400,094; 1040,914;    0,294;    1,682
400,685; 1025,038;   -0,433;    0,045
401,276;  916,694;    0,930;   -0,955
401,867;  929,955;   -0,888;    0,773
402,458;  904,128;   -2,251;   -2,318
403,048; 1103,563;    1,112;    0,591
403,639;  969,558;    0,840;    0,864
404,230; 1203,311;    2,476;    0,318
404,821; 1259,131;   -0,615;    0,045
405,411; 1117,204;    1,203;   -2,591
406,002;  959,948;   -1,252;   -1,136
406,592; 1273,172;    2,294;    0,045
407,183; 1101,834;    0,566;   -1,500
407,774; 1030,260;    3,475;   -0,136
408,364; 1015,176;    0,930;    0,409
408,954; 1154,635;    0,384;    1,227
409,545; 1162,245;    1,021;    1,045
410,135; 1047,768;    1,293;    0,500
410,726; 1004,401;    1,838;    0,318
411,316; 1275,894;    0,111;    0,773
411,906; 1019,003;   -0,253;   -0,409
412,497;  999,765;   -1,070;   -0,045
413,087;  964,062;   -1,980;   -0,227
413,677;  942,949;   -0,707;    3,864
414,267;  905,820;    0,656;    1,409
414,857;  858,600;   -2,980;    4,227
415,448;  903,564;    0,839;    0,500
416,038;  909,794;    0,020;   -0,591
416,628;  982,559;   -0,889;    0,409
417,218; 1070,317;    0,565;    3,318
417,808; 1270,917;    0,202;   -0,409
418,398; 1086,565;    0,020;    2,682
418,988;  940,334;    2,020;    0,591
419,578; 1052,636;   -0,707;    1,409
420,168; 1075,930;   -1,343;   -0,955
420,757; 1241,840;   -1,343;   -1,500
421,347; 1051,167;    0,111;   -0,227
421,937; 1012,962;    2,292;    1,409
422,527; 1192,805;    0,838;   -0,773
423,116; 1352,559;   -0,253;   -0,045
423,706; 1006,218;   -1,889;    0,318
424,296;  902,382;    1,384;    0,682
424,885; 1163,200;   -0,071;   -3,045
425,475; 1129,061;    1,474;   -2,864
426,065;  960,956;   -0,980;   -0,318
426,654;  931,783;   -0,435;   -0,318
427,244; 1329,828;    0,020;    1,409
427,833; 1268,583;    1,383;   -0,500
428,423; 1095,045;   -0,526;    1,136
429,012; 1169,469;   -0,344;   -1,136
429,601; 1275,416;   -1,344;    0,136
430,191; 1119,913;    1,292;    4,318
430,780;  935,333;   -0,344;   -0,409
431,369; 1273,879;    0,746;   -0,045
431,959; 1208,927;   -1,254;    0,500
432,548; 1045,866;   -1,163;   -0,045
433,137;  952,064;   -1,254;   -1,318
433,726; 1142,893;    0,292;    0,500
434,315; 1090,879;   -0,526;    2,409
434,905; 1251,604;   -1,254;    1,409
435,494; 1315,792;    0,746;    0,955
436,083; 1123,025;   -0,981;   -0,955
436,672; 1179,042;    0,110;    0,500
437,261; 1114,872;    0,292;   -1,955
437,850; 1529,052;    1,383;    0,682
438,439; 1562,562;    3,291;    1,955
439,027; 1683,725;    3,655;    1,773
439,616; 1635,543;    2,927;    1,227
440,205; 1294,370;    0,200;   -2,136
440,794; 1168,861;    2,109;   -0,045
441,383; 1082,264;   -1,346;   -0,591
441,971;  974,319;   -2,436;    0,591
442,560;  996,264;    0,563;   -1,773
443,149;  860,610;    0,379;   -1,318
443,737;  991,220;   -0,074;   -2,318
444,326; 1009,109;    0,018;    0,318
444,915; 1093,340;   -1,982;    0,864
445,503; 1127,241;   -2,891;   -0,318
446,092; 1456,586;    0,382;    2,136
446,680; 1405,175;    0,382;    0,318
447,269; 1313,252;   -0,346;   -0,318
447,857; 1230,340;    0,018;   -1,773
448,445; 1169,588;    0,563;    1,318
449,034; 1143,446;   -1,528;   -1,136
449,622; 1108,273;   -1,073;    3,500
450,210; 1580,931;    2,017;    2,227
450,799; 1476,266;    0,290;   -0,591
451,387; 1322,250;    1,381;   -0,591
451,975; 1303,970;    2,654;    0,864
452,563; 1484,442;    3,472;    2,318
453,151; 1141,429;   -0,528;   -1,227
453,739; 1220,339;   -1,347;    0,136
454,328; 1441,128;    2,381;   -2,136
454,916; 1287,184;    2,562;   -0,136
455,504; 1283,143;    1,017;    1,227
456,092; 1149,666;    0,017;   -1,591
456,679; 1043,145;    1,472;    0,682
457,267; 1762,687;    4,017;    1,045
457,855; 1225,883;    1,017;    1,409
458,443;  934,007;   -0,165;    1,682
459,031; 1353,236;    0,108;    2,409
459,619; 1276,571;   -1,801;    2,864
460,206; 1081,655;    0,835;    2,045
460,794; 1095,510;   -2,983;   -0,227
461,382; 1215,327;   -0,529;   -0,864
461,970; 1130,049;    1,198;    1,864
462,557; 1056,670;   -0,711;   -0,682
463,145; 1306,750;   -3,165;   -1,682
463,732; 1652,946;    2,016;   -1,045
464,320; 1280,346;   -0,075;   -3,045
464,907; 1504,171;    2,743;   -0,773
465,495; 1358,962;    0,743;   -1,227
466,082; 1216,504;   -1,984;   -0,045
466,670; 1186,358;   -2,529;    1,227
467,257; 1078,265;   -1,711;    2,045
467,844; 1281,622;   -0,075;    0,045
468,432; 1261,024;    0,834;    3,500
469,019; 1135,181;    0,925;   -1,773
469,606; 1253,126;    0,470;    3,682
470,193; 1318,172;   -1,439;    0,227
470,780; 1278,910;   -2,075;    0,864
471,368; 1154,528;   -1,257;   -0,773
471,955; 1303,266;    1,379;   -0,682
472,542; 1199,411;    0,652;   -1,136
473,129; 1017,953;   -0,166;    0,136
473,716;  993,342;    1,470;    0,591
474,303; 1070,723;    0,652;   -0,864
474,890; 1118,784;   -1,439;   -0,500
475,477; 1284,442;   -1,621;    0,409
476,064; 1122,884;    1,106;   -1,591
476,650; 1274,651;    0,288;    0,318
477,237; 1166,469;   -0,258;    0,955
477,824; 1120,890;   -1,076;    0,864
478,411;  952,308;   -1,894;   -0,318
478,997;  971,151;    0,560;   -0,773
479,584;  879,053;    1,196;   -0,409
480,171; 1301,127;   -0,440;   -0,773
480,757; 1408,463;    2,651;    0,773
481,344; 1198,506;    0,469;    0,409
481,931;  958,410;    1,105;    1,045
482,517; 1337,923;   -1,258;    0,318
483,104; 1498,595;    1,106;    2,864
483,690; 1347,440;   -1,804;    0,045
484,276; 1309,367;   -0,895;    0,227
484,863; 1674,433;    2,469;    1,136
485,449; 1444,529;   -0,077;    0,318
486,035; 1329,567;   -1,986;   -0,136
486,622; 1551,288;   -0,895;    0,045
487,208; 1407,411;    1,378;    1,500
487,794; 1262,311;    0,741;    0,318
488,380; 1295,383;    0,105;   -1,409
488,967; 1283,550;   -1,168;   -0,409
489,553; 1312,774;   -1,895;   -1,409
490,139; 1482,425;    1,559;    0,773
490,725; 1292,015;    0,741;   -0,227
491,311; 1299,967;    3,287;    3,045
491,897; 1124,631;   -0,986;    1,500
492,483; 1139,887;    0,105;    1,227
493,069; 1941,118;    3,923;    0,864
493,655; 1402,382;    1,650;    0,682
494,241; 1202,971;    1,377;   -0,955
494,826; 1299,219;    0,287;   -1,045
495,412; 1347,586;    2,559;   -0,682
495,998; 1213,588;   -0,805;   -0,318
496,584; 1296,474;    0,377;    1,045
497,169; 1233,570;    1,014;   -0,682
497,755; 1099,253;    0,650;    1,227
498,341; 1511,288;    0,559;    0,318
498,926; 1673,338;    1,832;    1,955
499,512; 1257,684;    1,286;    2,955
500,097; 1183,562;    0,195;   -0,318
500,683; 1224,091;   -0,350;    2,136
501,268; 1169,475;   -0,169;   -0,955
501,854; 1207,671;   -0,169;    1,227
502,439; 1125,285;   -0,624;   -1,773
503,024; 1255,648;    0,195;    0,500
503,610; 1329,806;   -0,078;   -0,682
504,195; 1114,544;    0,558;    1,955
504,780; 1288,147;    2,922;    1,227
505,366; 1472,003;    3,013;    2,864
505,951; 1300,960;    0,740;    1,045
506,536; 1206,910;   -3,260;   -3,682
507,121; 1258,987;    0,285;   -0,318
507,706; 1231,468;    2,376;    1,045
508,291; 1152,060;    2,649;    1,136
508,876; 1116,465;   -0,988;    2,591
509,461; 1179,368;   -0,169;   -0,773
510,046; 1273,698;    0,194;    0,318
510,631; 1246,819;   -0,351;   -0,773
511,216; 1137,578;    2,467;   -0,500
511,801; 1286,933;   -0,442;    2,591
512,386; 1296,524;    0,740;    0,500
512,971; 1328,775;   -2,988;    0,955
513,555; 1389,602;   -0,897;   -1,500
514,140; 1389,667;   -0,442;   -3,136
514,725; 1483,678;   -0,715;   -1,136
515,309; 1367,988;   -0,533;    0,318
515,894; 1229,431;   -0,624;   -2,227
516,479; 1262,702;   -0,624;   -0,955
517,063; 1241,985;    0,376;    1,227
517,648; 1228,475;    1,012;   -1,136
518,232; 1122,372;   -0,261;   -1,409
518,817; 1256,386;   -0,079;    1,682
519,401; 1470,875;    2,194;    0,591
519,985; 1278,804;    1,103;    1,136
520,570; 1125,240;    0,830;   -1,955
521,154; 1316,817;    2,102;    0,591
521,738; 1606,159;   -2,352;    2,409
522,323; 1449,309;   -0,170;    1,682
522,907; 1364,129;    0,466;   -0,136
523,491; 1231,611;    0,557;    0,955
524,075; 1171,171;    2,284;    0,591
524,659; 1400,385;    1,466;    0,591
525,243; 1270,879;    1,739;    0,409
525,827; 1205,995;    0,648;   -0,045
526,411; 1272,113;   -1,989;   -0,136
526,995; 1461,926;   -0,352;    1,409
527,579; 1479,076;   -0,443;   -1,045
528,163; 1407,040;    0,375;   -1,500
528,747; 1601,541;    2,466;   -0,773
529,331; 1534,499;   -0,080;   -1,409
529,915; 1299,061;    1,738;    0,955
530,499; 1394,240;   -0,807;    1,227
531,082; 1543,876;   -0,534;    1,591
531,666; 1587,822;    1,374;    0,773
532,250; 1512,283;    1,284;    2,682
532,833; 1671,956;    0,920;    2,773
533,417; 1437,977;   -1,807;    0,864
534,001; 1562,695;    1,647;   -0,318
534,584; 1511,704;    0,374;    0,500
535,168; 1314,505;    0,465;    1,409
535,751; 1731,015;    0,647;    0,045
536,334; 1356,369;   -0,898;   -0,409
536,918; 1327,345;    0,011;    1,591
537,501; 1325,652;   -0,899;    1,318
538,085; 1369,987;   -0,444;    1,045
538,668; 1391,548;    0,829;    2,409
539,251; 1792,017;    1,829;    3,773
539,834; 1511,709;    0,101;    0,773
540,418; 1632,417;   -1,990;    4,318
541,001; 1810,070;   -0,990;    1,773
541,584; 1532,669;    2,101;    2,227
542,167; 1603,819;    1,374;    2,955
542,750; 1487,994;    1,919;   -0,773
543,333; 1250,650;    0,555;    2,136
543,916; 1594,729;    0,192;    2,500
544,499; 1457,361;   -1,354;    0,227
545,082; 1567,203;    1,374;    3,591
545,665; 1489,861;    1,919;    1,500
546,248; 1642,195;    1,010;   -0,318
546,830; 1595,420;   -0,445;    1,955
547,413; 1623,623;    1,010;   -0,773
547,996; 1694,737;    0,555;    0,500
548,579; 1494,250;    0,919;    0,955
549,161; 1751,364;    1,828;    2,682
549,744; 1630,514;   -0,809;    0,409
550,326; 1587,350;   -0,809;   -1,136
550,909; 2065,927;    2,737;    0,591
551,492; 1745,023;   -0,263;    0,227
552,074; 1801,819;   -0,173;   -1,318
552,657; 1862,916;    2,373;    0,045
553,239; 1693,143;   -0,173;   -0,773
553,821; 1614,691;   -1,082;    1,045
554,404; 1803,904;    1,282;    1,136
554,986; 1928,557;    0,464;    1,045
555,568; 1825,511;    1,191;   -0,955
556,151; 2024,981;    1,191;   -0,227
556,733; 1706,149;   -0,264;   -0,864
557,315; 1714,526;    0,100;    0,500
557,897; 1514,397;    0,554;   -0,500
558,479; 1533,963;   -1,991;    1,318
559,061; 1671,777;   -0,719;   -0,864
559,643; 1788,558;   -0,264;    0,045
560,225; 1825,171;    1,645;    2,864
560,807; 1713,012;    0,918;    0,318
561,389; 1631,699;    0,554;    2,318
561,971; 1696,403;    0,463;    2,136
562,553; 1706,607;   -1,628;    1,591
563,135; 1795,129;   -0,537;    1,136
563,717; 2122,662;    3,372;    1,136
564,298; 2024,755;    3,645;   -0,045
564,880; 1744,682;    0,645;   -1,409
565,462; 1631,500;    0,645;    1,318
566,043; 1992,481;   -0,446;    2,318
566,625; 2109,290;    1,918;    1,227
567,207; 1866,451;    1,099;    1,682
567,788; 1892,041;   -1,264;    1,500
568,370; 2031,353;    1,917;   -0,500
568,951; 1883,192;    0,190;    0,227
569,533; 2082,751;   -0,628;   -0,500
570,114; 2205,473;   -0,446;    0,682
570,695; 2249,004;   -0,174;   -1,318
571,277; 2213,203;   -0,265;   -1,682
571,858; 2458,389;    2,008;   -1,136
572,439; 2505,088;    1,554;   -1,045
573,021; 2485,111;    2,099;   -2,773
573,602; 2614,085;   -1,265;    0,318
574,183; 2656,562;   -2,083;    2,227
574,764; 2669,714;   -1,629;    0,409
575,345; 2779,994;    0,917;   -0,136
575,926; 2772,862;   -0,356;    0,136
576,507; 2855,622;    1,099;   -0,227
577,088; 2985,619;    3,099;    1,682
577,669; 3110,968;    0,735;    1,955
578,250; 3361,199;    0,644;   -1,045
578,831; 3216,318;   -1,356;   -2,227
579,412; 3083,801;   -0,810;    0,955
579,993; 3407,825;    1,008;    0,227
580,573; 3405,746;   -0,629;   -0,955
581,154; 3074,161;    0,735;   -0,591
581,735; 3279,774;    0,644;    0,773
582,315; 3132,228;   -0,629;    2,136
582,896; 3307,169;   -0,174;    1,227
583,477; 3138,202;    0,189;    1,227
584,057; 3216,003;    0,553;    0,955
584,638; 3297,643;    2,553;    2,318
585,218; 3461,895;   -0,538;    2,682
585,799; 3374,008;    0,281;   -0,227
586,379; 3310,800;    0,372;    1,591
586,959; 3126,386;    0,735;    0,318
587,540; 2942,828;   -0,629;    2,227
588,120; 2858,718;    1,007;   -0,045
588,700; 2724,060;    2,553;    2,136
589,281; 2980,285;    0,462;   -0,955
589,861; 2862,978;    0,099;   -1,682
590,441; 2804,576;    2,371;   -2,682
591,021; 2583,907;   -0,265;   -2,591
591,601; 2677,832;   -0,537;    0,500
592,181; 2801,708;   -0,719;   -0,773
592,761; 2487,759;    0,007;    1,409
593,341; 2630,556;   -0,901;    0,045
593,921; 2574,797;   -0,265;    1,591
594,501; 2465,662;   -0,538;    1,318
595,081; 2439,328;    0,917;   -0,318
595,661; 2669,423;   -1,447;    0,955
596,240; 2740,835;   -0,537;    0,136
596,820; 2876,213;    0,372;    1,955
597,400; 2592,491;    2,008;    0,773
597,980; 2628,948;    2,008;    1,045
598,559; 2634,373;    2,735;   -0,227
599,139; 2588,063;   -0,174;   -1,227
599,718; 2550,972;   -0,174;   -0,409
600,298; 2634,648;    0,735;    0,682
600,877; 2981,975;    2,917;    1,409
601,457; 2905,262;    2,281;    1,136
602,036; 2764,095;    0,190;    2,045
602,616; 2710,757;    0,644;    1,682
603,195; 2872,344;   -0,355;    3,500
603,774; 2782,668;   -0,901;    2,045
604,354; 2706,592;    0,826;   -0,500
604,933; 2598,441;    0,463;    1,864
605,512; 2792,979;    3,554;    0,591
606,091; 2798,097;   -0,537;    3,773
606,671; 2867,814;    0,281;    0,773
607,250; 2851,831;    1,644;    3,136
607,829; 2865,535;    2,372;    3,227
608,408; 2739,257;    1,190;    2,591
608,987; 2663,162;    1,281;    3,409
609,566; 2547,796;   -1,265;   -2,500
610,145; 2643,195;   -1,082;    0,682
610,723; 2802,597;    4,372;    6,864
611,302; 2538,445;   -0,446;    1,682
611,881; 2641,153;    5,008;   11,227
612,460; 2566,086;    1,645;    3,955
613,039; 2643,455;   -0,082;    2,045
613,617; 2355,482;    1,736;    4,773
614,196; 2389,998;    1,099;    1,227
614,775; 2552,161;    1,009;    2,409
615,353; 2537,787;    0,736;    0,864
615,932; 2464,357;    0,100;    2,409
616,510; 2611,153;    0,554;    0,591
617,089; 2977,017;    7,100;   17,591
617,667; 2666,638;    2,372;    6,136
618,246; 2317,716;   -1,537;    1,318
618,824; 2434,930;   -3,355;   -0,955
619,402; 2379,848;   -2,900;   -1,773
619,981; 2547,005;   -0,173;   -1,045
620,559; 2524,830;    0,009;    1,682
621,137; 2514,426;   -0,718;    1,864
621,715; 2190,102;   -1,173;   -0,682
622,293; 2231,505;   -0,537;   -0,773
622,871; 2528,708;   -0,718;    0,500
623,450; 2346,775;    0,373;   -0,864
624,028; 2472,188;    0,191;   -0,955
624,606; 2387,638;   -1,718;    1,682
625,183; 2308,782;   -1,536;   -1,136
625,761; 2308,319;    1,009;    1,136
626,339; 2680,771;    1,373;    2,591
626,917; 2424,858;   -0,172;   -0,045
627,495; 2431,979;   -0,354;    1,318
628,073; 2387,938;   -0,263;    2,864
628,650; 2345,605;    0,100;    2,136
629,228; 2432,833;    0,373;    4,409
629,806; 2152,623;    2,282;    1,136
630,383; 2254,649;    1,464;   -0,318
630,961; 2244,353;    2,555;   -0,955
631,539; 2180,719;    2,464;    0,227
632,116; 2803,353;   11,373;   15,409
632,694; 2498,304;    2,555;    6,500
633,271; 2303,202;    0,828;    2,682
633,848; 2436,054;    1,828;    2,045
634,426; 2250,291;   -1,081;    1,773
635,003; 2084,875;    1,101;   -0,409
635,580; 2425,657;    1,192;    3,682
636,158; 2282,360;    3,737;    1,227
636,735; 2137,387;    0,555;   -0,500
637,312; 2153,733;   -0,809;   -0,682
637,889; 2166,698;   -4,354;   -0,682
638,466; 2130,149;   -3,990;   -0,409
639,043; 2103,801;    2,101;   -1,136
639,620; 2131,517;   -2,262;   -0,955
640,197; 2280,010;    1,100;    1,682
640,774; 2264,851;   -0,172;    1,136
641,351; 2344,055;    0,737;    1,136
641,928; 2382,168;   -0,627;    1,409
642,505; 2481,736;    0,828;   -0,500
643,082; 2389,758;   -1,718;    1,227
643,658; 2042,599;   -0,718;    1,500
644,235; 2151,712;    1,191;    2,500
644,812; 2327,098;    1,918;    0,773
645,388; 2255,848;   -0,991;    1,409
645,965; 2050,234;   -0,809;    1,682
646,542; 2086,256;   -1,445;   -0,227
647,118; 2509,188;    1,009;   -0,955
647,695; 2342,846;   -0,263;    1,136
648,271; 2163,596;   -0,536;    0,500
648,848; 2276,164;    0,736;    2,227
649,424; 2388,186;    0,827;    1,318
650,000; 2104,936;   -0,354;   -1,045
650,577; 2184,231;   -0,627;   -0,955
651,153; 2302,344;   -1,809;    0,955
651,729; 2324,821;    1,191;    0,864
652,305; 2586,571;    0,645;    2,773
652,881; 3093,593;   -0,082;    1,136
653,458; 4056,252;    1,100;    0,227
654,034; 4645,820;    0,282;    1,591
654,610; 4691,206;    0,554;    0,773
655,186; 5084,773;    0,645;    3,045
655,762; 4777,250;   -0,991;    0,409
656,338; 4737,273;    0,100;    0,136
656,913; 5068,295;   -0,082;    0,409
657,489; 4773,863;    0,827;   -0,318
658,065; 4869,249;   -0,173;   -1,591
658,641; 5127,089;   -0,900;   -0,864
659,217; 4837,657;   -0,991;    0,409
659,792; 4566,680;    0,645;   -0,409
660,368; 4711,884;   -2,173;   -0,682
660,944; 4917,906;   -2,082;    1,227
661,519; 4188,928;   -0,628;    0,409
662,095; 3267,314;   -1,719;    0,591
662,670; 2533,337;    1,281;   -0,136
663,246; 2508,268;    1,009;   -0,409
663,821; 2543,382;    0,281;    1,682
664,396; 2278,768;    0,009;    1,864
664,972; 2331,608;    0,009;   -0,500
665,547; 2496,812;    1,372;    0,136
666,122; 2420,380;   -1,082;    0,318
666,698; 2560,402;   -0,173;    0,318
667,273; 2221,788;   -0,173;    0,136
667,848; 2437,629;    2,372;    1,500
668,423; 2491,924;    2,190;    2,318
668,998; 2444,946;    2,827;   -0,682
669,573; 2498,423;   -3,264;   -1,500
670,148; 2632,628;   -1,446;   -0,682
670,723; 2341,559;   -1,810;    0,318
671,298; 2703,036;    2,372;    1,045
671,873; 2569,331;   -0,082;   -0,136
672,448; 2588,444;    0,645;    0,136
673,023; 2616,012;   -1,992;   -0,227
673,597; 2783,125;    0,827;    2,318
674,172; 2752,057;   -0,355;    0,318
674,747; 2597,988;    0,372;   -1,045
675,321; 2395,920;   -0,628;    3,318
675,896; 2254,033;    0,645;    1,045
676,471; 2508,783;    2,645;    1,591
677,045; 2413,350;   -1,264;    0,682
677,620; 2432,100;    0,190;    1,136
678,194; 2472,122;   -2,628;    1,136
678,769; 2459,508;   -1,083;   -0,318
679,343; 2531,803;   -0,628;    1,773
679,917; 2596,371;   -1,446;    1,955
680,492; 2451,212;    0,826;    3,227
681,066; 2490,598;    3,372;    0,409
681,640; 2481,893;    1,463;   -0,318
682,214; 2634,006;    0,735;    0,500
682,788; 2545,938;   -1,356;   -0,773
683,363; 2572,687;   -1,810;    1,682
683,937; 2428,528;   -1,719;   -0,318
684,511; 2655,187;    0,463;   -0,591
685,085; 2583,391;   -1,356;    0,318
685,659; 2463,504;   -2,538;    0,864
686,232; 2698,981;   -0,356;   -0,318
686,806; 2591,094;   -0,901;    0,409
687,380; 2668,207;   -0,174;    0,591
687,954; 2670,593;   -1,174;    1,136
688,528; 2751,434;   -0,719;    1,955
689,101; 2872,093;   -3,992;    1,045
689,675; 2658,842;   -0,356;   -0,136
690,249; 2694,683;   -0,719;    0,409
690,822; 2757,887;    0,280;    0,318
691,396; 2661,909;   -0,265;    1,227
691,969; 2510,295;    1,280;    0,136
692,543; 2620,591;   -0,447;   -1,955
693,116; 2418,158;   -0,265;   -1,409
693,690; 2468,272;    0,099;    0,500
694,263; 2609,294;   -1,083;    2,955
694,836; 2858,407;    1,371;    3,591
695,410; 2549,248;   -0,265;    1,773
695,983; 2570,452;    0,189;    0,591
696,556; 2470,111;   -0,447;   -1,045
697,129; 2525,133;   -0,356;    1,409
697,703; 2507,155;   -1,629;    1,955
698,276; 2531,632;    1,462;   -0,773
698,849; 2579,109;    1,280;    1,409
699,422; 2435,950;   -1,083;    0,591
699,995; 2347,245;    0,007;    0,136
700,568; 2526,722;   -0,629;    3,045
701,140; 2554,835;   -2,811;    1,682
701,713; 2638,585;   -0,174;    2,409
702,286; 2548,698;   -0,538;    0,864
702,859; 2521,993;   -0,902;   -0,591
703,432; 2458,834;    0,825;    0,682
704,004; 2436,220;    0,462;    0,318
704,577; 2292,787;   -0,629;    0,136
705,150; 2398,083;    0,189;    2,500
705,722; 2482,741;   -0,356;   -3,227
706,295; 2495,218;   -0,175;   -0,591
706,867; 2328,331;   -0,175;    1,955
707,440; 2538,354;   -1,720;   -0,409
708,012; 2609,922;    0,462;    0,591
708,584; 2465,398;    2,462;    0,227
709,157; 2454,694;    1,825;   -0,591
709,729; 2568,716;    2,280;    2,045
710,301; 2717,647;    0,734;    0,045
710,874; 2663,579;   -1,447;   -0,227
711,446; 2290,783;    0,371;    0,864
712,018; 2385,169;    0,098;    0,500
712,590; 2278,919;   -1,993;    1,682
713,162; 2600,032;    0,825;    1,318
713,734; 2489,327;    1,825;   -2,045
714,306; 2443,622;   -1,902;   -0,409
714,878; 2259,372;    0,825;    0,864
715,450; 2404,394;    0,643;    0,864
716,022; 2444,780;    1,552;    1,318
716,593; 2457,893;    0,189;    0,591
717,165; 2505,734;   -3,175;   -1,227
717,737; 2634,029;    0,280;    0,409
718,309; 2476,142;    0,280;   -0,045
718,880; 2393,346;   -0,539;   -1,409
719,452; 2507,460;   -0,175;   -1,591
720,024; 2491,573;    0,734;   -0,591
720,595; 2505,141;   -2,902;    0,955
721,167; 2377,436;    0,370;   -2,045
721,738; 2348,822;   -0,812;   -1,045
722,309; 2417,662;   -0,993;   -1,227
722,881; 2252,594;   -1,357;    0,773
723,452; 2438,253;   -2,630;    2,864
724,023; 2514,002;   -0,721;    2,682
724,595; 2539,025;    0,007;    0,682
725,166; 2326,138;    0,007;   -0,409
725,737; 2486,342;    1,734;    0,227
726,308; 2412,364;   -0,266;    0,318
726,879; 2330,023;   -1,630;    1,227
727,450; 2464,318;    0,552;   -0,045
728,021; 2340,068;    3,097;    0,682
728,592; 2478,454;    0,734;    0,500
729,163; 2624,476;    0,643;   -0,136
729,734; 2628,135;    0,188;   -0,227
730,305; 2498,339;    1,734;    0,136
730,876; 2489,180;    0,188;    2,955
731,447; 2789,657;    2,188;    2,682
732,017; 2668,770;    1,097;    1,864
732,588; 2553,792;    0,734;    1,227
733,159; 2699,724;    0,643;   -1,045
733,729; 2435,382;    0,006;    0,409
734,300; 2462,314;    0,915;    0,864
734,870; 2419,609;    3,461;    0,591
735,441; 2467,995;    0,370;   -0,591
736,011; 2356,108;    0,643;   -1,591
736,582; 2395,858;   -0,812;    0,045
737,152; 2349,426;   -1,721;   -2,045
737,722; 2428,175;   -0,267;   -0,682
738,293; 2270,925;   -1,358;    1,318
738,863; 2422,493;    2,461;    2,318
739,433; 2651,242;    5,279;    0,318
740,003; 2561,901;   -0,994;   -0,682
740,573; 2571,560;    2,097;   -1,591
741,143; 2528,582;   -1,085;    0,318
741,713; 2505,150;    1,188;   -0,500
742,283; 2471,263;    0,915;    1,591
742,853; 2386,740;    1,915;    1,591
743,423; 2219,217;    1,733;    0,045
743,993; 2288,330;   -0,358;    1,500
744,563; 2162,353;    0,097;   -0,864
745,133; 2210,830;   -0,812;   -0,864
745,702; 2320,579;   -0,267;    1,773
746,272; 2333,602;   -0,176;    0,591
746,842; 2329,624;   -1,358;   -0,591
747,411; 2261,010;   -0,267;   -0,318
747,981; 2180,760;    0,097;    0,500
748,551; 2220,418;    2,278;   -1,045
749,120; 2307,713;    0,642;   -0,227
749,690; 2349,009;   -0,631;    2,409
750,259; 2475,213;    1,369;    2,955
750,828; 2480,053;    1,551;   -1,955
751,398; 2361,712;    1,278;   -0,045
751,967; 2657,098;    2,187;    0,409
752,536; 2420,484;   -0,813;   -0,227
753,105; 2585,143;    0,096;    0,227
753,675; 2365,983;    0,096;    1,773
754,244; 2373,642;   -0,904;    3,591
754,813; 2393,119;    0,551;    1,227
755,382; 2297,778;    0,460;    0,955
755,951; 2438,527;    1,551;    3,682
756,520; 2486,277;   -0,085;    1,864
757,089; 2734,481;    0,278;    0,500
757,658; 2468,685;    1,733;    1,227
758,227; 2350,071;    1,096;    0,318
758,795; 2433,730;    1,187;    1,136
759,364; 2593,207;   -0,086;   -0,591
759,933; 2266,320;   -1,176;   -0,045
760,501; 2222,070;    0,733;   -1,318
761,070; 2371,183;   -2,813;   -1,409
761,639; 2601,569;   -1,904;    1,318
762,207; 2422,046;    1,551;   -0,955
762,776; 2499,159;    0,369;    0,864
763,344; 2356,818;   -0,995;    0,591
763,913; 1992,931;   -0,722;    1,409
764,481; 2641,590;    1,005;   -0,136
765,049; 2580,885;   -1,358;    1,409
765,618; 2468,635;   -0,086;    0,318
766,186; 2393,021;    0,278;    0,136
766,754; 2398,770;    0,005;    1,864
767,322; 2100,974;   -1,995;    0,409
767,890; 2066,088;   -0,722;   -1,773
768,459; 2253,383;   -2,177;   -0,318
769,027; 2451,405;    1,641;    3,409
769,595; 2178,700;    3,278;    2,591
770,163; 2235,814;    3,823;    2,955
770,730; 2220,836;    0,732;   -0,136
771,298; 2199,404;    0,187;   -1,409
771,866; 2194,699;   -1,541;    4,955
772,434; 2219,085;   -0,631;   -1,864
773,002; 2472,744;    0,005;    0,682
773,569; 2349,311;    0,914;    1,682
774,137; 2413,243;   -0,268;   -0,045
774,705; 2386,992;    0,278;   -0,136
775,272; 2225,106;    0,641;    0,682
775,840; 2326,128;   -0,177;    2,682
776,407; 2280,150;    0,277;    1,955
776,975; 2053,446;   -0,632;    0,318
777,542; 2213,104;   -1,086;   -0,045
778,110; 2210,672;   -1,268;   -0,045
778,677; 2071,058;   -2,359;   -0,864
779,244; 2112,717;    2,186;    1,045
779,812; 2262,376;    1,823;    0,864
780,379; 2295,852;    0,005;    1,136
780,946; 2205,875;    1,005;   -0,773
781,513; 2221,079;   -1,450;    0,318
782,080; 2065,465;   -0,086;    2,864
782,647; 2187,487;   -0,268;    3,045
783,214; 2099,237;   -0,177;    3,864
783,781; 2214,987;   -0,723;   -0,682
784,348; 2209,736;   -0,632;    1,500
784,915; 2087,304;   -3,177;    0,318
785,482; 2228,690;    1,368;    2,591
786,049; 2304,803;    0,186;   -0,591
786,615; 2243,098;    0,277;   -0,955
787,182; 2156,757;    0,186;   -0,682
787,749; 2114,689;   -2,814;    1,409
788,315; 2103,347;   -1,632;   -0,409
788,882; 2142,552;    1,550;   -1,227
789,448; 2435,392;    1,732;   -0,955
790,015; 2243,414;    1,095;    3,227
790,581; 2361,710;    1,459;    0,227
791,148; 2137,914;    0,641;    1,045
791,714; 2136,572;   -0,541;    3,136
792,280; 2096,686;    0,186;    1,591
792,847; 2016,799;    0,550;    2,500
793,413; 2104,003;   -0,269;   -0,318
793,979; 2160,480;    3,459;   -1,318
794,545; 2506,957;    4,459;    2,682
795,111; 2293,070;    2,186;    1,318
795,678; 2162,729;    0,731;   -1,682
796,244; 2341,751;    3,368;    0,136
796,810; 2307,410;    1,731;    0,773
797,375; 2273,160;    0,549;   -2,136
797,941; 1915,182;   -0,541;    0,591
798,507; 1892,295;   -0,451;   -0,955
799,073; 1900,409;   -0,360;    0,591
799,639; 1978,522;   -2,632;    3,136
800,205; 1929,090;    0,095;    2,682
800,770; 1868,203;    0,640;    1,773
801,336; 1822,953;    1,368;   -0,955
801,901; 2429,975;    4,549;    3,136
802,467; 2185,361;   -0,542;    2,045
803,033; 1847,929;   -0,087;    0,864
803,598; 1862,497;    1,913;   -1,045
804,163; 1922,973;    1,095;   -0,318
804,729; 2017,087;   -0,178;    1,136
805,294; 1937,655;    0,822;    2,227
805,859; 1833,131;    0,731;   -0,409
806,425; 2201,336;    1,186;    2,682
806,990; 2161,722;    2,186;    4,318
807,555; 1983,017;   -1,451;    2,591
808,120; 2121,312;    0,822;   -0,409
808,685; 1864,334;    0,185;   -2,500
809,250; 1719,538;    0,004;   -0,500
809,815; 1801,015;    1,913;    0,682
810,380; 2014,583;   -0,269;    1,591
810,945; 2158,424;   -1,087;    2,045
811,510; 1986,173;    2,094;    1,591
812,075; 1905,014;   -0,633;   -1,409
812,640; 2184,036;    2,003;    1,409
813,204; 1991,513;    0,822;   -0,227
813,769; 2195,717;    2,094;   -0,045
814,334; 2134,285;    0,458;    0,864
814,898; 1907,398;    0,367;    0,591
815,463; 1919,603;    1,276;   -0,773
816,027; 1856,079;   -0,724;   -2,318
816,592; 1884,465;    0,640;   -2,045
817,156; 1894,851;    2,094;    1,136
817,721; 1967,510;    4,276;    2,318
818,285; 1773,805;    2,912;    1,500
818,849; 1902,464;   -1,451;    1,682
819,414; 1797,123;   -0,269;    2,955
819,978; 1717,600;   -1,269;    1,773
820,542; 2123,077;    2,003;    0,500
821,106; 1959,553;   -0,815;    0,682
821,670; 2113,212;   -0,815;    2,591
822,234; 1864,416;   -0,270;    1,409
822,798; 1725,075;    0,003;    0,500
823,362; 2029,370;   -0,633;    4,227
823,926; 1742,574;    0,094;    1,136
824,490; 1947,778;   -0,997;   -0,682
825,054; 1876,255;   -0,088;   -1,136
825,618; 1717,460;   -1,542;   -1,500
826,181; 1735,482;    0,458;   -1,318
826,745; 1805,504;    1,367;   -1,045
827,309; 2081,163;    1,185;    1,318
827,872; 1929,913;    1,367;    0,955
828,436; 1920,117;    1,185;   -0,773
828,999; 1870,594;   -0,997;    1,227
829,563; 1780,889;   -0,179;    1,136
830,126; 1722,911;   -0,179;   -0,591
830,690; 1727,388;   -1,997;    2,864
831,253; 1622,592;   -0,543;    2,227
831,816; 1689,524;   -1,906;    0,500
832,380; 1609,273;    0,185;    0,864
832,943; 1641,023;   -1,361;   -0,500
833,506; 1657,591;    2,639;   -1,227
834,069; 1878,704;    3,912;   -0,955
834,632; 1775,817;    1,730;    1,318
835,195; 1779,203;    1,003;    0,955
835,758; 1655,226;   -0,997;    1,955
836,321; 1588,794;    0,730;   -1,045
836,884; 1617,634;   -0,725;   -0,955
837,447; 1603,838;   -2,816;    1,773
838,010; 1736,497;    0,366;    3,227
838,573; 1831,610;   -1,179;    0,773
839,135; 1746,905;   -1,361;   -0,955
839,698; 1652,291;    1,275;    0,409
840,261; 1579,768;    1,003;   -0,227
840,823; 1546,882;   -0,543;    0,864
841,386; 1546,813;   -0,452;   -2,409
841,948; 1890,744;   -1,361;    1,773
842,511; 1593,585;    0,912;    1,682
843,073; 1867,426;    1,912;    0,227
843,636; 1613,084;   -0,361;   -0,227
844,198; 1821,561;    0,911;    0,591
844,760; 1779,584;    1,093;    1,955
845,322; 1530,424;    0,548;    1,136
845,885; 1691,174;    0,730;    0,591
846,447; 1686,469;   -1,998;    0,227
847,009; 1996,855;    1,911;   -0,682
847,571; 1698,059;    0,820;   -2,045
848,133; 1659,445;   -1,089;   -1,864
848,695; 1515,286;   -0,543;    1,409
849,257; 1559,217;   -1,089;   -1,682
849,819; 1746,785;   -0,998;   -0,409
850,381; 1615,080;   -0,725;   -0,864
850,942; 1681,102;    1,093;   -0,591
851,504; 1706,670;    1,184;    0,227
852,066; 1631,783;    1,275;   -1,591
852,628; 1637,351;   -0,180;    1,955
853,189; 1447,373;    1,638;    2,682
853,751; 1516,941;   -0,907;    1,409
854,312; 1683,964;   -0,453;   -1,682
854,874; 1846,895;   -2,089;   -0,773
855,435; 1656,554;   -0,907;   -1,682
855,997; 1786,758;   -1,816;   -0,136
856,558; 1785,780;    0,366;    1,773
857,119; 1643,166;    0,820;    2,864
857,681; 1492,461;    0,002;    0,318
858,242; 1715,575;    1,911;   -2,136
858,803; 1804,052;    0,456;   -0,773
859,364; 1744,438;    0,184;   -4,773
859,925; 1758,005;   -2,453;   -0,955
860,486; 1662,664;   -0,453;   -0,955
861,047; 1526,141;   -0,544;   -1,227
861,608; 1547,709;   -1,089;   -0,773
862,169; 1498,913;    0,638;   -0,045
862,730; 1541,208;    0,456;    1,409
863,291; 1600,958;   -0,635;   -0,500
863,852; 1593,889;   -0,635;    1,955
864,412; 1526,548;   -0,271;   -0,864
864,973; 1679,389;   -0,089;    0,500
865,534; 1843,320;   -1,726;    0,227
866,094; 1696,888;    1,820;    0,227
866,655; 1767,637;    1,274;    3,318
867,215; 1645,660;    0,274;    0,136
867,776; 1527,409;    0,547;   -0,136
868,336; 1586,159;   -1,453;    0,136
868,897; 1962,272;    2,638;    1,682
869,457; 1731,931;    1,365;    0,318
870,017; 1576,590;    0,547;   -1,227
870,578; 1593,249;   -0,817;    0,773
871,138; 1538,544;   -2,089;   -0,955
871,698; 1419,930;   -0,817;   -1,318
872,258; 1548,407;   -0,453;   -2,864
872,818; 1785,338;    2,729;    0,045
873,378; 1585,088;    0,638;    1,045
873,938; 1515,837;    0,547;    0,500
874,498; 1435,223;    0,274;   -1,955
875,058; 1499,791;    2,183;    1,773
875,618; 1480,086;    1,910;   -2,682
876,177; 1524,836;    1,274;    0,136
876,737; 1281,131;   -0,090;    1,955
877,297; 1743,608;    0,183;    1,955
877,856; 1653,267;   -0,362;    0,318
878,416; 1400,380;    1,183;   -0,136
878,976; 1404,493;   -1,817;    0,409
879,535; 1468,879;    0,092;    3,136
880,095; 1447,629;   -0,544;    0,045
880,654; 1322,469;   -1,090;    1,318
881,213; 1687,582;    2,456;    1,500
881,773; 1488,150;    2,637;    2,682
882,332; 2122,536;    3,365;    5,136
882,891; 1516,650;    3,092;    2,136
883,451; 1524,854;   -1,272;    1,682
884,010; 1407,240;   -2,908;   -0,409
884,569; 1388,535;   -0,999;   -0,045
885,128; 1614,830;    2,819;   -1,864
885,687; 1923,307;    4,455;    0,682
886,246; 2099,875;    1,455;    2,136
886,805; 1770,442;    2,455;    2,045
887,364; 1447,374;   -0,999;   -0,500
887,922; 1372,669;   -1,181;    0,045
888,481; 1500,237;   -1,545;    0,591
889,040; 1673,714;    1,183;    2,136
889,599; 1554,372;    2,455;    1,409
890,157; 1559,849;    1,455;    2,409
890,716; 1453,054;   -0,090;    0,227
891,274; 1549,440;    0,092;   -1,136
891,833; 1657,462;    1,546;    0,864
892,391; 1442,848;   -0,454;    0,500
892,950; 1650,052;    1,819;   -0,773
893,508; 1461,347;    0,455;   -0,409
894,067; 1308,006;    0,637;    0,136
894,625; 1418,665;   -0,636;   -1,500
895,183; 1400,596;   -0,363;   -0,682
895,741; 1725,800;    1,728;   -1,773
896,299; 1474,186;   -0,545;   -2,409
896,858; 1388,118;    0,819;   -1,591
897,416; 1527,322;    2,728;   -1,318
897,974; 1451,162;    1,819;    0,318
898,532; 1958,185;    6,091;    2,682
899,089; 1589,389;    2,091;   -0,682
899,647; 1478,593;   -1,454;    1,318
900,205; 1521,979;    1,182;    1,045
900,763; 1538,729;   -0,454;    0,227
901,321; 1499,660;    2,364;   -1,409
901,878; 1278,864;   -1,000;   -0,773
902,436; 1346,160;   -1,363;    1,318
902,994; 2191,636;    4,728;    3,682
903,551; 1646,386;    0,728;    0,409
904,109; 1540,772;    0,182;   -1,409
904,666; 1464,704;    2,455;    1,045
905,224; 1325,908;    0,182;   -0,409
905,781; 1482,566;    0,727;   -0,318
906,338; 1400,407;   -1,363;    1,045
906,895; 1280,429;    0,637;    2,045
907,453; 1571,179;    1,727;    1,136
908,010; 1424,929;   -0,909;    0,409
908,567; 1346,042;    1,273;    0,591
909,124; 1149,882;    0,364;   -1,500
909,681; 1209,905;   -2,909;    0,682
910,238; 1294,291;    0,636;   -1,318
910,795; 1287,222;   -0,273;   -1,136
911,352; 1276,949;   -2,909;   -2,682
911,909; 1262,677;   -1,364;   -0,864
912,466; 1329,677;   -3,182;    1,500
913,022; 1313,949;   -1,636;    0,500
913,579; 1442,495;   -0,909;    2,045
914,136; 1306,859;    1,636;    0,955
914,692; 1390,495;    0,091;   -1,227
915,249; 1318,040;    1,455;    0,409
915,806; 1401,313;    0,182;    1,955
916,362; 1303,949;    1,909;    1,864
916,918; 1192,859;    2,000;    1,045
917,475; 1410,949;   -1,182;    0,955
918,031; 1213,495;    3,364;   -0,045
918,587; 1294,040;   -0,909;   -0,318
919,144; 1212,677;   -2,273;    0,227
919,700; 1158,859;    1,727;    0,773
920,256; 1116,677;    0,727;    0,045
920,812; 1149,222;   -0,727;   -1,045
921,368; 1113,040;   -1,727;   -1,045
921,924; 1085,495;    0,182;   -0,136
922,480; 1186,859;   -0,545;    1,227
923,036; 1231,313;    1,273;    1,955
923,592; 1118,313;    0,455;    0,318
924,148; 1153,313;    0,455;   -0,955
924,704; 1296,404;   -1,364;   -0,409
925,259; 1138,949;   -0,273;    0,591
925,815; 1081,495;    1,455;    0,500
926,371; 1035,313;    2,909;    1,409
926,926; 1191,222;    2,091;    0,591
927,482; 1156,131;   -1,364;    0,773
928,037; 1071,859;    0,909;    2,045
928,593; 1302,040;    1,636;    1,045
929,148; 1040,131;   -1,818;   -1,500
929,704; 1098,768;   -1,455;   -0,500
930,259;  977,495;    0,091;   -0,136
930,814; 1181,949;   -0,818;    1,955
931,369; 1099,949;    1,091;   -0,773
931,925;  880,859;   -0,091;    0,136
932,480;  992,586;   -2,818;   -2,591
933,035; 1405,859;    0,545;   -0,318
933,590; 1264,949;    0,364;   -1,773
934,145;  827,949;   -1,364;   -0,318
934,700;  742,677;    0,455;   -0,591
935,255;  818,313;   -0,091;    0,045
935,809; 1163,859;    3,182;    0,864
936,364;  745,404;   -0,455;   -0,136
936,919;  760,131;    0,455;   -1,773
937,474;  667,495;    1,455;    0,136
938,028;  697,859;   -1,636;    1,136
938,583; 1111,859;    1,818;    4,682
939,138;  745,495;    2,091;    2,136
939,692;  589,313;    1,636;   -1,136
940,247;  634,131;   -0,727;   -1,045
940,801;  703,131;   -0,636;    0,227
941,355;  601,404;   -0,364;    2,591
941,910;  482,040;   -0,273;   -2,136
942,464;  524,768;   -0,818;   -0,318
943,018;  811,949;    1,000;   -0,227
943,572;  609,404;    2,545;   -0,682
944,126;  658,222;    0,091;   -0,409
944,681;  524,768;    3,091;    0,227
945,235;  466,404;    1,000;   -0,591
945,789;  416,131;    0,364;   -1,864
946,342;  748,859;    0,455;   -0,591
946,896;  481,677;   -2,273;    0,955
947,450;  454,859;    1,545;   -0,227
948,004;  725,040;    1,727;   -0,045
948,558;  517,404;    0,273;   -0,864
949,111;  512,768;   -0,273;   -0,318
949,665;  735,404;    1,636;   -0,682
950,219;  678,131;   -0,091;   -1,045
950,772;  598,131;   -1,909;    1,864
951,326;  589,859;    0,545;   -0,955
951,879;  500,949;    0,727;   -2,318
952,433;  649,768;    0,000;    2,227
952,986;  457,313;    2,909;    0,682
953,539;  411,222;   -0,273;    0,591
954,093;  362,131;    0,545;   -1,318
954,646;  520,404;    0,909;    1,318
955,199;  432,586;    0,000;   -0,500
955,752;  664,677;   -0,455;    1,773
956,305;  488,222;   -0,091;    2,955
956,858;  548,768;    0,818;   -0,318
957,411;  617,586;   -0,545;    2,136
957,964;  503,949;    1,364;    2,136
958,517;  412,131;   -1,545;    3,136
959,070;  374,404;   -0,455;    1,955
959,623;  681,313;    1,091;    1,500
960,176;  620,768;    1,727;    2,045
960,728;  585,949;   -2,727;    0,773
961,281;  522,586;    0,545;    0,500
961,834;  441,313;   -0,909;    0,864
962,386;  440,677;    1,727;    1,045
962,939;  392,313;    0,364;   -0,318
963,491;  454,313;    0,455;    1,136
964,043;  378,495;    1,182;    2,409
964,596;  582,677;   -1,000;    2,227
965,148;  473,040;   -1,000;    1,773
965,700;  380,949;    1,091;   -0,227
966,253;  551,949;   -0,636;    0,318
966,805;  510,768;   -2,273;    0,773
967,357;  427,313;    1,091;   -1,500
967,909;  557,131;    0,455;   -1,227
968,461;  429,495;    0,545;    3,136
969,013;  377,040;   -0,182;   -0,864
969,565;  543,495;   -0,455;   -1,136
970,117;  800,313;   -0,364;    1,045
970,669;  542,859;    0,182;   -0,136
971,220;  324,949;   -0,455;   -1,500
971,772;  421,495;   -0,636;   -0,318
972,324;  531,222;    0,091;   -0,500
972,876;  435,404;    0,818;   -0,045
973,427;  565,677;    1,909;   -1,045
973,979;  634,677;   -0,727;   -2,500
974,530;  409,859;    1,818;    1,318
975,082;  473,768;   -0,545;    1,682
975,633;  415,949;    1,091;    1,682
976,184;  498,495;    0,909;    0,773
976,736;  483,586;    0,091;    0,227
977,287;  499,040;   -0,909;   -0,500
977,838;  453,040;    0,909;   -0,318
978,389;  467,949;   -1,000;   -0,500
978,940;  319,677;    0,545;   -0,409
979,491;  311,768;    0,091;   -0,500
980,042;  419,222;    0,182;    3,045
980,593;  426,859;   -2,545;    0,227
981,144;  535,131;    2,545;   -0,500
981,695;  580,859;    1,455;    1,500
982,246;  521,495;   -0,273;    1,045
982,797;  372,586;   -1,727;    0,682
983,347;  530,949;    0,364;    0,591
983,898;  753,222;    3,091;    0,409
984,449;  701,949;    2,182;    0,773
984,999;  524,586;    1,455;   -1,136
985,550;  485,859;    0,182;   -0,318
986,100;  322,677;   -0,455;   -0,318
986,651;  316,040;   -0,818;    0,045
987,201;  357,859;   -1,000;   -0,591
987,751;  370,768;    0,818;    2,864
988,302;  431,949;    2,636;    1,500
988,852;  471,949;    0,455;   -1,136
989,402;  542,677;    0,091;    0,682
989,952;  561,859;   -2,182;    0,864
990,502;  395,222;   -0,091;    0,682
991,052;  293,677;   -0,727;    0,045
991,602;  345,677;   -2,909;    1,318
992,152;  403,222;    0,455;    0,682
992,702;  437,495;    1,364;   -0,045
993,252;  375,131;   -3,000;   -0,500
993,802;  486,131;   -0,273;    1,318
994,352;  440,040;   -1,545;    1,136
994,901;  336,222;   -0,182;    3,227
995,451;  322,768;   -0,182;    0,318
996,000;  367,677;    1,636;    0,318
996,550;  379,404;    2,273;    0,227
997,100;  414,040;    1,273;   -0,045
997,649;  570,495;    2,182;    0,955
998,198;  372,040;    1,727;   -1,500
998,748;  505,404;    1,091;   -2,318
999,297;  424,949;   -0,818;   -0,409
999,846;  569,949;    1,000;   -0,773
1000,395;  470,495;   -0,818;    0,500
1000,945;  593,586;    1,818;   -0,773
1001,494;  591,768;    2,364;    0,682
1002,043;  567,859;    4,636;    0,864
1002,592;  367,768;   -1,091;    1,955
1003,141;  366,222;   -0,455;   -0,682
1003,690;  540,131;    1,727;    0,500
1004,238;  406,040;    1,455;   -0,045
1004,787;  318,677;    1,364;    1,227
1005,336;  522,040;    0,364;    0,682
1005,885;  460,404;    1,364;   -2,773
1006,433;  448,859;    0,545;    0,955
1006,982;  655,040;    0,455;    1,682
1007,531;  491,131;   -1,818;   -0,227
1008,079;  432,404;   -2,273;    0,500
1008,627;  369,131;   -1,455;    0,409
1009,176;  395,677;    0,000;   -1,955
1009,724;  337,222;    1,091;    0,864
1010,273;  513,404;    1,273;    0,500
1010,821;  380,131;    0,091;    1,409
1011,369;  341,404;   -1,364;    1,318
1011,917;  363,040;   -1,364;   -0,591
1012,465;  451,313;    1,273;   -1,591
1013,013;  431,949;    2,091;   -1,682
1013,561;  543,040;    0,455;   -0,773
1014,109;  653,949;   -1,909;    1,682
1014,657;  514,495;    0,364;    0,591
1015,205;  394,768;    1,636;   -0,955
1015,753;  333,131;   -0,545;   -1,409
1016,301;  422,586;   -2,636;    3,045
1016,848;  506,677;   -1,273;    0,409
1017,396;  506,677;    2,545;    0,045
1017,944;  499,768;    1,182;    1,864
1018,491;  399,404;    0,273;    1,409
1019,039;  735,313;    0,455;    0,591
1019,586;  477,859;   -1,364;    1,682
1020,134;  456,222;    0,455;    1,500
1020,681;  543,768;    0,182;   -1,136
1021,228;  439,222;    2,909;   -2,227
1021,776;  418,313;    1,182;   -1,136
1022,323;  662,040;    0,455;    0,773
1022,870;  562,404;   -1,000;   -0,045
1023,417;  623,222;    2,636;    1,864
1023,964;  429,768;    2,636;    1,227
1024,511;  413,313;    1,000;    0,773
1025,058;  435,313;    3,182;   -0,045
1025,605;  389,859;   -2,273;    3,136
1026,152;  633,859;    1,727;   -0,591
1026,699;  467,949;    1,818;    1,318
1027,245;  451,040;   -0,091;    0,318
1027,792;  378,404;   -1,000;    1,409
1028,339;  611,677;    2,364;   -0,045
1028,885;  462,222;    1,000;   -0,227
1029,432;  409,586;   -0,091;    0,227
1029,978;  532,768;   -1,000;   -1,591
1030,525;  526,040;    1,000;    0,409
1031,071;  381,859;   -1,364;    1,136
1031,618;  689,495;    0,364;    1,682
1032,164;  504,040;   -0,091;    3,045
1032,710;  554,949;    1,636;   -1,500
1033,256;  518,768;   -0,636;   -0,136
1033,803;  362,313;   -0,545;    1,500
1034,349;  218,495;   -1,364;    0,136
1034,895;  266,586;    0,000;   -0,318
1035,441;  352,222;   -0,818;    0,318
1035,987;  407,859;   -2,364;   -0,682
1036,533;  480,222;   -1,455;   -0,955
1037,078;  695,949;    1,455;    1,682
1037,624;  529,949;    2,455;   -0,955
1038,170;  386,949;    0,455;   -0,318
1038,716;  477,949;    1,636;   -0,409
1039,261;  344,131;   -2,273;   -0,773
1039,807;  367,404;   -0,091;    3,409
1040,352;  398,404;   -1,909;   -0,318
1040,898;  390,768;   -1,545;   -0,682
1041,443;  312,131;   -1,455;   -2,591
1041,989;  633,495;    1,091;    1,591
1042,534;  409,495;   -0,364;    2,591
1043,079;  298,768;    2,909;    0,955
1043,625;  417,222;    1,818;    0,500
1044,170;  434,859;   -1,364;    1,045
1044,715;  642,859;    2,455;    0,955
1045,260;  534,040;    2,182;   -0,955
1045,805;  366,131;    1,182;   -0,591
1046,350;  327,677;    1,364;   -0,409
1046,895;  533,222;    2,909;    1,591
1047,440;  522,040;    5,364;    0,409
1047,985;  384,313;    2,818;   -0,955
1048,530;  346,040;    1,545;    1,227
1049,074;  411,768;    0,000;    0,318
1049,619;  346,586;   -1,364;    1,955
1050,164;  335,040;    0,455;    0,227
1050,708;  426,222;   -0,455;    0,045
1051,253;  681,859;    1,273;   -2,227
1051,797;  469,495;    0,818;   -1,318
1052,342;  289,768;   -1,182;    1,045
1052,886;  403,040;    0,364;   -1,409
1053,430;  275,313;   -1,364;    0,136
1053,975;  363,586;   -0,818;   -0,318
1054,519;  385,222;   -0,727;    3,227
1055,063;  455,859;    0,909;    1,318
1055,607;  435,677;   -0,182;    0,227
1056,151;  430,222;    2,909;    1,682
1056,695;  335,404;    2,273;   -1,136
1057,239;  335,313;   -1,727;   -0,682
1057,783;  386,131;    0,818;   -1,500
1058,327;  456,222;    0,000;    1,409
1058,871;  598,949;   -0,545;    1,318
1059,415;  470,586;   -0,818;   -0,045
1059,958;  633,313;    1,455;    2,591
1060,502;  387,222;   -1,000;   -0,773
1061,046;  274,404;    0,364;   -0,955
1061,589;  261,495;   -3,000;   -1,136
1062,133;  234,131;   -1,273;    1,864
1062,676;  276,313;    1,182;    0,864
1063,220;  323,040;    1,091;    0,500
1063,763;  355,768;    0,909;    1,136
1064,306;  380,222;   -0,909;    1,864
1064,849;  370,040;   -0,909;    0,591
1065,393;  346,677;    2,000;   -1,500
1065,936;  351,040;    0,182;   -0,409
1066,479;  262,586;   -1,455;    1,318
1067,022;  294,949;   -0,273;   -0,227
1067,565;  262,495;   -0,091;   -1,318
1068,108;  228,040;    0,727;   -0,591
1068,651;  208,131;   -0,636;    1,409
1069,194;  216,768;   -0,455;   -1,682
1069,736;  244,404;   -1,273;    0,955
1070,279;  214,404;   -1,364;   -0,500
1070,822;  307,404;   -2,000;   -0,318
1071,364;  450,859;   -0,364;    1,318
1071,907;  288,949;   -0,727;    3,227
1072,450;  140,131;    0,000;   -0,045
1072,992;  222,131;   -0,273;    3,136
1073,535;  306,495;    2,091;    2,136
1074,077;  211,404;   -0,727;    2,045
1074,619;  209,131;   -1,364;    0,591
1075,161;  244,586;   -1,091;    1,500
1075,704;  378,586;    1,545;    1,227
1076,246;  227,586;   -0,182;    0,682
1076,788;  159,222;   -0,364;    1,773
1077,330;  166,131;    1,273;    2,136
1077,872;  211,768;    0,909;    0,955
1078,414;  396,404;    2,727;    0,773
1078,956;  238,949;    1,273;   -0,227
1079,498;  384,859;    1,636;    0,318
1080,040;  238,949;    1,909;   -1,318
1080,581;  197,404;    1,636;   -0,318
1081,123;  138,404;    0,091;   -0,773
1081,665;  153,131;   -1,182;   -0,955
1082,206;  351,495;    1,364;   -0,500
1082,748;  266,859;    0,727;    2,045
1083,289;  167,768;   -2,000;    1,318
1083,831;  159,768;   -0,545;    0,227
1084,372;  215,040;    0,000;    0,591
1084,913;  211,222;    1,091;    0,864
1085,455;  150,677;   -1,909;   -2,045
1085,996;  152,404;   -2,273;    0,136
1086,537;  189,859;   -0,091;    0,864
1087,078;  200,131;   -0,909;   -2,136
1087,619;  251,768;   -1,273;    0,227
1088,160;  209,586;    0,000;    1,318
1088,701;  187,949;   -1,091;    0,682
1089,242;  165,949;    1,364;   -2,227
1089,783;  222,313;   -0,273;    1,409
1090,324;  197,313;    0,455;    0,682
1090,865;  140,131;    2,727;   -0,409
1091,405;  111,859;    0,727;    2,227
1091,946;  163,404;    0,182;   -0,955
1092,487;  106,131;    0,818;   -1,409
1093,027;  228,586;   -1,364;   -1,500
1093,568;  154,131;   -0,364;    1,227
1094,108;  192,768;    0,273;    1,773
1094,649;  160,586;   -1,182;    0,136
1095,189;  126,040;   -0,636;   -0,682
1095,729;  122,040;   -0,091;    0,955
1096,269;  110,313;    0,727;   -0,955
1096,810;  273,131;   -1,364;    0,500
1097,350;  205,131;    1,364;   -0,773
1097,890;  156,222;    0,364;    1,227
1098,430;  328,040;    2,364;    2,864
1098,970;  258,586;    2,182;    1,682
1099,510;  144,859;    0,545;   -2,318
1100,050;  122,768;    1,000;   -1,591
1100,589;  132,586;   -0,727;   -0,318
1101,129;  188,677;    0,818;   -0,955
1101,669;  279,949;    1,727;    2,136
1102,209;  191,222;   -0,091;    2,227
1102,748;  157,677;    0,000;    0,955
1103,288;  159,768;    1,273;   -1,227
1103,827;  154,131;    3,091;   -2,227
1104,367;  118,495;   -0,091;   -2,409
1104,906;  114,222;    1,364;   -1,136
1105,445;  161,949;    0,636;   -1,136
1105,985;  135,495;   -0,727;    1,500
1106,524;  150,313;   -1,727;   -0,682
1107,063;  138,586;   -2,727;    1,409
1107,602;  112,404;   -1,909;   -1,500
1108,141;   91,222;   -1,909;    1,500
1108,680;  160,586;   -3,455;   -0,591
1109,219;  126,040;   -0,909;   -0,500
1109,758;  120,677;    0,455;    0,682
1110,297;  112,404;    1,000;   -0,682
1110,836;   89,768;   -0,727;    0,955
1111,375;  128,040;   -2,545;    0,409
1111,913;  162,768;   -1,000;    0,773
1112,452;  135,040;   -0,273;    0,136
1112,991;   88,131;    1,091;    1,955
1113,529;   84,859;   -0,818;   -0,045
1114,068;  115,677;   -0,273;    2,955
1114,606;   81,495;   -0,364;   -0,955
1115,144;  154,040;   -1,273;    1,045
1115,683;  116,495;   -0,727;    0,318
1116,221;  151,586;   -0,455;   -0,864
1116,759;  103,040;    0,636;   -0,864
1117,297;  185,495;    0,000;    1,864
1117,836;  107,495;   -2,182;   -1,227
1118,374;  110,313;    0,182;   -0,682
1118,912;  108,040;    0,909;    2,682
1119,450;   97,404;    1,000;    0,864
1119,988;  102,495;    1,545;    2,136
1120,525;  376,313;    5,091;    3,318
1121,063;  202,677;    1,182;    1,864
1121,601;  107,131;   -0,909;   -1,227
1122,139;   83,768;   -0,727;   -2,045
1122,676;  189,222;   -0,727;    2,773
1123,214;  163,222;   -1,182;    4,409
1123,751;   72,859;    1,727;    2,227
1124,289;  116,859;   -0,091;   -0,409
1124,826;   82,131;    1,727;    0,227
1125,364;   43,404;    1,727;   -0,955
1125,901;  153,586;    1,182;    1,227
1126,438;  164,586;    0,818;    0,955
1126,975;   50,495;   -0,727;   -0,773
1127,513;   73,222;    0,273;    2,136
1128,050;   45,768;    1,636;   -0,682
1128,587;   85,586;    2,000;   -0,227
1129,124;  113,222;    0,091;    1,318
1129,661;   63,313;    0,273;    0,227
1130,198;  137,949;    1,636;    0,773
1130,734;  101,949;    0,182;    1,409
1131,271;   48,040;   -0,909;    0,864
1131,808;  121,040;    2,909;    3,045
1132,345;   73,586;    1,545;    0,318
1132,881;   25,313;   -1,545;   -1,864
1133,418;   81,586;    0,727;   -1,136
1133,954;   56,677;    2,455;   -2,682
1134,491;   90,313;    1,364;   -0,773
1135,027;   50,131;    2,364;    0,864
1135,564;   86,768;    0,273;    2,955
1136,100;   76,677;    0,364;    2,136
1136,636;   38,404;   -1,273;   -1,045
1137,172;   67,949;    0,000;   -1,045
1137,708;   49,313;   -1,364;   -1,045
1138,245;   41,313;    1,273;   -1,227
1138,781;   31,131;    1,091;   -3,318
1139,317;   52,949;    1,273;   -1,409
1139,852;   63,040;    3,091;    0,136
1140,388;   93,677;   -1,182;   -0,409
1140,924;   50,768;   -1,091;   -2,227
1141,460;   28,949;   -1,636;    0,136
1141,996;   15,949;   -1,364;    2,682
1142,531;   29,222;    1,364;    3,318
1143,067;  111,586;    1,182;    1,045
1143,602;  138,949;   -0,091;   -0,318
1144,138;   72,313;   -2,636;    1,045
1144,673;   30,040;   -1,455;    1,409
1145,209;   45,222;   -1,909;   -0,318
1145,744;   18,313;   -0,727;    0,864
1146,279;   68,222;    1,818;   -0,136
1146,815;   40,768;    1,545;   -2,682
1147,350;   57,495;   -1,364;    0,045
1147,885;   26,677;   -0,818;   -1,318
1148,420;   30,768;   -2,273;    0,773
1148,955;   30,586;   -1,727;    1,864
1149,490;   29,949;   -0,909;   -1,591
1150,025;   23,677;    0,455;   -1,773
1150,560;   65,131;    1,091;   -0,955
1151,094;   54,040;    1,455;   -0,591
1151,629;   48,495;    1,636;    0,864
1152,164;   32,859;    1,364;    1,318
1152,698;   20,768;   -0,182;   -0,136
1153,233;    9,131;    0,091;   -0,682
1153,767;   20,768;   -3,000;   -2,318
1154,302;   34,404;   -1,455;    1,773
1154,836;   31,313;   -0,455;   -2,136
1155,371;   47,040;   -1,364;    3,682
1155,905;   31,131;   -0,636;    1,682
1156,439;   30,040;   -0,636;   -0,500
1156,973;   37,677;    0,364;    0,318
1157,507;   21,040;   -0,364;    0,682
1158,042;   26,586;   -0,727;    1,045
1158,576;   40,040;    0,182;    1,773
1159,110;   37,586;   -0,818;    2,409
1159,643;   28,131;    0,636;   -0,045
1160,177;   14,768;   -1,545;    1,500

