
Integration time [ms]:   0,040
Averaging Nr. [scans]: 11
Smoothing Nr. [pixels]: 0
Data measured with spectrometer [name]: 7318044SP
Wave   ;Sample   ;Dark     ;Reference
[nm]   ;[counts] ;[counts] ;[counts] 

186,757;   32,252;   31,551;    1,318
187,357;   35,270;   22,551;    0,955
187,958;   27,474;   15,460;   -1,591
188,558;   37,876;    8,915;   -1,227
189,159;   22,561;    6,733;   -4,500
189,759;   13,462;    7,278;   -3,591
190,360;   10,376;    2,824;   -2,136
190,960;   18,371;    2,915;   -4,136
191,560;   18,404;    3,189;   -6,591
192,161;   97,237;    4,372;   -3,500
192,761;   52,596;    4,010;   -3,227
193,361;   34,390;    1,556;   -3,773
193,962;   48,617;    2,010;   -2,682
194,562;   13,655;    1,189;   -3,955
195,162;   18,439;   -2,448;   -2,227
195,762;   73,442;   -3,176;   -0,045
196,362;   49,243;    1,370;   -2,500
196,963;   15,350;    2,006;   -0,864
197,563;   42,337;    1,551;   -0,955
198,163;   15,374;    0,096;   -0,682
198,763;   24,998;    1,733;   -0,500
199,363;   47,105;    3,096;   -0,500
199,963;   33,848;    0,369;    0,409
200,563;   31,840;    2,823;   -1,409
201,163;   23,577;    3,277;   -0,227
201,763;   42,455;    3,732;    0,318
202,363;   27,509;    1,459;    1,500
202,963;   47,975;    1,459;    1,045
203,563;   85,182;    0,277;    0,500
204,162;   41,571;    2,096;   -1,864
204,762;   33,109;    0,550;    0,591
205,362;   23,275;    3,004;    1,955
205,962;   50,480;    3,096;    1,955
206,562;   43,130;    1,823;    2,318
207,161;   30,902;   -0,087;    0,318
207,761;  101,314;    1,277;    2,409
208,361;   45,310;   -0,268;    1,409
208,960;   66,467;    0,459;    1,500
209,560;   61,946;    1,277;    1,591
210,160;   79,132;    0,550;    1,864
210,759;   61,436;    4,186;    1,227
211,359;   51,038;    1,459;    1,045
211,958;  159,060;    1,277;    2,045
212,558;  172,568;    1,732;    1,864
213,157;  103,012;    1,822;    1,500
213,757;  271,439;    3,822;   -0,227
214,356;  142,979;    1,277;   -0,409
214,956;  268,706;    3,095;    0,409
215,555;  117,561;    2,095;    2,136
216,154;   86,926;   -2,723;   -0,591
216,754;   91,550;    0,277;    0,773
217,353;  119,964;   -0,268;   -1,045
217,952;   51,870;   -0,178;    0,318
218,552;  153,695;    1,368;   -0,773
219,151;   94,225;    0,277;    0,955
219,750;   87,892;    0,004;   -0,227
220,349;   73,087;   -0,451;    1,045
220,948;  176,901;   -1,360;    1,136
221,548;  105,203;    0,913;    1,227
222,147;  144,265;   -0,087;   -0,409
222,746;  276,610;   -0,451;   -0,955
223,345;  176,640;    0,731;    0,500
223,944;  182,339;   -0,451;    0,773
224,543;  208,259;    1,004;   -1,409
225,142;  219,126;    0,094;    0,136
225,741;  203,562;   -0,814;    1,045
226,340;  192,322;   -0,451;   -0,955
226,939;  325,525;   -0,996;   -0,136
227,538;  189,091;   -0,360;   -0,773
228,137;  336,383;   -0,814;    0,864
228,735;  284,286;   -0,541;    1,227
229,334;  162,546;   -0,905;   -0,227
229,933;  367,108;    0,459;    0,591
230,532;  388,034;    1,186;   -0,409
231,131;  469,896;    1,732;    0,318
231,729;  343,896;   -2,450;   -2,318
232,328;  275,057;   -0,723;   -1,500
232,927;  286,857;    1,004;   -0,500
233,525;  270,846;    3,640;    0,045
234,124;  328,214;    2,368;   -1,591
234,723;  233,263;    0,913;   -1,045
235,321;  236,633;    2,277;    0,136
235,920;  300,538;    1,186;   -1,227
236,518;  473,817;    3,459;    0,318
237,117;  292,753;    0,004;   -0,227
237,715;  307,005;    0,640;   -0,500
238,314;  374,689;   -0,087;   -2,318
238,912;  533,418;   -0,723;   -1,409
239,510;  401,666;    0,459;   -1,227
240,109;  536,082;    0,004;    3,773
240,707;  496,384;   -0,996;    1,227
241,305;  332,429;    0,550;    0,136
241,904;  458,429;   -0,178;   -2,045
242,502;  570,902;   -0,632;   -0,227
243,100;  448,084;   -0,087;   -0,955
243,698;  382,791;    0,732;    1,682
244,297;  423,371;   -0,632;    0,682
244,895;  421,711;   -0,269;   -2,318
245,493;  631,953;    2,186;   -0,591
246,091;  626,108;    1,368;   -1,318
246,689;  556,193;    1,004;    0,591
247,287;  508,821;    0,822;   -1,136
247,885;  471,581;   -1,451;    1,227
248,483;  421,358;    1,822;   -0,500
249,081;  518,605;    0,185;    1,591
249,679;  569,855;   -0,178;    1,682
250,277;  424,174;   -1,723;    0,864
250,875;  580,544;   -1,087;   -1,045
251,473;  452,579;   -1,178;    0,500
252,071;  571,085;    1,459;    1,045
252,669;  477,703;   -1,814;    0,318
253,267;  417,731;   -0,087;    0,773
253,864;  475,548;   -0,360;    0,682
254,462;  652,289;    1,640;    1,591
255,060;  406,259;   -0,269;    1,318
255,658;  401,703;    0,822;   -0,136
256,255;  500,087;    0,186;   -2,045
256,853;  549,944;   -0,269;    1,409
257,451;  518,850;    0,822;    1,864
258,048;  989,182;    1,822;    1,864
258,646;  654,647;    1,731;   -1,045
259,243;  769,763;   -0,087;    2,227
259,841;  631,889;   -0,814;    0,318
260,438;  458,130;   -0,087;    0,864
261,036;  606,379;   -1,905;    1,409
261,633;  491,079;   -0,087;    2,227
262,231;  432,777;    2,731;   -0,045
262,828;  441,608;   -0,905;    1,136
263,425;  502,988;    0,913;   -0,591
264,023;  514,895;    0,186;    0,045
264,620;  680,635;   -0,360;   -0,318
265,217;  819,527;   -2,087;    3,136
265,815;  508,229;   -1,905;    2,136
266,412;  651,721;    0,731;    0,136
267,009;  699,753;   -1,451;    0,773
267,606;  793,283;    0,822;   -0,955
268,203;  545,588;   -0,269;   -0,591
268,801;  610,335;    1,731;    0,591
269,398;  502,692;   -0,360;    2,500
269,995;  678,154;    0,277;    1,591
270,592;  590,639;   -0,632;   -0,500
271,189;  493,240;    0,186;    0,409
271,786;  473,451;   -0,632;    1,227
272,383;  759,937;   -1,087;    0,227
272,980;  589,945;    0,277;    0,318
273,577;  538,656;    0,004;    1,227
274,174;  487,774;    0,822;    2,591
274,771;  645,339;   -0,814;   -0,773
275,367; 1068,014;    2,277;    1,409
275,964;  876,637;    0,731;   -0,500
276,561;  632,358;    1,549;   -1,045
277,158;  543,673;    0,095;   -1,773
277,755;  822,787;    2,185;    0,409
278,351;  676,186;   -0,451;   -1,500
278,948;  758,688;   -0,815;    0,045
279,545;  672,979;   -1,360;    2,318
280,141;  913,825;   -1,723;   -2,045
280,738;  831,327;   -0,451;   -0,136
281,334;  604,601;   -1,633;    0,591
281,931;  628,076;   -0,087;   -1,318
282,528;  743,229;    0,822;   -0,500
283,124;  846,653;   -1,087;   -0,500
283,721;  837,142;   -0,451;    1,409
284,317;  657,722;    0,185;    2,500
284,913;  876,152;   -1,360;    0,591
285,510; 1177,607;    0,640;   -0,318
286,106;  963,434;   -2,269;   -0,955
286,703;  686,667;   -0,360;    1,955
287,299;  630,162;   -1,451;   -0,591
287,895;  616,091;    0,822;   -1,045
288,491;  616,329;    0,186;    2,136
289,088;  763,473;   -2,360;    2,409
289,684;  810,066;   -1,723;    1,500
290,280;  985,806;    0,368;    0,682
290,876;  940,990;    1,822;    5,500
291,472;  809,130;    1,276;    2,227
292,068;  829,628;    1,367;    0,227
292,665;  674,889;    2,095;    0,773
293,261;  549,070;    0,276;    2,136
293,857;  777,249;    2,913;    2,136
294,453;  681,102;    3,550;    0,955
295,049;  926,403;   -0,268;    1,955
295,644;  727,483;    0,095;    0,136
296,240;  577,921;   -0,905;   -0,136
296,836;  728,240;   -0,995;    0,318
297,432;  891,949;    1,096;   -0,500
298,028;  946,862;    0,732;    0,773
298,624;  762,440;    1,459;    1,864
299,220;  719,564;    2,368;    0,591
299,815;  709,552;    1,005;   -0,409
300,411;  819,221;    0,914;    1,773
301,007;  962,662;    1,368;    0,227
301,602;  758,705;   -0,541;   -2,318
302,198;  896,691;    0,732;   -0,773
302,794;  719,362;    1,187;   -0,500
303,389;  663,290;   -1,177;    1,045
303,985;  735,761;    0,550;    1,409
304,580;  861,810;    1,459;    1,591
305,176;  748,128;   -3,086;    0,136
305,771;  623,095;   -1,268;   -1,227
306,367; 1065,772;    4,095;    0,136
306,962;  789,614;    0,641;    1,500
307,558;  823,610;   -0,450;    0,136
308,153;  917,498;    1,095;   -1,136
308,748;  673,641;   -0,814;    1,682
309,344; 1105,047;   -0,632;   -1,318
309,939; 1128,539;   -1,905;   -1,318
310,534;  765,748;   -0,086;   -1,682
311,130;  711,469;    0,459;   -2,500
311,725;  654,882;    1,004;   -0,500
312,320;  726,170;    2,459;    0,045
312,915;  865,117;    1,459;   -1,045
313,510; 1100,981;    1,550;   -0,500
314,105;  804,687;    1,096;    1,409
314,700;  605,827;   -3,086;   -1,045
315,295;  707,265;   -0,904;    0,045
315,890;  624,965;    1,277;    0,864
316,485;  762,985;   -0,359;   -0,318
317,080;  662,990;   -3,086;    1,591
317,675; 1023,812;    2,005;   -0,682
318,270; 1236,813;    5,550;    3,318
318,865; 1134,261;    3,278;    3,045
319,460;  924,430;   -0,904;    0,591
320,055;  755,294;   -0,541;   -1,227
320,650;  749,443;   -1,995;   -0,591
321,244;  759,689;   -0,177;   -1,409
321,839;  826,482;   -1,541;   -0,227
322,434;  888,261;   -1,086;   -1,591
323,029;  771,937;    1,732;    1,591
323,623;  721,004;    1,550;    0,773
324,218;  902,802;    2,368;    1,409
324,812;  834,368;    1,096;    1,591
325,407;  846,794;   -0,814;    2,045
326,002;  958,349;    0,277;   -0,409
326,596;  898,081;    0,914;    1,318
327,191;  728,318;    0,823;   -1,045
327,785;  691,172;   -0,813;   -0,227
328,379;  755,048;    1,368;    0,136
328,974;  800,141;    0,914;   -3,955
329,568;  826,013;    0,186;   -2,409
330,163;  906,769;    2,096;    1,045
330,757;  738,911;    2,459;    1,591
331,351;  664,027;    0,459;    0,682
331,945;  654,174;    0,914;    1,409
332,540;  831,397;   -1,723;   -0,591
333,134;  797,467;   -1,086;    0,773
333,728;  784,395;    0,005;    0,318
334,322;  681,038;   -1,177;   -0,864
334,916;  644,442;    0,277;    0,955
335,510;  847,289;   -0,450;   -0,136
336,105;  857,773;   -1,086;    1,591
336,699;  722,870;   -1,086;    0,591
337,293;  743,700;   -1,723;    0,318
337,887;  678,444;   -2,723;    1,955
338,481;  861,302;    0,459;    0,591
339,074;  988,345;   -0,359;    2,682
339,668;  948,312;   -1,632;    1,227
340,262; 1583,111;    1,732;    3,227
340,856; 1132,865;    1,822;   -0,682
341,450;  724,555;    1,004;    1,864
342,044;  810,882;    1,459;    0,136
342,637;  976,082;    0,913;   -2,136
343,231;  993,308;   -2,360;    0,682
343,825;  802,591;   -1,086;   -0,591
344,419;  779,938;   -1,995;    0,500
345,012; 1385,339;    2,459;    4,045
345,606; 1158,391;    4,641;    1,591
346,199;  788,586;   -1,813;   -0,227
346,793;  949,825;    1,914;    2,045
347,386;  718,178;   -0,813;   -1,136
347,980;  573,753;   -0,268;   -0,045
348,573;  722,562;    2,278;    0,409
349,167; 1034,448;    5,278;    4,773
349,760;  929,826;    2,914;    2,682
350,354;  870,447;   -0,813;    1,136
350,947;  934,852;    1,096;    1,682
351,540;  737,751;   -0,358;   -1,409
352,134;  567,465;    1,096;    1,136
352,727;  619,268;   -0,086;    1,136
353,320;  646,043;    0,005;    0,591
353,913;  561,991;   -1,995;    1,864
354,507;  812,204;    0,823;   -1,227
355,100;  669,803;    0,460;    0,864
355,693; 1127,757;    2,005;    2,409
356,286;  853,004;    0,823;    2,773
356,879;  671,293;   -0,722;    1,227
357,472;  650,405;   -0,904;    1,500
358,065;  736,668;   -0,722;    2,500
358,658;  549,833;   -0,540;    2,318
359,251;  501,754;   -1,631;   -0,591
359,844;  730,467;   -1,904;   -1,136
360,437;  833,086;   -2,995;    0,045
361,030;  637,388;    1,369;   -0,682
361,623;  634,224;    2,824;    0,318
362,215;  910,106;   -0,086;    2,045
362,808;  728,961;   -2,358;   -1,682
363,401;  648,718;   -2,449;    0,136
363,994;  912,569;   -0,631;   -1,500
364,586;  653,483;    0,824;   -1,500
365,179;  593,646;   -0,449;   -1,136
365,772;  407,792;   -1,995;    2,045
366,364;  599,710;    1,915;   -3,227
366,957;  699,699;    2,279;   -0,045
367,549;  608,809;    2,188;   -0,864
368,142;  619,563;    1,825;   -1,500
368,734;  572,620;    0,734;   -2,136
369,327;  475,957;    1,643;   -0,500
369,919;  532,570;   -1,538;    0,409
370,512;  573,275;   -1,083;   -0,500
371,104;  886,197;   -0,901;    1,591
371,696;  922,387;    1,191;   -0,955
372,289;  751,359;    0,373;    1,136
372,881;  692,477;   -2,080;    1,318
373,473;  541,358;   -2,170;    1,136
374,066;  670,192;   -0,169;    0,500
374,658;  626,238;    0,378;    1,136
375,250;  548,443;    0,653;   -1,409
375,842;  622,378;    0,473;   -0,045
376,434;  570,905;   -0,435;   -0,409
377,026;  569,353;    0,204;   -2,500
377,618;  621,144;   -0,158;   -0,682
378,210;  536,932;   -0,338;   -1,955
378,802;  501,402;    0,754;   -0,591
379,394; 1009,868;    1,846;    0,682
379,986;  725,260;    1,393;   -0,955
380,578;  610,813;   -0,153;    0,773
381,170;  892,232;   -0,972;    0,045
381,762;  775,483;    0,755;    1,409
382,354;  719,880;   -0,065;   -1,318
382,945;  598,661;   -2,976;    0,318
383,537;  525,473;   -2,705;   -1,955
384,129;  525,928;   -2,160;   -1,136
384,721;  676,187;   -0,252;    0,955
385,312;  580,158;   -0,161;   -0,955
385,904;  717,425;   -2,706;    1,591
386,496;  594,033;   -0,979;    1,045
387,087;  773,020;    1,022;    2,500
387,679;  708,023;   -1,160;    0,045
388,270;  692,517;    2,840;    2,045
388,862;  647,072;    1,295;   -0,318
389,453;  599,556;   -0,887;    1,045
390,045;  626,463;   -0,705;   -2,682
390,636;  505,567;    0,204;   -0,591
391,227;  576,686;   -0,523;   -0,045
391,819;  562,609;    0,204;    0,773
392,410;  876,028;    1,022;    0,045
393,001;  656,014;   -0,979;   -1,591
393,593;  743,109;    1,930;   -0,045
394,184;  796,117;    1,385;   -0,409
394,775;  618,580;    1,839;    2,136
395,366;  543,628;    1,385;    0,773
395,957;  792,224;    0,113;    0,136
396,548;  657,021;   -0,342;    2,682
397,139;  821,138;   -2,433;    0,591
397,730;  704,705;   -1,888;    0,955
398,321;  702,580;   -1,252;    0,955
398,912;  629,177;   -0,615;    0,136
399,503;  636,167;   -3,524;   -1,409
400,094;  685,813;    0,294;    1,682
400,685;  670,103;   -0,433;    0,045
401,276;  584,508;    0,930;   -0,955
401,867;  576,989;   -0,888;    0,773
402,458;  529,585;   -2,251;   -2,318
403,048;  738,033;    1,112;    0,591
403,639;  640,568;    0,840;    0,864
404,230;  814,774;    2,476;    0,318
404,821;  881,622;   -0,615;    0,045
405,411;  739,280;    1,203;   -2,591
406,002;  622,047;   -1,252;   -1,136
406,592;  925,747;    2,294;    0,045
407,183;  736,771;    0,566;   -1,500
407,774;  685,961;    3,475;   -0,136
408,364;  649,176;    0,930;    0,409
408,954;  809,788;    0,384;    1,227
409,545;  810,587;    1,021;    1,045
410,135;  727,760;    1,293;    0,500
410,726;  681,253;    1,838;    0,318
411,316;  929,210;    0,111;    0,773
411,906;  694,621;   -0,253;   -0,409
412,497;  698,758;   -1,070;   -0,045
413,087;  627,684;   -1,980;   -0,227
413,677;  562,346;   -0,707;    3,864
414,267;  542,683;    0,656;    1,409
414,857;  506,720;   -2,980;    4,227
415,448;  524,899;    0,839;    0,500
416,038;  563,568;    0,020;   -0,591
416,628;  629,328;   -0,889;    0,409
417,218;  725,412;    0,565;    3,318
417,808;  913,267;    0,202;   -0,409
418,398;  729,548;    0,020;    2,682
418,988;  578,304;    2,020;    0,591
419,578;  706,472;   -0,707;    1,409
420,168;  656,088;   -1,343;   -0,955
420,757;  866,355;   -1,343;   -1,500
421,347;  717,167;    0,111;   -0,227
421,937;  661,242;    2,292;    1,409
422,527;  833,049;    0,838;   -0,773
423,116; 1012,089;   -0,253;   -0,045
423,706;  643,531;   -1,889;    0,318
424,296;  562,337;    1,384;    0,682
424,885;  794,064;   -0,071;   -3,045
425,475;  749,430;    1,474;   -2,864
426,065;  574,238;   -0,980;   -0,318
426,654;  551,404;   -0,435;   -0,318
427,244;  937,911;    0,020;    1,409
427,833;  907,686;    1,383;   -0,500
428,423;  714,971;   -0,526;    1,136
429,012;  737,046;   -0,344;   -1,136
429,601;  892,135;   -1,344;    0,136
430,191;  739,795;    1,292;    4,318
430,780;  587,617;   -0,344;   -0,409
431,369;  883,050;    0,746;   -0,045
431,959;  752,083;   -1,254;    0,500
432,548;  640,104;   -1,163;   -0,045
433,137;  542,723;   -1,254;   -1,318
433,726;  684,122;    0,292;    0,500
434,315;  683,449;   -0,526;    2,409
434,905;  848,516;   -1,254;    1,409
435,494;  886,303;    0,746;    0,955
436,083;  674,060;   -0,981;   -0,955
436,672;  777,134;    0,110;    0,500
437,261;  708,904;    0,292;   -1,955
437,850; 1088,477;    1,383;    0,682
438,439; 1135,340;    3,291;    1,955
439,027; 1269,207;    3,655;    1,773
439,616; 1197,333;    2,927;    1,227
440,205;  878,214;    0,200;   -2,136
440,794;  775,728;    2,109;   -0,045
441,383;  662,789;   -1,346;   -0,591
441,971;  581,128;   -2,436;    0,591
442,560;  612,460;    0,563;   -1,773
443,149;  473,568;    0,379;   -1,318
443,737;  590,022;   -0,074;   -2,318
444,326;  619,024;    0,018;    0,318
444,915;  705,995;   -1,982;    0,864
445,503;  714,745;   -2,891;   -0,318
446,092; 1068,159;    0,382;    2,136
446,680;  993,797;    0,382;    0,318
447,269;  889,123;   -0,346;   -0,318
447,857;  831,701;    0,018;   -1,773
448,445;  749,837;    0,563;    1,318
449,034;  680,893;   -1,528;   -1,136
449,622;  665,899;   -1,073;    3,500
450,210; 1144,165;    2,017;    2,227
450,799; 1023,390;    0,290;   -0,591
451,387;  906,350;    1,381;   -0,591
451,975;  893,283;    2,654;    0,864
452,563; 1044,533;    3,472;    2,318
453,151;  722,076;   -0,528;   -1,227
453,739;  810,054;   -1,347;    0,136
454,328; 1010,154;    2,381;   -2,136
454,916;  880,891;    2,562;   -0,136
455,504;  883,528;    1,017;    1,227
456,092;  723,995;    0,017;   -1,591
456,679;  632,284;    1,472;    0,682
457,267; 1314,953;    4,017;    1,045
457,855;  796,843;    1,017;    1,409
458,443;  542,810;   -0,165;    1,682
459,031;  903,171;    0,108;    2,409
459,619;  821,453;   -1,801;    2,864
460,206;  626,692;    0,835;    2,045
460,794;  641,053;   -2,983;   -0,227
461,382;  745,604;   -0,529;   -0,864
461,970;  706,419;    1,198;    1,864
462,557;  594,681;   -0,711;   -0,682
463,145;  845,520;   -3,165;   -1,682
463,732; 1195,081;    2,016;   -1,045
464,320;  824,413;   -0,075;   -3,045
464,907; 1064,174;    2,743;   -0,773
465,495;  920,923;    0,743;   -1,227
466,082;  781,942;   -1,984;   -0,045
466,670;  793,513;   -2,529;    1,227
467,257;  627,211;   -1,711;    2,045
467,844;  828,177;   -0,075;    0,045
468,432;  802,295;    0,834;    3,500
469,019;  679,921;    0,925;   -1,773
469,606;  803,456;    0,470;    3,682
470,193;  872,858;   -1,439;    0,227
470,780;  829,132;   -2,075;    0,864
471,368;  691,427;   -1,257;   -0,773
471,955;  863,735;    1,379;   -0,682
472,542;  780,806;    0,652;   -1,136
473,129;  578,224;   -0,166;    0,136
473,716;  589,997;    1,470;    0,591
474,303;  660,828;    0,652;   -0,864
474,890;  677,575;   -1,439;   -0,500
475,477;  845,016;   -1,621;    0,409
476,064;  679,286;    1,106;   -1,591
476,650;  865,399;    0,288;    0,318
477,237;  741,217;   -0,258;    0,955
477,824;  699,529;   -1,076;    0,864
478,411;  528,231;   -1,894;   -0,318
478,997;  535,282;    0,560;   -0,773
479,584;  435,011;    1,196;   -0,409
480,171;  813,210;   -0,440;   -0,773
480,757;  935,288;    2,651;    0,773
481,344;  712,038;    0,469;    0,409
481,931;  518,355;    1,105;    1,045
482,517;  827,235;   -1,258;    0,318
483,104;  988,464;    1,106;    2,864
483,690;  810,846;   -1,804;    0,045
484,276;  760,984;   -0,895;    0,227
484,863; 1166,631;    2,469;    1,136
485,449;  885,640;   -0,077;    0,318
486,035;  786,758;   -1,986;   -0,136
486,622;  996,810;   -0,895;    0,045
487,208;  849,804;    1,378;    1,500
487,794;  692,741;    0,741;    0,318
488,380;  688,700;    0,105;   -1,409
488,967;  713,850;   -1,168;   -0,409
489,553;  731,480;   -1,895;   -1,409
490,139;  895,036;    1,559;    0,773
490,725;  701,976;    0,741;   -0,227
491,311;  771,397;    3,287;    3,045
491,897;  657,689;   -0,986;    1,500
492,483;  646,558;    0,105;    1,227
493,069; 1425,439;    3,923;    0,864
493,655;  916,831;    1,650;    0,682
494,241;  707,889;    1,377;   -0,955
494,826;  774,201;    0,287;   -1,045
495,412;  879,294;    2,559;   -0,682
495,998;  711,791;   -0,805;   -0,318
496,584;  819,986;    0,377;    1,045
497,169;  790,597;    1,014;   -0,682
497,755;  652,635;    0,650;    1,227
498,341;  995,318;    0,559;    0,318
498,926; 1187,778;    1,832;    1,955
499,512;  744,087;    1,286;    2,955
500,097;  722,786;    0,195;   -0,318
500,683;  750,439;   -0,350;    2,136
501,268;  654,817;   -0,169;   -0,955
501,854;  688,071;   -0,169;    1,227
502,439;  629,971;   -0,624;   -1,773
503,024;  756,664;    0,195;    0,500
503,610;  808,374;   -0,078;   -0,682
504,195;  630,172;    0,558;    1,955
504,780;  809,205;    2,922;    1,227
505,366;  979,532;    3,013;    2,864
505,951;  832,396;    0,740;    1,045
506,536;  699,179;   -3,260;   -3,682
507,121;  789,471;    0,285;   -0,318
507,706;  710,489;    2,376;    1,045
508,291;  609,584;    2,649;    1,136
508,876;  606,835;   -0,988;    2,591
509,461;  709,523;   -0,169;   -0,773
510,046;  786,501;    0,194;    0,318
510,631;  759,578;   -0,351;   -0,773
511,216;  635,026;    2,467;   -0,500
511,801;  765,105;   -0,442;    2,591
512,386;  800,625;    0,740;    0,500
512,971;  810,343;   -2,988;    0,955
513,555;  884,678;   -0,897;   -1,500
514,140;  828,542;   -0,442;   -3,136
514,725;  969,283;   -0,715;   -1,136
515,309;  830,337;   -0,533;    0,318
515,894;  670,329;   -0,624;   -2,227
516,479;  716,481;   -0,624;   -0,955
517,063;  721,244;    0,376;    1,227
517,648;  659,723;    1,012;   -1,136
518,232;  621,210;   -0,261;   -1,409
518,817;  734,584;   -0,079;    1,682
519,401;  926,544;    2,194;    0,591
519,985;  820,859;    1,103;    1,136
520,570;  627,881;    0,830;   -1,955
521,154;  805,602;    2,102;    0,591
521,738; 1065,229;   -2,352;    2,409
522,323;  850,201;   -0,170;    1,682
522,907;  807,845;    0,466;   -0,136
523,491;  672,682;    0,557;    0,955
524,075;  608,328;    2,284;    0,591
524,659;  871,771;    1,466;    0,591
525,243;  774,070;    1,739;    0,409
525,827;  698,514;    0,648;   -0,045
526,411;  720,498;   -1,989;   -0,136
526,995;  877,558;   -0,352;    1,409
527,579;  944,695;   -0,443;   -1,045
528,163;  850,160;    0,375;   -1,500
528,747; 1015,038;    2,466;   -0,773
529,331;  921,191;   -0,080;   -1,409
529,915;  693,902;    1,738;    0,955
530,499;  823,991;   -0,807;    1,227
531,082;  999,683;   -0,534;    1,591
531,666; 1076,959;    1,374;    0,773
532,250;  952,958;    1,284;    2,682
532,833; 1093,199;    0,920;    2,773
533,417;  869,940;   -1,807;    0,864
534,001; 1011,151;    1,647;   -0,318
534,584;  922,828;    0,374;    0,500
535,168;  703,816;    0,465;    1,409
535,751; 1152,695;    0,647;    0,045
536,334;  819,114;   -0,898;   -0,409
536,918;  668,188;    0,011;    1,591
537,501;  672,547;   -0,899;    1,318
538,085;  728,682;   -0,444;    1,045
538,668;  805,601;    0,829;    2,409
539,251; 1175,884;    1,829;    3,773
539,834;  843,859;    0,101;    0,773
540,418;  993,216;   -1,990;    4,318
541,001; 1216,619;   -0,990;    1,773
541,584;  912,180;    2,101;    2,227
542,167; 1026,879;    1,374;    2,955
542,750;  838,664;    1,919;   -0,773
543,333;  665,320;    0,555;    2,136
543,916;  963,823;    0,192;    2,500
544,499;  857,519;   -1,354;    0,227
545,082;  960,081;    1,374;    3,591
545,665;  847,034;    1,919;    1,500
546,248;  999,775;    1,010;   -0,318
546,830;  985,924;   -0,445;    1,955
547,413;  962,246;    1,010;   -0,773
547,996;  945,142;    0,555;    0,500
548,579;  846,063;    0,919;    0,955
549,161; 1128,080;    1,828;    2,682
549,744; 1000,001;   -0,809;    0,409
550,326;  848,286;   -0,809;   -1,136
550,909; 1398,916;    2,737;    0,591
551,492; 1000,885;   -0,263;    0,227
552,074; 1134,513;   -0,173;   -1,318
552,657; 1161,062;    2,373;    0,045
553,239;  982,184;   -0,173;   -0,773
553,821;  850,242;   -1,082;    1,045
554,404; 1135,690;    1,282;    1,136
554,986; 1279,765;    0,464;    1,045
555,568; 1103,704;    1,191;   -0,955
556,151; 1340,351;    1,191;   -0,227
556,733;  959,734;   -0,264;   -0,864
557,315;  955,749;    0,100;    0,500
557,897;  796,995;    0,554;   -0,500
558,479;  807,919;   -1,991;    1,318
559,061;  925,377;   -0,719;   -0,864
559,643; 1023,561;   -0,264;    0,045
560,225; 1076,357;    1,645;    2,864
560,807;  903,016;    0,918;    0,318
561,389;  852,051;    0,554;    2,318
561,971;  958,558;    0,463;    2,136
562,553;  893,022;   -1,628;    1,591
563,135;  992,460;   -0,537;    1,136
563,717; 1425,724;    3,372;    1,136
564,298; 1297,333;    3,645;   -0,045
564,880; 1012,142;    0,645;   -1,409
565,462;  828,597;    0,645;    1,318
566,043; 1068,486;   -0,446;    2,318
566,625; 1357,480;    1,918;    1,227
567,207; 1112,955;    1,099;    1,682
567,788; 1010,713;   -1,264;    1,500
568,370; 1064,502;    1,917;   -0,500
568,951; 1004,481;    0,190;    0,227
569,533; 1151,588;   -0,628;   -0,500
570,114; 1226,816;   -0,446;    0,682
570,695; 1260,421;   -0,174;   -1,318
571,277; 1235,950;   -0,265;   -1,682
571,858; 1472,072;    2,008;   -1,136
572,439; 1379,444;    1,554;   -1,045
573,021; 1402,592;    2,099;   -2,773
573,602; 1530,693;   -1,265;    0,318
574,183; 1504,589;   -2,083;    2,227
574,764; 1480,569;   -1,629;    0,409
575,345; 1668,546;    0,917;   -0,136
575,926; 1553,937;   -0,356;    0,136
576,507; 1637,505;    1,099;   -0,227
577,088; 1657,412;    3,099;    1,682
577,669; 1841,073;    0,735;    1,955
578,250; 2060,589;    0,644;   -1,045
578,831; 1850,161;   -1,356;   -2,227
579,412; 1767,992;   -0,810;    0,955
579,993; 1908,827;    1,008;    0,227
580,573; 1878,290;   -0,629;   -0,955
581,154; 1799,354;    0,735;   -0,591
581,735; 1858,701;    0,644;    0,773
582,315; 1902,610;   -0,629;    2,136
582,896; 1883,478;   -0,174;    1,227
583,477; 1726,990;    0,189;    1,227
584,057; 1833,007;    0,553;    0,955
584,638; 1932,372;    2,553;    2,318
585,218; 2167,903;   -0,538;    2,682
585,799; 2019,220;    0,281;   -0,227
586,379; 1861,685;    0,372;    1,591
586,959; 1771,503;    0,735;    0,318
587,540; 1647,409;   -0,629;    2,227
588,120; 1622,584;    1,007;   -0,045
588,700; 1555,535;    2,553;    2,136
589,281; 1775,104;    0,462;   -0,955
589,861; 1647,234;    0,099;   -1,682
590,441; 1538,752;    2,371;   -2,682
591,021; 1514,275;   -0,265;   -2,591
591,601; 1514,735;   -0,537;    0,500
592,181; 1553,076;   -0,719;   -0,773
592,761; 1331,487;    0,007;    1,409
593,341; 1498,585;   -0,901;    0,045
593,921; 1466,137;   -0,265;    1,591
594,501; 1339,232;   -0,538;    1,318
595,081; 1339,218;    0,917;   -0,318
595,661; 1506,193;   -1,447;    0,955
596,240; 1477,555;   -0,537;    0,136
596,820; 1839,076;    0,372;    1,955
597,400; 1522,267;    2,008;    0,773
597,980; 1464,417;    2,008;    1,045
598,559; 1439,067;    2,735;   -0,227
599,139; 1383,740;   -0,174;   -1,227
599,718; 1371,922;   -0,174;   -0,409
600,298; 1410,069;    0,735;    0,682
600,877; 1907,162;    2,917;    1,409
601,457; 1671,411;    2,281;    1,136
602,036; 1516,456;    0,190;    2,045
602,616; 1521,865;    0,644;    1,682
603,195; 1653,586;   -0,355;    3,500
603,774; 1682,803;   -0,901;    2,045
604,354; 1588,632;    0,826;   -0,500
604,933; 1495,171;    0,463;    1,864
605,512; 1668,103;    3,554;    0,591
606,091; 1660,268;   -0,537;    3,773
606,671; 1613,960;    0,281;    0,773
607,250; 1751,791;    1,644;    3,136
607,829; 1704,740;    2,372;    3,227
608,408; 1557,163;    1,190;    2,591
608,987; 1625,972;    1,281;    3,409
609,566; 1448,472;   -1,265;   -2,500
610,145; 1534,358;   -1,082;    0,682
610,723; 1617,475;    4,372;    6,864
611,302; 1479,370;   -0,446;    1,682
611,881; 1734,238;    5,008;   11,227
612,460; 1477,255;    1,645;    3,955
613,039; 1411,588;   -0,082;    2,045
613,617; 1299,403;    1,736;    4,773
614,196; 1328,438;    1,099;    1,227
614,775; 1462,664;    1,009;    2,409
615,353; 1487,412;    0,736;    0,864
615,932; 1427,338;    0,100;    2,409
616,510; 1470,931;    0,554;    0,591
617,089; 2005,809;    7,100;   17,591
617,667; 1575,435;    2,372;    6,136
618,246; 1236,272;   -1,537;    1,318
618,824; 1358,749;   -3,355;   -0,955
619,402; 1357,392;   -2,900;   -1,773
619,981; 1466,220;   -0,173;   -1,045
620,559; 1396,254;    0,009;    1,682
621,137; 1414,016;   -0,718;    1,864
621,715; 1187,770;   -1,173;   -0,682
622,293; 1227,553;   -0,537;   -0,773
622,871; 1365,113;   -0,718;    0,500
623,450; 1243,971;    0,373;   -0,864
624,028; 1439,795;    0,191;   -0,955
624,606; 1398,911;   -1,718;    1,682
625,183; 1209,822;   -1,536;   -1,136
625,761; 1294,453;    1,009;    1,136
626,339; 1696,485;    1,373;    2,591
626,917; 1313,323;   -0,172;   -0,045
627,495; 1298,525;   -0,354;    1,318
628,073; 1360,435;   -0,263;    2,864
628,650; 1352,490;    0,100;    2,136
629,228; 1397,948;    0,373;    4,409
629,806; 1153,502;    2,282;    1,136
630,383; 1224,032;    1,464;   -0,318
630,961; 1215,595;    2,555;   -0,955
631,539; 1230,563;    2,464;    0,227
632,116; 2000,323;   11,373;   15,409
632,694; 1590,408;    2,555;    6,500
633,271; 1411,848;    0,828;    2,682
633,848; 1530,753;    1,828;    2,045
634,426; 1248,966;   -1,081;    1,773
635,003; 1090,015;    1,101;   -0,409
635,580; 1550,990;    1,192;    3,682
636,158; 1375,615;    3,737;    1,227
636,735; 1159,487;    0,555;   -0,500
637,312; 1163,600;   -0,809;   -0,682
637,889; 1174,206;   -4,354;   -0,682
638,466; 1166,680;   -3,990;   -0,409
639,043; 1182,321;    2,101;   -1,136
639,620; 1138,222;   -2,262;   -0,955
640,197; 1290,904;    1,100;    1,682
640,774; 1148,374;   -0,172;    1,136
641,351; 1233,390;    0,737;    1,136
641,928; 1401,678;   -0,627;    1,409
642,505; 1558,057;    0,828;   -0,500
643,082; 1377,709;   -1,718;    1,227
643,658; 1111,542;   -0,718;    1,500
644,235; 1158,376;    1,191;    2,500
644,812; 1381,755;    1,918;    0,773
645,388; 1333,134;   -0,991;    1,409
645,965; 1077,240;   -0,809;    1,682
646,542; 1081,801;   -1,445;   -0,227
647,118; 1557,271;    1,009;   -0,955
647,695; 1323,287;   -0,263;    1,136
648,271; 1084,575;   -0,536;    0,500
648,848; 1285,499;    0,736;    2,227
649,424; 1433,515;    0,827;    1,318
650,000; 1185,167;   -0,354;   -1,045
650,577; 1243,091;   -0,627;   -0,955
651,153; 1301,016;   -1,809;    0,955
651,729; 1238,213;    1,191;    0,864
652,305; 1622,228;    0,645;    2,773
652,881; 1821,698;   -0,082;    1,136
653,458; 2430,805;    1,100;    0,227
654,034; 2842,002;    0,282;    1,591
654,610; 2913,017;    0,554;    0,773
655,186; 3340,760;    0,645;    3,045
655,762; 2985,594;   -0,991;    0,409
656,338; 2962,064;    0,100;    0,136
656,913; 3176,534;   -0,082;    0,409
657,489; 2924,822;    0,827;   -0,318
658,065; 3011,201;   -0,173;   -1,591
658,641; 3155,853;   -0,900;   -0,864
659,217; 2961,413;   -0,991;    0,409
659,792; 2834,974;    0,645;   -0,409
660,368; 2819,717;   -2,173;   -0,682
660,944; 2950,005;   -2,082;    1,227
661,519; 2483,657;   -0,628;    0,409
662,095; 1807,127;   -1,719;    0,591
662,670; 1332,779;    1,281;   -0,136
663,246; 1282,249;    1,009;   -0,409
663,821; 1442,082;    0,281;    1,682
664,396; 1300,643;    0,009;    1,864
664,972; 1226,659;    0,009;   -0,500
665,547; 1348,583;    1,372;    0,136
666,122; 1314,508;   -1,082;    0,318
666,698; 1520,796;   -0,173;    0,318
667,273; 1199,357;   -0,173;    0,136
667,848; 1294,554;    2,372;    1,500
668,423; 1470,115;    2,190;    2,318
668,998; 1330,858;    2,827;   -0,682
669,573; 1317,327;   -3,264;   -1,500
670,148; 1529,161;   -1,446;   -0,682
670,723; 1248,813;   -1,810;    0,318
671,298; 1610,646;    2,372;    1,045
671,873; 1481,935;   -0,082;   -0,136
672,448; 1468,677;    0,645;    0,136
673,023; 1464,875;   -1,992;   -0,227
673,597; 1622,163;    0,827;    2,318
674,172; 1649,178;   -0,355;    0,318
674,747; 1518,012;    0,372;   -1,045
675,321; 1250,209;   -0,628;    3,318
675,896; 1155,588;    0,645;    1,045
676,471; 1408,603;    2,645;    1,591
677,045; 1320,164;   -1,264;    0,682
677,620; 1396,907;    0,190;    1,136
678,194; 1283,650;   -2,628;    1,136
678,769; 1327,756;   -1,083;   -0,318
679,343; 1404,681;   -0,628;    1,773
679,917; 1540,787;   -1,446;    1,955
680,492; 1350,439;    0,826;    3,227
681,066; 1398,363;    3,372;    0,409
681,640; 1338,197;    1,463;   -0,318
682,214; 1384,576;    0,735;    0,500
682,788; 1377,137;   -1,356;   -0,773
683,363; 1509,334;   -1,810;    1,682
683,937; 1352,895;   -1,719;   -0,318
684,511; 1470,910;    0,463;   -0,591
685,085; 1453,380;   -1,356;    0,318
685,659; 1322,396;   -2,538;    0,864
686,232; 1603,138;   -0,356;   -0,318
686,806; 1467,608;   -0,901;    0,409
687,380; 1423,260;   -0,174;    0,591
687,954; 1381,185;   -1,174;    1,136
688,528; 1652,018;   -0,719;    1,955
689,101; 1563,579;   -3,992;    1,045
689,675; 1399,322;   -0,356;   -0,136
690,249; 1624,519;   -0,719;    0,409
690,822; 1632,989;    0,280;    0,318
691,396; 1487,095;   -0,265;    1,227
691,969; 1378,293;    1,280;    0,136
692,543; 1342,126;   -0,447;   -1,955
693,116; 1216,778;   -0,265;   -1,409
693,690; 1322,066;    0,099;    0,500
694,263; 1349,718;   -1,083;    2,955
694,836; 1710,097;    1,371;    3,591
695,410; 1520,385;   -0,265;    1,773
695,983; 1539,310;    0,189;    0,591
696,556; 1352,416;   -0,447;   -1,045
697,129; 1313,159;   -0,356;    1,409
697,703; 1467,811;   -1,629;    1,955
698,276; 1388,826;    1,462;   -0,773
698,849; 1514,387;    1,280;    1,409
699,422; 1279,948;   -1,083;    0,591
699,995; 1169,054;    0,007;    0,136
700,568; 1357,251;   -0,629;    3,045
701,140; 1379,449;   -2,811;    1,682
701,713; 1560,282;   -0,174;    2,409
702,286; 1436,298;   -0,538;    0,864
702,859; 1502,040;   -0,902;   -0,591
703,432; 1526,238;    0,825;    0,682
704,004; 1423,708;    0,462;    0,318
704,577; 1275,450;   -0,629;    0,136
705,150; 1333,557;    0,189;    2,500
705,722; 1432,936;   -0,356;   -3,227
706,295; 1498,224;   -0,175;   -0,591
706,867; 1318,512;   -0,175;    1,955
707,440; 1484,527;   -1,720;   -0,409
708,012; 1575,088;    0,462;    0,591
708,584; 1434,740;    2,462;    0,227
709,157; 1277,210;    1,825;   -0,591
709,729; 1498,771;    2,280;    2,045
710,301; 1453,059;    0,734;    0,045
710,874; 1430,075;   -1,447;   -0,227
711,446; 1189,817;    0,371;    0,864
712,018; 1293,014;    0,098;    0,500
712,590; 1219,121;   -1,993;    1,682
713,162; 1581,682;    0,825;    1,318
713,734; 1362,424;    1,825;   -2,045
714,306; 1289,622;   -1,902;   -0,409
714,878; 1267,273;    0,825;    0,864
715,450; 1282,289;    0,643;    0,864
716,022; 1294,577;    1,552;    1,318
716,593; 1290,411;    0,189;    0,591
717,165; 1345,426;   -3,175;   -1,227
717,737; 1592,078;    0,280;    0,409
718,309; 1359,730;    0,280;   -0,045
718,880; 1273,563;   -0,539;   -1,409
719,452; 1361,942;   -0,175;   -1,591
720,024; 1426,049;    0,734;   -0,591
720,595; 1353,155;   -2,902;    0,955
721,167; 1305,079;    0,370;   -2,045
721,738; 1395,913;   -0,812;   -1,045
722,309; 1512,383;   -0,993;   -1,227
722,881; 1261,671;   -1,357;    0,773
723,452; 1404,687;   -2,630;    2,864
724,023; 1447,157;   -0,721;    2,682
724,595; 1506,263;    0,007;    0,682
725,166; 1306,551;    0,007;   -0,409
725,737; 1545,657;    1,734;    0,227
726,308; 1343,491;   -0,266;    0,318
726,879; 1248,870;   -1,630;    1,227
727,450; 1438,522;    0,552;   -0,045
728,021; 1324,992;    3,097;    0,682
728,592; 1528,916;    0,734;    0,500
729,163; 1660,750;    0,643;   -0,136
729,734; 1654,038;    0,188;   -0,227
730,305; 1462,144;    1,734;    0,136
730,876; 1417,524;    0,188;    2,955
731,447; 1807,903;    2,188;    2,682
732,017; 1673,463;    1,097;    1,864
732,588; 1500,115;    0,734;    1,227
733,159; 1755,585;    0,643;   -1,045
733,729; 1445,692;    0,006;    0,409
734,300; 1582,252;    0,915;    0,864
734,870; 1426,268;    3,461;    0,591
735,441; 1423,920;    0,370;   -0,591
736,011; 1354,481;    0,643;   -1,591
736,582; 1404,223;   -0,812;    0,045
737,152; 1501,057;   -1,721;   -2,045
737,722; 1491,254;   -0,267;   -0,682
738,293; 1328,270;   -1,358;    1,318
738,863; 1520,467;    2,461;    2,318
739,433; 1819,482;    5,279;    0,318
740,003; 1556,407;   -0,994;   -0,682
740,573; 1660,058;    2,097;   -1,591
741,143; 1544,619;   -1,085;    0,318
741,713; 1450,453;    1,188;   -0,500
742,283; 1489,287;    0,915;    1,591
742,853; 1401,393;    1,915;    1,591
743,423; 1223,045;    1,733;    0,045
743,993; 1330,606;   -0,358;    1,500
744,563; 1300,621;    0,097;   -0,864
745,133; 1352,636;   -0,812;   -0,864
745,702; 1307,288;   -0,267;    1,773
746,272; 1490,849;   -0,176;    0,591
746,842; 1503,410;   -1,358;   -0,591
747,411; 1312,880;   -0,267;   -0,318
747,981; 1210,532;    0,097;    0,500
748,551; 1225,911;    2,278;   -1,045
749,120; 1395,563;    0,642;   -0,227
749,690; 1366,942;   -0,631;    2,409
750,259; 1513,684;    1,369;    2,955
750,828; 1563,154;    1,551;   -1,955
751,398; 1342,079;    1,278;   -0,045
751,967; 1828,185;    2,187;    0,409
752,536; 1463,019;   -0,813;   -0,227
753,105; 1592,671;    0,096;    0,227
753,675; 1396,686;    0,096;    1,773
754,244; 1421,883;   -0,904;    3,591
754,813; 1451,626;    0,551;    1,227
755,382; 1379,460;    0,460;    0,955
755,951; 1549,111;    1,551;    3,682
756,520; 1633,127;   -0,085;    1,864
757,089; 1833,506;    0,278;    0,500
757,658; 1508,976;    1,733;    1,227
758,227; 1337,809;    1,096;    0,318
758,795; 1426,734;    1,187;    1,136
759,364; 1491,477;   -0,086;   -0,591
759,933; 1313,765;   -1,176;   -0,045
760,501; 1254,235;    0,733;   -1,318
761,070; 1428,341;   -2,813;   -1,409
761,639; 1525,266;   -1,904;    1,318
762,207; 1528,008;    1,551;   -0,955
762,776; 1587,206;    0,369;    0,864
763,344; 1418,585;   -0,995;    0,591
763,913; 1119,873;   -0,722;    1,409
764,481; 1785,252;    1,005;   -0,136
765,049; 1751,722;   -1,358;    1,409
765,618; 1633,192;   -0,086;    0,318
766,186; 1462,116;    0,278;    0,136
766,754; 1497,495;    0,005;    1,864
767,322; 1293,784;   -1,995;    0,409
767,890; 1241,617;   -0,722;   -1,773
768,459; 1326,542;   -2,177;   -0,318
769,027; 1580,830;    1,641;    3,409
769,595; 1331,300;    3,278;    2,591
770,163; 1385,042;    3,823;    2,955
770,730; 1386,240;    0,732;   -0,136
771,298; 1356,073;    0,187;   -1,409
771,866; 1296,543;   -1,541;    4,955
772,434; 1340,831;   -0,631;   -1,864
773,002; 1600,301;    0,005;    0,682
773,569; 1450,499;    0,914;    1,682
774,137; 1573,787;   -0,268;   -0,045
774,705; 1411,893;    0,278;   -0,136
775,272; 1296,363;    0,641;    0,682
775,840; 1375,379;   -0,177;    2,682
776,407; 1448,576;    0,277;    1,955
776,975; 1256,046;   -0,632;    0,318
777,542; 1271,425;   -1,086;   -0,045
778,110; 1302,531;   -1,268;   -0,045
778,677; 1150,365;   -2,359;   -0,864
779,244; 1228,653;    2,186;    1,045
779,812; 1425,123;    1,823;    0,864
780,379; 1492,684;    0,005;    1,136
780,946; 1332,336;    1,005;   -0,773
781,513; 1290,624;   -1,450;    0,318
782,080; 1201,276;   -0,086;    2,864
782,647; 1266,200;   -0,268;    3,045
783,214; 1218,579;   -0,177;    3,864
783,781; 1441,140;   -0,723;   -0,682
784,348; 1377,792;   -0,632;    1,500
784,915; 1168,444;   -3,177;    0,318
785,482; 1388,368;    1,368;    2,591
786,049; 1384,020;    0,186;   -0,591
786,615; 1262,944;    0,277;   -0,955
787,182; 1178,778;    0,186;   -0,682
787,749; 1167,975;   -2,814;    1,409
788,315; 1341,718;   -1,632;   -0,409
788,882; 1258,370;    1,550;   -1,227
789,448; 1585,021;    1,732;   -0,955
790,015; 1331,946;    1,095;    3,227
790,581; 1517,143;    1,459;    0,227
791,148; 1299,522;    0,641;    1,045
791,714; 1202,901;   -0,541;    3,136
792,280; 1203,099;    0,186;    1,591
792,847; 1133,023;    0,550;    2,500
793,413; 1222,039;   -0,269;   -0,318
793,979; 1402,327;    3,459;   -1,318
794,545; 1754,706;    4,459;    2,682
795,111; 1590,812;    2,186;    1,318
795,678; 1413,646;    0,731;   -1,682
796,244; 1606,752;    3,368;    0,136
796,810; 1488,404;    1,731;    0,773
797,375; 1484,237;    0,549;   -2,136
797,941; 1077,071;   -0,541;    0,591
798,507; 1070,905;   -0,451;   -0,955
799,073; 1108,556;   -0,360;    0,591
799,639; 1143,754;   -2,632;    3,136
800,205; 1082,224;    0,095;    2,682
800,770; 1076,512;    0,640;    1,773
801,336; 1056,618;    1,368;   -0,955
801,901; 1759,997;    4,549;    3,136
802,467; 1394,467;   -0,542;    2,045
803,033; 1088,119;   -0,087;    0,864
803,598; 1100,862;    1,913;   -1,045
804,163; 1137,877;    1,095;   -0,318
804,729; 1260,893;   -0,178;    1,136
805,294; 1142,544;    0,822;    2,227
805,859; 1047,105;    0,731;   -0,409
806,425; 1481,212;    1,186;    2,682
806,990; 1473,318;    2,186;    4,318
807,555; 1208,515;   -1,451;    2,591
808,120; 1387,621;    0,822;   -0,409
808,685; 1107,819;    0,185;   -2,500
809,250;  976,107;    0,004;   -0,500
809,815; 1004,850;    1,913;    0,682
810,380; 1195,229;   -0,269;    1,591
810,945; 1373,608;   -1,087;    2,045
811,510; 1188,623;    2,094;    1,591
812,075; 1211,911;   -0,633;   -1,409
812,640; 1509,927;    2,003;    1,409
813,204; 1231,760;    0,822;   -0,227
813,769; 1425,594;    2,094;   -0,045
814,334; 1395,882;    0,458;    0,864
814,898; 1091,897;    0,367;    0,591
815,463; 1184,004;    1,276;   -0,773
816,027; 1105,656;   -0,724;   -2,318
816,592; 1059,307;    0,640;   -2,045
817,156; 1211,686;    2,094;    1,136
817,721; 1317,884;    4,276;    2,318
818,285; 1025,263;    2,912;    1,500
818,849; 1117,460;   -1,451;    1,682
819,414; 1021,112;   -0,269;    2,955
819,978;  960,764;   -1,269;    1,773
820,542; 1362,506;    2,003;    0,500
821,106; 1154,794;   -0,815;    0,682
821,670; 1382,083;   -0,815;    2,591
822,234; 1125,825;   -0,270;    1,409
822,798;  975,932;    0,003;    0,500
823,362; 1299,583;   -0,633;    4,227
823,926; 1066,781;    0,094;    1,136
824,490; 1296,978;   -0,997;   -0,682
825,054; 1172,812;   -0,088;   -1,136
825,618; 1016,100;   -1,542;   -1,500
826,181; 1071,570;    0,458;   -1,318
826,745; 1195,494;    1,367;   -1,045
827,309; 1458,146;    1,185;    1,318
827,872; 1308,343;    1,367;    0,955
828,436; 1201,359;    1,185;   -0,773
828,999; 1101,647;   -0,997;    1,227
829,563; 1057,299;   -0,179;    1,136
830,126; 1026,587;   -0,179;   -0,591
830,690; 1102,966;   -1,997;    2,864
831,253; 1010,618;   -0,543;    2,227
831,816; 1075,633;   -1,906;    0,500
832,380; 1003,194;    0,185;    0,864
832,943;  988,755;   -1,361;   -0,500
833,506; 1023,407;    2,639;   -1,227
834,069; 1214,331;    3,912;   -0,955
834,632; 1057,619;    1,730;    1,318
835,195; 1092,907;    1,003;    0,955
835,758; 1014,559;   -0,997;    1,955
836,321;  983,575;    0,730;   -1,045
836,884;  971,863;   -0,725;   -0,955
837,447;  920,060;   -2,816;    1,773
838,010; 1116,348;    0,366;    3,227
838,573; 1158,273;   -1,179;    0,773
839,135; 1022,379;   -1,361;   -0,955
839,698; 1045,940;    1,275;    0,409
840,261;  973,955;    1,003;   -0,227
840,823;  924,880;   -0,543;    0,864
841,386;  904,168;   -0,452;   -2,409
841,948; 1283,638;   -1,361;    1,773
842,511; 1007,653;    0,912;    1,682
843,073; 1288,396;    1,912;    0,227
843,636;  984,957;   -0,361;   -0,227
844,198; 1243,700;    0,911;    0,591
844,760; 1190,897;    1,093;    1,955
845,322;  938,367;    0,548;    1,136
845,885; 1101,382;    0,730;    0,591
846,447; 1037,398;   -1,998;    0,227
847,009; 1418,231;    1,911;   -0,682
847,571; 1083,338;    0,820;   -2,045
848,133; 1022,626;   -1,089;   -1,864
848,695;  862,096;   -0,543;    1,409
849,257;  973,929;   -1,089;   -1,682
849,819; 1154,218;   -0,998;   -0,409
850,381;  989,233;   -0,725;   -0,864
850,942; 1079,976;    1,093;   -0,591
851,504; 1143,900;    1,184;    0,227
852,066; 1014,279;    1,275;   -1,591
852,628; 1033,386;   -0,180;    1,955
853,189;  879,219;    1,638;    2,682
853,751;  903,326;   -0,907;    1,409
854,312; 1120,977;   -0,453;   -1,682
854,874; 1282,356;   -2,089;   -0,773
855,435; 1054,372;   -0,907;   -1,682
855,997; 1143,296;   -1,816;   -0,136
856,558; 1236,857;    0,366;    1,773
857,119; 1099,782;    0,820;    2,864
857,681;  919,343;    0,002;    0,318
858,242; 1194,176;    1,911;   -2,136
858,803; 1213,192;    0,456;   -0,773
859,364; 1079,207;    0,184;   -4,773
859,925; 1158,586;   -2,453;   -0,955
860,486; 1022,783;   -0,453;   -0,955
861,047;  917,981;   -0,544;   -1,227
861,608;  972,632;   -1,089;   -0,773
862,169;  857,011;    0,638;   -0,045
862,730;  967,481;    0,456;    1,409
863,291; 1021,406;   -0,635;   -0,500
863,852;  993,240;   -0,635;    1,955
864,412;  969,437;   -0,271;   -0,864
864,973; 1214,452;   -0,089;    0,500
865,534; 1383,377;   -1,726;    0,227
866,094; 1140,938;    1,820;    0,227
866,655; 1275,589;    1,274;    3,318
867,215; 1076,605;    0,274;    0,136
867,776;  927,257;    0,547;   -0,136
868,336; 1012,363;   -1,453;    0,136
868,897; 1454,106;    2,638;    1,682
869,457; 1209,394;    1,365;    0,318
870,017;  985,682;    0,547;   -1,227
870,578;  973,243;   -0,817;    0,773
871,138; 1036,167;   -2,089;   -0,955
871,698;  918,819;   -0,817;   -1,318
872,258; 1061,744;   -0,453;   -2,864
872,818; 1283,032;    2,729;    0,045
873,378; 1045,775;    0,638;    1,045
873,938;  996,699;    0,547;    0,500
874,498;  898,442;    0,274;   -1,955
875,058;  998,184;    2,183;    1,773
875,618;  994,018;    1,910;   -2,682
876,177; 1046,215;    1,274;    0,136
876,737;  826,594;   -0,090;    1,955
877,297; 1288,883;    0,183;    1,955
877,856; 1203,534;   -0,362;    0,318
878,416;  918,732;    1,183;   -0,136
878,976;  888,565;   -1,817;    0,409
879,535;  945,853;    0,092;    3,136
880,095;  925,414;   -0,544;    0,045
880,654;  834,248;   -1,090;    1,318
881,213; 1214,172;    2,456;    1,500
881,773; 1015,097;    2,637;    2,682
882,332; 1625,203;    3,365;    5,136
882,891;  995,946;    3,092;    2,136
883,451;  997,870;   -1,272;    1,682
884,010;  931,886;   -2,908;   -0,409
884,569;  877,083;   -0,999;   -0,045
885,128; 1120,280;    2,819;   -1,864
885,687; 1426,205;    4,455;    0,682
886,246; 1612,857;    1,455;    2,136
886,805; 1324,417;    2,455;    2,045
887,364;  937,887;   -0,999;   -0,500
887,922;  847,448;   -1,181;    0,045
888,481; 1055,282;   -1,545;    0,591
889,040; 1189,843;    1,183;    2,136
889,599; 1036,676;    2,455;    1,409
890,157; 1039,692;    1,455;    2,409
890,716;  972,707;   -0,090;    0,227
891,274; 1095,905;    0,092;   -1,136
891,833; 1171,738;    1,546;    0,864
892,391; 1015,572;   -0,454;    0,500
892,950; 1178,405;    1,819;   -0,773
893,508;  949,875;    0,455;   -0,409
894,067;  823,618;    0,637;    0,136
894,625;  941,543;   -0,636;   -1,500
895,183;  898,285;   -0,363;   -0,682
895,741; 1243,210;    1,728;   -1,773
896,299;  994,225;   -0,545;   -2,409
896,858;  908,695;    0,819;   -1,591
897,416; 1059,892;    2,728;   -1,318
897,974;  974,635;    1,819;    0,318
898,532; 1497,105;    6,091;    2,682
899,089; 1142,211;    2,091;   -0,682
899,647; 1021,318;   -1,454;    1,318
900,205; 1052,970;    1,182;    1,045
900,763; 1045,530;   -0,454;    0,227
901,321;  983,637;    2,364;   -1,409
901,878;  785,743;   -1,000;   -0,773
902,436;  877,031;   -1,363;    1,318
902,994; 1714,774;    4,728;    3,682
903,551; 1199,880;    0,728;    0,409
904,109; 1054,532;    0,182;   -1,409
904,666;  986,638;    2,455;    1,045
905,224;  849,654;    0,182;   -0,409
905,781; 1039,578;    0,727;   -0,318
906,338;  957,503;   -1,363;    1,045
906,895;  826,155;    0,637;    2,045
907,453; 1153,625;    1,727;    1,136
908,010;  977,731;   -0,909;    0,409
908,567;  930,110;    1,273;    0,591
909,124;  741,944;    0,364;   -1,500
909,681;  824,141;   -2,909;    0,682
910,238;  880,156;    0,636;   -1,318
910,795;  809,626;   -0,273;   -1,136
911,352;  827,626;   -2,909;   -2,682
911,909;  853,354;   -1,364;   -0,864
912,466;  882,535;   -3,182;    1,500
913,022;  954,899;   -1,636;    0,500
913,579; 1056,081;   -0,909;    2,045
914,136;  915,535;    1,636;    0,955
914,692;  957,081;    0,091;   -1,227
915,249;  935,899;    1,455;    0,409
915,806; 1025,444;    0,182;    1,955
916,362;  903,354;    1,909;    1,864
916,918;  841,354;    2,000;    1,045
917,475; 1054,263;   -1,182;    0,955
918,031;  854,808;    3,364;   -0,045
918,587;  924,808;   -0,909;   -0,318
919,144;  828,263;   -2,273;    0,227
919,700;  769,808;    1,727;    0,773
920,256;  752,990;    0,727;    0,045
920,812;  814,899;   -0,727;   -1,045
921,368;  771,990;   -1,727;   -1,045
921,924;  777,717;    0,182;   -0,136
922,480;  895,626;   -0,545;    1,227
923,036;  916,263;    1,273;    1,955
923,592;  796,081;    0,455;    0,318
924,148;  834,717;    0,455;   -0,955
924,704;  993,717;   -1,364;   -0,409
925,259;  807,444;   -0,273;    0,591
925,815;  780,263;    1,455;    0,500
926,371;  743,444;    2,909;    1,409
926,926;  928,081;    2,091;    0,591
927,482;  898,535;   -1,364;    0,773
928,037;  807,354;    0,909;    2,045
928,593; 1029,535;    1,636;    1,045
929,148;  772,172;   -1,818;   -1,500
929,704;  852,808;   -1,455;   -0,500
930,259;  740,444;    0,091;   -0,136
930,814;  972,354;   -0,818;    1,955
931,369;  891,263;    1,091;   -0,773
931,925;  676,626;   -0,091;    0,136
932,480;  794,444;   -2,818;   -2,591
933,035; 1193,808;    0,545;   -0,318
933,590; 1088,263;    0,364;   -1,773
934,145;  658,354;   -1,364;   -0,318
934,700;  561,535;    0,455;   -0,591
935,255;  647,808;   -0,091;    0,045
935,809; 1006,172;    3,182;    0,864
936,364;  620,535;   -0,455;   -0,136
936,919;  628,899;    0,455;   -1,773
937,474;  532,899;    1,455;    0,136
938,028;  577,808;   -1,636;    1,136
938,583;  995,990;    1,818;    4,682
939,138;  629,444;    2,091;    2,136
939,692;  487,717;    1,636;   -1,136
940,247;  549,535;   -0,727;   -1,045
940,801;  608,354;   -0,636;    0,227
941,355;  513,444;   -0,364;    2,591
941,910;  406,263;   -0,273;   -2,136
942,464;  449,444;   -0,818;   -0,318
943,018;  738,717;    1,000;   -0,227
943,572;  553,172;    2,545;   -0,682
944,126;  613,444;    0,091;   -0,409
944,681;  491,717;    3,091;    0,227
945,235;  428,990;    1,000;   -0,591
945,789;  390,444;    0,364;   -1,864
946,342;  729,808;    0,455;   -0,591
946,896;  458,899;   -2,273;    0,955
947,450;  434,808;    1,545;   -0,227
948,004;  707,444;    1,727;   -0,045
948,558;  506,172;    0,273;   -0,864
949,111;  508,081;   -0,273;   -0,318
949,665;  744,172;    1,636;   -0,682
950,219;  693,263;   -0,091;   -1,045
950,772;  613,263;   -1,909;    1,864
951,326;  611,263;    0,545;   -0,955
951,879;  534,081;    0,727;   -2,318
952,433;  696,808;    0,000;    2,227
952,986;  504,899;    2,909;    0,682
953,539;  458,808;   -0,273;    0,591
954,093;  409,990;    0,545;   -1,318
954,646;  588,172;    0,909;    1,318
955,199;  509,899;    0,000;   -0,500
955,752;  733,172;   -0,455;    1,773
956,305;  575,990;   -0,091;    2,955
956,858;  646,081;    0,818;   -0,318
957,411;  718,081;   -0,545;    2,136
957,964;  598,808;    1,364;    2,136
958,517;  515,172;   -1,545;    3,136
959,070;  473,899;   -0,455;    1,955
959,623;  816,354;    1,091;    1,500
960,176;  744,172;    1,727;    2,045
960,728;  718,899;   -2,727;    0,773
961,281;  666,717;    0,545;    0,500
961,834;  569,808;   -0,909;    0,864
962,386;  578,626;    1,727;    1,045
962,939;  528,899;    0,364;   -0,318
963,491;  591,263;    0,455;    1,136
964,043;  515,535;    1,182;    2,409
964,596;  738,899;   -1,000;    2,227
965,148;  618,535;   -1,000;    1,773
965,700;  516,535;    1,091;   -0,227
966,253;  715,899;   -0,636;    0,318
966,805;  675,626;   -2,273;    0,773
967,357;  587,899;    1,091;   -1,500
967,909;  722,081;    0,455;   -1,227
968,461;  586,717;    0,545;    3,136
969,013;  525,626;   -0,182;   -0,864
969,565;  710,444;   -0,455;   -1,136
970,117; 1012,444;   -0,364;    1,045
970,669;  719,081;    0,182;   -0,136
971,220;  463,808;   -0,455;   -1,500
971,772;  571,899;   -0,636;   -0,318
972,324;  700,717;    0,091;   -0,500
972,876;  597,444;    0,818;   -0,045
973,427;  752,899;    1,909;   -1,045
973,979;  816,263;   -0,727;   -2,500
974,530;  572,081;    1,818;    1,318
975,082;  643,808;   -0,545;    1,682
975,633;  584,899;    1,091;    1,682
976,184;  685,535;    0,909;    0,773
976,736;  663,717;    0,091;    0,227
977,287;  668,172;   -0,909;   -0,500
977,838;  630,354;    0,909;   -0,318
978,389;  643,990;   -1,000;   -0,500
978,940;  470,899;    0,545;   -0,409
979,491;  467,263;    0,091;   -0,500
980,042;  589,717;    0,182;    3,045
980,593;  583,990;   -2,545;    0,227
981,144;  707,535;    2,545;   -0,500
981,695;  780,535;    1,455;    1,500
982,246;  698,354;   -0,273;    1,045
982,797;  539,172;   -1,727;    0,682
983,347;  716,990;    0,364;    0,591
983,898;  954,626;    3,091;    0,409
984,449;  890,444;    2,182;    0,773
984,999;  693,172;    1,455;   -1,136
985,550;  640,717;    0,182;   -0,318
986,100;  465,990;   -0,455;   -0,318
986,651;  455,899;   -0,818;    0,045
987,201;  511,899;   -1,000;   -0,591
987,751;  527,717;    0,818;    2,864
988,302;  581,081;    2,636;    1,500
988,852;  623,354;    0,455;   -1,136
989,402;  710,354;    0,091;    0,682
989,952;  735,808;   -2,182;    0,864
990,502;  555,626;   -0,091;    0,682
991,052;  438,535;   -0,727;    0,045
991,602;  477,172;   -2,909;    1,318
992,152;  547,808;    0,455;    0,682
992,702;  580,899;    1,364;   -0,045
993,252;  508,808;   -3,000;   -0,500
993,802;  627,717;   -0,273;    1,318
994,352;  587,808;   -1,545;    1,136
994,901;  474,626;   -0,182;    3,227
995,451;  457,990;   -0,182;    0,318
996,000;  504,354;    1,636;    0,318
996,550;  498,626;    2,273;    0,227
997,100;  544,717;    1,273;   -0,045
997,649;  714,354;    2,182;    0,955
998,198;  489,354;    1,727;   -1,500
998,748;  633,717;    1,091;   -2,318
999,297;  536,172;   -0,818;   -0,409
999,846;  693,990;    1,000;   -0,773
1000,395;  598,172;   -0,818;    0,500
1000,945;  726,808;    1,818;   -0,773
1001,494;  720,990;    2,364;    0,682
1002,043;  686,990;    4,636;    0,864
1002,592;  473,808;   -1,091;    1,955
1003,141;  478,899;   -0,455;   -0,682
1003,690;  646,172;    1,727;    0,500
1004,238;  506,626;    1,455;   -0,045
1004,787;  393,626;    1,364;    1,227
1005,336;  617,172;    0,364;    0,682
1005,885;  559,808;    1,364;   -2,773
1006,433;  542,990;    0,545;    0,955
1006,982;  769,808;    0,455;    1,682
1007,531;  583,444;   -1,818;   -0,227
1008,079;  514,354;   -2,273;    0,500
1008,627;  445,535;   -1,455;    0,409
1009,176;  464,808;    0,000;   -1,955
1009,724;  411,899;    1,091;    0,864
1010,273;  598,263;    1,273;    0,500
1010,821;  452,626;    0,091;    1,409
1011,369;  400,263;   -1,364;    1,318
1011,917;  423,808;   -1,364;   -0,591
1012,465;  520,444;    1,273;   -1,591
1013,013;  499,172;    2,091;   -1,682
1013,561;  620,172;    0,455;   -0,773
1014,109;  722,263;   -1,909;    1,682
1014,657;  577,263;    0,364;    0,591
1015,205;  444,354;    1,636;   -0,955
1015,753;  385,081;   -0,545;   -1,409
1016,301;  479,717;   -2,636;    3,045
1016,848;  557,808;   -1,273;    0,409
1017,396;  559,444;    2,545;    0,045
1017,944;  553,808;    1,182;    1,864
1018,491;  438,899;    0,273;    1,409
1019,039;  794,899;    0,455;    0,591
1019,586;  520,444;   -1,364;    1,682
1020,134;  492,990;    0,455;    1,500
1020,681;  579,263;    0,182;   -1,136
1021,228;  474,626;    2,909;   -2,227
1021,776;  446,172;    1,182;   -1,136
1022,323;  687,081;    0,455;    0,773
1022,870;  593,354;   -1,000;   -0,045
1023,417;  650,899;    2,636;    1,864
1023,964;  454,081;    2,636;    1,227
1024,511;  429,354;    1,000;    0,773
1025,058;  452,535;    3,182;   -0,045
1025,605;  406,990;   -2,273;    3,136
1026,152;  638,172;    1,727;   -0,591
1026,699;  482,717;    1,818;    1,318
1027,245;  455,263;   -0,091;    0,318
1027,792;  386,626;   -1,000;    1,409
1028,339;  614,990;    2,364;   -0,045
1028,885;  466,808;    1,000;   -0,227
1029,432;  416,626;   -0,091;    0,227
1029,978;  540,354;   -1,000;   -1,591
1030,525;  520,444;    1,000;    0,409
1031,071;  382,263;   -1,364;    1,136
1031,618;  687,172;    0,364;    1,682
1032,164;  498,899;   -0,091;    3,045
1032,710;  547,081;    1,636;   -1,500
1033,256;  502,444;   -0,636;   -0,136
1033,803;  355,354;   -0,545;    1,500
1034,349;  212,626;   -1,364;    0,136
1034,895;  257,535;    0,000;   -0,318
1035,441;  339,808;   -0,818;    0,318
1035,987;  384,990;   -2,364;   -0,682
1036,533;  463,444;   -1,455;   -0,955
1037,078;  669,626;    1,455;    1,682
1037,624;  510,354;    2,455;   -0,955
1038,170;  365,626;    0,455;   -0,318
1038,716;  455,899;    1,636;   -0,409
1039,261;  322,535;   -2,273;   -0,773
1039,807;  340,717;   -0,091;    3,409
1040,352;  370,990;   -1,909;   -0,318
1040,898;  367,717;   -1,545;   -0,682
1041,443;  289,717;   -1,455;   -2,591
1041,989;  596,717;    1,091;    1,591
1042,534;  385,535;   -0,364;    2,591
1043,079;  273,717;    2,909;    0,955
1043,625;  384,263;    1,818;    0,500
1044,170;  404,990;   -1,364;    1,045
1044,715;  603,263;    2,455;    0,955
1045,260;  490,535;    2,182;   -0,955
1045,805;  335,354;    1,182;   -0,591
1046,350;  302,626;    1,364;   -0,409
1046,895;  488,990;    2,909;    1,591
1047,440;  482,172;    5,364;    0,409
1047,985;  341,717;    2,818;   -0,955
1048,530;  314,354;    1,545;    1,227
1049,074;  372,808;    0,000;    0,318
1049,619;  308,899;   -1,364;    1,955
1050,164;  299,990;    0,455;    0,227
1050,708;  381,899;   -0,455;    0,045
1051,253;  631,081;    1,273;   -2,227
1051,797;  424,535;    0,818;   -1,318
1052,342;  252,717;   -1,182;    1,045
1052,886;  355,172;    0,364;   -1,409
1053,430;  239,899;   -1,364;    0,136
1053,975;  329,990;   -0,818;   -0,318
1054,519;  336,626;   -0,727;    3,227
1055,063;  411,717;    0,909;    1,318
1055,607;  391,717;   -0,182;    0,227
1056,151;  383,990;    2,909;    1,682
1056,695;  299,081;    2,273;   -1,136
1057,239;  291,263;   -1,727;   -0,682
1057,783;  338,535;    0,818;   -1,500
1058,327;  405,535;    0,000;    1,409
1058,871;  552,081;   -0,545;    1,318
1059,415;  424,990;   -0,818;   -0,045
1059,958;  575,626;    1,455;    2,591
1060,502;  337,535;   -1,000;   -0,773
1061,046;  238,535;    0,364;   -0,955
1061,589;  221,263;   -3,000;   -1,136
1062,133;  194,990;   -1,273;    1,864
1062,676;  241,535;    1,182;    0,864
1063,220;  272,990;    1,091;    0,500
1063,763;  305,626;    0,909;    1,136
1064,306;  328,172;   -0,909;    1,864
1064,849;  321,990;   -0,909;    0,591
1065,393;  305,990;    2,000;   -1,500
1065,936;  305,808;    0,182;   -0,409
1066,479;  227,990;   -1,455;    1,318
1067,022;  255,535;   -0,273;   -0,227
1067,565;  225,626;   -0,091;   -1,318
1068,108;  198,717;    0,727;   -0,591
1068,651;  177,808;   -0,636;    1,409
1069,194;  190,172;   -0,455;   -1,682
1069,736;  210,899;   -1,273;    0,955
1070,279;  177,263;   -1,364;   -0,500
1070,822;  270,354;   -2,000;   -0,318
1071,364;  396,263;   -0,364;    1,318
1071,907;  249,535;   -0,727;    3,227
1072,450;  114,626;    0,000;   -0,045
1072,992;  190,626;   -0,273;    3,136
1073,535;  262,081;    2,091;    2,136
1074,077;  181,172;   -0,727;    2,045
1074,619;  175,535;   -1,364;    0,591
1075,161;  208,899;   -1,091;    1,500
1075,704;  331,808;    1,545;    1,227
1076,246;  198,354;   -0,182;    0,682
1076,788;  137,263;   -0,364;    1,773
1077,330;  140,172;    1,273;    2,136
1077,872;  181,172;    0,909;    0,955
1078,414;  352,535;    2,727;    0,773
1078,956;  211,899;    1,273;   -0,227
1079,498;  349,626;    1,636;    0,318
1080,040;  213,354;    1,909;   -1,318
1080,581;  169,081;    1,636;   -0,318
1081,123;  111,172;    0,091;   -0,773
1081,665;  127,990;   -1,182;   -0,955
1082,206;  314,354;    1,364;   -0,500
1082,748;  230,808;    0,727;    2,045
1083,289;  143,990;   -2,000;    1,318
1083,831;  136,990;   -0,545;    0,227
1084,372;  182,808;    0,000;    0,591
1084,913;  175,444;    1,091;    0,864
1085,455;  129,444;   -1,909;   -2,045
1085,996;  131,535;   -2,273;    0,136
1086,537;  166,354;   -0,091;    0,864
1087,078;  170,535;   -0,909;   -2,136
1087,619;  222,444;   -1,273;    0,227
1088,160;  179,899;    0,000;    1,318
1088,701;  161,444;   -1,091;    0,682
1089,242;  148,354;    1,364;   -2,227
1089,783;  194,899;   -0,273;    1,409
1090,324;  175,990;    0,455;    0,682
1090,865;  124,990;    2,727;   -0,409
1091,405;   94,717;    0,727;    2,227
1091,946;  134,717;    0,182;   -0,955
1092,487;   89,263;    0,818;   -1,409
1093,027;  201,263;   -1,364;   -1,500
1093,568;  138,990;   -0,364;    1,227
1094,108;  176,535;    0,273;    1,773
1094,649;  143,081;   -1,182;    0,136
1095,189;  109,899;   -0,636;   -0,682
1095,729;  111,263;   -0,091;    0,955
1096,269;   97,899;    0,727;   -0,955
1096,810;  247,263;   -1,364;    0,500
1097,350;  189,717;    1,364;   -0,773
1097,890;  140,717;    0,364;    1,227
1098,430;  300,990;    2,364;    2,864
1098,970;  237,263;    2,182;    1,682
1099,510;  121,808;    0,545;   -2,318
1100,050;  109,354;    1,000;   -1,591
1100,589;  125,172;   -0,727;   -0,318
1101,129;  174,081;    0,818;   -0,955
1101,669;  254,535;    1,727;    2,136
1102,209;  175,808;   -0,091;    2,227
1102,748;  143,081;    0,000;    0,955
1103,288;  154,717;    1,273;   -1,227
1103,827;  143,899;    3,091;   -2,227
1104,367;  100,990;   -0,091;   -2,409
1104,906;  100,263;    1,364;   -1,136
1105,445;  147,535;    0,636;   -1,136
1105,985;  122,808;   -0,727;    1,500
1106,524;  139,717;   -1,727;   -0,682
1107,063;  131,808;   -2,727;    1,409
1107,602;   99,626;   -1,909;   -1,500
1108,141;   84,717;   -1,909;    1,500
1108,680;  151,990;   -3,455;   -0,591
1109,219;  118,899;   -0,909;   -0,500
1109,758;  113,354;    0,455;    0,682
1110,297;  106,990;    1,000;   -0,682
1110,836;   83,899;   -0,727;    0,955
1111,375;  120,444;   -2,545;    0,409
1111,913;  156,263;   -1,000;    0,773
1112,452;  130,808;   -0,273;    0,136
1112,991;   81,626;    1,091;    1,955
1113,529;   80,717;   -0,818;   -0,045
1114,068;  111,081;   -0,273;    2,955
1114,606;   73,808;   -0,364;   -0,955
1115,144;  139,990;   -1,273;    1,045
1115,683;  114,444;   -0,727;    0,318
1116,221;  142,899;   -0,455;   -0,864
1116,759;   96,808;    0,636;   -0,864
1117,297;  177,354;    0,000;    1,864
1117,836;  100,354;   -2,182;   -1,227
1118,374;  100,717;    0,182;   -0,682
1118,912;  104,990;    0,909;    2,682
1119,450;  101,808;    1,000;    0,864
1119,988;  101,172;    1,545;    2,136
1120,525;  370,444;    5,091;    3,318
1121,063;  199,626;    1,182;    1,864
1121,601;  102,081;   -0,909;   -1,227
1122,139;   86,172;   -0,727;   -2,045
1122,676;  193,535;   -0,727;    2,773
1123,214;  160,172;   -1,182;    4,409
1123,751;   76,535;    1,727;    2,227
1124,289;  117,990;   -0,091;   -0,409
1124,826;   82,990;    1,727;    0,227
1125,364;   44,899;    1,727;   -0,955
1125,901;  153,535;    1,182;    1,227
1126,438;  166,990;    0,818;    0,955
1126,975;   49,081;   -0,727;   -0,773
1127,513;   74,444;    0,273;    2,136
1128,050;   54,444;    1,636;   -0,682
1128,587;   94,990;    2,000;   -0,227
1129,124;  121,081;    0,091;    1,318
1129,661;   66,081;    0,273;    0,227
1130,198;  140,899;    1,636;    0,773
1130,734;  104,717;    0,182;    1,409
1131,271;   47,081;   -0,909;    0,864
1131,808;  124,626;    2,909;    3,045
1132,345;   76,717;    1,545;    0,318
1132,881;   28,263;   -1,545;   -1,864
1133,418;   84,990;    0,727;   -1,136
1133,954;   59,626;    2,455;   -2,682
1134,491;   93,263;    1,364;   -0,773
1135,027;   59,354;    2,364;    0,864
1135,564;   91,626;    0,273;    2,955
1136,100;   86,990;    0,364;    2,136
1136,636;   45,626;   -1,273;   -1,045
1137,172;   69,444;    0,000;   -1,045
1137,708;   54,808;   -1,364;   -1,045
1138,245;   47,808;    1,273;   -1,227
1138,781;   37,081;    1,091;   -3,318
1139,317;   62,717;    1,273;   -1,409
1139,852;   67,808;    3,091;    0,136
1140,388;  100,899;   -1,182;   -0,409
1140,924;   61,444;   -1,091;   -2,227
1141,460;   38,354;   -1,636;    0,136
1141,996;   23,172;   -1,364;    2,682
1142,531;   36,444;    1,364;    3,318
1143,067;  129,263;    1,182;    1,045
1143,602;  162,081;   -0,091;   -0,318
1144,138;   90,899;   -2,636;    1,045
1144,673;   38,535;   -1,455;    1,409
1145,209;   57,717;   -1,909;   -0,318
1145,744;   28,354;   -0,727;    0,864
1146,279;   83,990;    1,818;   -0,136
1146,815;   50,444;    1,545;   -2,682
1147,350;   74,172;   -1,364;    0,045
1147,885;   36,808;   -0,818;   -1,318
1148,420;   35,808;   -2,273;    0,773
1148,955;   31,626;   -1,727;    1,864
1149,490;   37,717;   -0,909;   -1,591
1150,025;   27,444;    0,455;   -1,773
1150,560;   79,081;    1,091;   -0,955
1151,094;   66,535;    1,455;   -0,591
1151,629;   62,626;    1,636;    0,864
1152,164;   39,717;    1,364;    1,318
1152,698;   29,354;   -0,182;   -0,136
1153,233;   12,990;    0,091;   -0,682
1153,767;   27,990;   -3,000;   -2,318
1154,302;   46,263;   -1,455;    1,773
1154,836;   48,535;   -0,455;   -2,136
1155,371;   67,535;   -1,364;    3,682
1155,905;   47,535;   -0,636;    1,682
1156,439;   42,808;   -0,636;   -0,500
1156,973;   49,990;    0,364;    0,318
1157,507;   26,354;   -0,364;    0,682
1158,042;   33,899;   -0,727;    1,045
1158,576;   50,626;    0,182;    1,773
1159,110;   48,081;   -0,818;    2,409
1159,643;   37,535;    0,636;   -0,045
1160,177;   21,444;   -1,545;    1,500

