
Integration time [ms]:   0,040
Averaging Nr. [scans]: 11
Smoothing Nr. [pixels]: 0
Data measured with spectrometer [name]: 7318044SP
Wave   ;Sample   ;Dark     ;Reference
[nm]   ;[counts] ;[counts] ;[counts] 

186,757;   42,121;   31,551;    1,318
187,357;   45,885;   22,551;    0,955
187,958;   30,645;   15,460;   -1,591
188,558;   44,376;    8,915;   -1,227
189,159;   33,002;    6,733;   -4,500
189,759;   18,445;    7,278;   -3,591
190,360;   17,153;    2,824;   -2,136
190,960;   29,665;    2,915;   -4,136
191,560;   36,802;    3,189;   -6,591
192,161;  149,367;    4,372;   -3,500
192,761;   87,852;    4,010;   -3,227
193,361;   55,415;    1,556;   -3,773
193,962;   75,117;    2,010;   -2,682
194,562;   33,290;    1,189;   -3,955
195,162;   32,594;   -2,448;   -2,227
195,762;  102,573;   -3,176;   -0,045
196,362;   68,224;    1,370;   -2,500
196,963;   26,104;    2,006;   -0,864
197,563;   54,021;    1,551;   -0,955
198,163;   25,242;    0,096;   -0,682
198,763;   34,186;    1,733;   -0,500
199,363;   57,573;    3,096;   -0,500
199,963;   42,128;    0,369;    0,409
200,563;   35,792;    2,823;   -1,409
201,163;   28,300;    3,277;   -0,227
201,763;   54,528;    3,732;    0,318
202,363;   31,241;    1,459;    1,500
202,963;   56,570;    1,459;    1,045
203,563;  103,203;    0,277;    0,500
204,162;   52,693;    2,096;   -1,864
204,762;   44,346;    0,550;    0,591
205,362;   28,829;    3,004;    1,955
205,962;   54,473;    3,096;    1,955
206,562;   53,843;    1,823;    2,318
207,161;   38,803;   -0,087;    0,318
207,761;  116,846;    1,277;    2,409
208,361;   57,620;   -0,268;    1,409
208,960;   81,350;    0,459;    1,500
209,560;   81,918;    1,277;    1,591
210,160;   98,339;    0,550;    1,864
210,759;   76,527;    4,186;    1,227
211,359;   63,959;    1,459;    1,045
211,958;  189,911;    1,277;    2,045
212,558;  204,222;    1,732;    1,864
213,157;  124,337;    1,822;    1,500
213,757;  311,921;    3,822;   -0,227
214,356;  167,056;    1,277;   -0,409
214,956;  305,796;    3,095;    0,409
215,555;  140,693;    2,095;    2,136
216,154;  108,423;   -2,723;   -0,591
216,754;  109,678;    0,277;    0,773
217,353;  140,217;   -0,268;   -1,045
217,952;   60,239;   -0,178;    0,318
218,552;  182,793;    1,368;   -0,773
219,151;  119,811;    0,277;    0,955
219,750;  110,985;    0,004;   -0,227
220,349;   95,471;   -0,451;    1,045
220,948;  205,867;   -1,360;    1,136
221,548;  127,104;    0,913;    1,227
222,147;  171,517;   -0,087;   -0,409
222,746;  317,568;   -0,451;   -0,955
223,345;  210,158;    0,731;    0,500
223,944;  220,078;   -0,451;    0,773
224,543;  244,690;    1,004;   -1,409
225,142;  262,150;    0,094;    0,136
225,741;  238,228;   -0,814;    1,045
226,340;  220,184;   -0,451;   -0,955
226,939;  372,409;   -0,996;   -0,136
227,538;  223,295;   -0,360;   -0,773
228,137;  374,699;   -0,814;    0,864
228,735;  324,599;   -0,541;    1,227
229,334;  196,945;   -0,905;   -0,227
229,933;  416,241;    0,459;    0,591
230,532;  444,862;    1,186;   -0,409
231,131;  528,249;    1,732;    0,318
231,729;  395,742;   -2,450;   -2,318
232,328;  316,713;   -0,723;   -1,500
232,927;  336,739;    1,004;   -0,500
233,525;  314,476;    3,640;    0,045
234,124;  379,041;    2,368;   -1,591
234,723;  283,566;    0,913;   -1,045
235,321;  287,887;    2,277;    0,136
235,920;  351,842;    1,186;   -1,227
236,518;  548,799;    3,459;    0,318
237,117;  356,928;    0,004;   -0,227
237,715;  369,496;    0,640;   -0,500
238,314;  456,889;   -0,087;   -2,318
238,912;  620,255;   -0,723;   -1,409
239,510;  475,402;    0,459;   -1,227
240,109;  625,944;    0,004;    3,773
240,707;  577,258;   -0,996;    1,227
241,305;  411,413;    0,550;    0,136
241,904;  560,413;   -0,178;   -2,045
242,502;  678,440;   -0,632;   -0,227
243,100;  545,388;   -0,087;   -0,955
243,698;  487,774;    0,732;    1,682
244,297;  530,226;   -0,632;    0,682
244,895;  537,233;   -0,269;   -2,318
245,493;  771,227;    2,186;   -0,591
246,091;  750,098;    1,368;   -1,318
246,689;  679,544;    1,004;    0,591
247,287;  632,077;    0,822;   -1,136
247,885;  594,890;   -1,451;    1,227
248,483;  564,156;    1,822;   -0,500
249,081;  666,692;    0,185;    1,591
249,679;  730,477;   -0,178;    1,682
250,277;  571,738;   -1,723;    0,864
250,875;  736,033;   -1,087;   -1,045
251,473;  608,758;   -1,178;    0,500
252,071;  734,702;    1,459;    1,045
252,669;  648,169;   -1,814;    0,318
253,267;  580,287;   -0,087;    0,773
253,864;  625,350;   -0,360;    0,682
254,462;  836,864;    1,640;    1,591
255,060;  570,092;   -0,269;    1,318
255,658;  562,714;    0,822;   -0,136
256,255;  694,068;    0,186;   -2,045
256,853;  736,436;   -0,269;    1,409
257,451;  700,846;    0,822;    1,864
258,048; 1208,802;    1,822;    1,864
258,646;  836,946;    1,731;   -1,045
259,243;  969,345;   -0,087;    2,227
259,841;  827,084;   -0,814;    0,318
260,438;  646,987;   -0,087;    0,864
261,036;  809,511;   -1,905;    1,409
261,633;  709,550;   -0,087;    2,227
262,231;  644,145;    2,731;   -0,045
262,828;  672,358;   -0,905;    1,136
263,425;  728,602;    0,913;   -0,591
264,023;  732,547;    0,186;    0,045
264,620;  903,656;   -0,360;   -0,318
265,217; 1048,087;   -2,087;    3,136
265,815;  723,401;   -1,905;    2,136
266,412;  873,650;    0,731;    0,136
267,009;  929,019;   -1,451;    0,773
267,606; 1029,855;    0,822;   -0,955
268,203;  771,731;   -0,269;   -0,591
268,801;  837,617;    1,731;    0,591
269,398;  752,283;   -0,360;    2,500
269,995;  931,995;    0,277;    1,591
270,592;  815,584;   -0,632;   -0,500
271,189;  734,650;    0,186;    0,409
271,786;  718,432;   -0,632;    1,227
272,383; 1022,529;   -1,087;    0,227
272,980;  834,124;    0,277;    0,318
273,577;  794,296;    0,004;    1,227
274,174;  722,971;    0,822;    2,591
274,771;  872,532;   -0,814;   -0,773
275,367; 1345,015;    2,277;    1,409
275,964; 1140,672;    0,731;   -0,500
276,561;  904,468;    1,549;   -1,045
277,158;  808,296;    0,095;   -1,773
277,755; 1092,601;    2,185;    0,409
278,351;  909,937;   -0,451;   -1,500
278,948; 1010,589;   -0,815;    0,045
279,545;  910,213;   -1,360;    2,318
280,141; 1214,720;   -1,723;   -2,045
280,738; 1089,696;   -0,451;   -0,136
281,334;  875,556;   -1,633;    0,591
281,931;  893,299;   -0,087;   -1,318
282,528;  998,531;    0,822;   -0,500
283,124; 1149,500;   -1,087;   -0,500
283,721; 1126,446;   -0,451;    1,409
284,317;  929,041;    0,185;    2,500
284,913; 1202,370;   -1,360;    0,591
285,510; 1533,733;    0,640;   -0,318
286,106; 1299,434;   -2,269;   -0,955
286,703;  952,378;   -0,360;    1,955
287,299;  931,084;   -1,451;   -0,591
287,895;  940,658;    0,822;   -1,045
288,491;  967,193;    0,186;    2,136
289,088; 1093,724;   -2,360;    2,409
289,684; 1134,260;   -1,723;    1,500
290,280; 1299,966;    0,368;    0,682
290,876; 1289,644;    1,822;    5,500
291,472; 1147,844;    1,276;    2,227
292,068; 1157,542;    1,367;    0,227
292,665;  982,356;    2,095;    0,773
293,261;  854,031;    0,276;    2,136
293,857; 1074,857;    2,913;    2,136
294,453;  991,960;    3,550;    0,955
295,049; 1235,843;   -0,268;    1,955
295,644; 1035,269;    0,095;    0,136
296,240;  886,844;   -0,905;   -0,136
296,836; 1062,831;   -0,995;    0,318
297,432; 1243,675;    1,096;   -0,500
298,028; 1307,681;    0,732;    0,773
298,624; 1125,221;    1,459;    1,864
299,220; 1083,593;    2,368;    0,591
299,815; 1058,705;    1,005;   -0,409
300,411; 1172,934;    0,914;    1,773
301,007; 1317,563;    1,368;    0,227
301,602; 1118,846;   -0,541;   -2,318
302,198; 1255,657;    0,732;   -0,773
302,794; 1085,927;    1,187;   -0,500
303,389; 1078,227;   -1,177;    1,045
303,985; 1147,978;    0,550;    1,409
304,580; 1252,646;    1,459;    1,591
305,176; 1132,658;   -3,086;    0,136
305,771; 1008,105;   -1,268;   -1,227
306,367; 1456,163;    4,095;    0,136
306,962; 1216,937;    0,641;    1,500
307,558; 1191,931;   -0,450;    0,136
308,153; 1295,758;    1,095;   -1,136
308,748; 1086,702;   -0,814;    1,682
309,344; 1508,348;   -0,632;   -1,318
309,939; 1556,635;   -1,905;   -1,318
310,534; 1196,583;   -0,086;   -1,682
311,130; 1119,717;    0,459;   -2,500
311,725; 1031,788;    1,004;   -0,500
312,320; 1141,951;    2,459;    0,045
312,915; 1290,501;    1,459;   -1,045
313,510; 1522,163;    1,550;   -0,500
314,105; 1278,508;    1,096;    1,409
314,700; 1025,760;   -3,086;   -1,045
315,295; 1099,646;   -0,904;    0,045
315,890;  983,192;    1,277;    0,864
316,485; 1125,260;   -0,359;   -0,318
317,080; 1063,682;   -3,086;    1,591
317,675; 1432,778;    2,005;   -0,682
318,270; 1608,974;    5,550;    3,318
318,865; 1512,329;    3,278;    3,045
319,460; 1289,843;   -0,904;    0,591
320,055; 1164,701;   -0,541;   -1,227
320,650; 1125,381;   -1,995;   -0,591
321,244; 1136,472;   -0,177;   -1,409
321,839; 1276,878;   -1,541;   -0,227
322,434; 1317,315;   -1,086;   -1,591
323,029; 1185,294;    1,732;    1,591
323,623; 1120,339;    1,550;    0,773
324,218; 1270,868;    2,368;    1,409
324,812; 1202,573;    1,096;    1,591
325,407; 1217,025;   -0,814;    2,045
326,002; 1313,858;    0,277;   -0,409
326,596; 1261,370;    0,914;    1,318
327,191; 1119,086;    0,823;   -1,045
327,785; 1050,007;   -0,813;   -0,227
328,379; 1154,271;    1,368;    0,136
328,974; 1143,001;    0,914;   -3,955
329,568; 1198,675;    0,186;   -2,409
330,163; 1267,860;    2,096;    1,045
330,757; 1144,192;    2,459;    1,591
331,351; 1054,644;    0,459;    0,682
331,945; 1072,100;    0,914;    1,409
332,540; 1214,380;   -1,723;   -0,591
333,134; 1176,844;   -1,086;    0,773
333,728; 1162,104;    0,005;    0,318
334,322; 1095,893;   -1,177;   -0,864
334,916;  990,574;    0,277;    0,955
335,510; 1221,902;   -0,450;   -0,136
336,105; 1256,450;   -1,086;    1,591
336,699; 1089,406;   -1,086;    0,591
337,293; 1122,463;   -1,723;    0,318
337,887; 1057,773;   -2,723;    1,955
338,481; 1253,192;    0,459;    0,591
339,074; 1392,656;   -0,359;    2,682
339,668; 1347,155;   -1,632;    1,227
340,262; 2019,946;    1,732;    3,227
340,856; 1524,932;    1,822;   -0,682
341,450; 1086,918;    1,004;    1,864
342,044; 1205,099;    1,459;    0,136
342,637; 1371,398;    0,913;   -2,136
343,231; 1397,579;   -2,360;    0,682
343,825; 1185,943;   -1,086;   -0,591
344,419; 1153,881;   -1,995;    0,500
345,012; 1789,804;    2,459;    4,045
345,606; 1568,385;    4,641;    1,591
346,199; 1197,000;   -1,813;   -0,227
346,793; 1343,498;    1,914;    2,045
347,386; 1123,652;   -0,813;   -1,136
347,980;  961,395;   -0,268;   -0,045
348,573; 1095,705;    2,278;    0,409
349,167; 1394,998;    5,278;    4,773
349,760; 1340,019;    2,914;    2,682
350,354; 1245,425;   -0,813;    1,136
350,947; 1305,159;    1,096;    1,682
351,540; 1083,053;   -0,358;   -1,409
352,134;  907,294;    1,096;    1,136
352,727;  978,260;   -0,086;    1,136
353,320; 1007,796;    0,005;    0,591
353,913;  906,943;   -1,995;    1,864
354,507; 1164,623;    0,823;   -1,227
355,100; 1040,207;    0,460;    0,864
355,693; 1468,971;    2,005;    2,409
356,286; 1178,286;    0,823;    2,773
356,879; 1019,764;   -0,722;    1,227
357,472;  963,066;   -0,904;    1,500
358,065; 1056,103;   -0,722;    2,500
358,658;  899,664;   -0,540;    2,318
359,251;  814,045;   -1,631;   -0,591
359,844; 1030,622;   -1,904;   -1,136
360,437; 1141,403;   -2,995;    0,045
361,030;  979,133;    1,369;   -0,682
361,623;  944,988;    2,824;    0,318
362,215; 1214,262;   -0,086;    2,045
362,808; 1031,224;   -2,358;   -1,682
363,401;  948,006;   -2,449;    0,136
363,994; 1226,560;   -0,631;   -1,500
364,586;  954,761;    0,824;   -1,500
365,179;  885,059;   -0,449;   -1,136
365,772;  681,657;   -1,995;    2,045
366,364;  882,878;    1,915;   -3,227
366,957; 1005,835;    2,279;   -0,045
367,549;  900,369;    2,188;   -0,864
368,142;  898,148;    1,825;   -1,500
368,734;  855,436;    0,734;   -2,136
369,327;  771,177;    1,643;   -0,500
369,919;  827,610;   -1,538;    0,409
370,512;  863,644;   -1,083;   -0,500
371,104; 1151,881;   -0,901;    1,591
371,696; 1211,256;    1,191;   -0,955
372,289; 1044,333;    0,373;    1,136
372,881;  978,059;   -2,080;    1,318
373,473;  818,146;   -2,170;    1,136
374,066;  959,700;   -0,169;    0,500
374,658;  911,777;    0,378;    1,136
375,250;  856,678;    0,653;   -1,409
375,842;  917,868;    0,473;   -0,045
376,434;  852,697;   -0,435;   -0,409
377,026;  898,711;    0,204;   -2,500
377,618;  931,188;   -0,158;   -0,682
378,210;  827,377;   -0,338;   -1,955
378,802;  771,605;    0,754;   -0,591
379,394; 1302,815;    1,846;    0,682
379,986; 1031,037;    1,393;   -0,955
380,578;  922,150;   -0,153;    0,773
381,170; 1189,556;   -0,972;    0,045
381,762; 1060,604;    0,755;    1,409
382,354; 1002,212;   -0,065;   -1,318
382,945;  895,940;   -2,976;    0,318
383,537;  837,478;   -2,705;   -1,955
384,129;  846,728;   -2,160;   -1,136
384,721;  996,683;   -0,252;    0,955
385,312;  878,939;   -0,161;   -0,955
385,904; 1036,399;   -2,706;    1,591
386,496;  861,553;   -0,979;    1,045
387,087; 1057,741;    1,022;    2,500
387,679;  976,485;   -1,160;    0,045
388,270;  991,009;    2,840;    2,045
388,862;  939,881;    1,295;   -0,318
389,453;  859,156;   -0,887;    1,045
390,045;  917,880;   -0,705;   -2,682
390,636;  814,457;    0,204;   -0,591
391,227;  853,121;   -0,523;   -0,045
391,819;  880,999;    0,204;    0,773
392,410; 1189,208;    1,022;    0,045
393,001;  960,747;   -0,979;   -1,591
393,593; 1054,792;    1,930;   -0,045
394,184; 1115,128;    1,385;   -0,409
394,775;  909,867;    1,839;    2,136
395,366;  882,728;    1,385;    0,773
395,957; 1117,865;    0,113;    0,136
396,548;  982,367;   -0,342;    2,682
397,139; 1184,014;   -2,433;    0,591
397,730; 1034,617;   -1,888;    0,955
398,321; 1024,556;   -1,252;    0,955
398,912;  952,993;   -0,615;    0,136
399,503;  991,069;   -3,524;   -1,409
400,094;  997,395;    0,294;    1,682
400,685;  997,887;   -0,433;    0,045
401,276;  884,817;    0,930;   -0,955
401,867;  892,075;   -0,888;    0,773
402,458;  860,705;   -2,251;   -2,318
403,048; 1062,137;    1,112;    0,591
403,639;  934,591;    0,840;    0,864
404,230; 1163,158;    2,476;    0,318
404,821; 1225,069;   -0,615;    0,045
405,411; 1076,140;    1,203;   -2,591
406,002;  928,794;   -1,252;   -1,136
406,592; 1240,469;    2,294;    0,045
407,183; 1053,764;    0,566;   -1,500
407,774;  990,737;    3,475;   -0,136
408,364;  968,564;    0,930;    0,409
408,954; 1111,658;    0,384;    1,227
409,545; 1122,631;    1,021;    1,045
410,135; 1006,606;    1,293;    0,500
410,726;  966,960;    1,838;    0,318
411,316; 1227,730;    0,111;    0,773
411,906;  975,745;   -0,253;   -0,409
412,497;  962,421;   -1,070;   -0,045
413,087;  925,081;   -1,980;   -0,227
413,677;  885,963;   -0,707;    3,864
414,267;  847,561;    0,656;    1,409
414,857;  811,887;   -2,980;    4,227
415,448;  850,583;    0,839;    0,500
416,038;  865,630;    0,020;   -0,591
416,628;  917,845;   -0,889;    0,409
417,218; 1014,602;    0,565;    3,318
417,808; 1220,837;    0,202;   -0,409
418,398; 1025,940;    0,020;    2,682
418,988;  879,436;    2,020;    0,591
419,578;  997,558;   -0,707;    1,409
420,168; 1004,127;   -1,343;   -0,955
420,757; 1187,677;   -1,343;   -1,500
421,347; 1007,357;    0,111;   -0,227
421,937;  957,697;    2,292;    1,409
422,527; 1124,085;    0,838;   -0,773
423,116; 1295,570;   -0,253;   -0,045
423,706;  943,773;   -1,889;    0,318
424,296;  838,301;    1,384;    0,682
424,885; 1092,119;   -0,071;   -3,045
425,475; 1052,070;    1,474;   -2,864
426,065;  886,601;   -0,980;   -0,318
426,654;  858,605;   -0,435;   -0,318
427,244; 1262,199;    0,020;    1,409
427,833; 1203,592;    1,383;   -0,500
428,423; 1013,323;   -0,526;    1,136
429,012; 1081,289;   -0,344;   -1,136
429,601; 1194,506;   -1,344;    0,136
430,191; 1042,552;    1,292;    4,318
430,780;  865,974;   -0,344;   -0,409
431,369; 1203,970;    0,746;   -0,045
431,959; 1104,835;   -1,254;    0,500
432,548;  949,683;   -1,163;   -0,045
433,137;  849,880;   -1,254;   -1,318
433,726; 1027,346;    0,292;    0,500
434,315;  995,513;   -0,526;    2,409
434,905; 1164,597;   -1,254;    1,409
435,494; 1226,150;    0,746;    0,955
436,083; 1010,387;   -0,981;   -0,955
436,672; 1072,493;    0,110;    0,500
437,261; 1010,684;    0,292;   -1,955
437,850; 1425,138;    1,383;    0,682
438,439; 1462,735;    3,291;    1,955
439,027; 1572,897;    3,655;    1,773
439,616; 1518,622;    2,927;    1,227
440,205; 1180,360;    0,200;   -2,136
440,794; 1058,666;    2,109;   -0,045
441,383;  957,338;   -1,346;   -0,591
441,971;  846,485;   -2,436;    0,591
442,560;  882,609;    0,563;   -1,773
443,149;  745,648;    0,379;   -1,318
443,737;  866,374;   -0,074;   -2,318
444,326;  892,181;    0,018;    0,318
444,915;  967,594;   -1,982;    0,864
445,503;  995,224;   -2,891;   -0,318
446,092; 1327,295;    0,382;    2,136
446,680; 1268,700;    0,382;    0,318
447,269; 1164,777;   -0,346;   -0,318
447,857; 1092,953;    0,018;   -1,773
448,445; 1022,018;    0,563;    1,318
449,034;  965,786;   -1,528;   -1,136
449,622;  941,704;   -1,073;    3,500
450,210; 1432,630;    2,017;    2,227
450,799; 1314,873;    0,290;   -0,591
451,387; 1170,856;    1,381;   -0,591
451,975; 1157,122;    2,654;    0,864
452,563; 1312,233;    3,472;    2,318
453,151;  982,671;   -0,528;   -1,227
453,739; 1062,303;   -1,347;    0,136
454,328; 1286,276;    2,381;   -2,136
454,916; 1129,057;    2,562;   -0,136
455,504; 1126,473;    1,017;    1,227
456,092;  976,088;    0,017;   -1,591
456,679;  868,839;    1,472;    0,682
457,267; 1592,652;    4,017;    1,045
457,855; 1056,937;    1,017;    1,409
458,443;  777,422;   -0,165;    1,682
459,031; 1177,744;    0,108;    2,409
459,619; 1084,717;   -1,801;    2,864
460,206;  888,890;    0,835;    2,045
460,794;  902,744;   -2,983;   -0,227
461,382; 1020,558;   -0,529;   -0,864
461,970;  953,188;    1,198;    1,864
462,557;  864,901;   -0,711;   -0,682
463,145; 1119,528;   -3,165;   -1,682
463,732; 1466,265;    2,016;   -1,045
464,320; 1089,571;   -0,075;   -3,045
464,907; 1319,488;    2,743;   -0,773
465,495; 1177,546;    0,743;   -1,227
466,082; 1028,729;   -1,984;   -0,045
466,670; 1013,764;   -2,529;    1,227
467,257;  875,762;   -1,711;    2,045
467,844; 1081,481;   -0,075;    0,045
468,432; 1057,064;    0,834;    3,500
469,019;  934,036;    0,925;   -1,773
469,606; 1049,437;    0,470;    3,682
470,193; 1117,025;   -1,439;    0,227
470,780; 1080,402;   -2,075;    0,864
471,368;  953,746;   -1,257;   -0,773
471,955; 1109,030;    1,379;   -0,682
472,542; 1004,354;    0,652;   -1,136
473,129;  797,626;   -0,166;    0,136
473,716;  805,925;    1,470;    0,591
474,303;  882,579;    0,652;   -0,864
474,890;  903,724;   -1,439;   -0,500
475,477; 1061,654;   -1,621;    0,409
476,064;  889,092;    1,106;   -1,591
476,650; 1069,771;    0,288;    0,318
477,237;  943,408;   -0,258;    0,955
477,824;  901,918;   -1,076;    0,864
478,411;  742,156;   -1,894;   -0,318
478,997;  735,359;    0,560;   -0,773
479,584;  633,348;    1,196;   -0,409
480,171; 1039,606;   -0,440;   -0,773
480,757; 1150,575;    2,651;    0,773
481,344;  928,530;    0,469;    0,409
481,931;  702,788;    1,105;    1,045
482,517; 1045,397;   -1,258;    0,318
483,104; 1207,709;    1,106;    2,864
483,690; 1031,735;   -1,804;    0,045
484,276;  986,296;   -0,895;    0,227
484,863; 1382,454;    2,469;    1,136
485,449; 1102,364;   -0,077;    0,318
486,035; 1005,494;   -1,986;   -0,136
486,622; 1223,308;   -0,895;    0,045
487,208; 1065,611;    1,378;    1,500
487,794;  919,782;    0,741;    0,318
488,380;  928,216;    0,105;   -1,409
488,967;  943,560;   -1,168;   -0,409
489,553;  968,513;   -1,895;   -1,409
490,139; 1136,982;    1,559;    0,773
490,725;  939,754;    0,741;   -0,227
491,311;  983,979;    3,287;    3,045
491,897;  854,369;   -0,986;    1,500
492,483;  856,261;    0,105;    1,227
493,069; 1664,402;    3,923;    0,864
493,655; 1137,845;    1,650;    0,682
494,241;  943,798;    1,377;   -0,955
494,826; 1018,413;    0,287;   -1,045
495,412; 1112,962;    2,559;   -0,682
495,998;  962,412;   -0,805;   -0,318
496,584; 1064,755;    0,377;    1,045
497,169; 1014,303;    1,014;   -0,682
497,755;  889,346;    0,650;    1,227
498,341; 1281,386;    0,559;    0,318
498,926; 1462,797;    1,832;    1,955
499,512; 1037,316;    1,286;    2,955
500,097;  998,470;    0,195;   -0,318
500,683; 1033,728;   -0,350;    2,136
501,268;  971,475;   -0,169;   -0,955
501,854; 1020,488;   -0,169;    1,227
502,439;  956,008;   -0,624;   -1,773
503,024; 1093,192;    0,195;    0,500
503,610; 1163,714;   -0,078;   -0,682
504,195;  969,723;    0,558;    1,955
504,780; 1151,056;    2,922;    1,227
505,366; 1351,276;    3,013;    2,864
505,951; 1185,953;    0,740;    1,045
506,536; 1082,266;   -3,260;   -3,682
507,121; 1158,072;    0,285;   -0,318
507,706; 1127,917;    2,376;    1,045
508,291; 1035,507;    2,649;    1,136
508,876; 1005,996;   -0,988;    2,591
509,461; 1097,810;   -0,169;   -0,773
510,046; 1194,414;    0,194;    0,318
510,631; 1166,901;   -0,351;   -0,773
511,216; 1063,930;    2,467;   -0,500
511,801; 1216,654;   -0,442;    2,591
512,386; 1234,059;    0,740;    0,500
512,971; 1252,034;   -2,988;    0,955
513,555; 1327,136;   -0,897;   -1,500
514,140; 1330,928;   -0,442;   -3,136
514,725; 1445,662;   -0,715;   -1,136
515,309; 1314,155;   -0,533;    0,318
515,894; 1166,961;   -0,624;   -2,227
516,479; 1226,413;   -0,624;   -0,955
517,063; 1208,515;    0,376;    1,227
517,648; 1184,187;    1,012;   -1,136
518,232; 1096,168;   -0,261;   -1,409
518,817; 1227,365;   -0,079;    1,682
519,401; 1436,400;    2,194;    0,591
519,985; 1251,693;    1,103;    1,136
520,570; 1095,309;    0,830;   -1,955
521,154; 1293,339;    2,102;    0,591
521,738; 1573,314;   -2,352;    2,409
522,323; 1411,559;   -0,170;    1,682
522,907; 1325,921;    0,466;   -0,136
523,491; 1207,402;    0,557;    0,955
524,075; 1149,598;    2,284;    0,591
524,659; 1375,724;    1,466;    0,591
525,243; 1258,126;    1,739;    0,409
525,827; 1184,786;    0,648;   -0,045
526,411; 1258,542;   -1,989;   -0,136
526,995; 1449,809;   -0,352;    1,409
527,579; 1465,045;   -0,443;   -1,045
528,163; 1385,917;    0,375;   -1,500
528,747; 1581,145;    2,466;   -0,773
529,331; 1520,468;   -0,080;   -1,409
529,915; 1269,937;    1,738;    0,955
530,499; 1376,752;   -0,807;    1,227
531,082; 1516,664;   -0,534;    1,591
531,666; 1567,604;    1,374;    0,773
532,250; 1493,614;    1,284;    2,682
532,833; 1673,648;    0,920;    2,773
533,417; 1423,123;   -1,807;    0,864
534,001; 1541,112;    1,647;   -0,318
534,584; 1484,846;    0,374;    0,500
535,168; 1290,010;    0,465;    1,409
535,751; 1718,888;    0,647;    0,045
536,334; 1343,331;   -0,898;   -0,409
536,918; 1320,762;    0,011;    1,591
537,501; 1305,795;   -0,899;    1,318
538,085; 1350,312;   -0,444;    1,045
538,668; 1371,872;    0,829;    2,409
539,251; 1767,250;    1,829;    3,773
539,834; 1483,760;    0,101;    0,773
540,418; 1609,738;   -1,990;    4,318
541,001; 1795,846;   -0,990;    1,773
541,584; 1520,349;    2,101;    2,227
542,167; 1599,594;    1,374;    2,955
542,750; 1454,677;    1,919;   -0,773
543,333; 1231,056;    0,555;    2,136
543,916; 1575,137;    0,192;    2,500
544,499; 1444,132;   -1,354;    0,227
545,082; 1562,974;    1,374;    3,591
545,665; 1470,270;    1,919;    1,500
546,248; 1620,056;    1,010;   -0,318
546,830; 1573,645;   -0,445;    1,955
547,413; 1612,209;    1,010;   -0,773
547,996; 1666,048;    0,555;    0,500
548,579; 1472,287;    0,919;    0,955
549,161; 1721,401;    1,828;    2,682
549,744; 1607,366;   -0,809;    0,409
550,326; 1561,930;   -0,809;   -1,136
550,909; 2039,505;    2,737;    0,591
551,492; 1722,786;   -0,263;    0,227
552,074; 1785,215;   -0,173;   -1,318
552,657; 1854,403;    2,373;    0,045
553,239; 1666,719;   -0,173;   -0,773
553,821; 1592,452;   -1,082;    1,045
554,404; 1785,663;    1,282;    1,136
554,986; 1918,769;    0,464;    1,045
555,568; 1808,814;    1,191;   -0,955
556,151; 1991,374;    1,191;   -0,227
556,733; 1676,271;   -0,264;   -0,864
557,315; 1686,735;    0,100;    0,500
557,897; 1478,242;    0,554;   -0,500
558,479; 1502,718;   -1,991;    1,318
559,061; 1640,892;   -0,719;   -0,864
559,643; 1774,674;   -0,264;    0,045
560,225; 1795,655;    1,645;    2,864
560,807; 1686,129;    0,918;    0,318
561,389; 1605,361;    0,554;    2,318
561,971; 1667,424;    0,463;    2,136
562,553; 1683,994;   -1,628;    1,591
563,135; 1772,153;   -0,537;    1,136
563,717; 2101,777;    3,372;    1,136
564,298; 1998,141;    3,645;   -0,045
564,880; 1727,700;    0,645;   -1,409
565,462; 1606,973;    0,645;    1,318
566,043; 1952,593;   -0,446;    2,318
566,625; 2084,403;    1,918;    1,227
567,207; 1858,107;    1,099;    1,682
567,788; 1865,151;   -1,264;    1,500
568,370; 2015,006;    1,917;   -0,500
568,951; 1873,756;    0,190;    0,227
569,533; 2054,856;   -0,628;   -0,500
570,114; 2180,858;   -0,446;    0,682
570,695; 2219,293;   -0,174;   -1,318
571,277; 2176,854;   -0,265;   -1,682
571,858; 2421,223;    2,008;   -1,136
572,439; 2452,923;    1,554;   -1,045
573,021; 2439,485;    2,099;   -2,773
573,602; 2579,007;   -1,265;    0,318
574,183; 2637,846;   -2,083;    2,227
574,764; 2621,271;   -1,629;    0,409
575,345; 2743,823;    0,917;   -0,136
575,926; 2731,056;   -0,356;    0,136
576,507; 2824,907;    1,099;   -0,227
577,088; 2940,995;    3,099;    1,682
577,669; 3077,978;    0,735;    1,955
578,250; 3315,119;    0,644;   -1,045
578,831; 3174,598;   -1,356;   -2,227
579,412; 3055,084;   -0,810;    0,955
579,993; 3348,834;    1,008;    0,227
580,573; 3373,573;   -0,629;   -0,955
581,154; 3041,081;    0,735;   -0,591
581,735; 3243,784;    0,644;    0,773
582,315; 3098,057;   -0,629;    2,136
582,896; 3271,089;   -0,174;    1,227
583,477; 3065,847;    0,189;    1,227
584,057; 3156,286;    0,553;    0,955
584,638; 3250,107;    2,553;    2,318
585,218; 3425,541;   -0,538;    2,682
585,799; 3345,019;    0,281;   -0,227
586,379; 3254,359;    0,372;    1,591
586,959; 3076,306;    0,735;    0,318
587,540; 2930,381;   -0,629;    2,227
588,120; 2823,813;    1,007;   -0,045
588,700; 2668,249;    2,553;    2,136
589,281; 2940,022;    0,462;   -0,955
589,861; 2835,169;    0,099;   -1,682
590,441; 2744,403;    2,371;   -2,682
591,021; 2546,462;   -0,265;   -2,591
591,601; 2656,572;   -0,537;    0,500
592,181; 2766,904;   -0,719;   -0,773
592,761; 2436,583;    0,007;    1,409
593,341; 2582,113;   -0,901;    0,045
593,921; 2536,810;   -0,265;    1,591
594,501; 2438,946;   -0,538;    1,318
595,081; 2412,341;    0,917;   -0,318
595,661; 2641,162;   -1,447;    0,955
596,240; 2703,393;   -0,537;    0,136
596,820; 2826,319;    0,372;    1,955
597,400; 2553,139;    2,008;    0,773
597,980; 2597,598;    2,008;    1,045
598,559; 2597,294;    2,735;   -0,227
599,139; 2544,802;   -0,174;   -1,227
599,718; 2527,074;   -0,174;   -0,409
600,298; 2600,297;    0,735;    0,682
600,877; 2959,716;    2,917;    1,409
601,457; 2878,642;    2,281;    1,136
602,036; 2722,200;    0,190;    2,045
602,616; 2667,499;    0,644;    1,682
603,195; 2839,724;   -0,355;    3,500
603,774; 2749,683;   -0,901;    2,045
604,354; 2668,698;    0,826;   -0,500
604,933; 2573,728;    0,463;    1,864
605,512; 2763,267;    3,554;    0,591
606,091; 2773,023;   -0,537;    3,773
606,671; 2815,557;    0,281;    0,773
607,250; 2795,575;    1,644;    3,136
607,829; 2816,735;    2,372;    3,227
608,408; 2704,184;    1,190;    2,591
608,987; 2631,183;    1,281;    3,409
609,566; 2515,444;   -1,265;   -2,500
610,145; 2596,124;   -1,082;    0,682
610,723; 2754,072;    4,372;    6,864
611,302; 2512,285;   -0,446;    1,682
611,881; 2617,538;    5,008;   11,227
612,460; 2524,561;    1,645;    3,955
613,039; 2584,024;   -0,082;    2,045
613,617; 2318,682;    1,736;    4,773
614,196; 2341,928;    1,099;    1,227
614,775; 2501,731;    1,009;    2,409
615,353; 2512,267;    0,736;    0,864
615,932; 2445,109;    0,100;    2,409
616,510; 2584,994;    0,554;    0,591
617,089; 2946,768;    7,100;   17,591
617,667; 2626,481;    2,372;    6,136
618,246; 2262,651;   -1,537;    1,318
618,824; 2401,410;   -3,355;   -0,955
619,402; 2344,237;   -2,900;   -1,773
619,981; 2511,032;   -0,173;   -1,045
620,559; 2475,949;    0,009;    1,682
621,137; 2472,545;   -0,718;    1,864
621,715; 2152,037;   -1,173;   -0,682
622,293; 2204,533;   -0,537;   -0,773
622,871; 2476,917;   -0,718;    0,500
623,450; 2300,623;    0,373;   -0,864
624,028; 2425,307;    0,191;   -0,955
624,606; 2342,485;   -1,718;    1,682
625,183; 2256,631;   -1,536;   -1,136
625,761; 2283,714;    1,009;    1,136
626,339; 2661,799;    1,373;    2,591
626,917; 2395,346;   -0,172;   -0,045
627,495; 2398,557;   -0,354;    1,318
628,073; 2361,064;   -0,263;    2,864
628,650; 2309,182;    0,100;    2,136
629,228; 2394,227;    0,373;    4,409
629,806; 2115,564;    2,282;    1,136
630,383; 2191,411;    1,464;   -0,318
630,961; 2193,658;    2,555;   -0,955
631,539; 2139,663;    2,464;    0,227
632,116; 2778,839;   11,373;   15,409
632,694; 2471,156;    2,555;    6,500
633,271; 2277,330;    0,828;    2,682
633,848; 2397,727;    1,828;    2,045
634,426; 2228,421;   -1,081;    1,773
635,003; 2062,918;    1,101;   -0,409
635,580; 2385,701;    1,192;    3,682
636,158; 2239,945;    3,737;    1,227
636,735; 2098,424;    0,555;   -0,500
637,312; 2110,768;   -0,809;   -0,682
637,889; 2122,010;   -4,354;   -0,682
638,466; 2100,739;   -3,990;   -0,409
639,043; 2082,304;    2,101;   -1,136
639,620; 2104,656;   -2,262;   -0,955
640,197; 2246,047;    1,100;    1,682
640,774; 2248,341;   -0,172;    1,136
641,351; 2316,818;    0,737;    1,136
641,928; 2338,840;   -0,627;    1,409
642,505; 2462,589;    0,828;   -0,500
643,082; 2362,339;   -1,718;    1,227
643,658; 2019,634;   -0,718;    1,500
644,235; 2128,928;    1,191;    2,500
644,812; 2278,314;    1,918;    0,773
645,388; 2210,336;   -0,991;    1,409
645,965; 2025,267;   -0,809;    1,682
646,542; 2052,562;   -1,445;   -0,227
647,118; 2490,311;    1,009;   -0,955
647,695; 2332,152;   -0,263;    1,136
648,271; 2133,901;   -0,536;    0,500
648,848; 2242,287;    0,736;    2,227
649,424; 2353,582;    0,827;    1,318
650,000; 2068,604;   -0,354;   -1,045
650,577; 2134,353;   -0,627;   -0,955
651,153; 2262,739;   -1,809;    0,955
651,729; 2271,306;    1,191;    0,864
652,305; 2557,510;    0,645;    2,773
652,881; 3031,623;   -0,082;    1,136
653,458; 3986,645;    1,100;    0,227
654,034; 4565,394;    0,282;    1,591
654,610; 4635,871;    0,554;    0,773
655,186; 5040,893;    0,645;    3,045
655,762; 4718,733;   -0,991;    0,409
656,338; 4681,210;    0,100;    0,136
656,913; 4994,414;   -0,082;    0,409
657,489; 4703,709;    0,827;   -0,318
658,065; 4817,367;   -0,173;   -1,591
658,641; 5059,298;   -0,900;   -0,864
659,217; 4788,593;   -0,991;    0,409
659,792; 4531,979;    0,645;   -0,409
660,368; 4655,637;   -2,173;   -0,682
660,944; 4835,932;   -2,082;    1,227
661,519; 4130,863;   -0,628;    0,409
662,095; 3219,976;   -1,719;    0,591
662,670; 2497,544;    1,281;   -0,136
663,246; 2460,293;    1,009;   -0,409
663,821; 2517,042;    0,281;    1,682
664,396; 2234,519;    0,009;    1,864
664,972; 2285,541;    0,009;   -0,500
665,547; 2438,199;    1,372;    0,136
666,122; 2373,949;   -1,082;    0,318
666,698; 2537,516;   -0,173;    0,318
667,273; 2182,175;   -0,173;    0,136
667,848; 2393,015;    2,372;    1,500
668,423; 2463,946;    2,190;    2,318
668,998; 2402,604;    2,827;   -0,682
669,573; 2467,990;   -3,264;   -1,500
670,148; 2591,194;   -1,446;   -0,682
670,723; 2315,307;   -1,810;    0,318
671,298; 2676,693;    2,372;    1,045
671,873; 2523,351;   -0,082;   -0,136
672,448; 2541,009;    0,645;    0,136
673,023; 2569,395;   -1,992;   -0,227
673,597; 2751,781;    0,827;    2,318
674,172; 2721,530;   -0,355;    0,318
674,747; 2565,643;    0,372;   -1,045
675,321; 2353,665;   -0,628;    3,318
675,896; 2229,324;    0,645;    1,045
676,471; 2463,618;    2,645;    1,591
677,045; 2366,641;   -1,264;    0,682
677,620; 2386,299;    0,190;    1,136
678,194; 2433,594;   -2,628;    1,136
678,769; 2417,798;   -1,083;   -0,318
679,343; 2507,911;   -0,628;    1,773
679,917; 2553,933;   -1,446;    1,955
680,492; 2402,046;    0,826;    3,227
681,066; 2455,250;    3,372;    0,409
681,640; 2463,817;    1,463;   -0,318
682,214; 2588,294;    0,735;    0,500
682,788; 2507,134;   -1,356;   -0,773
683,363; 2535,429;   -1,810;    1,682
683,937; 2388,360;   -1,719;   -0,318
684,511; 2625,836;    0,463;   -0,591
685,085; 2555,313;   -1,356;    0,318
685,659; 2407,244;   -2,538;    0,864
686,232; 2656,448;   -0,356;   -0,318
686,806; 2542,107;   -0,901;    0,409
687,380; 2604,310;   -0,174;    0,591
687,954; 2630,242;   -1,174;    1,136
688,528; 2723,445;   -0,719;    1,955
689,101; 2820,740;   -3,992;    1,045
689,675; 2595,762;   -0,356;   -0,136
690,249; 2648,512;   -0,719;    0,409
690,822; 2715,897;    0,280;    0,318
691,396; 2604,192;   -0,265;    1,227
691,969; 2466,305;    1,280;    0,136
692,543; 2557,600;   -0,447;   -1,955
693,116; 2375,076;   -0,265;   -1,409
693,690; 2442,917;    0,099;    0,500
694,263; 2583,848;   -1,083;    2,955
694,836; 2812,870;    1,371;    3,591
695,410; 2507,801;   -0,265;    1,773
695,983; 2532,550;    0,189;    0,591
696,556; 2433,482;   -0,447;   -1,045
697,129; 2491,049;   -0,356;    1,409
697,703; 2478,162;   -1,629;    1,955
698,276; 2485,366;    1,462;   -0,773
698,849; 2530,115;    1,280;    1,409
699,422; 2412,774;   -1,083;    0,591
699,995; 2298,250;    0,007;    0,136
700,568; 2475,454;   -0,629;    3,045
701,140; 2501,022;   -2,811;    1,682
701,713; 2607,771;   -0,174;    2,409
702,286; 2498,248;   -0,538;    0,864
702,859; 2472,088;   -0,902;   -0,591
703,432; 2405,655;    0,825;    0,682
704,004; 2396,314;    0,462;    0,318
704,577; 2243,881;   -0,629;    0,136
705,150; 2349,631;    0,189;    2,500
705,722; 2438,744;   -0,356;   -3,227
706,295; 2473,129;   -0,175;   -0,591
706,867; 2304,606;   -0,175;    1,955
707,440; 2514,264;   -1,720;   -0,409
708,012; 2586,650;    0,462;    0,591
708,584; 2439,490;    2,462;    0,227
709,157; 2409,422;    1,825;   -0,591
709,729; 2529,534;    2,280;    2,045
710,301; 2677,102;    0,734;    0,045
710,874; 2649,851;   -1,447;   -0,227
711,446; 2246,692;    0,371;    0,864
712,018; 2341,168;    0,098;    0,500
712,590; 2248,281;   -1,993;    1,682
713,162; 2565,576;    0,825;    1,318
713,734; 2456,053;    1,825;   -2,045
714,306; 2416,347;   -1,902;   -0,409
714,878; 2240,824;    0,825;    0,864
715,450; 2378,301;    0,643;    0,864
716,022; 2426,050;    1,552;    1,318
716,593; 2444,072;    0,189;    0,591
717,165; 2505,185;   -3,175;   -1,227
717,737; 2605,025;    0,280;    0,409
718,309; 2428,865;    0,280;   -0,045
718,880; 2346,797;   -0,539;   -1,409
719,452; 2471,728;   -0,175;   -1,591
720,024; 2440,750;    0,734;   -0,591
720,595; 2452,772;   -2,902;    0,955
721,167; 2340,976;    0,370;   -2,045
721,738; 2329,816;   -0,812;   -1,045
722,309; 2372,838;   -0,993;   -1,227
722,881; 2228,678;   -1,357;    0,773
723,452; 2425,246;   -2,630;    2,864
724,023; 2485,813;   -0,721;    2,682
724,595; 2489,563;    0,007;    0,682
725,166; 2288,130;    0,007;   -0,409
725,737; 2448,789;    1,734;    0,227
726,308; 2369,174;   -0,266;    0,318
726,879; 2291,833;   -1,630;    1,227
727,450; 2415,673;    0,552;   -0,045
728,021; 2301,059;    3,097;    0,682
728,592; 2446,899;    0,734;    0,500
729,163; 2586,557;    0,643;   -0,136
729,734; 2591,307;    0,188;   -0,227
730,305; 2453,965;    1,734;    0,136
730,876; 2452,533;    0,188;    2,955
731,447; 2753,555;    2,188;    2,682
732,017; 2628,668;    1,097;    1,864
732,588; 2512,508;    0,734;    1,227
733,159; 2660,166;    0,643;   -1,045
733,729; 2389,734;    0,006;    0,409
734,300; 2434,483;    0,915;    0,864
734,870; 2382,596;    3,461;    0,591
735,441; 2427,436;    0,370;   -0,591
736,011; 2320,095;    0,643;   -1,591
736,582; 2364,753;   -0,812;    0,045
737,152; 2308,230;   -1,721;   -2,045
737,722; 2389,706;   -0,267;   -0,682
738,293; 2240,819;   -1,358;    1,318
738,863; 2388,205;    2,461;    2,318
739,433; 2630,954;    5,279;    0,318
740,003; 2524,977;   -0,994;   -0,682
740,573; 2525,453;    2,097;   -1,591
741,143; 2475,112;   -1,085;    0,318
741,713; 2464,225;    1,188;   -0,500
742,283; 2442,156;    0,915;    1,591
742,853; 2333,905;    1,915;    1,591
743,423; 2161,836;    1,733;    0,045
743,993; 2248,495;   -0,358;    1,500
744,563; 2114,971;    0,097;   -0,864
745,133; 2163,902;   -0,812;   -0,864
745,702; 2289,743;   -0,267;    1,773
746,272; 2300,856;   -0,176;    0,591
746,842; 2305,787;   -1,358;   -0,591
747,411; 2227,900;   -0,267;   -0,318
747,981; 2154,013;    0,097;    0,500
748,551; 2190,944;    2,278;   -1,045
749,120; 2275,966;    0,642;   -0,227
749,690; 2304,533;   -0,631;    2,409
750,259; 2442,828;    1,369;    2,955
750,828; 2432,850;    1,551;   -1,955
751,398; 2319,691;    1,278;   -0,045
751,967; 2630,167;    2,187;    0,409
752,536; 2391,462;   -0,813;   -0,227
753,105; 2535,393;    0,096;    0,227
753,675; 2325,961;    0,096;    1,773
754,244; 2326,074;   -0,904;    3,591
754,813; 2365,823;    0,551;    1,227
755,382; 2266,209;    0,460;    0,955
755,951; 2418,140;    1,551;    3,682
756,520; 2457,980;   -0,085;    1,864
757,089; 2697,093;    0,278;    0,500
757,658; 2409,388;    1,733;    1,227
758,227; 2295,501;    1,096;    0,318
758,795; 2386,886;    1,187;    1,136
759,364; 2531,909;   -0,086;   -0,591
759,933; 2224,385;   -1,176;   -0,045
760,501; 2184,680;    0,733;   -1,318
761,070; 2328,975;   -2,813;   -1,409
761,639; 2562,269;   -1,904;    1,318
762,207; 2386,110;    1,551;   -0,955
762,776; 2462,768;    0,369;    0,864
763,344; 2330,063;   -0,995;    0,591
763,913; 1971,176;   -0,722;    1,409
764,481; 2615,925;    1,005;   -0,136
765,049; 2542,038;   -1,358;    1,409
765,618; 2428,424;   -0,086;    0,318
766,186; 2342,355;    0,278;    0,136
766,754; 2365,559;    0,005;    1,864
767,322; 2065,036;   -1,995;    0,409
767,890; 2041,967;   -0,722;   -1,773
768,459; 2233,625;   -2,177;   -0,318
769,027; 2432,193;    1,641;    3,409
769,595; 2139,397;    3,278;    2,591
770,163; 2202,782;    3,823;    2,955
770,730; 2192,077;    0,732;   -0,136
771,298; 2158,554;    0,187;   -1,409
771,866; 2151,939;   -1,541;    4,955
772,434; 2204,689;   -0,631;   -1,864
773,002; 2450,438;    0,005;    0,682
773,569; 2308,824;    0,914;    1,682
774,137; 2379,482;   -0,268;   -0,045
774,705; 2367,413;    0,278;   -0,136
775,272; 2188,163;    0,641;    0,682
775,840; 2284,367;   -0,177;    2,682
776,407; 2250,116;    0,277;    1,955
776,975; 2006,774;   -0,632;    0,318
777,542; 2170,069;   -1,086;   -0,045
778,110; 2175,364;   -1,268;   -0,045
778,677; 2035,022;   -2,359;   -0,864
779,244; 2071,953;    2,186;    1,045
779,812; 2219,794;    1,823;    0,864
780,379; 2264,179;    0,005;    1,136
780,946; 2170,929;    1,005;   -0,773
781,513; 2186,951;   -1,450;    0,318
782,080; 2034,791;   -0,086;    2,864
782,647; 2143,177;   -0,268;    3,045
783,214; 2070,381;   -0,177;    3,864
783,781; 2194,766;   -0,723;   -0,682
784,348; 2160,516;   -0,632;    1,500
784,915; 2036,810;   -3,177;    0,318
785,482; 2199,560;    1,368;    2,591
786,049; 2297,855;    0,186;   -0,591
786,615; 2210,149;    0,277;   -0,955
787,182; 2104,535;    0,186;   -0,682
787,749; 2070,375;   -2,814;    1,409
788,315; 2078,579;   -1,632;   -0,409
788,882; 2119,874;    1,550;   -1,227
789,448; 2404,714;    1,732;   -0,955
790,015; 2228,464;    1,095;    3,227
790,581; 2319,304;    1,459;    0,227
791,148; 2113,417;    0,641;    1,045
791,714; 2094,621;   -0,541;    3,136
792,280; 2060,915;    0,186;    1,591
792,847; 2010,392;    0,550;    2,500
793,413; 2076,414;   -0,269;   -0,318
793,979; 2140,891;    3,459;   -1,318
794,545; 2484,549;    4,459;    2,682
795,111; 2276,389;    2,186;    1,318
795,678; 2126,139;    0,731;   -1,682
796,244; 2313,615;    3,368;    0,136
796,810; 2289,365;    1,731;    0,773
797,375; 2249,114;    0,549;   -2,136
797,941; 1881,682;   -0,541;    0,591
798,507; 1875,340;   -0,451;   -0,955
799,073; 1865,635;   -0,360;    0,591
799,639; 1956,930;   -2,632;    3,136
800,205; 1900,952;    0,095;    2,682
800,770; 1850,246;    0,640;    1,773
801,336; 1797,359;    1,368;   -0,955
801,901; 2411,927;    4,549;    3,136
802,467; 2166,949;   -0,542;    2,045
803,033; 1826,153;   -0,087;    0,864
803,598; 1828,084;    1,913;   -1,045
804,163; 1883,106;    1,095;   -0,318
804,729; 1988,310;   -0,178;    1,136
805,294; 1925,059;    0,822;    2,227
805,859; 1789,627;    0,731;   -0,409
806,425; 2165,194;    1,186;    2,682
806,990; 2121,125;    2,186;    4,318
807,555; 1943,602;   -1,451;    2,591
808,120; 2098,806;    0,822;   -0,409
808,685; 1839,555;    0,185;   -2,500
809,250; 1696,123;    0,004;   -0,500
809,815; 1774,872;    1,913;    0,682
810,380; 1987,712;   -0,269;    1,591
810,945; 2133,553;   -1,087;    2,045
811,510; 1962,029;    2,094;    1,591
812,075; 1881,233;   -0,633;   -1,409
812,640; 2168,164;    2,003;    1,409
813,204; 1966,641;    0,822;   -0,227
813,769; 2171,208;    2,094;   -0,045
814,334; 2118,685;    0,458;    0,864
814,898; 1880,343;    0,367;    0,591
815,463; 1891,275;    1,276;   -0,773
816,027; 1828,024;   -0,724;   -2,318
816,592; 1851,319;    0,640;   -2,045
817,156; 1871,341;    2,094;    1,136
817,721; 1937,817;    4,276;    2,318
818,285; 1732,749;    2,912;    1,500
818,849; 1866,589;   -1,451;    1,682
819,414; 1765,429;   -0,269;    2,955
819,978; 1706,542;   -1,269;    1,773
820,542; 2111,291;    2,003;    0,500
821,106; 1922,859;   -0,815;    0,682
821,670; 2082,972;   -0,815;    2,591
822,234; 1844,085;   -0,270;    1,409
822,798; 1704,652;    0,003;    0,500
823,362; 2022,947;   -0,633;    4,227
823,926; 1718,060;    0,094;    1,136
824,490; 1929,446;   -0,997;   -0,682
825,054; 1849,104;   -0,088;   -1,136
825,618; 1701,308;   -1,542;   -1,500
826,181; 1717,694;    0,458;   -1,318
826,745; 1779,625;    1,367;   -1,045
827,309; 2067,283;    1,185;    1,318
827,872; 1914,760;    1,367;    0,955
828,436; 1897,509;    1,185;   -0,773
828,999; 1865,259;   -0,997;    1,227
829,563; 1764,917;   -0,179;    1,136
830,126; 1713,121;   -0,179;   -0,591
830,690; 1708,325;   -1,997;    2,864
831,253; 1598,892;   -0,543;    2,227
831,816; 1666,823;   -1,906;    0,500
832,380; 1579,300;    0,185;    0,864
832,943; 1613,777;   -1,361;   -0,500
833,506; 1616,162;    2,639;   -1,227
834,069; 1843,548;    3,912;   -0,955
834,632; 1738,843;    1,730;    1,318
835,195; 1742,865;    1,003;    0,955
835,758; 1638,342;   -0,997;    1,955
836,321; 1586,182;    0,730;   -1,045
836,884; 1594,840;   -0,725;   -0,955
837,447; 1585,317;   -2,816;    1,773
838,010; 1714,793;    0,366;    3,227
838,573; 1800,270;   -1,179;    0,773
839,135; 1709,110;   -1,361;   -0,955
839,698; 1629,951;    1,275;    0,409
840,261; 1575,973;    1,003;   -0,227
840,823; 1526,449;   -0,543;    0,864
841,386; 1514,199;   -0,452;   -2,409
841,948; 1864,675;   -1,361;    1,773
842,511; 1571,788;    0,912;    1,682
843,073; 1842,447;    1,912;    0,227
843,636; 1575,105;   -0,361;   -0,227
844,198; 1796,854;    0,911;    0,591
844,760; 1766,695;    1,093;    1,955
845,322; 1518,717;    0,548;    1,136
845,885; 1675,648;    0,730;    0,591
846,447; 1669,306;   -1,998;    0,227
847,009; 1981,692;    1,911;   -0,682
847,571; 1667,623;    0,820;   -2,045
848,133; 1635,009;   -1,089;   -1,864
848,695; 1488,667;   -0,543;    1,409
849,257; 1555,144;   -1,089;   -1,682
849,819; 1742,166;   -0,998;   -0,409
850,381; 1592,006;   -0,725;   -0,864
850,942; 1670,937;    1,093;   -0,591
851,504; 1691,596;    1,184;    0,227
852,066; 1606,436;    1,275;   -1,591
852,628; 1608,003;   -0,180;    1,955
853,189; 1419,571;    1,638;    2,682
853,751; 1485,775;   -0,907;    1,409
854,312; 1665,070;   -0,453;   -1,682
854,874; 1827,183;   -2,089;   -0,773
855,435; 1651,477;   -0,907;   -1,682
855,997; 1767,772;   -1,816;   -0,136
856,558; 1762,976;    0,366;    1,773
857,119; 1613,453;    0,820;    2,864
857,681; 1457,566;    0,002;    0,318
858,242; 1687,770;    1,911;   -2,136
858,803; 1786,701;    0,456;   -0,773
859,364; 1726,632;    0,184;   -4,773
859,925; 1737,199;   -2,453;   -0,955
860,486; 1640,040;   -0,453;   -0,955
861,047; 1492,607;   -0,544;   -1,227
861,608; 1520,720;   -1,089;   -0,773
862,169; 1474,560;    0,638;   -0,045
862,730; 1520,582;    0,456;    1,409
863,291; 1584,514;   -0,635;   -0,500
863,852; 1581,899;   -0,635;    1,955
864,412; 1515,649;   -0,271;   -0,864
864,973; 1665,307;   -0,089;    0,500
865,534; 1826,511;   -1,726;    0,227
866,094; 1661,169;    1,820;    0,227
866,655; 1749,464;    1,274;    3,318
867,215; 1625,123;    0,274;    0,136
867,776; 1506,235;    0,547;   -0,136
868,336; 1548,712;   -1,453;    0,136
868,897; 1942,371;    2,638;    1,682
869,457; 1711,665;    1,365;    0,318
870,017; 1553,778;    0,547;   -1,227
870,578; 1564,709;   -0,817;    0,773
871,138; 1526,822;   -2,089;   -0,955
871,698; 1395,754;   -0,817;   -1,318
872,258; 1533,048;   -0,453;   -2,864
872,818; 1768,434;    2,729;    0,045
873,378; 1570,547;    0,638;    1,045
873,938; 1492,751;    0,547;    0,500
874,498; 1405,682;    0,274;   -1,955
875,058; 1456,250;    2,183;    1,773
875,618; 1458,635;    1,910;   -2,682
876,177; 1515,294;    1,274;    0,136
876,737; 1284,679;   -0,090;    1,955
877,297; 1736,247;    0,183;    1,955
877,856; 1646,269;   -0,362;    0,318
878,416; 1383,473;    1,183;   -0,136
878,976; 1380,495;   -1,817;    0,409
879,535; 1433,972;    0,092;    3,136
880,095; 1416,994;   -0,544;    0,045
880,654; 1313,379;   -1,090;    1,318
881,213; 1669,856;    2,456;    1,500
881,773; 1467,969;    2,637;    2,682
882,332; 2100,355;    3,365;    5,136
882,891; 1505,195;    3,092;    2,136
883,451; 1519,308;   -1,272;    1,682
884,010; 1397,966;   -2,908;   -0,409
884,569; 1379,534;   -0,999;   -0,045
885,128; 1594,283;    2,819;   -1,864
885,687; 1910,123;    4,455;    0,682
886,246; 2077,600;    1,455;    2,136
886,805; 1757,440;    2,455;    2,045
887,364; 1424,099;   -0,999;   -0,500
887,922; 1342,848;   -1,181;    0,045
888,481; 1477,052;   -1,545;    0,591
889,040; 1653,347;    1,183;    2,136
889,599; 1528,641;    2,455;    1,409
890,157; 1535,027;    1,455;    2,409
890,716; 1438,231;   -0,090;    0,227
891,274; 1535,253;    0,092;   -1,136
891,833; 1643,275;    1,546;    0,864
892,391; 1436,297;   -0,454;    0,500
892,950; 1643,228;    1,819;   -0,773
893,508; 1454,250;    0,455;   -0,409
894,067; 1284,272;    0,637;    0,136
894,625; 1394,385;   -0,636;   -1,500
895,183; 1373,498;   -0,363;   -0,682
895,741; 1700,884;    1,728;   -1,773
896,299; 1456,452;   -0,545;   -2,409
896,858; 1366,746;    0,819;   -1,591
897,416; 1502,859;    2,728;   -1,318
897,974; 1435,881;    1,819;    0,318
898,532; 1934,722;    6,091;    2,682
899,089; 1568,016;    2,091;   -0,682
899,647; 1452,584;   -1,454;    1,318
900,205; 1509,697;    1,182;    1,045
900,763; 1502,264;   -0,454;    0,227
901,321; 1475,014;    2,364;   -1,409
901,878; 1262,763;   -1,000;   -0,773
902,436; 1323,331;   -1,363;    1,318
902,994; 2161,353;    4,728;    3,682
903,551; 1627,829;    0,728;    0,409
904,109; 1521,306;    0,182;   -1,409
904,666; 1446,692;    2,455;    1,045
905,224; 1311,441;    0,182;   -0,409
905,781; 1473,645;    0,727;   -0,318
906,338; 1384,849;   -1,363;    1,045
906,895; 1271,053;    0,637;    2,045
907,453; 1561,438;    1,727;    1,136
908,010; 1399,551;   -0,909;    0,409
908,567; 1323,119;    1,273;    0,591
909,124; 1121,505;    0,364;   -1,500
909,681; 1193,163;   -2,909;    0,682
910,238; 1285,367;    0,636;   -1,318
910,795; 1269,480;   -0,273;   -1,136
911,352; 1259,934;   -2,909;   -2,682
911,909; 1243,298;   -1,364;   -0,864
912,466; 1297,662;   -3,182;    1,500
913,022; 1300,298;   -1,636;    0,500
913,579; 1430,298;   -0,909;    2,045
914,136; 1285,298;    1,636;    0,955
914,692; 1356,116;    0,091;   -1,227
915,249; 1289,389;    1,455;    0,409
915,806; 1379,753;    0,182;    1,955
916,362; 1288,116;    1,909;    1,864
916,918; 1169,389;    2,000;    1,045
917,475; 1398,662;   -1,182;    0,955
918,031; 1204,934;    3,364;   -0,045
918,587; 1274,298;   -0,909;   -0,318
919,144; 1190,207;   -2,273;    0,227
919,700; 1146,025;    1,727;    0,773
920,256; 1108,025;    0,727;    0,045
920,812; 1130,298;   -0,727;   -1,045
921,368; 1099,662;   -1,727;   -1,045
921,924; 1076,298;    0,182;   -0,136
922,480; 1179,298;   -0,545;    1,227
923,036; 1212,571;    1,273;    1,955
923,592; 1107,480;    0,455;    0,318
924,148; 1144,116;    0,455;   -0,955
924,704; 1286,025;   -1,364;   -0,409
925,259; 1129,116;   -0,273;    0,591
925,815; 1061,934;    1,455;    0,500
926,371; 1016,298;    2,909;    1,409
926,926; 1189,298;    2,091;    0,591
927,482; 1138,753;   -1,364;    0,773
928,037; 1055,571;    0,909;    2,045
928,593; 1292,298;    1,636;    1,045
929,148; 1029,662;   -1,818;   -1,500
929,704; 1084,298;   -1,455;   -0,500
930,259;  966,207;    0,091;   -0,136
930,814; 1176,843;   -0,818;    1,955
931,369; 1101,025;    1,091;   -0,773
931,925;  880,934;   -0,091;    0,136
932,480;  988,025;   -2,818;   -2,591
933,035; 1387,934;    0,545;   -0,318
933,590; 1258,662;    0,364;   -1,773
934,145;  816,298;   -1,364;   -0,318
934,700;  724,571;    0,455;   -0,591
935,255;  803,843;   -0,091;    0,045
935,809; 1144,480;    3,182;    0,864
936,364;  735,843;   -0,455;   -0,136
936,919;  741,843;    0,455;   -1,773
937,474;  653,389;    1,455;    0,136
938,028;  683,480;   -1,636;    1,136
938,583; 1106,753;    1,818;    4,682
939,138;  741,207;    2,091;    2,136
939,692;  588,662;    1,636;   -1,136
940,247;  630,934;   -0,727;   -1,045
940,801;  701,843;   -0,636;    0,227
941,355;  593,207;   -0,364;    2,591
941,910;  467,480;   -0,273;   -2,136
942,464;  517,116;   -0,818;   -0,318
943,018;  799,934;    1,000;   -0,227
943,572;  602,843;    2,545;   -0,682
944,126;  655,662;    0,091;   -0,409
944,681;  523,480;    3,091;    0,227
945,235;  458,480;    1,000;   -0,591
945,789;  415,480;    0,364;   -1,864
946,342;  750,207;    0,455;   -0,591
946,896;  468,934;   -2,273;    0,955
947,450;  444,389;    1,545;   -0,227
948,004;  722,025;    1,727;   -0,045
948,558;  507,480;    0,273;   -0,864
949,111;  498,753;   -0,273;   -0,318
949,665;  723,207;    1,636;   -0,682
950,219;  672,934;   -0,091;   -1,045
950,772;  597,207;   -1,909;    1,864
951,326;  586,571;    0,545;   -0,955
951,879;  497,389;    0,727;   -2,318
952,433;  649,934;    0,000;    2,227
952,986;  461,571;    2,909;    0,682
953,539;  417,662;   -0,273;    0,591
954,093;  355,389;    0,545;   -1,318
954,646;  519,298;    0,909;    1,318
955,199;  433,389;    0,000;   -0,500
955,752;  653,571;   -0,455;    1,773
956,305;  481,116;   -0,091;    2,955
956,858;  542,116;    0,818;   -0,318
957,411;  615,025;   -0,545;    2,136
957,964;  501,571;    1,364;    2,136
958,517;  415,753;   -1,545;    3,136
959,070;  364,843;   -0,455;    1,955
959,623;  676,025;    1,091;    1,500
960,176;  612,753;    1,727;    2,045
960,728;  585,207;   -2,727;    0,773
961,281;  522,207;    0,545;    0,500
961,834;  434,025;   -0,909;    0,864
962,386;  437,025;    1,727;    1,045
962,939;  392,934;    0,364;   -0,318
963,491;  438,843;    0,455;    1,136
964,043;  366,843;    1,182;    2,409
964,596;  575,662;   -1,000;    2,227
965,148;  468,480;   -1,000;    1,773
965,700;  370,207;    1,091;   -0,227
966,253;  547,116;   -0,636;    0,318
966,805;  513,934;   -2,273;    0,773
967,357;  434,116;    1,091;   -1,500
967,909;  553,843;    0,455;   -1,227
968,461;  426,025;    0,545;    3,136
969,013;  373,934;   -0,182;   -0,864
969,565;  540,843;   -0,455;   -1,136
970,117;  806,025;   -0,364;    1,045
970,669;  542,662;    0,182;   -0,136
971,220;  322,298;   -0,455;   -1,500
971,772;  421,207;   -0,636;   -0,318
972,324;  528,934;    0,091;   -0,500
972,876;  429,753;    0,818;   -0,045
973,427;  567,480;    1,909;   -1,045
973,979;  630,480;   -0,727;   -2,500
974,530;  405,116;    1,818;    1,318
975,082;  481,571;   -0,545;    1,682
975,633;  421,025;    1,091;    1,682
976,184;  490,480;    0,909;    0,773
976,736;  481,480;    0,091;    0,227
977,287;  496,298;   -0,909;   -0,500
977,838;  452,753;    0,909;   -0,318
978,389;  464,843;   -1,000;   -0,500
978,940;  316,934;    0,545;   -0,409
979,491;  313,843;    0,091;   -0,500
980,042;  415,753;    0,182;    3,045
980,593;  423,389;   -2,545;    0,227
981,144;  530,934;    2,545;   -0,500
981,695;  584,025;    1,455;    1,500
982,246;  515,571;   -0,273;    1,045
982,797;  367,843;   -1,727;    0,682
983,347;  529,025;    0,364;    0,591
983,898;  744,662;    3,091;    0,409
984,449;  699,298;    2,182;    0,773
984,999;  523,662;    1,455;   -1,136
985,550;  479,025;    0,182;   -0,318
986,100;  322,843;   -0,455;   -0,318
986,651;  318,934;   -0,818;    0,045
987,201;  357,207;   -1,000;   -0,591
987,751;  369,298;    0,818;    2,864
988,302;  430,480;    2,636;    1,500
988,852;  471,389;    0,455;   -1,136
989,402;  541,207;    0,091;    0,682
989,952;  563,480;   -2,182;    0,864
990,502;  396,116;   -0,091;    0,682
991,052;  292,207;   -0,727;    0,045
991,602;  339,843;   -2,909;    1,318
992,152;  398,843;    0,455;    0,682
992,702;  435,934;    1,364;   -0,045
993,252;  377,753;   -3,000;   -0,500
993,802;  486,753;   -0,273;    1,318
994,352;  435,843;   -1,545;    1,136
994,901;  336,753;   -0,182;    3,227
995,451;  325,843;   -0,182;    0,318
996,000;  365,662;    1,636;    0,318
996,550;  372,480;    2,273;    0,227
997,100;  414,116;    1,273;   -0,045
997,649;  561,025;    2,182;    0,955
998,198;  367,934;    1,727;   -1,500
998,748;  494,753;    1,091;   -2,318
999,297;  413,298;   -0,818;   -0,409
999,846;  558,116;    1,000;   -0,773
1000,395;  465,298;   -0,818;    0,500
1000,945;  590,571;    1,818;   -0,773
1001,494;  587,662;    2,364;    0,682
1002,043;  564,298;    4,636;    0,864
1002,592;  363,571;   -1,091;    1,955
1003,141;  368,934;   -0,455;   -0,682
1003,690;  538,571;    1,727;    0,500
1004,238;  410,298;    1,455;   -0,045
1004,787;  314,207;    1,364;    1,227
1005,336;  517,298;    0,364;    0,682
1005,885;  459,389;    1,364;   -2,773
1006,433;  445,753;    0,545;    0,955
1006,982;  663,934;    0,455;    1,682
1007,531;  486,116;   -1,818;   -0,227
1008,079;  434,662;   -2,273;    0,500
1008,627;  364,843;   -1,455;    0,409
1009,176;  390,662;    0,000;   -1,955
1009,724;  339,207;    1,091;    0,864
1010,273;  510,480;    1,273;    0,500
1010,821;  374,843;    0,091;    1,409
1011,369;  330,116;   -1,364;    1,318
1011,917;  360,662;   -1,364;   -0,591
1012,465;  448,934;    1,273;   -1,591
1013,013;  435,025;    2,091;   -1,682
1013,561;  547,389;    0,455;   -0,773
1014,109;  642,025;   -1,909;    1,682
1014,657;  508,843;    0,364;    0,591
1015,205;  396,753;    1,636;   -0,955
1015,753;  331,025;   -0,545;   -1,409
1016,301;  423,207;   -2,636;    3,045
1016,848;  506,207;   -1,273;    0,409
1017,396;  501,934;    2,545;    0,045
1017,944;  495,025;    1,182;    1,864
1018,491;  391,480;    0,273;    1,409
1019,039;  734,843;    0,455;    0,591
1019,586;  471,116;   -1,364;    1,682
1020,134;  451,934;    0,455;    1,500
1020,681;  538,571;    0,182;   -1,136
1021,228;  434,843;    2,909;   -2,227
1021,776;  419,207;    1,182;   -1,136
1022,323;  661,480;    0,455;    0,773
1022,870;  558,753;   -1,000;   -0,045
1023,417;  615,753;    2,636;    1,864
1023,964;  429,480;    2,636;    1,227
1024,511;  406,571;    1,000;    0,773
1025,058;  438,389;    3,182;   -0,045
1025,605;  396,934;   -2,273;    3,136
1026,152;  617,025;    1,727;   -0,591
1026,699;  465,116;    1,818;    1,318
1027,245;  442,753;   -0,091;    0,318
1027,792;  378,116;   -1,000;    1,409
1028,339;  612,389;    2,364;   -0,045
1028,885;  463,389;    1,000;   -0,227
1029,432;  409,662;   -0,091;    0,227
1029,978;  530,389;   -1,000;   -1,591
1030,525;  517,480;    1,000;    0,409
1031,071;  373,571;   -1,364;    1,136
1031,618;  680,116;    0,364;    1,682
1032,164;  503,934;   -0,091;    3,045
1032,710;  554,934;    1,636;   -1,500
1033,256;  510,025;   -0,636;   -0,136
1033,803;  358,934;   -0,545;    1,500
1034,349;  215,753;   -1,364;    0,136
1034,895;  272,389;    0,000;   -0,318
1035,441;  351,025;   -0,818;    0,318
1035,987;  401,480;   -2,364;   -0,682
1036,533;  475,934;   -1,455;   -0,955
1037,078;  684,662;    1,455;    1,682
1037,624;  529,025;    2,455;   -0,955
1038,170;  392,571;    0,455;   -0,318
1038,716;  478,389;    1,636;   -0,409
1039,261;  344,934;   -2,273;   -0,773
1039,807;  359,662;   -0,091;    3,409
1040,352;  401,662;   -1,909;   -0,318
1040,898;  392,298;   -1,545;   -0,682
1041,443;  306,480;   -1,455;   -2,591
1041,989;  620,843;    1,091;    1,591
1042,534;  407,843;   -0,364;    2,591
1043,079;  304,025;    2,909;    0,955
1043,625;  415,207;    1,818;    0,500
1044,170;  431,298;   -1,364;    1,045
1044,715;  640,389;    2,455;    0,955
1045,260;  525,843;    2,182;   -0,955
1045,805;  371,662;    1,182;   -0,591
1046,350;  332,753;    1,364;   -0,409
1046,895;  524,934;    2,909;    1,591
1047,440;  518,753;    5,364;    0,409
1047,985;  378,207;    2,818;   -0,955
1048,530;  343,480;    1,545;    1,227
1049,074;  411,298;    0,000;    0,318
1049,619;  342,662;   -1,364;    1,955
1050,164;  328,571;    0,455;    0,227
1050,708;  419,298;   -0,455;    0,045
1051,253;  674,389;    1,273;   -2,227
1051,797;  463,298;    0,818;   -1,318
1052,342;  291,207;   -1,182;    1,045
1052,886;  398,116;    0,364;   -1,409
1053,430;  270,753;   -1,364;    0,136
1053,975;  371,025;   -0,818;   -0,318
1054,519;  388,389;   -0,727;    3,227
1055,063;  453,753;    0,909;    1,318
1055,607;  432,389;   -0,182;    0,227
1056,151;  427,843;    2,909;    1,682
1056,695;  346,480;    2,273;   -1,136
1057,239;  334,571;   -1,727;   -0,682
1057,783;  380,389;    0,818;   -1,500
1058,327;  457,480;    0,000;    1,409
1058,871;  603,662;   -0,545;    1,318
1059,415;  475,480;   -0,818;   -0,045
1059,958;  639,298;    1,455;    2,591
1060,502;  385,571;   -1,000;   -0,773
1061,046;  277,934;    0,364;   -0,955
1061,589;  258,389;   -3,000;   -1,136
1062,133;  233,934;   -1,273;    1,864
1062,676;  281,571;    1,182;    0,864
1063,220;  319,025;    1,091;    0,500
1063,763;  344,934;    0,909;    1,136
1064,306;  376,480;   -0,909;    1,864
1064,849;  370,389;   -0,909;    0,591
1065,393;  344,298;    2,000;   -1,500
1065,936;  350,753;    0,182;   -0,409
1066,479;  261,389;   -1,455;    1,318
1067,022;  289,207;   -0,273;   -0,227
1067,565;  257,843;   -0,091;   -1,318
1068,108;  227,934;    0,727;   -0,591
1068,651;  204,389;   -0,636;    1,409
1069,194;  214,571;   -0,455;   -1,682
1069,736;  238,843;   -1,273;    0,955
1070,279;  205,480;   -1,364;   -0,500
1070,822;  308,116;   -2,000;   -0,318
1071,364;  446,753;   -0,364;    1,318
1071,907;  286,389;   -0,727;    3,227
1072,450;  138,389;    0,000;   -0,045
1072,992;  224,298;   -0,273;    3,136
1073,535;  302,116;    2,091;    2,136
1074,077;  211,934;   -0,727;    2,045
1074,619;  204,843;   -1,364;    0,591
1075,161;  240,934;   -1,091;    1,500
1075,704;  370,662;    1,545;    1,227
1076,246;  226,207;   -0,182;    0,682
1076,788;  160,298;   -0,364;    1,773
1077,330;  161,934;    1,273;    2,136
1077,872;  212,389;    0,909;    0,955
1078,414;  393,389;    2,727;    0,773
1078,956;  241,571;    1,273;   -0,227
1079,498;  393,025;    1,636;    0,318
1080,040;  242,116;    1,909;   -1,318
1080,581;  196,116;    1,636;   -0,318
1081,123;  134,662;    0,091;   -0,773
1081,665;  148,571;   -1,182;   -0,955
1082,206;  346,116;    1,364;   -0,500
1082,748;  261,571;    0,727;    2,045
1083,289;  166,662;   -2,000;    1,318
1083,831;  161,025;   -0,545;    0,227
1084,372;  209,753;    0,000;    0,591
1084,913;  206,571;    1,091;    0,864
1085,455;  151,480;   -1,909;   -2,045
1085,996;  150,480;   -2,273;    0,136
1086,537;  187,116;   -0,091;    0,864
1087,078;  201,025;   -0,909;   -2,136
1087,619;  250,934;   -1,273;    0,227
1088,160;  208,207;    0,000;    1,318
1088,701;  183,662;   -1,091;    0,682
1089,242;  168,025;    1,364;   -2,227
1089,783;  221,389;   -0,273;    1,409
1090,324;  201,662;    0,455;    0,682
1090,865;  142,934;    2,727;   -0,409
1091,405;  113,662;    0,727;    2,227
1091,946;  159,753;    0,182;   -0,955
1092,487;  106,480;    0,818;   -1,409
1093,027;  227,025;   -1,364;   -1,500
1093,568;  153,843;   -0,364;    1,227
1094,108;  190,116;    0,273;    1,773
1094,649;  158,934;   -1,182;    0,136
1095,189;  123,571;   -0,636;   -0,682
1095,729;  122,298;   -0,091;    0,955
1096,269;  112,843;    0,727;   -0,955
1096,810;  275,934;   -1,364;    0,500
1097,350;  208,025;    1,364;   -0,773
1097,890;  156,389;    0,364;    1,227
1098,430;  323,843;    2,364;    2,864
1098,970;  260,934;    2,182;    1,682
1099,510;  142,025;    0,545;   -2,318
1100,050;  124,480;    1,000;   -1,591
1100,589;  134,934;   -0,727;   -0,318
1101,129;  185,662;    0,818;   -0,955
1101,669;  270,207;    1,727;    2,136
1102,209;  191,753;   -0,091;    2,227
1102,748;  157,934;    0,000;    0,955
1103,288;  165,843;    1,273;   -1,227
1103,827;  153,298;    3,091;   -2,227
1104,367;  112,389;   -0,091;   -2,409
1104,906;  116,025;    1,364;   -1,136
1105,445;  159,480;    0,636;   -1,136
1105,985;  131,116;   -0,727;    1,500
1106,524;  149,389;   -1,727;   -0,682
1107,063;  141,025;   -2,727;    1,409
1107,602;  109,753;   -1,909;   -1,500
1108,141;   91,389;   -1,909;    1,500
1108,680;  156,934;   -3,455;   -0,591
1109,219;  132,207;   -0,909;   -0,500
1109,758;  121,934;    0,455;    0,682
1110,297;  116,753;    1,000;   -0,682
1110,836;   86,571;   -0,727;    0,955
1111,375;  130,298;   -2,545;    0,409
1111,913;  162,571;   -1,000;    0,773
1112,452;  134,207;   -0,273;    0,136
1112,991;   83,843;    1,091;    1,955
1113,529;   83,753;   -0,818;   -0,045
1114,068;  115,753;   -0,273;    2,955
1114,606;   80,389;   -0,364;   -0,955
1115,144;  151,571;   -1,273;    1,045
1115,683;  118,843;   -0,727;    0,318
1116,221;  150,298;   -0,455;   -0,864
1116,759;   95,843;    0,636;   -0,864
1117,297;  185,480;    0,000;    1,864
1117,836;  103,389;   -2,182;   -1,227
1118,374;  107,843;    0,182;   -0,682
1118,912;  104,753;    0,909;    2,682
1119,450;  101,480;    1,000;    0,864
1119,988;  102,025;    1,545;    2,136
1120,525;  376,480;    5,091;    3,318
1121,063;  194,389;    1,182;    1,864
1121,601;  101,207;   -0,909;   -1,227
1122,139;   82,298;   -0,727;   -2,045
1122,676;  191,843;   -0,727;    2,773
1123,214;  158,843;   -1,182;    4,409
1123,751;   72,843;    1,727;    2,227
1124,289;  115,025;   -0,091;   -0,409
1124,826;   81,207;    1,727;    0,227
1125,364;   46,843;    1,727;   -0,955
1125,901;  148,116;    1,182;    1,227
1126,438;  163,843;    0,818;    0,955
1126,975;   53,662;   -0,727;   -0,773
1127,513;   77,389;    0,273;    2,136
1128,050;   54,298;    1,636;   -0,682
1128,587;   88,753;    2,000;   -0,227
1129,124;  113,843;    0,091;    1,318
1129,661;   66,298;    0,273;    0,227
1130,198;  142,662;    1,636;    0,773
1130,734;  102,662;    0,182;    1,409
1131,271;   47,662;   -0,909;    0,864
1131,808;  117,571;    2,909;    3,045
1132,345;   71,025;    1,545;    0,318
1132,881;   24,843;   -1,545;   -1,864
1133,418;   84,571;    0,727;   -1,136
1133,954;   56,207;    2,455;   -2,682
1134,491;   91,480;    1,364;   -0,773
1135,027;   53,298;    2,364;    0,864
1135,564;   82,934;    0,273;    2,955
1136,100;   76,571;    0,364;    2,136
1136,636;   40,389;   -1,273;   -1,045
1137,172;   68,389;    0,000;   -1,045
1137,708;   48,389;   -1,364;   -1,045
1138,245;   39,571;    1,273;   -1,227
1138,781;   27,662;    1,091;   -3,318
1139,317;   55,934;    1,273;   -1,409
1139,852;   61,025;    3,091;    0,136
1140,388;   90,207;   -1,182;   -0,409
1140,924;   50,389;   -1,091;   -2,227
1141,460;   30,934;   -1,636;    0,136
1141,996;   16,025;   -1,364;    2,682
1142,531;   29,389;    1,364;    3,318
1143,067;  109,934;    1,182;    1,045
1143,602;  140,753;   -0,091;   -0,318
1144,138;   71,934;   -2,636;    1,045
1144,673;   30,571;   -1,455;    1,409
1145,209;   49,843;   -1,909;   -0,318
1145,744;   24,753;   -0,727;    0,864
1146,279;   64,116;    1,818;   -0,136
1146,815;   39,571;    1,545;   -2,682
1147,350;   58,662;   -1,364;    0,045
1147,885;   26,571;   -0,818;   -1,318
1148,420;   28,934;   -2,273;    0,773
1148,955;   23,207;   -1,727;    1,864
1149,490;   29,389;   -0,909;   -1,591
1150,025;   20,753;    0,455;   -1,773
1150,560;   64,571;    1,091;   -0,955
1151,094;   49,843;    1,455;   -0,591
1151,629;   52,116;    1,636;    0,864
1152,164;   30,753;    1,364;    1,318
1152,698;   22,116;   -0,182;   -0,136
1153,233;   11,571;    0,091;   -0,682
1153,767;   26,298;   -3,000;   -2,318
1154,302;   35,934;   -1,455;    1,773
1154,836;   37,207;   -0,455;   -2,136
1155,371;   47,025;   -1,364;    3,682
1155,905;   34,116;   -0,636;    1,682
1156,439;   31,207;   -0,636;   -0,500
1156,973;   38,662;    0,364;    0,318
1157,507;   20,843;   -0,364;    0,682
1158,042;   29,207;   -0,727;    1,045
1158,576;   39,389;    0,182;    1,773
1159,110;   39,025;   -0,818;    2,409
1159,643;   29,753;    0,636;   -0,045
1160,177;   13,025;   -1,545;    1,500

