
Integration time [ms]:   0,040
Averaging Nr. [scans]: 11
Smoothing Nr. [pixels]: 0
Data measured with spectrometer [name]: 7318044SP
Wave   ;Sample   ;Dark     ;Reference
[nm]   ;[counts] ;[counts] ;[counts] 

186,757;   40,494;   31,551;    1,318
187,357;   47,441;   22,551;    0,955
187,958;   29,928;   15,460;   -1,591
188,558;   46,840;    8,915;   -1,227
189,159;   30,467;    6,733;   -4,500
189,759;   15,001;    7,278;   -3,591
190,360;   14,254;    2,824;   -2,136
190,960;   27,220;    2,915;   -4,136
191,560;   37,539;    3,189;   -6,591
192,161;  157,286;    4,372;   -3,500
192,761;   86,317;    4,010;   -3,227
193,361;   54,697;    1,556;   -3,773
193,962;   78,945;    2,010;   -2,682
194,562;   30,573;    1,189;   -3,955
195,162;   35,786;   -2,448;   -2,227
195,762;  100,401;   -3,176;   -0,045
196,362;   73,780;    1,370;   -2,500
196,963;   24,296;    2,006;   -0,864
197,563;   53,940;    1,551;   -0,955
198,163;   25,070;    0,096;   -0,682
198,763;   35,741;    1,733;   -0,500
199,363;   67,765;    3,096;   -0,500
199,963;   46,411;    0,369;    0,409
200,563;   42,074;    2,823;   -1,409
201,163;   32,582;    3,277;   -0,227
201,763;   56,447;    3,732;    0,318
202,363;   38,342;    1,459;    1,500
202,963;   63,671;    1,459;    1,045
203,563;  114,850;    0,277;    0,500
204,162;   55,885;    2,096;   -1,864
204,762;   52,083;    0,550;    0,591
205,362;   32,293;    3,004;    1,955
205,962;   62,483;    3,096;    1,955
206,562;   62,581;    1,823;    2,318
207,161;   43,359;   -0,087;    0,318
207,761;  129,038;    1,277;    2,409
208,361;   62,266;   -0,268;    1,409
208,960;   87,815;    0,459;    1,500
209,560;   92,746;    1,277;    1,591
210,160;  106,440;    0,550;    1,864
210,759;   82,355;    4,186;    1,227
211,359;   71,787;    1,459;    1,045
211,958;  201,467;    1,277;    2,045
212,558;  224,323;    1,732;    1,864
213,157;  145,801;    1,822;    1,500
213,757;  338,204;    3,822;   -0,227
214,356;  185,520;    1,277;   -0,409
214,956;  337,170;    3,095;    0,409
215,555;  158,612;    2,095;    2,136
216,154;  118,797;   -2,723;   -0,591
216,754;  124,506;    0,277;    0,773
217,353;  157,591;   -0,268;   -1,045
217,952;   69,431;   -0,178;    0,318
218,552;  202,531;    1,368;   -0,773
219,151;  133,367;    0,277;    0,955
219,750;  126,904;    0,004;   -0,227
220,349;  112,026;   -0,451;    1,045
220,948;  228,423;   -1,360;    1,136
221,548;  150,659;    0,913;    1,227
222,147;  190,618;   -0,087;   -0,409
222,746;  349,396;   -0,451;   -0,955
223,345;  239,259;    0,731;    0,500
223,944;  250,633;   -0,451;    0,773
224,543;  277,973;    1,004;   -1,409
225,142;  307,887;    0,094;    0,136
225,741;  281,238;   -0,814;    1,045
226,340;  256,012;   -0,451;   -0,955
226,939;  428,055;   -0,996;   -0,136
227,538;  265,396;   -0,360;   -0,773
228,137;  425,163;   -0,814;    0,864
228,735;  373,336;   -0,541;    1,227
229,334;  239,682;   -0,905;   -0,227
229,933;  470,342;    0,459;    0,591
230,532;  508,691;    1,186;   -0,409
231,131;  594,441;    1,732;    0,318
231,729;  452,025;   -2,450;   -2,318
232,328;  376,178;   -0,723;   -1,500
232,927;  388,749;    1,004;   -0,500
233,525;  366,305;    3,640;    0,045
234,124;  441,415;    2,368;   -1,591
234,723;  348,213;    0,913;   -1,045
235,321;  350,715;    2,277;    0,136
235,920;  414,943;    1,186;   -1,227
236,518;  619,082;    3,459;    0,318
237,117;  426,120;    0,004;   -0,227
237,715;  445,052;    0,640;   -0,500
238,314;  519,990;   -0,087;   -2,318
238,912;  705,356;   -0,723;   -1,409
239,510;  547,230;    0,459;   -1,227
240,109;  709,227;    0,004;    3,773
240,707;  657,995;   -0,996;    1,227
241,305;  484,333;    0,550;    0,136
241,904;  628,514;   -0,178;   -2,045
242,502;  747,086;   -0,632;   -0,227
243,100;  617,307;   -0,087;   -0,955
243,698;  561,330;    0,732;    1,682
244,297;  608,055;   -0,632;    0,682
244,895;  606,515;   -0,269;   -2,318
245,493;  843,055;    2,186;   -0,591
246,091;  822,744;    1,368;   -1,318
246,689;  752,099;    1,004;    0,591
247,287;  700,815;    0,822;   -1,136
247,885;  663,446;   -1,451;    1,227
248,483;  628,985;    1,822;   -0,500
249,081;  727,247;    0,185;    1,591
249,679;  797,124;   -0,178;    1,682
250,277;  646,202;   -1,723;    0,864
250,875;  797,316;   -1,087;   -1,045
251,473;  673,313;   -1,178;    0,500
252,071;  792,439;    1,459;    1,045
252,669;  714,542;   -1,814;    0,318
253,267;  647,934;   -0,087;    0,773
253,864;  686,269;   -0,360;    0,682
254,462;  890,965;    1,640;    1,591
255,060;  631,557;   -0,269;    1,318
255,658;  623,906;    0,822;   -0,136
256,255;  760,442;    0,186;   -2,045
256,853;  796,355;   -0,269;    1,409
257,451;  767,765;    0,822;    1,864
258,048; 1280,812;    1,822;    1,864
258,646;  888,683;    1,731;   -1,045
259,243; 1021,446;   -0,087;    2,227
259,841;  885,912;   -0,814;    0,318
260,438;  702,634;   -0,087;    0,864
261,036;  873,430;   -1,905;    1,409
261,633;  775,651;   -0,087;    2,227
262,231;  709,064;    2,731;   -0,045
262,828;  727,914;   -0,905;    1,136
263,425;  786,340;    0,913;   -0,591
264,023;  793,375;    0,186;    0,045
264,620;  951,575;   -0,360;   -0,318
265,217; 1107,006;   -2,087;    3,136
265,815;  780,957;   -1,905;    2,136
266,412;  933,205;    0,731;    0,136
267,009;  979,483;   -1,451;    0,773
267,606; 1093,774;    0,822;   -0,955
268,203;  829,923;   -0,269;   -0,591
268,801;  902,173;    1,731;    0,591
269,398;  812,475;   -0,360;    2,500
269,995;  984,459;    0,277;    1,591
270,592;  878,049;   -0,632;   -0,500
271,189;  795,751;    0,186;    0,409
271,786;  777,079;   -0,632;    1,227
272,383; 1087,993;   -1,087;    0,227
272,980;  899,498;    0,277;    0,318
273,577;  871,761;    0,004;    1,227
274,174;  786,708;    0,822;    2,591
274,771;  935,997;   -0,814;   -0,773
275,367; 1415,843;    2,277;    1,409
275,964; 1205,955;    0,731;   -0,500
276,561;  959,023;    1,549;   -1,045
277,158;  882,488;    0,095;   -1,773
277,755; 1163,156;    2,185;    0,409
278,351;  968,674;   -0,451;   -1,500
278,948; 1082,326;   -0,815;    0,045
279,545;  973,223;   -1,360;    2,318
280,141; 1285,457;   -1,723;   -2,045
280,738; 1149,434;   -0,451;   -0,136
281,334;  934,839;   -1,633;    0,591
281,931;  944,218;   -0,087;   -1,318
282,528; 1055,086;    0,822;   -0,500
283,124; 1211,510;   -1,087;   -0,500
283,721; 1184,729;   -0,451;    1,409
284,317;  986,142;    0,185;    2,500
284,913; 1259,471;   -1,360;    0,591
285,510; 1589,743;    0,640;   -0,318
286,106; 1368,989;   -2,269;   -0,955
286,703; 1014,024;   -0,360;    1,955
287,299;  973,730;   -1,451;   -0,591
287,895;  990,850;    0,822;   -1,045
288,491; 1022,112;    0,186;    2,136
289,088; 1154,643;   -2,360;    2,409
289,684; 1185,088;   -1,723;    1,500
290,280; 1354,885;    0,368;    0,682
290,876; 1336,381;    1,822;    5,500
291,472; 1192,127;    1,276;    2,227
292,068; 1219,916;    1,367;    0,227
292,665; 1028,185;    2,095;    0,773
293,261;  890,496;    0,276;    2,136
293,857; 1124,686;    2,913;    2,136
294,453; 1038,333;    3,550;    0,955
295,049; 1271,490;   -0,268;    1,955
295,644; 1072,098;    0,095;    0,136
296,240;  926,672;   -0,905;   -0,136
296,836; 1109,205;   -0,995;    0,318
297,432; 1283,049;    1,096;   -0,500
298,028; 1359,055;    0,732;    0,773
298,624; 1159,868;    1,459;    1,864
299,220; 1133,785;    2,368;    0,591
299,815; 1095,261;    1,005;   -0,409
300,411; 1214,308;    0,914;    1,773
301,007; 1361,028;    1,368;    0,227
301,602; 1145,856;   -0,541;   -2,318
302,198; 1289,394;    0,732;   -0,773
302,794; 1134,938;    1,187;   -0,500
303,389; 1119,055;   -1,177;    1,045
303,985; 1187,806;    0,550;    1,409
304,580; 1284,747;    1,459;    1,591
305,176; 1171,396;   -3,086;    0,136
305,771; 1035,933;   -1,268;   -1,227
306,367; 1487,537;    4,095;    0,136
306,962; 1246,129;    0,641;    1,500
307,558; 1222,123;   -0,450;    0,136
308,153; 1340,586;    1,095;   -1,136
308,748; 1129,076;   -0,814;    1,682
309,344; 1556,722;   -0,632;   -1,318
309,939; 1590,100;   -1,905;   -1,318
310,534; 1239,593;   -0,086;   -1,682
311,130; 1168,182;    0,459;   -2,500
311,725; 1081,070;    1,004;   -0,500
312,320; 1191,325;    2,459;    0,045
312,915; 1335,783;    1,459;   -1,045
313,510; 1569,628;    1,550;   -0,500
314,105; 1319,791;    1,096;    1,409
314,700; 1070,407;   -3,086;   -1,045
315,295; 1146,111;   -0,904;    0,045
315,890; 1034,656;    1,277;    0,864
316,485; 1172,452;   -0,359;   -0,318
317,080; 1108,692;   -3,086;    1,591
317,675; 1473,334;    2,005;   -0,682
318,270; 1661,893;    5,550;    3,318
318,865; 1570,702;    3,278;    3,045
319,460; 1350,489;   -0,904;    0,591
320,055; 1205,984;   -0,541;   -1,227
320,650; 1169,755;   -1,995;   -0,591
321,244; 1180,391;   -0,177;   -1,409
321,839; 1328,161;   -1,541;   -0,227
322,434; 1365,052;   -1,086;   -1,591
323,029; 1225,849;    1,732;    1,591
323,623; 1166,440;    1,550;    0,773
324,218; 1310,878;    2,368;    1,409
324,812; 1238,128;    1,096;    1,591
325,407; 1254,035;   -0,814;    2,045
326,002; 1353,049;    0,277;   -0,409
326,596; 1307,380;    0,914;    1,318
327,191; 1163,823;    0,823;   -1,045
327,785; 1089,380;   -0,813;   -0,227
328,379; 1186,554;    1,368;    0,136
328,974; 1189,375;    0,914;   -3,955
329,568; 1248,776;    0,186;   -2,409
330,163; 1316,597;    2,096;    1,045
330,757; 1182,112;    2,459;    1,591
331,351; 1089,927;    0,459;    0,682
331,945; 1110,656;    0,914;    1,409
332,540; 1246,026;   -1,723;   -0,591
333,134; 1215,035;   -1,086;    0,773
333,728; 1195,114;    0,005;    0,318
334,322; 1135,812;   -1,177;   -0,864
334,916; 1038,221;    0,277;    0,955
335,510; 1253,912;   -0,450;   -0,136
336,105; 1292,460;   -1,086;    1,591
336,699; 1127,962;   -1,086;    0,591
337,293; 1156,200;   -1,723;    0,318
337,887; 1089,055;   -2,723;    1,955
338,481; 1288,475;    0,459;    0,591
339,074; 1425,121;   -0,359;    2,682
339,668; 1374,892;   -1,632;    1,227
340,262; 2042,502;    1,732;    3,227
340,856; 1548,670;    1,822;   -0,682
341,450; 1114,473;    1,004;    1,864
342,044; 1232,200;    1,459;    0,136
342,637; 1390,590;    0,913;   -2,136
343,231; 1420,680;   -2,360;    0,682
343,825; 1196,044;   -1,086;   -0,591
344,419; 1181,982;   -1,995;    0,500
345,012; 1802,269;    2,459;    4,045
345,606; 1580,304;    4,641;    1,591
346,199; 1203,737;   -1,813;   -0,227
346,793; 1352,327;    1,914;    2,045
347,386; 1147,116;   -0,813;   -1,136
347,980;  990,951;   -0,268;   -0,045
348,573; 1130,079;    2,278;    0,409
349,167; 1423,372;    5,278;    4,773
349,760; 1374,756;    2,914;    2,682
350,354; 1266,617;   -0,813;    1,136
350,947; 1331,350;    1,096;    1,682
351,540; 1101,699;   -0,358;   -1,409
352,134;  927,032;    1,096;    1,136
352,727; 1001,543;   -0,086;    1,136
353,320; 1046,079;    0,005;    0,591
353,913;  925,317;   -1,995;    1,864
354,507; 1184,361;    0,823;   -1,227
355,100; 1068,035;    0,460;    0,864
355,693; 1495,799;    2,005;    2,409
356,286; 1202,932;    0,823;    2,773
356,879; 1041,319;   -0,722;    1,227
357,472;  991,258;   -0,904;    1,500
358,065; 1074,113;   -0,722;    2,500
358,658;  917,947;   -0,540;    2,318
359,251;  826,783;   -1,631;   -0,591
359,844; 1044,632;   -1,904;   -1,136
360,437; 1163,868;   -2,995;    0,045
361,030; 1006,871;    1,369;   -0,682
361,623;  965,726;    2,824;    0,318
362,215; 1229,908;   -0,086;    2,045
362,808; 1045,779;   -2,358;   -1,682
363,401;  979,561;   -2,449;    0,136
363,994; 1244,843;   -0,631;   -1,500
364,586;  973,135;    0,824;   -1,500
365,179;  927,251;   -0,449;   -1,136
365,772;  713,849;   -1,995;    2,045
366,364;  897,524;    1,915;   -3,227
366,957; 1033,573;    2,279;   -0,045
367,549;  924,924;    2,188;   -0,864
368,142;  919,340;    1,825;   -1,500
368,734;  887,446;    0,734;   -2,136
369,327;  785,824;    1,643;   -0,500
369,919;  847,620;   -1,538;    0,409
370,512;  897,199;   -1,083;   -0,500
371,104; 1176,800;   -0,901;    1,591
371,696; 1233,811;    1,191;   -0,955
372,289; 1063,524;    0,373;    1,136
372,881;  998,523;   -2,080;    1,318
373,473;  849,156;   -2,170;    1,136
374,066;  974,074;   -0,169;    0,500
374,658;  929,423;    0,378;    1,136
375,250;  869,870;    0,653;   -1,409
375,842;  944,515;    0,473;   -0,045
376,434;  886,707;   -0,435;   -0,409
377,026;  926,266;    0,204;   -2,500
377,618;  957,198;   -0,158;   -0,682
378,210;  859,478;   -0,338;   -1,955
378,802;  794,434;    0,754;   -0,591
379,394; 1317,552;    1,846;    0,682
379,986; 1062,047;    1,393;   -0,955
380,578;  960,615;   -0,153;    0,773
381,170; 1217,838;   -0,972;    0,045
381,762; 1071,342;    0,755;    1,409
382,354; 1031,404;   -0,065;   -1,318
382,945;  923,132;   -2,976;    0,318
383,537;  865,125;   -2,705;   -1,955
384,129;  874,192;   -2,160;   -1,136
384,721; 1028,966;   -0,252;    0,955
385,312;  907,677;   -0,161;   -0,955
385,904; 1071,227;   -2,706;    1,591
386,496;  892,018;   -0,979;    1,045
387,087; 1087,479;    1,022;    2,500
387,679; 1017,677;   -1,160;    0,045
388,270; 1026,110;    2,840;    2,045
388,862;  968,164;    1,295;   -0,318
389,453;  886,712;   -0,887;    1,045
390,045;  955,618;   -0,705;   -2,682
390,636;  850,831;    0,204;   -0,591
391,227;  883,404;   -0,523;   -0,045
391,819;  909,554;    0,204;    0,773
392,410; 1205,945;    1,022;    0,045
393,001;  984,303;   -0,979;   -1,591
393,593; 1084,074;    1,930;   -0,045
394,184; 1146,229;    1,385;   -0,409
394,775;  931,877;    1,839;    2,136
395,366;  904,102;    1,385;    0,773
395,957; 1143,875;    0,113;    0,136
396,548; 1015,286;   -0,342;    2,682
397,139; 1210,024;   -2,433;    0,591
397,730; 1067,990;   -1,888;    0,955
398,321; 1058,202;   -1,252;    0,955
398,912;  991,367;   -0,615;    0,136
399,503; 1032,898;   -3,524;   -1,409
400,094; 1031,496;    0,294;    1,682
400,685; 1024,079;   -0,433;    0,045
401,276;  905,918;    0,930;   -0,955
401,867;  927,358;   -0,888;    0,773
402,458;  895,715;   -2,251;   -2,318
403,048; 1102,329;    1,112;    0,591
403,639;  970,873;    0,840;    0,864
404,230; 1195,895;    2,476;    0,318
404,821; 1245,807;   -0,615;    0,045
405,411; 1107,060;    1,203;   -2,591
406,002;  963,713;   -1,252;   -1,136
406,592; 1275,207;    2,294;    0,045
407,183; 1092,229;    0,566;   -1,500
407,774; 1021,202;    3,475;   -0,136
408,364; 1012,210;    0,930;    0,409
408,954; 1157,577;    0,384;    1,227
409,545; 1159,460;    1,021;    1,045
410,135; 1042,343;    1,293;    0,500
410,726;  995,697;    1,838;    0,318
411,316; 1269,376;    0,111;    0,773
411,906; 1013,846;   -0,253;   -0,409
412,497;  991,977;   -1,070;   -0,045
413,087;  956,728;   -1,980;   -0,227
413,677;  923,882;   -0,707;    3,864
414,267;  901,025;    0,656;    1,409
414,857;  852,988;   -2,980;    4,227
415,448;  887,320;    0,839;    0,500
416,038;  897,276;    0,020;   -0,591
416,628;  964,583;   -0,889;    0,409
417,218; 1055,794;    0,565;    3,318
417,808; 1261,847;    0,202;   -0,409
418,398; 1083,859;    0,020;    2,682
418,988;  928,809;    2,020;    0,591
419,578; 1043,659;   -0,707;    1,409
420,168; 1069,318;   -1,343;   -0,955
420,757; 1228,869;   -1,343;   -1,500
421,347; 1039,277;    0,111;   -0,227
421,937;  994,162;    2,292;    1,409
422,527; 1172,641;    0,838;   -0,773
423,116; 1350,581;   -0,253;   -0,045
423,706; 1005,874;   -1,889;    0,318
424,296;  900,038;    1,384;    0,682
424,885; 1165,129;   -0,071;   -3,045
425,475; 1126,171;    1,474;   -2,864
426,065;  951,247;   -0,980;   -0,318
426,654;  914,888;   -0,435;   -0,318
427,244; 1317,573;    0,020;    1,409
427,833; 1266,875;    1,383;   -0,500
428,423; 1080,879;   -0,526;    1,136
429,012; 1151,754;   -0,344;   -1,136
429,601; 1265,698;   -1,344;    0,136
430,191; 1110,017;    1,292;    4,318
430,780;  929,348;   -0,344;   -0,409
431,369; 1277,707;    0,746;   -0,045
431,959; 1204,209;   -1,254;    0,500
432,548; 1041,420;   -1,163;   -0,045
433,137;  940,344;   -1,254;   -1,318
433,726; 1134,538;    0,292;    0,500
434,315; 1091,887;   -0,526;    2,409
434,905; 1249,789;   -1,254;    1,409
435,494; 1305,251;    0,746;    0,955
436,083; 1112,761;   -0,981;   -0,955
436,672; 1165,685;    0,110;    0,500
437,261; 1112,967;    0,292;   -1,955
437,850; 1519,239;    1,383;    0,682
438,439; 1556,018;    3,291;    1,955
439,027; 1665,452;    3,655;    1,773
439,616; 1623,541;    2,927;    1,227
440,205; 1288,461;    0,200;   -2,136
440,794; 1165,858;    2,109;   -0,045
441,383; 1067,803;   -1,346;   -0,591
441,971;  955,495;   -2,436;    0,591
442,560;  978,892;    0,563;   -1,773
443,149;  847,204;    0,379;   -1,318
443,737;  985,566;   -0,074;   -2,318
444,326; 1000,918;    0,018;    0,318
444,915; 1085,513;   -1,982;    0,864
445,503; 1121,507;   -2,891;   -0,318
446,092; 1450,760;    0,382;    2,136
446,680; 1400,528;    0,382;    0,318
447,269; 1314,605;   -0,346;   -0,318
447,857; 1229,509;    0,018;   -1,773
448,445; 1154,119;    0,563;    1,318
449,034; 1126,978;   -1,528;   -1,136
449,622; 1095,714;   -1,073;    3,500
450,210; 1570,276;    2,017;    2,227
450,799; 1470,611;    0,290;   -0,591
451,387; 1311,775;    1,381;   -0,591
451,975; 1302,132;    2,654;    0,864
452,563; 1473,698;    3,472;    2,318
453,151; 1130,045;   -0,528;   -1,227
453,739; 1213,313;   -1,347;    0,136
454,328; 1433,650;    2,381;   -2,136
454,916; 1273,067;    2,562;   -0,136
455,504; 1254,665;    1,017;    1,227
456,092; 1129,189;    0,017;   -1,591
456,679; 1027,031;    1,472;    0,682
457,267; 1759,844;    4,017;    1,045
457,855; 1217,583;    1,017;    1,409
458,443;  927,523;   -0,165;    1,682
459,031; 1333,663;    0,108;    2,409
459,619; 1255,818;   -1,801;    2,864
460,206; 1062,809;    0,835;    2,045
460,794; 1086,481;   -2,983;   -0,227
461,382; 1207,386;   -0,529;   -0,864
461,970; 1112,834;    1,198;    1,864
462,557; 1036,002;   -0,711;   -0,682
463,145; 1292,901;   -3,165;   -1,682
463,732; 1637,184;    2,016;   -1,045
464,320; 1271,399;   -0,075;   -3,045
464,907; 1493,953;    2,743;   -0,773
465,495; 1335,374;    0,743;   -1,227
466,082; 1197,830;   -1,984;   -0,045
466,670; 1177,956;   -2,529;    1,227
467,257; 1065,863;   -1,711;    2,045
467,844; 1256,218;   -0,075;    0,045
468,432; 1249,802;    0,834;    3,500
469,019; 1118,228;    0,925;   -1,773
469,606; 1236,902;    0,470;    3,682
470,193; 1305,853;   -1,439;    0,227
470,780; 1270,503;   -2,075;    0,864
471,368; 1150,847;   -1,257;   -0,773
471,955; 1301,949;    1,379;   -0,682
472,542; 1192,182;    0,652;   -1,136
473,129; 1002,090;   -0,166;    0,136
473,716;  979,480;    1,470;    0,591
474,303; 1063,589;    0,652;   -0,864
474,890; 1107,461;   -1,439;   -0,500
475,477; 1265,210;   -1,621;    0,409
476,064; 1101,739;    1,106;   -1,591
476,650; 1255,054;    0,288;    0,318
477,237; 1151,872;   -0,258;    0,955
477,824; 1099,656;   -1,076;    0,864
478,411;  945,711;   -1,894;   -0,318
478,997;  956,187;    0,560;   -0,773
479,584;  862,540;    1,196;   -0,409
480,171; 1273,798;   -0,440;   -0,773
480,757; 1389,857;    2,651;    0,773
481,344; 1180,085;    0,469;    0,409
481,931;  943,616;    1,105;    1,045
482,517; 1319,316;   -1,258;    0,318
483,104; 1469,992;    1,106;    2,864
483,690; 1334,655;   -1,804;    0,045
484,276; 1299,034;   -0,895;    0,227
484,863; 1666,464;    2,469;    1,136
485,449; 1432,829;   -0,077;    0,318
486,035; 1315,049;   -1,986;   -0,136
486,622; 1538,318;   -0,895;    0,045
487,208; 1391,803;    1,378;    1,500
487,794; 1257,701;    0,741;    0,318
488,380; 1283,771;    0,105;   -1,409
488,967; 1278,389;   -1,168;   -0,409
489,553; 1301,887;   -1,895;   -1,409
490,139; 1457,083;    1,559;    0,773
490,725; 1268,218;    0,741;   -0,227
491,311; 1283,444;    3,287;    3,045
491,897; 1119,743;   -0,986;    1,500
492,483; 1118,544;    0,105;    1,227
493,069; 1921,685;    3,923;    0,864
493,655; 1390,401;    1,650;    0,682
494,241; 1200,081;    1,377;   -0,955
494,826; 1281,605;    0,287;   -1,045
495,412; 1336,063;    2,559;   -0,682
495,998; 1206,786;   -0,805;   -0,318
496,584; 1278,947;    0,377;    1,045
497,169; 1217,314;    1,014;   -0,682
497,755; 1082,901;    0,650;    1,227
498,341; 1497,214;    0,559;    0,318
498,926; 1662,989;    1,832;    1,955
499,512; 1241,962;    1,286;    2,955
500,097; 1179,662;    0,195;   -0,318
500,683; 1212,829;   -0,350;    2,136
501,268; 1167,667;   -0,169;   -0,955
501,854; 1193,679;   -0,169;    1,227
502,439; 1116,745;   -0,624;   -1,773
503,024; 1250,474;    0,195;    0,500
503,610; 1314,178;   -0,078;   -0,682
504,195; 1118,278;    0,558;    1,955
504,780; 1296,157;    2,922;    1,227
505,366; 1467,741;    3,013;    2,864
505,951; 1301,054;    0,740;    1,045
506,536; 1190,458;   -3,260;   -3,682
507,121; 1252,083;    0,285;   -0,318
507,706; 1239,382;    2,376;    1,045
508,291; 1141,790;    2,649;    1,136
508,876; 1092,824;   -0,988;    2,591
509,461; 1158,366;   -0,169;   -0,773
510,046; 1259,606;    0,194;    0,318
510,631; 1223,820;   -0,351;   -0,773
511,216; 1115,940;    2,467;   -0,500
511,801; 1266,027;   -0,442;    2,591
512,386; 1278,706;    0,740;    0,500
512,971; 1307,317;   -2,988;    0,955
513,555; 1372,509;   -0,897;   -1,500
514,140; 1373,302;   -0,442;   -3,136
514,725; 1478,399;   -0,715;   -1,136
515,309; 1353,710;   -0,533;    0,318
515,894; 1204,426;   -0,624;   -2,227
516,479; 1241,605;   -0,624;   -0,955
517,063; 1226,707;    0,376;    1,227
517,648; 1209,742;    1,012;   -1,136
518,232; 1117,178;   -0,261;   -1,409
518,817; 1245,466;   -0,079;    1,682
519,401; 1449,773;    2,194;    0,591
519,985; 1269,430;    1,103;    1,136
520,570; 1108,410;    0,830;   -1,955
521,154; 1300,258;    2,102;    0,591
521,738; 1584,142;   -2,352;    2,409
522,323; 1435,296;   -0,170;    1,682
522,907; 1345,022;    0,466;   -0,136
523,491; 1213,775;    0,557;    0,955
524,075; 1144,608;    2,284;    0,591
524,659; 1389,552;    1,466;    0,591
525,243; 1268,227;    1,739;    0,409
525,827; 1184,432;    0,648;   -0,045
526,411; 1256,461;   -1,989;   -0,136
526,995; 1454,819;   -0,352;    1,409
527,579; 1464,237;   -0,443;   -1,045
528,163; 1388,563;    0,375;   -1,500
528,747; 1587,428;    2,466;   -0,773
529,331; 1520,205;   -0,080;   -1,409
529,915; 1276,765;    1,738;    0,955
530,499; 1401,035;   -0,807;    1,227
531,082; 1523,219;   -0,534;    1,591
531,666; 1577,977;    1,374;    0,773
532,250; 1496,715;    1,284;    2,682
532,833; 1666,930;    0,920;    2,773
533,417; 1429,315;   -1,807;    0,864
534,001; 1547,304;    1,647;   -0,318
534,584; 1502,947;    0,374;    0,500
535,168; 1297,111;    0,465;    1,409
535,751; 1717,989;    0,647;    0,045
536,334; 1335,069;   -0,898;   -0,409
536,918; 1314,318;    0,011;    1,591
537,501; 1292,714;   -0,899;    1,318
538,085; 1349,958;   -0,444;    1,045
538,668; 1374,336;    0,829;    2,409
539,251; 1762,897;    1,829;    3,773
539,834; 1495,861;    0,101;    0,773
540,418; 1609,021;   -1,990;    4,318
541,001; 1793,311;   -0,990;    1,773
541,584; 1519,177;    2,101;    2,227
542,167; 1600,059;    1,374;    2,955
542,750; 1457,596;    1,919;   -0,773
543,333; 1226,612;    0,555;    2,136
543,916; 1563,420;    0,192;    2,500
544,499; 1447,051;   -1,354;    0,227
545,082; 1549,802;    1,374;    3,591
545,665; 1466,007;    1,919;    1,500
546,248; 1611,703;    1,010;   -0,318
546,830; 1562,292;   -0,445;    1,955
547,413; 1606,856;    1,010;   -0,773
547,996; 1665,240;    0,555;    0,500
548,579; 1471,933;    0,919;    0,955
549,161; 1731,411;    1,828;    2,682
549,744; 1606,740;   -0,809;    0,409
550,326; 1554,394;   -0,809;   -1,136
550,909; 2050,606;    2,737;    0,591
551,492; 1725,523;   -0,263;    0,227
552,074; 1783,316;   -0,173;   -1,318
552,657; 1848,049;    2,373;    0,045
553,239; 1668,275;   -0,173;   -0,773
553,821; 1586,189;   -1,082;    1,045
554,404; 1780,674;    1,282;    1,136
554,986; 1920,871;    0,464;    1,045
555,568; 1816,733;    1,191;   -0,955
556,151; 2006,566;    1,191;   -0,227
556,733; 1681,190;   -0,264;   -0,864
557,315; 1683,291;    0,100;    0,500
557,897; 1478,162;    0,554;   -0,500
558,479; 1511,000;   -1,991;    1,318
559,061; 1641,447;   -0,719;   -0,864
559,643; 1768,957;   -0,264;    0,045
560,225; 1793,756;    1,645;    2,864
560,807; 1665,048;    0,918;    0,318
561,389; 1607,553;    0,554;    2,318
561,971; 1669,979;    0,463;    2,136
562,553; 1668,095;   -1,628;    1,591
563,135; 1773,617;   -0,537;    1,136
563,717; 2104,787;    3,372;    1,136
564,298; 1987,697;    3,645;   -0,045
564,880; 1719,619;    0,645;   -1,409
565,462; 1606,346;    0,645;    1,318
566,043; 1954,603;   -0,446;    2,318
566,625; 2093,322;    1,918;    1,227
567,207; 1855,026;    1,099;    1,682
567,788; 1861,889;   -1,264;    1,500
568,370; 1999,197;    1,917;   -0,500
568,951; 1857,129;    0,190;    0,227
569,533; 2054,685;   -0,628;   -0,500
570,114; 2187,686;   -0,446;    0,682
570,695; 2230,849;   -0,174;   -1,318
571,277; 2193,227;   -0,265;   -1,682
571,858; 2442,415;    2,008;   -1,136
572,439; 2459,115;    1,554;   -1,045
573,021; 2434,586;    2,099;   -2,773
573,602; 2570,289;   -1,265;    0,318
574,183; 2624,947;   -2,083;    2,227
574,764; 2629,736;   -1,629;    0,409
575,345; 2746,560;    0,917;   -0,136
575,926; 2733,885;   -0,356;    0,136
576,507; 2817,008;    1,099;   -0,227
577,088; 2943,460;    3,099;    1,682
577,669; 3080,261;    0,735;    1,955
578,250; 3318,038;    0,644;   -1,045
578,831; 3167,062;   -1,356;   -2,227
579,412; 3046,094;   -0,810;    0,955
579,993; 3348,572;    1,008;    0,227
580,573; 3361,402;   -0,629;   -0,955
581,154; 3021,818;    0,735;   -0,591
581,735; 3229,067;    0,644;    0,773
582,315; 3082,431;   -0,629;    2,136
582,896; 3273,372;   -0,174;    1,227
583,477; 3087,675;    0,189;    1,227
584,057; 3169,569;    0,553;    0,955
584,638; 3245,481;    2,553;    2,318
585,218; 3430,824;   -0,538;    2,682
585,799; 3346,574;    0,281;   -0,227
586,379; 3265,005;    0,372;    1,591
586,959; 3090,044;    0,735;    0,318
587,540; 2909,573;   -0,629;    2,227
588,120; 2813,732;    1,007;   -0,045
588,700; 2674,168;    2,553;    2,136
589,281; 2940,941;    0,462;   -0,955
589,861; 2821,725;    0,099;   -1,682
590,441; 2738,868;    2,371;   -2,682
591,021; 2547,563;   -0,265;   -2,591
591,601; 2660,492;   -0,537;    0,500
592,181; 2755,005;   -0,719;   -0,773
592,761; 2432,321;    0,007;    1,409
593,341; 2588,032;   -0,901;    0,045
593,921; 2529,366;   -0,265;    1,591
594,501; 2442,137;   -0,538;    1,318
595,081; 2404,805;    0,917;   -0,318
595,661; 2637,172;   -1,447;    0,955
596,240; 2721,949;   -0,537;    0,136
596,820; 2857,511;    0,372;    1,955
597,400; 2551,422;    2,008;    0,773
597,980; 2586,972;    2,008;    1,045
598,559; 2585,486;    2,735;   -0,227
599,139; 2533,175;   -0,174;   -1,227
599,718; 2508,539;   -0,174;   -0,409
600,298; 2600,489;    0,735;    0,682
600,877; 2952,635;    2,917;    1,409
601,457; 2872,834;    2,281;    1,136
602,036; 2739,755;    0,190;    2,045
602,616; 2678,054;    0,644;    1,682
603,195; 2832,280;   -0,355;    3,500
603,774; 2748,239;   -0,901;    2,045
604,354; 2661,162;    0,826;   -0,500
604,933; 2569,101;    0,463;    1,864
605,512; 2771,277;    3,554;    0,591
606,091; 2784,669;   -0,537;    3,773
606,671; 2822,476;    0,281;    0,773
607,250; 2804,676;    1,644;    3,136
607,829; 2801,472;    2,372;    3,227
608,408; 2712,740;    1,190;    2,591
608,987; 2617,829;    1,281;    3,409
609,566; 2504,999;   -1,265;   -2,500
610,145; 2595,953;   -1,082;    0,682
610,723; 2769,536;    4,372;    6,864
611,302; 2513,932;   -0,446;    1,682
611,881; 2611,548;    5,008;   11,227
612,460; 2521,753;    1,645;    3,955
613,039; 2593,307;   -0,082;    2,045
613,617; 2313,692;    1,736;    4,773
614,196; 2334,120;    1,099;    1,227
614,775; 2502,195;    1,009;    2,409
615,353; 2503,368;    0,736;    0,864
615,932; 2437,573;    0,100;    2,409
616,510; 2572,550;    0,554;    0,591
617,089; 2945,506;    7,100;   17,591
617,667; 2625,309;    2,372;    6,136
618,246; 2278,206;   -1,537;    1,318
618,824; 2403,875;   -3,355;   -0,955
619,402; 2342,793;   -2,900;   -1,773
619,981; 2496,405;   -0,173;   -1,045
620,559; 2477,777;    0,009;    1,682
621,137; 2470,009;   -0,718;    1,864
621,715; 2165,775;   -1,173;   -0,682
622,293; 2219,543;   -0,537;   -0,773
622,871; 2476,745;   -0,718;    0,500
623,450; 2306,815;    0,373;   -0,864
624,028; 2434,226;    0,191;   -0,955
624,606; 2344,223;   -1,718;    1,682
625,183; 2253,551;   -1,536;   -1,136
625,761; 2266,451;    1,009;    1,136
626,339; 2651,446;    1,373;    2,591
626,917; 2399,084;   -0,172;   -0,045
627,495; 2411,204;   -0,354;    1,318
628,073; 2353,256;   -0,263;    2,864
628,650; 2308,102;    0,100;    2,136
629,228; 2403,873;    0,373;    4,409
629,806; 2116,937;    2,282;    1,136
630,383; 2220,330;    1,464;   -0,318
630,961; 2212,759;    2,555;   -0,955
631,539; 2136,127;    2,464;    0,227
632,116; 2777,940;   11,373;   15,409
632,694; 2471,711;    2,555;    6,500
633,271; 2272,431;    0,828;    2,682
633,848; 2405,646;    1,828;    2,045
634,426; 2210,522;   -1,081;    1,773
635,003; 2048,655;    1,101;   -0,409
635,580; 2391,984;    1,192;    3,682
636,158; 2254,046;    3,737;    1,227
636,735; 2104,162;    0,555;   -0,500
637,312; 2122,051;   -0,809;   -0,682
637,889; 2135,293;   -4,354;   -0,682
638,466; 2105,476;   -3,990;   -0,409
639,043; 2088,223;    2,101;   -1,136
639,620; 2104,211;   -2,262;   -0,955
640,197; 2252,511;    1,100;    1,682
640,774; 2216,988;   -0,172;    1,136
641,351; 2296,465;    0,737;    1,136
641,928; 2335,487;   -0,627;    1,409
642,505; 2450,418;    0,828;   -0,500
643,082; 2342,713;   -1,718;    1,227
643,658; 2006,735;   -0,718;    1,500
644,235; 2127,848;    1,191;    2,500
644,812; 2283,142;    1,918;    0,773
645,388; 2209,074;   -0,991;    1,409
645,965; 2025,005;   -0,809;    1,682
646,542; 2058,299;   -1,445;   -0,227
647,118; 2486,594;    1,009;   -0,955
647,695; 2320,889;   -0,263;    1,136
648,271; 2130,184;   -0,536;    0,500
648,848; 2239,933;    0,736;    2,227
649,424; 2362,683;    0,827;    1,318
650,000; 2083,250;   -0,354;   -1,045
650,577; 2164,818;   -0,627;   -0,955
651,153; 2271,567;   -1,809;    0,955
651,729; 2276,589;    1,191;    0,864
652,305; 2553,066;    0,645;    2,773
652,881; 3028,269;   -0,082;    1,136
653,458; 3982,473;    1,100;    0,227
654,034; 4553,223;    0,282;    1,591
654,610; 4616,608;    0,554;    0,773
655,186; 5040,540;    0,645;    3,045
655,762; 4701,198;   -0,991;    0,409
656,338; 4661,493;    0,100;    0,136
656,913; 4994,697;   -0,082;    0,409
657,489; 4690,901;    0,827;   -0,318
658,065; 4792,923;   -0,173;   -1,591
658,641; 5068,581;   -0,900;   -0,864
659,217; 4775,421;   -0,991;    0,409
659,792; 4533,898;    0,645;   -0,409
660,368; 4664,193;   -2,173;   -0,682
660,944; 4850,760;   -2,082;    1,227
661,519; 4131,782;   -0,628;    0,409
662,095; 3210,986;   -1,719;    0,591
662,670; 2500,281;    1,281;   -0,136
663,246; 2464,667;    1,009;   -0,409
663,821; 2507,689;    0,281;    1,682
664,396; 2254,256;    0,009;    1,864
664,972; 2299,096;    0,009;   -0,500
665,547; 2460,209;    1,372;    0,136
666,122; 2370,959;   -1,082;    0,318
666,698; 2546,344;   -0,173;    0,318
667,273; 2203,276;   -0,173;    0,136
667,848; 2400,934;    2,372;    1,500
668,423; 2470,320;    2,190;    2,318
668,998; 2396,069;    2,827;   -0,682
669,573; 2449,637;   -3,264;   -1,500
670,148; 2591,840;   -1,446;   -0,682
670,723; 2313,953;   -1,810;    0,318
671,298; 2672,612;    2,372;    1,045
671,873; 2530,361;   -0,082;   -0,136
672,448; 2539,111;    0,645;    0,136
673,023; 2561,496;   -1,992;   -0,227
673,597; 2750,427;    0,827;    2,318
674,172; 2711,813;   -0,355;    0,318
674,747; 2579,926;    0,372;   -1,045
675,321; 2361,221;   -0,628;    3,318
675,896; 2228,697;    0,645;    1,045
676,471; 2467,174;    2,645;    1,591
677,045; 2371,105;   -1,264;    0,682
677,620; 2399,764;    0,190;    1,136
678,194; 2426,695;   -2,628;    1,136
678,769; 2410,626;   -1,083;   -0,318
679,343; 2504,739;   -0,628;    1,773
679,917; 2561,670;   -1,446;    1,955
680,492; 2424,965;    0,826;    3,227
681,066; 2471,441;    3,372;    0,409
681,640; 2464,736;    1,463;   -0,318
682,214; 2589,395;    0,735;    0,500
682,788; 2518,599;   -1,356;   -0,773
683,363; 2539,075;   -1,810;    1,682
683,937; 2368,188;   -1,719;   -0,318
684,511; 2606,119;    0,463;   -0,591
685,085; 2547,414;   -1,356;    0,318
685,659; 2405,527;   -2,538;    0,864
686,232; 2654,458;   -0,356;   -0,318
686,806; 2557,389;   -0,901;    0,409
687,380; 2599,957;   -0,174;    0,591
687,954; 2624,161;   -1,174;    1,136
688,528; 2721,546;   -0,719;    1,955
689,101; 2810,569;   -3,992;    1,045
689,675; 2589,954;   -0,356;   -0,136
690,249; 2651,067;   -0,719;    0,409
690,822; 2730,998;    0,280;    0,318
691,396; 2602,566;   -0,265;    1,227
691,969; 2457,679;    1,280;    0,136
692,543; 2571,610;   -0,447;   -1,955
693,116; 2382,814;   -0,265;   -1,409
693,690; 2431,836;    0,099;    0,500
694,263; 2582,313;   -1,083;    2,955
694,836; 2816,698;    1,371;    3,591
695,410; 2511,448;   -0,265;    1,773
695,983; 2543,833;    0,189;    0,591
696,556; 2444,219;   -0,447;   -1,045
697,129; 2508,423;   -0,356;    1,409
697,703; 2469,899;   -1,629;    1,955
698,276; 2490,012;    1,462;   -0,773
698,849; 2531,671;    1,280;    1,409
699,422; 2391,329;   -1,083;    0,591
699,995; 2298,079;    0,007;    0,136
700,568; 2492,282;   -0,629;    3,045
701,140; 2517,850;   -2,811;    1,682
701,713; 2620,236;   -0,174;    2,409
702,286; 2515,894;   -0,538;    0,864
702,859; 2490,371;   -0,902;   -0,591
703,432; 2418,575;    0,825;    0,682
704,004; 2401,415;    0,462;    0,318
704,577; 2259,255;   -0,629;    0,136
705,150; 2368,641;    0,189;    2,500
705,722; 2461,663;   -0,356;   -3,227
706,295; 2454,685;   -0,175;   -0,591
706,867; 2288,616;   -0,175;    1,955
707,440; 2491,365;   -1,720;   -0,409
708,012; 2569,297;    0,462;    0,591
708,584; 2422,046;    2,462;    0,227
709,157; 2416,613;    1,825;   -0,591
709,729; 2528,999;    2,280;    2,045
710,301; 2662,294;    0,734;    0,045
710,874; 2621,680;   -1,447;   -0,227
711,446; 2247,429;    0,371;    0,864
712,018; 2338,269;    0,098;    0,500
712,590; 2267,382;   -1,993;    1,682
713,162; 2574,313;    0,825;    1,318
713,734; 2430,244;    1,825;   -2,045
714,306; 2400,812;   -1,902;   -0,409
714,878; 2234,834;    0,825;    0,864
715,450; 2367,583;    0,643;    0,864
716,022; 2405,878;    1,552;    1,318
716,593; 2438,900;    0,189;    0,591
717,165; 2475,831;   -3,175;   -1,227
717,737; 2592,308;    0,280;    0,409
718,309; 2434,512;    0,280;   -0,045
718,880; 2353,534;   -0,539;   -1,409
719,452; 2459,647;   -0,175;   -1,591
720,024; 2429,033;    0,734;   -0,591
720,595; 2445,146;   -2,902;    0,955
721,167; 2364,077;    0,370;   -2,045
721,738; 2309,735;   -0,812;   -1,045
722,309; 2388,121;   -0,993;   -1,227
722,881; 2226,143;   -1,357;    0,773
723,452; 2419,892;   -2,630;    2,864
724,023; 2479,460;   -0,721;    2,682
724,595; 2506,391;    0,007;    0,682
725,166; 2295,686;    0,007;   -0,409
725,737; 2445,526;    1,734;    0,227
726,308; 2381,821;   -0,266;    0,318
726,879; 2298,570;   -1,630;    1,227
727,450; 2420,865;    0,552;   -0,045
728,021; 2295,705;    3,097;    0,682
728,592; 2442,727;    0,734;    0,500
729,163; 2588,477;    0,643;   -0,136
729,734; 2586,226;    0,188;   -0,227
730,305; 2452,975;    1,734;    0,136
730,876; 2447,815;    0,188;    2,955
731,447; 2757,110;    2,188;    2,682
732,017; 2627,769;    1,097;    1,864
732,588; 2500,700;    0,734;    1,227
733,159; 2666,358;    0,643;   -1,045
733,729; 2397,017;    0,006;    0,409
734,300; 2430,039;    0,915;    0,864
734,870; 2398,606;    3,461;    0,591
735,441; 2424,537;    0,370;   -0,591
736,011; 2312,559;    0,643;   -1,591
736,582; 2347,127;   -0,812;    0,045
737,152; 2320,149;   -1,721;   -2,045
737,722; 2398,989;   -0,267;   -0,682
738,293; 2236,011;   -1,358;    1,318
738,863; 2390,215;    2,461;    2,318
739,433; 2623,874;    5,279;    0,318
740,003; 2522,441;   -0,994;   -0,682
740,573; 2545,281;    2,097;   -1,591
741,143; 2494,576;   -1,085;    0,318
741,713; 2472,962;    1,188;   -0,500
742,283; 2427,166;    0,915;    1,591
742,853; 2349,461;    1,915;    1,591
743,423; 2166,574;    1,733;    0,045
743,993; 2253,414;   -0,358;    1,500
744,563; 2123,981;    0,097;   -0,864
745,133; 2163,640;   -0,812;   -0,864
745,702; 2279,571;   -0,267;    1,773
746,272; 2306,593;   -0,176;    0,591
746,842; 2316,706;   -1,358;   -0,591
747,411; 2229,637;   -0,267;   -0,318
747,981; 2152,296;    0,097;    0,500
748,551; 2185,227;    2,278;   -1,045
749,120; 2268,521;    0,642;   -0,227
749,690; 2300,998;   -0,631;    2,409
750,259; 2442,475;    1,369;    2,955
750,828; 2443,497;    1,551;   -1,955
751,398; 2323,064;    1,278;   -0,045
751,967; 2630,177;    2,187;    0,409
752,536; 2381,108;   -0,813;   -0,227
753,105; 2523,403;    0,096;    0,227
753,675; 2339,425;    0,096;    1,773
754,244; 2325,538;   -0,904;    3,591
754,813; 2351,106;    0,551;    1,227
755,382; 2251,401;    0,460;    0,955
755,951; 2406,332;    1,551;    3,682
756,520; 2455,626;   -0,085;    1,864
757,089; 2718,467;    0,278;    0,500
757,658; 2430,307;    1,733;    1,227
758,227; 2306,965;    1,096;    0,318
758,795; 2392,624;    1,187;    1,136
759,364; 2528,828;   -0,086;   -0,591
759,933; 2235,032;   -1,176;   -0,045
760,501; 2193,508;    0,733;   -1,318
761,070; 2332,530;   -2,813;   -1,409
761,639; 2554,280;   -1,904;    1,318
762,207; 2375,211;    1,551;   -0,955
762,776; 2452,415;    0,369;    0,864
763,344; 2330,800;   -0,995;    0,591
763,913; 1976,913;   -0,722;    1,409
764,481; 2607,390;    1,005;   -0,136
765,049; 2553,776;   -1,358;    1,409
765,618; 2423,979;   -0,086;    0,318
766,186; 2354,547;    0,278;    0,136
766,754; 2379,569;    0,005;    1,864
767,322; 2065,500;   -1,995;    0,409
767,890; 2040,340;   -0,722;   -1,773
768,459; 2235,181;   -2,177;   -0,318
769,027; 2429,294;    1,641;    3,409
769,595; 2152,588;    3,278;    2,591
770,163; 2201,974;    3,823;    2,955
770,730; 2188,633;    0,732;   -0,136
771,298; 2172,109;    0,187;   -1,409
771,866; 2161,586;   -1,541;    4,955
772,434; 2191,517;   -0,631;   -1,864
773,002; 2445,175;    0,005;    0,682
773,569; 2321,016;    0,914;    1,682
774,137; 2382,583;   -0,268;   -0,045
774,705; 2359,696;    0,278;   -0,136
775,272; 2177,445;    0,641;    0,682
775,840; 2295,104;   -0,177;    2,682
776,407; 2255,035;    0,277;    1,955
776,975; 2014,603;   -0,632;    0,318
777,542; 2174,261;   -1,086;   -0,045
778,110; 2172,738;   -1,268;   -0,045
778,677; 2056,396;   -2,359;   -0,864
779,244; 2091,236;    2,186;    1,045
779,812; 2225,440;    1,823;    0,864
780,379; 2272,735;    0,005;    1,136
780,946; 2168,030;    1,005;   -0,773
781,513; 2196,961;   -1,450;    0,318
782,080; 2036,347;   -0,086;    2,864
782,647; 2168,369;   -0,268;    3,045
783,214; 2084,754;   -0,177;    3,864
783,781; 2206,413;   -0,723;   -0,682
784,348; 2181,889;   -0,632;    1,500
784,915; 2049,366;   -3,177;    0,318
785,482; 2204,115;    1,368;    2,591
786,049; 2276,319;    0,186;   -0,591
786,615; 2205,250;    0,277;   -0,955
787,182; 2108,454;    0,186;   -0,682
787,749; 2075,022;   -2,814;    1,409
788,315; 2072,953;   -1,632;   -0,409
788,882; 2112,793;    1,550;   -1,227
789,448; 2396,997;    1,732;   -0,955
790,015; 2211,928;    1,095;    3,227
790,581; 2313,405;    1,459;    0,227
791,148; 2105,063;    0,641;    1,045
791,714; 2093,176;   -0,541;    3,136
792,280; 2077,926;    0,186;    1,591
792,847; 1985,039;    0,550;    2,500
793,413; 2088,333;   -0,269;   -0,318
793,979; 2153,264;    3,459;   -1,318
794,545; 2493,650;    4,459;    2,682
795,111; 2272,218;    2,186;    1,318
795,678; 2136,694;    0,731;   -1,682
796,244; 2317,898;    3,368;    0,136
796,810; 2280,647;    1,731;    0,773
797,375; 2251,760;    0,549;   -2,136
797,941; 1882,419;   -0,541;    0,591
798,507; 1865,259;   -0,451;   -0,955
799,073; 1861,918;   -0,360;    0,591
799,639; 1945,212;   -2,632;    3,136
800,205; 1881,507;    0,095;    2,682
800,770; 1829,438;    0,640;    1,773
801,336; 1785,369;    1,368;   -0,955
801,901; 2414,028;    4,549;    3,136
802,467; 2157,141;   -0,542;    2,045
803,033; 1811,254;   -0,087;    0,864
803,598; 1822,185;    1,913;   -1,045
804,163; 1900,025;    1,095;   -0,318
804,729; 1993,411;   -0,178;    1,136
805,294; 1931,160;    0,822;    2,227
805,859; 1798,910;    0,731;   -0,409
806,425; 2166,568;    1,186;    2,682
806,990; 2140,045;    2,186;    4,318
807,555; 1950,703;   -1,451;    2,591
808,120; 2098,816;    0,822;   -0,409
808,685; 1841,565;    0,185;   -2,500
809,250; 1696,042;    0,004;   -0,500
809,815; 1789,791;    1,913;    0,682
810,380; 1986,722;   -0,269;    1,591
810,945; 2131,108;   -1,087;    2,045
811,510; 1956,403;    2,094;    1,591
812,075; 1892,243;   -0,633;   -1,409
812,640; 2173,902;    2,003;    1,409
813,204; 1976,651;    0,822;   -0,227
813,769; 2176,764;    2,094;   -0,045
814,334; 2106,877;    0,458;    0,864
814,898; 1887,354;    0,367;    0,591
815,463; 1891,194;    1,276;   -0,773
816,027; 1831,216;   -0,724;   -2,318
816,592; 1850,874;    0,640;   -2,045
817,156; 1871,442;    2,094;    1,136
817,721; 1930,555;    4,276;    2,318
818,285; 1739,486;    2,912;    1,500
818,849; 1872,144;   -1,451;    1,682
819,414; 1768,166;   -0,269;    2,955
819,978; 1694,370;   -1,269;    1,773
820,542; 2102,756;    2,003;    0,500
821,106; 1929,142;   -0,815;    0,682
821,670; 2091,982;   -0,815;    2,591
822,234; 1846,913;   -0,270;    1,409
822,798; 1694,481;    0,003;    0,500
823,362; 2013,866;   -0,633;    4,227
823,926; 1718,797;    0,094;    1,136
824,490; 1931,183;   -0,997;   -0,682
825,054; 1863,478;   -0,088;   -1,136
825,618; 1685,773;   -1,542;   -1,500
826,181; 1707,704;    0,458;   -1,318
826,745; 1778,180;    1,367;   -1,045
827,309; 2065,021;    1,185;    1,318
827,872; 1908,315;    1,367;    0,955
828,436; 1888,156;    1,185;   -0,773
828,999; 1846,996;   -0,997;    1,227
829,563; 1757,200;   -0,179;    1,136
830,126; 1705,949;   -0,179;   -0,591
830,690; 1709,880;   -1,997;    2,864
831,253; 1593,084;   -0,543;    2,227
831,816; 1662,106;   -1,906;    0,500
832,380; 1581,492;    0,185;    0,864
832,943; 1623,878;   -1,361;   -0,500
833,506; 1624,354;    2,639;   -1,227
834,069; 1857,013;    3,912;   -0,955
834,632; 1755,489;    1,730;    1,318
835,195; 1751,148;    1,003;    0,955
835,758; 1642,079;   -0,997;    1,955
836,321; 1572,283;    0,730;   -1,045
836,884; 1585,214;   -0,725;   -0,955
837,447; 1591,054;   -2,816;    1,773
838,010; 1722,531;    0,366;    3,227
838,573; 1793,826;   -1,179;    0,773
839,135; 1717,302;   -1,361;   -0,955
839,698; 1641,415;    1,275;    0,409
840,261; 1577,165;    1,003;   -0,227
840,823; 1529,459;   -0,543;    0,864
841,386; 1518,663;   -0,452;   -2,409
841,948; 1867,776;   -1,361;    1,773
842,511; 1581,253;    0,912;    1,682
843,073; 1847,184;    1,912;    0,227
843,636; 1578,751;   -0,361;   -0,227
844,198; 1785,410;    0,911;    0,591
844,760; 1754,977;    1,093;    1,955
845,322; 1500,090;    0,548;    1,136
845,885; 1661,112;    0,730;    0,591
846,447; 1646,044;   -1,998;    0,227
847,009; 1966,611;    1,911;   -0,682
847,571; 1667,179;    0,820;   -2,045
848,133; 1642,382;   -1,089;   -1,864
848,695; 1498,223;   -0,543;    1,409
849,257; 1556,154;   -1,089;   -1,682
849,819; 1735,176;   -0,998;   -0,409
850,381; 1587,380;   -0,725;   -0,864
850,942; 1666,947;    1,093;   -0,591
851,504; 1703,606;    1,184;    0,227
852,066; 1612,719;    1,275;   -1,591
852,628; 1613,377;   -0,180;    1,955
853,189; 1431,672;    1,638;    2,682
853,751; 1499,785;   -0,907;    1,409
854,312; 1674,443;   -0,453;   -1,682
854,874; 1827,375;   -2,089;   -0,773
855,435; 1647,578;   -0,907;   -1,682
855,997; 1766,237;   -1,816;   -0,136
856,558; 1767,441;    0,366;    1,773
857,119; 1615,917;    0,820;    2,864
857,681; 1472,939;    0,002;    0,318
858,242; 1687,961;    1,911;   -2,136
858,803; 1778,529;    0,456;   -0,773
859,364; 1713,460;    0,184;   -4,773
859,925; 1730,391;   -2,453;   -0,955
860,486; 1635,504;   -0,453;   -0,955
861,047; 1507,799;   -0,544;   -1,227
861,608; 1536,185;   -1,089;   -0,773
862,169; 1476,025;    0,638;   -0,045
862,730; 1510,592;    0,456;    1,409
863,291; 1582,615;   -0,635;   -0,500
863,852; 1582,273;   -0,635;    1,955
864,412; 1513,204;   -0,271;   -0,864
864,973; 1664,953;   -0,089;    0,500
865,534; 1816,794;   -1,726;    0,227
866,094; 1662,179;    1,820;    0,227
866,655; 1739,111;    1,274;    3,318
867,215; 1625,860;    0,274;    0,136
867,776; 1493,064;    0,547;   -0,136
868,336; 1553,268;   -1,453;    0,136
868,897; 1934,199;    2,638;    1,682
869,457; 1707,766;    1,365;    0,318
870,017; 1550,243;    0,547;   -1,227
870,578; 1570,810;   -0,817;    0,773
871,138; 1524,742;   -2,089;   -0,955
871,698; 1394,036;   -0,817;   -1,318
872,258; 1529,786;   -0,453;   -2,864
872,818; 1777,081;    2,729;    0,045
873,378; 1582,557;    0,638;    1,045
873,938; 1506,579;    0,547;    0,500
874,498; 1413,965;    0,274;   -1,955
875,058; 1465,169;    2,183;    1,773
875,618; 1467,464;    1,910;   -2,682
876,177; 1510,667;    1,274;    0,136
876,737; 1276,144;   -0,090;    1,955
877,297; 1731,621;    0,183;    1,955
877,856; 1646,461;   -0,362;    0,318
878,416; 1373,574;    1,183;   -0,136
878,976; 1368,960;   -1,817;    0,409
879,535; 1440,436;    0,092;    3,136
880,095; 1429,367;   -0,544;    0,045
880,654; 1320,753;   -1,090;    1,318
881,213; 1676,502;    2,456;    1,500
881,773; 1466,161;    2,637;    2,682
882,332; 2093,728;    3,365;    5,136
882,891; 1505,841;    3,092;    2,136
883,451; 1516,591;   -1,272;    1,682
884,010; 1396,976;   -2,908;   -0,409
884,569; 1365,998;   -0,999;   -0,045
885,128; 1583,111;    2,819;   -1,864
885,687; 1894,224;    4,455;    0,682
886,246; 2071,246;    1,455;    2,136
886,805; 1747,359;    2,455;    2,045
887,364; 1427,200;   -0,999;   -0,500
887,922; 1337,313;   -1,181;    0,045
888,481; 1482,062;   -1,545;    0,591
889,040; 1667,539;    1,183;    2,136
889,599; 1535,561;    2,455;    1,409
890,157; 1528,310;    1,455;    2,409
890,716; 1437,696;   -0,090;    0,227
891,274; 1537,718;    0,092;   -1,136
891,833; 1648,922;    1,546;    0,864
892,391; 1432,125;   -0,454;    0,500
892,950; 1632,966;    1,819;   -0,773
893,508; 1443,442;    0,455;   -0,409
894,067; 1278,828;    0,637;    0,136
894,625; 1385,668;   -0,636;   -1,500
895,183; 1368,236;   -0,363;   -0,682
895,741; 1697,712;    1,728;   -1,773
896,299; 1472,916;   -0,545;   -2,409
896,858; 1380,120;    0,819;   -1,591
897,416; 1511,960;    2,728;   -1,318
897,974; 1433,710;    1,819;    0,318
898,532; 1936,550;    6,091;    2,682
899,089; 1571,117;    2,091;   -0,682
899,647; 1444,685;   -1,454;    1,318
900,205; 1503,707;    1,182;    1,045
900,763; 1513,547;   -0,454;    0,227
901,321; 1478,024;    2,364;   -1,409
901,878; 1261,955;   -1,000;   -0,773
902,436; 1310,068;   -1,363;    1,318
902,994; 2166,636;    4,728;    3,682
903,551; 1636,112;    0,728;    0,409
904,109; 1520,225;    0,182;   -1,409
904,666; 1448,156;    2,455;    1,045
905,224; 1320,724;    0,182;   -0,409
905,781; 1471,837;    0,727;   -0,318
906,338; 1369,132;   -1,363;    1,045
906,895; 1266,154;    0,637;    2,045
907,453; 1562,176;    1,727;    1,136
908,010; 1406,561;   -0,909;    0,409
908,567; 1334,856;    1,273;    0,591
909,124; 1125,878;    0,364;   -1,500
909,681; 1191,719;   -2,909;    0,682
910,238; 1288,104;    0,636;   -1,318
910,795; 1277,490;   -0,273;   -1,136
911,352; 1258,490;   -2,909;   -2,682
911,909; 1239,126;   -1,364;   -0,864
912,466; 1298,854;   -3,182;    1,500
913,022; 1307,763;   -1,636;    0,500
913,579; 1428,308;   -0,909;    2,045
914,136; 1291,672;    1,636;    0,955
914,692; 1357,672;    0,091;   -1,227
915,249; 1281,217;    1,455;    0,409
915,806; 1374,490;    0,182;    1,955
916,362; 1283,944;    1,909;    1,864
916,918; 1175,035;    2,000;    1,045
917,475; 1398,672;   -1,182;    0,955
918,031; 1199,308;    3,364;   -0,045
918,587; 1271,944;   -0,909;   -0,318
919,144; 1187,763;   -2,273;    0,227
919,700; 1138,763;    1,727;    0,773
920,256; 1100,035;    0,727;    0,045
920,812; 1132,581;   -0,727;   -1,045
921,368; 1110,944;   -1,727;   -1,045
921,924; 1069,399;    0,182;   -0,136
922,480; 1176,763;   -0,545;    1,227
923,036; 1218,944;    1,273;    1,955
923,592; 1116,308;    0,455;    0,318
924,148; 1155,672;    0,455;   -0,955
924,704; 1286,581;   -1,364;   -0,409
925,259; 1132,763;   -0,273;    0,591
925,815; 1065,490;    1,455;    0,500
926,371; 1026,763;    2,909;    1,409
926,926; 1183,763;    2,091;    0,591
927,482; 1136,763;   -1,364;    0,773
928,037; 1066,399;    0,909;    2,045
928,593; 1293,944;    1,636;    1,045
929,148; 1031,399;   -1,818;   -1,500
929,704; 1082,672;   -1,455;   -0,500
930,259;  962,581;    0,091;   -0,136
930,814; 1181,944;   -0,818;    1,955
931,369; 1093,672;    1,091;   -0,773
931,925;  867,308;   -0,091;    0,136
932,480;  976,490;   -2,818;   -2,591
933,035; 1385,944;    0,545;   -0,318
933,590; 1260,763;    0,364;   -1,773
934,145;  819,581;   -1,364;   -0,318
934,700;  724,399;    0,455;   -0,591
935,255;  806,854;   -0,091;    0,045
935,809; 1160,308;    3,182;    0,864
936,364;  740,399;   -0,455;   -0,136
936,919;  745,763;    0,455;   -1,773
937,474;  660,944;    1,455;    0,136
938,028;  691,399;   -1,636;    1,136
938,583; 1100,854;    1,818;    4,682
939,138;  739,944;    2,091;    2,136
939,692;  588,944;    1,636;   -1,136
940,247;  629,490;   -0,727;   -1,045
940,801;  697,854;   -0,636;    0,227
941,355;  589,490;   -0,364;    2,591
941,910;  468,217;   -0,273;   -2,136
942,464;  519,126;   -0,818;   -0,318
943,018;  799,581;    1,000;   -0,227
943,572;  606,035;    2,545;   -0,682
944,126;  660,944;    0,091;   -0,409
944,681;  518,944;    3,091;    0,227
945,235;  463,763;    1,000;   -0,591
945,789;  418,126;    0,364;   -1,864
946,342;  753,490;    0,455;   -0,591
946,896;  469,944;   -2,273;    0,955
947,450;  446,126;    1,545;   -0,227
948,004;  725,035;    1,727;   -0,045
948,558;  509,944;    0,273;   -0,864
949,111;  507,308;   -0,273;   -0,318
949,665;  729,581;    1,636;   -0,682
950,219;  672,581;   -0,091;   -1,045
950,772;  591,217;   -1,909;    1,864
951,326;  583,944;    0,545;   -0,955
951,879;  495,126;    0,727;   -2,318
952,433;  645,490;    0,000;    2,227
952,986;  463,581;    2,909;    0,682
953,539;  415,217;   -0,273;    0,591
954,093;  356,944;    0,545;   -1,318
954,646;  518,217;    0,909;    1,318
955,199;  431,308;    0,000;   -0,500
955,752;  655,126;   -0,455;    1,773
956,305;  491,126;   -0,091;    2,955
956,858;  549,763;    0,818;   -0,318
957,411;  620,672;   -0,545;    2,136
957,964;  504,035;    1,364;    2,136
958,517;  416,308;   -1,545;    3,136
959,070;  370,399;   -0,455;    1,955
959,623;  673,854;    1,091;    1,500
960,176;  616,035;    1,727;    2,045
960,728;  579,035;   -2,727;    0,773
961,281;  523,399;    0,545;    0,500
961,834;  430,763;   -0,909;    0,864
962,386;  436,126;    1,727;    1,045
962,939;  393,490;    0,364;   -0,318
963,491;  446,672;    0,455;    1,136
964,043;  376,490;    1,182;    2,409
964,596;  574,126;   -1,000;    2,227
965,148;  473,399;   -1,000;    1,773
965,700;  373,399;    1,091;   -0,227
966,253;  548,217;   -0,636;    0,318
966,805;  509,126;   -2,273;    0,773
967,357;  433,035;    1,091;   -1,500
967,909;  553,308;    0,455;   -1,227
968,461;  427,399;    0,545;    3,136
969,013;  372,035;   -0,182;   -0,864
969,565;  536,035;   -0,455;   -1,136
970,117;  804,490;   -0,364;    1,045
970,669;  549,035;    0,182;   -0,136
971,220;  326,035;   -0,455;   -1,500
971,772;  418,763;   -0,636;   -0,318
972,324;  525,035;    0,091;   -0,500
972,876;  427,217;    0,818;   -0,045
973,427;  561,490;    1,909;   -1,045
973,979;  622,308;   -0,727;   -2,500
974,530;  406,672;    1,818;    1,318
975,082;  476,399;   -0,545;    1,682
975,633;  417,035;    1,091;    1,682
976,184;  488,854;    0,909;    0,773
976,736;  475,854;    0,091;    0,227
977,287;  483,490;   -0,909;   -0,500
977,838;  448,490;    0,909;   -0,318
978,389;  466,672;   -1,000;   -0,500
978,940;  312,763;    0,545;   -0,409
979,491;  310,763;    0,091;   -0,500
980,042;  415,035;    0,182;    3,045
980,593;  420,854;   -2,545;    0,227
981,144;  526,944;    2,545;   -0,500
981,695;  581,672;    1,455;    1,500
982,246;  516,581;   -0,273;    1,045
982,797;  373,035;   -1,727;    0,682
983,347;  537,490;    0,364;    0,591
983,898;  747,581;    3,091;    0,409
984,449;  693,854;    2,182;    0,773
984,999;  514,399;    1,455;   -1,136
985,550;  473,490;    0,182;   -0,318
986,100;  316,672;   -0,455;   -0,318
986,651;  316,944;   -0,818;    0,045
987,201;  355,308;   -1,000;   -0,591
987,751;  374,490;    0,818;    2,864
988,302;  425,581;    2,636;    1,500
988,852;  475,217;    0,455;   -1,136
989,402;  539,854;    0,091;    0,682
989,952;  557,672;   -2,182;    0,864
990,502;  400,308;   -0,091;    0,682
991,052;  290,944;   -0,727;    0,045
991,602;  342,672;   -2,909;    1,318
992,152;  403,944;    0,455;    0,682
992,702;  437,763;    1,364;   -0,045
993,252;  375,763;   -3,000;   -0,500
993,802;  480,035;   -0,273;    1,318
994,352;  433,763;   -1,545;    1,136
994,901;  336,672;   -0,182;    3,227
995,451;  317,581;   -0,182;    0,318
996,000;  360,490;    1,636;    0,318
996,550;  374,672;    2,273;    0,227
997,100;  416,944;    1,273;   -0,045
997,649;  564,581;    2,182;    0,955
998,198;  372,944;    1,727;   -1,500
998,748;  486,399;    1,091;   -2,318
999,297;  418,035;   -0,818;   -0,409
999,846;  567,490;    1,000;   -0,773
1000,395;  465,399;   -0,818;    0,500
1000,945;  588,035;    1,818;   -0,773
1001,494;  588,308;    2,364;    0,682
1002,043;  564,581;    4,636;    0,864
1002,592;  368,399;   -1,091;    1,955
1003,141;  365,490;   -0,455;   -0,682
1003,690;  545,672;    1,727;    0,500
1004,238;  412,581;    1,455;   -0,045
1004,787;  315,308;    1,364;    1,227
1005,336;  508,308;    0,364;    0,682
1005,885;  457,308;    1,364;   -2,773
1006,433;  451,217;    0,545;    0,955
1006,982;  656,672;    0,455;    1,682
1007,531;  484,126;   -1,818;   -0,227
1008,079;  428,217;   -2,273;    0,500
1008,627;  366,854;   -1,455;    0,409
1009,176;  387,399;    0,000;   -1,955
1009,724;  339,308;    1,091;    0,864
1010,273;  505,672;    1,273;    0,500
1010,821;  369,126;    0,091;    1,409
1011,369;  331,399;   -1,364;    1,318
1011,917;  354,126;   -1,364;   -0,591
1012,465;  450,035;    1,273;   -1,591
1013,013;  435,308;    2,091;   -1,682
1013,561;  542,944;    0,455;   -0,773
1014,109;  649,763;   -1,909;    1,682
1014,657;  514,308;    0,364;    0,591
1015,205;  396,308;    1,636;   -0,955
1015,753;  339,854;   -0,545;   -1,409
1016,301;  424,126;   -2,636;    3,045
1016,848;  501,581;   -1,273;    0,409
1017,396;  506,763;    2,545;    0,045
1017,944;  498,581;    1,182;    1,864
1018,491;  398,399;    0,273;    1,409
1019,039;  732,399;    0,455;    0,591
1019,586;  472,308;   -1,364;    1,682
1020,134;  458,581;    0,455;    1,500
1020,681;  538,308;    0,182;   -1,136
1021,228;  436,399;    2,909;   -2,227
1021,776;  421,126;    1,182;   -1,136
1022,323;  652,944;    0,455;    0,773
1022,870;  560,490;   -1,000;   -0,045
1023,417;  611,763;    2,636;    1,864
1023,964;  424,126;    2,636;    1,227
1024,511;  405,490;    1,000;    0,773
1025,058;  436,581;    3,182;   -0,045
1025,605;  389,126;   -2,273;    3,136
1026,152;  619,035;    1,727;   -0,591
1026,699;  462,308;    1,818;    1,318
1027,245;  444,763;   -0,091;    0,318
1027,792;  376,126;   -1,000;    1,409
1028,339;  609,672;    2,364;   -0,045
1028,885;  466,581;    1,000;   -0,227
1029,432;  413,126;   -0,091;    0,227
1029,978;  523,399;   -1,000;   -1,591
1030,525;  509,217;    1,000;    0,409
1031,071;  376,672;   -1,364;    1,136
1031,618;  691,672;    0,364;    1,682
1032,164;  502,126;   -0,091;    3,045
1032,710;  554,763;    1,636;   -1,500
1033,256;  509,308;   -0,636;   -0,136
1033,803;  360,399;   -0,545;    1,500
1034,349;  221,763;   -1,364;    0,136
1034,895;  271,217;    0,000;   -0,318
1035,441;  347,581;   -0,818;    0,318
1035,987;  399,672;   -2,364;   -0,682
1036,533;  476,126;   -1,455;   -0,955
1037,078;  680,944;    1,455;    1,682
1037,624;  526,672;    2,455;   -0,955
1038,170;  388,308;    0,455;   -0,318
1038,716;  475,126;    1,636;   -0,409
1039,261;  351,308;   -2,273;   -0,773
1039,807;  364,944;   -0,091;    3,409
1040,352;  396,399;   -1,909;   -0,318
1040,898;  385,399;   -1,545;   -0,682
1041,443;  308,672;   -1,455;   -2,591
1041,989;  627,944;    1,091;    1,591
1042,534;  408,763;   -0,364;    2,591
1043,079;  294,944;    2,909;    0,955
1043,625;  411,035;    1,818;    0,500
1044,170;  431,944;   -1,364;    1,045
1044,715;  637,126;    2,455;    0,955
1045,260;  530,399;    2,182;   -0,955
1045,805;  370,944;    1,182;   -0,591
1046,350;  325,763;    1,364;   -0,409
1046,895;  523,035;    2,909;    1,591
1047,440;  520,035;    5,364;    0,409
1047,985;  377,944;    2,818;   -0,955
1048,530;  344,399;    1,545;    1,227
1049,074;  418,672;    0,000;    0,318
1049,619;  342,308;   -1,364;    1,955
1050,164;  329,490;    0,455;    0,227
1050,708;  418,763;   -0,455;    0,045
1051,253;  680,490;    1,273;   -2,227
1051,797;  465,581;    0,818;   -1,318
1052,342;  291,308;   -1,182;    1,045
1052,886;  395,763;    0,364;   -1,409
1053,430;  273,308;   -1,364;    0,136
1053,975;  370,763;   -0,818;   -0,318
1054,519;  381,490;   -0,727;    3,227
1055,063;  453,672;    0,909;    1,318
1055,607;  429,490;   -0,182;    0,227
1056,151;  426,763;    2,909;    1,682
1056,695;  337,308;    2,273;   -1,136
1057,239;  330,763;   -1,727;   -0,682
1057,783;  378,490;    0,818;   -1,500
1058,327;  454,217;    0,000;    1,409
1058,871;  602,308;   -0,545;    1,318
1059,415;  471,035;   -0,818;   -0,045
1059,958;  627,035;    1,455;    2,591
1060,502;  380,672;   -1,000;   -0,773
1061,046;  276,308;    0,364;   -0,955
1061,589;  256,399;   -3,000;   -1,136
1062,133;  231,399;   -1,273;    1,864
1062,676;  277,399;    1,182;    0,864
1063,220;  318,490;    1,091;    0,500
1063,763;  344,581;    0,909;    1,136
1064,306;  375,944;   -0,909;    1,864
1064,849;  369,399;   -0,909;    0,591
1065,393;  344,308;    2,000;   -1,500
1065,936;  348,854;    0,182;   -0,409
1066,479;  262,581;   -1,455;    1,318
1067,022;  291,399;   -0,273;   -0,227
1067,565;  254,854;   -0,091;   -1,318
1068,108;  228,126;    0,727;   -0,591
1068,651;  201,126;   -0,636;    1,409
1069,194;  210,581;   -0,455;   -1,682
1069,736;  243,490;   -1,273;    0,955
1070,279;  210,399;   -1,364;   -0,500
1070,822;  307,944;   -2,000;   -0,318
1071,364;  436,126;   -0,364;    1,318
1071,907;  284,581;   -0,727;    3,227
1072,450;  144,217;    0,000;   -0,045
1072,992;  222,399;   -0,273;    3,136
1073,535;  304,399;    2,091;    2,136
1074,077;  210,217;   -0,727;    2,045
1074,619;  205,490;   -1,364;    0,591
1075,161;  239,035;   -1,091;    1,500
1075,704;  371,035;    1,545;    1,227
1076,246;  221,217;   -0,182;    0,682
1076,788;  159,490;   -0,364;    1,773
1077,330;  164,581;    1,273;    2,136
1077,872;  207,399;    0,909;    0,955
1078,414;  389,399;    2,727;    0,773
1078,956;  241,217;    1,273;   -0,227
1079,498;  390,854;    1,636;    0,318
1080,040;  241,490;    1,909;   -1,318
1080,581;  195,672;    1,636;   -0,318
1081,123;  134,308;    0,091;   -0,773
1081,665;  148,126;   -1,182;   -0,955
1082,206;  352,944;    1,364;   -0,500
1082,748;  262,490;    0,727;    2,045
1083,289;  168,126;   -2,000;    1,318
1083,831;  159,399;   -0,545;    0,227
1084,372;  208,308;    0,000;    0,591
1084,913;  206,126;    1,091;    0,864
1085,455;  149,035;   -1,909;   -2,045
1085,996;  150,308;   -2,273;    0,136
1086,537;  189,581;   -0,091;    0,864
1087,078;  199,217;   -0,909;   -2,136
1087,619;  250,308;   -1,273;    0,227
1088,160;  206,399;    0,000;    1,318
1088,701;  183,035;   -1,091;    0,682
1089,242;  160,944;    1,364;   -2,227
1089,783;  212,126;   -0,273;    1,409
1090,324;  200,308;    0,455;    0,682
1090,865;  143,308;    2,727;   -0,409
1091,405;  113,035;    0,727;    2,227
1091,946;  157,308;    0,182;   -0,955
1092,487;  103,399;    0,818;   -1,409
1093,027;  223,672;   -1,364;   -1,500
1093,568;  149,308;   -0,364;    1,227
1094,108;  191,581;    0,273;    1,773
1094,649;  155,944;   -1,182;    0,136
1095,189;  128,763;   -0,636;   -0,682
1095,729;  124,944;   -0,091;    0,955
1096,269;  111,763;    0,727;   -0,955
1096,810;  276,308;   -1,364;    0,500
1097,350;  208,126;    1,364;   -0,773
1097,890;  155,399;    0,364;    1,227
1098,430;  325,490;    2,364;    2,864
1098,970;  257,490;    2,182;    1,682
1099,510;  144,035;    0,545;   -2,318
1100,050;  121,399;    1,000;   -1,591
1100,589;  129,217;   -0,727;   -0,318
1101,129;  180,763;    0,818;   -0,955
1101,669;  269,854;    1,727;    2,136
1102,209;  192,672;   -0,091;    2,227
1102,748;  152,308;    0,000;    0,955
1103,288;  163,126;    1,273;   -1,227
1103,827;  159,217;    3,091;   -2,227
1104,367;  114,581;   -0,091;   -2,409
1104,906;  114,035;    1,364;   -1,136
1105,445;  163,854;    0,636;   -1,136
1105,985;  137,490;   -0,727;    1,500
1106,524;  147,035;   -1,727;   -0,682
1107,063;  135,399;   -2,727;    1,409
1107,602;  108,854;   -1,909;   -1,500
1108,141;   92,399;   -1,909;    1,500
1108,680;  157,490;   -3,455;   -0,591
1109,219;  130,035;   -0,909;   -0,500
1109,758;  124,854;    0,455;    0,682
1110,297;  118,854;    1,000;   -0,682
1110,836;   87,399;   -0,727;    0,955
1111,375;  133,854;   -2,545;    0,409
1111,913;  168,944;   -1,000;    0,773
1112,452;  132,399;   -0,273;    0,136
1112,991;   79,308;    1,091;    1,955
1113,529;   80,035;   -0,818;   -0,045
1114,068;  113,763;   -0,273;    2,955
1114,606;   79,399;   -0,364;   -0,955
1115,144;  151,126;   -1,273;    1,045
1115,683;  116,035;   -0,727;    0,318
1116,221;  149,399;   -0,455;   -0,864
1116,759;  102,854;    0,636;   -0,864
1117,297;  185,490;    0,000;    1,864
1117,836;  103,126;   -2,182;   -1,227
1118,374;  104,308;    0,182;   -0,682
1118,912;  108,399;    0,909;    2,682
1119,450;   98,944;    1,000;    0,864
1119,988;   99,490;    1,545;    2,136
1120,525;  374,581;    5,091;    3,318
1121,063;  200,944;    1,182;    1,864
1121,601;  105,854;   -0,909;   -1,227
1122,139;   85,581;   -0,727;   -2,045
1122,676;  188,308;   -0,727;    2,773
1123,214;  160,490;   -1,182;    4,409
1123,751;   79,854;    1,727;    2,227
1124,289;  121,854;   -0,091;   -0,409
1124,826;   84,672;    1,727;    0,227
1125,364;   44,490;    1,727;   -0,955
1125,901;  147,490;    1,182;    1,227
1126,438;  160,581;    0,818;    0,955
1126,975;   50,035;   -0,727;   -0,773
1127,513;   77,217;    0,273;    2,136
1128,050;   50,217;    1,636;   -0,682
1128,587;   89,308;    2,000;   -0,227
1129,124;  113,035;    0,091;    1,318
1129,661;   60,126;    0,273;    0,227
1130,198;  137,126;    1,636;    0,773
1130,734;  102,217;    0,182;    1,409
1131,271;   46,399;   -0,909;    0,864
1131,808;  118,399;    2,909;    3,045
1132,345;   70,763;    1,545;    0,318
1132,881;   25,944;   -1,545;   -1,864
1133,418;   81,035;    0,727;   -1,136
1133,954;   55,763;    2,455;   -2,682
1134,491;   90,035;    1,364;   -0,773
1135,027;   51,672;    2,364;    0,864
1135,564;   84,399;    0,273;    2,955
1136,100;   79,672;    0,364;    2,136
1136,636;   41,581;   -1,273;   -1,045
1137,172;   68,854;    0,000;   -1,045
1137,708;   47,399;   -1,364;   -1,045
1138,245;   39,399;    1,273;   -1,227
1138,781;   28,944;    1,091;   -3,318
1139,317;   52,399;    1,273;   -1,409
1139,852;   61,217;    3,091;    0,136
1140,388;   89,490;   -1,182;   -0,409
1140,924;   49,581;   -1,091;   -2,227
1141,460;   30,035;   -1,636;    0,136
1141,996;   19,581;   -1,364;    2,682
1142,531;   26,490;    1,364;    3,318
1143,067;  106,308;    1,182;    1,045
1143,602;  138,126;   -0,091;   -0,318
1144,138;   71,944;   -2,636;    1,045
1144,673;   32,581;   -1,455;    1,409
1145,209;   46,399;   -1,909;   -0,318
1145,744;   25,126;   -0,727;    0,864
1146,279;   63,308;    1,818;   -0,136
1146,815;   36,672;    1,545;   -2,682
1147,350;   53,672;   -1,364;    0,045
1147,885;   27,672;   -0,818;   -1,318
1148,420;   30,944;   -2,273;    0,773
1148,955;   25,672;   -1,727;    1,864
1149,490;   30,035;   -0,909;   -1,591
1150,025;   20,672;    0,455;   -1,773
1150,560;   60,672;    1,091;   -0,955
1151,094;   56,217;    1,455;   -0,591
1151,629;   49,672;    1,636;    0,864
1152,164;   31,126;    1,364;    1,318
1152,698;   19,399;   -0,182;   -0,136
1153,233;    9,217;    0,091;   -0,682
1153,767;   21,763;   -3,000;   -2,318
1154,302;   36,672;   -1,455;    1,773
1154,836;   35,490;   -0,455;   -2,136
1155,371;   46,126;   -1,364;    3,682
1155,905;   31,035;   -0,636;    1,682
1156,439;   28,854;   -0,636;   -0,500
1156,973;   39,672;    0,364;    0,318
1157,507;   19,672;   -0,364;    0,682
1158,042;   26,763;   -0,727;    1,045
1158,576;   39,308;    0,182;    1,773
1159,110;   40,944;   -0,818;    2,409
1159,643;   30,217;    0,636;   -0,045
1160,177;   15,035;   -1,545;    1,500

