
Integration time [ms]:   0,040
Averaging Nr. [scans]: 11
Smoothing Nr. [pixels]: 0
Data measured with spectrometer [name]: 7318044SP
Wave   ;Sample   ;Dark     ;Reference
[nm]   ;[counts] ;[counts] ;[counts] 

186,757;   35,459;   31,551;    1,318
187,357;   33,505;   22,551;    0,955
187,958;   26,718;   15,460;   -1,591
188,558;   41,260;    8,915;   -1,227
189,159;   23,803;    6,733;   -4,500
189,759;    6,973;    7,278;   -3,591
190,360;   11,605;    2,824;   -2,136
190,960;   22,677;    2,915;   -4,136
191,560;   27,573;    3,189;   -6,591
192,161;  125,931;    4,372;   -3,500
192,761;   67,934;    4,010;   -3,227
193,361;   44,139;    1,556;   -3,773
193,962;   56,169;    2,010;   -2,682
194,562;   16,804;    1,189;   -3,955
195,162;   17,430;   -2,448;   -2,227
195,762;   70,753;   -3,176;   -0,045
196,362;   44,855;    1,370;   -2,500
196,963;   12,729;    2,006;   -0,864
197,563;   30,996;    1,551;   -0,955
198,163;    6,205;    0,096;   -0,682
198,763;    9,518;    1,733;   -0,500
199,363;   29,995;    3,096;   -0,500
199,963;   19,268;    0,369;    0,409
200,563;   17,654;    2,823;   -1,409
201,163;    9,975;    3,277;   -0,227
201,763;   20,841;    3,732;    0,318
202,363;    8,551;    1,459;    1,500
202,963;   13,420;    1,459;    1,045
203,563;   40,239;    0,277;    0,500
204,162;   15,818;    2,096;   -1,864
204,762;   12,911;    0,550;    0,591
205,362;    6,127;    3,004;    1,955
205,962;   15,875;    3,096;    1,955
206,562;   11,690;    1,823;    2,318
207,161;    4,184;   -0,087;    0,318
207,761;   34,966;    1,277;    2,409
208,361;   12,108;   -0,268;    1,409
208,960;   17,380;    0,459;    1,500
209,560;   14,300;    1,277;    1,591
210,160;   21,636;    0,550;    1,864
210,759;   11,281;    4,186;    1,227
211,359;    5,246;    1,459;    1,045
211,958;   50,025;    1,277;    2,045
212,558;   44,338;    1,732;    1,864
213,157;   16,357;    1,822;    1,500
213,757;   79,388;    3,822;   -0,227
214,356;   31,346;    1,277;   -0,409
214,956;   68,278;    3,095;    0,409
215,555;   22,976;    2,095;    2,136
216,154;    9,343;   -2,723;   -0,591
216,754;    9,416;    0,277;    0,773
217,353;   15,326;   -0,268;   -1,045
217,952;    2,606;   -0,178;    0,318
218,552;   20,797;    1,368;   -0,773
219,151;    7,720;    0,277;    0,955
219,750;    2,614;    0,004;   -0,227
220,349;   -1,345;   -0,451;    1,045
220,948;   25,592;   -1,360;    1,136
221,548;    6,928;    0,913;    1,227
222,147;    7,524;   -0,087;   -0,409
222,746;   33,294;   -0,451;   -0,955
223,345;   18,154;    0,731;    0,500
223,944;   17,808;   -0,451;    0,773
224,543;   15,879;    1,004;   -1,409
225,142;    9,685;    0,094;    0,136
225,741;   15,228;   -0,814;    1,045
226,340;   10,183;   -0,451;   -0,955
226,939;   25,962;   -0,996;   -0,136
227,538;    5,206;   -0,360;   -0,773
228,137;   27,800;   -0,814;    0,864
228,735;   21,155;   -0,541;    1,227
229,334;    3,865;   -0,905;   -0,227
229,933;   32,070;    0,459;    0,591
230,532;   25,240;    1,186;   -0,409
231,131;   43,357;    1,732;    0,318
231,729;   22,482;   -2,450;   -2,318
232,328;    7,544;   -0,723;   -1,500
232,927;   12,485;    1,004;   -0,500
233,525;    6,936;    3,640;    0,045
234,124;   12,601;    2,368;   -1,591
234,723;    9,397;    0,913;   -1,045
235,321;    7,621;    2,277;    0,136
235,920;   10,399;    1,186;   -1,227
236,518;   30,351;    3,459;    0,318
237,117;    7,570;    0,004;   -0,227
237,715;   14,598;    0,640;   -0,500
238,314;   13,084;   -0,087;   -2,318
238,912;   28,178;   -0,723;   -1,409
239,510;   22,235;    0,459;   -1,227
240,109;   43,874;    0,004;    3,773
240,707;   32,641;   -0,996;    1,227
241,305;    7,613;    0,550;    0,136
241,904;   15,795;   -0,178;   -2,045
242,502;   45,820;   -0,632;   -0,227
243,100;   24,490;   -0,087;   -0,955
243,698;    5,974;    0,732;    1,682
244,297;   13,601;   -0,632;    0,682
244,895;    8,149;   -0,269;   -2,318
245,493;   28,777;    2,186;   -0,591
246,091;   40,467;    1,368;   -1,318
246,689;   20,732;    1,004;    0,591
247,287;   18,902;    0,822;   -1,136
247,885;   10,436;   -1,451;    1,227
248,483;    4,800;    1,822;   -0,500
249,081;   15,685;    0,185;    1,591
249,679;   16,927;   -0,178;    1,682
250,277;    6,467;   -1,723;    0,864
250,875;   14,590;   -1,087;   -1,045
251,473;    6,945;   -1,178;    0,500
252,071;   25,072;    1,459;    1,045
252,669;   13,263;   -1,814;    0,318
253,267;    6,279;   -0,087;    0,773
253,864;    9,175;   -0,360;    0,682
254,462;   21,319;    1,640;    1,591
255,060;    3,822;   -0,269;    1,318
255,658;    5,535;    0,822;   -0,136
256,255;    8,530;    0,186;   -2,045
256,853;   16,618;   -0,269;    1,409
257,451;    8,578;    0,822;    1,864
258,048;   70,081;    1,822;    1,864
258,646;   29,856;    1,731;   -1,045
259,243;   41,799;   -0,087;    2,227
259,841;   22,996;   -0,814;    0,318
260,438;    4,896;   -0,087;    0,864
261,036;   19,249;   -1,905;    1,409
261,633;    6,916;   -0,087;    2,227
262,231;    1,058;    2,731;   -0,045
262,828;    1,280;   -0,905;    1,136
263,425;    4,519;    0,913;   -0,591
264,023;    3,640;    0,186;    0,045
264,620;   21,839;   -0,360;   -0,318
265,217;   27,998;   -2,087;    3,136
265,815;   11,578;   -1,905;    2,136
266,412;   17,106;    0,731;    0,136
267,009;   16,388;   -1,451;    0,773
267,606;   27,493;    0,822;   -0,955
268,203;   16,467;   -0,269;   -0,591
268,801;   13,621;    1,731;    0,591
269,398;    4,464;   -0,360;    2,500
269,995;   19,189;    0,277;    1,591
270,592;   12,595;   -0,632;   -0,500
271,189;    5,831;    0,186;    0,409
271,786;    3,530;   -0,632;    1,227
272,383;   17,629;   -1,087;    0,227
272,980;    8,584;    0,277;    0,318
273,577;    7,857;    0,004;    1,227
274,174;    4,712;    0,822;    2,591
274,771;   14,172;   -0,814;   -0,773
275,367;   78,030;    2,277;    1,409
275,964;   33,502;    0,731;   -0,500
276,561;    3,743;    1,549;   -1,045
277,158;   -1,891;    0,095;   -1,773
277,755;   25,595;    2,185;    0,409
278,351;   19,939;   -0,451;   -1,500
278,948;   21,492;   -0,815;    0,045
279,545;   13,393;   -1,360;    2,318
280,141;   24,180;   -1,723;   -2,045
280,738;   29,246;   -0,451;   -0,136
281,334;    7,828;   -1,633;    0,591
281,931;    2,924;   -0,087;   -1,318
282,528;   20,430;    0,822;   -0,500
283,124;   25,319;   -1,087;   -0,500
283,721;   22,708;   -0,451;    1,409
284,317;    9,120;    0,185;    2,500
284,913;   23,995;   -1,360;    0,591
285,510;   29,722;    0,640;   -0,318
286,106;   28,518;   -2,269;   -0,955
286,703;   11,555;   -0,360;    1,955
287,299;    5,632;   -1,451;   -0,591
287,895;    6,569;    0,822;   -1,045
288,491;    4,828;    0,186;    2,136
289,088;   12,811;   -2,360;    2,409
289,684;   12,263;   -1,723;    1,500
290,280;   28,882;    0,368;    0,682
290,876;   22,282;    1,822;    5,500
291,472;   19,021;    1,276;    2,227
292,068;   17,898;    1,367;    0,227
292,665;    7,996;    2,095;    0,773
293,261;    3,393;    0,276;    2,136
293,857;   18,501;    2,913;    2,136
294,453;    9,607;    3,550;    0,955
295,049;   33,508;   -0,268;    1,955
295,644;   20,380;    0,095;    0,136
296,240;    8,323;   -0,905;   -0,136
296,836;   14,591;   -0,995;    0,318
297,432;   23,622;    1,096;   -0,500
298,028;   18,446;    0,732;    0,773
298,624;   10,071;    1,459;    1,864
299,220;   12,446;    2,368;    0,591
299,815;    9,826;    1,005;   -0,409
300,411;   16,599;    0,914;    1,773
301,007;   18,421;    1,368;    0,227
301,602;    5,969;   -0,541;   -2,318
302,198;   30,517;    0,732;   -0,773
302,794;   11,599;    1,187;   -0,500
303,389;    2,989;   -1,177;    1,045
303,985;    4,102;    0,550;    1,409
304,580;   30,955;    1,459;    1,591
305,176;   15,869;   -3,086;    0,136
305,771;    0,221;   -1,268;   -1,227
306,367;   59,823;    4,095;    0,136
306,962;   24,423;    0,641;    1,500
307,558;   28,145;   -0,450;    0,136
308,153;   11,968;    1,095;   -1,136
308,748;    3,551;   -0,814;    1,682
309,344;   40,826;   -0,632;   -1,318
309,939;   34,298;   -1,905;   -1,318
310,534;   12,880;   -0,086;   -1,682
311,130;    5,929;    0,459;   -2,500
311,725;    4,633;    1,004;   -0,500
312,320;   12,619;    2,459;    0,045
312,915;   13,980;    1,459;   -1,045
313,510;   41,008;    1,550;   -0,500
314,105;    8,273;    1,096;    1,409
314,700;    3,614;   -3,086;   -1,045
315,295;   11,591;   -0,904;    0,045
315,890;    5,042;    1,277;    0,864
316,485;   12,468;   -0,359;   -0,318
317,080;    1,349;   -3,086;    1,591
317,675;   46,809;    2,005;   -0,682
318,270;   87,469;    5,550;    3,318
318,865;   49,824;    3,278;    3,045
319,460;   25,511;   -0,904;    0,591
320,055;    8,199;   -0,541;   -1,227
320,650;    8,790;   -1,995;   -0,591
321,244;    9,878;   -0,177;   -1,409
321,839;    8,003;   -1,541;   -0,227
322,434;   13,074;   -1,086;   -1,591
323,029;    4,969;    1,732;    1,591
323,623;    5,824;    1,550;    0,773
324,218;   38,364;    2,368;    1,409
324,812;   22,062;    1,096;    1,591
325,407;   14,693;   -0,814;    2,045
326,002;   45,616;    0,277;   -0,409
326,596;   25,588;    0,914;    1,318
327,191;    9,756;    0,823;   -1,045
327,785;   10,770;   -0,813;   -0,227
328,379;    5,122;    1,368;    0,136
328,974;    5,852;    0,914;   -3,955
329,568;   17,437;    0,186;   -2,409
330,163;   25,989;    2,096;    1,045
330,757;    7,400;    2,459;    1,591
331,351;    2,582;    0,459;    0,682
331,945;    4,409;    0,914;    1,409
332,540;   11,954;   -1,723;   -0,591
333,134;    7,869;   -1,086;    0,773
333,728;   15,315;    0,005;    0,318
334,322;    2,744;   -1,177;   -0,864
334,916;    3,687;    0,277;    0,955
335,510;   21,204;   -0,450;   -0,136
336,105;   16,301;   -1,086;    1,591
336,699;    7,616;   -1,086;    0,591
337,293;   10,667;   -1,723;    0,318
337,887;    5,531;   -2,723;    1,955
338,481;   19,494;    0,459;    0,591
339,074;   39,951;   -0,359;    2,682
339,668;   34,633;   -1,632;    1,227
340,262;  163,971;    1,732;    3,227
340,856;   63,042;    1,822;   -0,682
341,450;   15,661;    1,004;    1,864
342,044;   26,303;    1,459;    0,136
342,637;   47,238;    0,913;   -2,136
343,231;   19,584;   -2,360;    0,682
343,825;   20,244;   -1,086;   -0,591
344,419;   27,097;   -1,995;    0,500
345,012;  176,841;    2,459;    4,045
345,606;  110,696;    4,641;    1,591
346,199;   37,952;   -1,813;   -0,227
346,793;   66,543;    1,914;    2,045
347,386;   30,051;   -0,813;   -1,136
347,980;   10,080;   -0,268;   -0,045
348,573;   33,123;    2,278;    0,409
349,167;  159,785;    5,278;    4,773
349,760;   82,805;    2,914;    2,682
350,354;   78,499;   -0,813;    1,136
350,947;   89,044;    1,096;    1,682
351,540;   60,939;   -0,358;   -1,409
352,134;   27,717;    1,096;    1,136
352,727;   29,856;   -0,086;    1,136
353,320;   37,217;    0,005;    0,591
353,913;   17,998;   -1,995;    1,864
354,507;   78,859;    0,823;   -1,227
355,100;   43,808;    0,460;    0,864
355,693;  223,220;    2,005;    2,409
356,286;  109,618;    0,823;    2,773
356,879;   52,731;   -0,722;    1,227
357,472;   61,669;   -0,904;    1,500
358,065;   68,712;   -0,722;    2,500
358,658;   25,359;   -0,540;    2,318
359,251;   20,012;   -1,631;   -0,591
359,844;   76,322;   -1,904;   -1,136
360,437;   95,186;   -2,995;    0,045
361,030;   40,101;    1,369;   -0,682
361,623;   45,601;    2,824;    0,318
362,215;  131,871;   -0,086;    2,045
362,808;   56,285;   -2,358;   -1,682
363,401;   37,894;   -2,449;    0,136
363,994;  122,996;   -0,631;   -1,500
364,586;   53,116;    0,824;   -1,500
365,179;   38,329;   -0,449;   -1,136
365,772;   10,814;   -1,995;    2,045
366,364;   39,326;    1,915;   -3,227
366,957;   48,026;    2,279;   -0,045
367,549;   35,745;    2,188;   -0,864
368,142;   42,350;    1,825;   -1,500
368,734;   31,200;    0,734;   -2,136
369,327;   13,766;    1,643;   -0,500
369,919;   26,301;   -1,538;    0,409
370,512;   31,804;   -1,083;   -0,500
371,104;  129,343;   -0,901;    1,591
371,696;  130,569;    1,191;   -0,955
372,289;   66,575;    0,373;    1,136
372,881;   46,520;   -2,080;    1,318
373,473;   21,002;   -2,170;    1,136
374,066;   38,067;   -0,169;    0,500
374,658;   37,764;    0,378;    1,136
375,250;   23,373;    0,653;   -1,409
375,842;   27,644;    0,473;   -0,045
376,434;   11,536;   -0,435;   -0,409
377,026;   13,000;    0,204;   -2,500
377,618;   35,561;   -0,158;   -0,682
378,210;   15,369;   -0,338;   -1,955
378,802;   28,922;    0,754;   -0,591
379,394;  182,811;    1,846;    0,682
379,986;   76,792;    1,393;   -0,955
380,578;   33,733;   -0,153;    0,773
381,170;  137,834;   -0,972;    0,045
381,762;   93,840;    0,755;    1,409
382,354;   58,570;   -0,065;   -1,318
382,945;   35,874;   -2,976;    0,318
383,537;   17,073;   -2,705;   -1,955
384,129;   14,451;   -2,160;   -1,136
384,721;   51,842;   -0,252;    0,955
385,312;   33,904;   -0,161;   -0,955
385,904;   55,464;   -2,706;    1,591
386,496;   32,448;   -0,979;    1,045
387,087;  102,020;    1,022;    2,500
387,679;   63,864;   -1,160;    0,045
388,270;   45,032;    2,840;    2,045
388,862;   49,625;    1,295;   -0,318
389,453;   48,904;   -0,887;    1,045
390,045;   42,174;   -0,705;   -2,682
390,636;    4,396;    0,204;   -0,591
391,227;   28,958;   -0,523;   -0,045
391,819;   25,102;    0,204;    0,773
392,410;  127,304;    1,022;    0,045
393,001;   41,820;   -0,979;   -1,591
393,593;   54,859;    1,930;   -0,045
394,184;   71,291;    1,385;   -0,409
394,775;   33,848;    1,839;    2,136
395,366;    8,175;    1,385;    0,773
395,957;   52,596;    0,113;    0,136
396,548;   23,090;   -0,342;    2,682
397,139;   65,659;   -2,433;    0,591
397,730;   39,974;   -1,888;    0,955
398,321;   46,269;   -1,252;    0,955
398,912;   27,249;   -0,615;    0,136
399,503;   23,598;   -3,524;   -1,409
400,094;   31,101;    0,294;    1,682
400,685;   28,965;   -0,433;    0,045
401,276;   24,442;    0,930;   -0,955
401,867;   17,058;   -0,888;    0,773
402,458;    5,240;   -2,251;   -2,318
403,048;   39,118;    1,112;    0,591
403,639;   26,036;    0,840;    0,864
404,230;   64,047;    2,476;    0,318
404,821;   85,053;   -0,615;    0,045
405,411;   55,572;    1,203;   -2,591
406,002;   22,229;   -1,252;   -1,136
406,592;  109,805;    2,294;    0,045
407,183;   55,361;    0,566;   -1,500
407,774;   53,520;    3,475;   -0,136
408,364;   28,350;    0,930;    0,409
408,954;   63,714;    0,384;    1,227
409,545;   62,052;    1,021;    1,045
410,135;   44,290;    1,293;    0,500
410,726;   20,991;    1,838;    0,318
411,316;  100,136;    0,111;    0,773
411,906;   44,326;   -0,253;   -0,409
412,497;   45,560;   -1,070;   -0,045
413,087;   27,401;   -1,980;   -0,227
413,677;    4,630;   -0,707;    3,864
414,267;    4,957;    0,656;    1,409
414,857;   -1,447;   -2,980;    4,227
415,448;    4,810;    0,839;    0,500
416,038;   12,764;    0,020;   -0,591
416,628;   19,423;   -0,889;    0,409
417,218;   31,084;    0,565;    3,318
417,808;   81,590;    0,202;   -0,409
418,398;   44,874;    0,020;    2,682
418,988;   11,732;    2,020;    0,591
419,578;   43,587;   -0,707;    1,409
420,168;   18,161;   -1,343;   -0,955
420,757;   54,176;   -1,343;   -1,500
421,347;   15,555;    0,111;   -0,227
421,937;   15,533;    2,292;    1,409
422,527;   55,825;    0,838;   -0,773
423,116;  107,596;   -0,253;   -0,045
423,706;   18,613;   -1,889;    0,318
424,296;    8,868;    1,384;    0,682
424,885;   40,596;   -0,071;   -3,045
425,475;   29,359;    1,474;   -2,864
426,065;    6,436;   -0,980;   -0,318
426,654;   -0,391;   -0,435;   -0,318
427,244;   82,033;    0,020;    1,409
427,833;   63,428;    1,383;   -0,500
428,423;   25,603;   -0,526;    1,136
429,012;   22,742;   -0,344;   -1,136
429,601;   61,500;   -1,344;    0,136
430,191;   30,737;    1,292;    4,318
430,780;    4,345;   -0,344;   -0,409
431,369;   54,691;    0,746;   -0,045
431,959;   19,554;   -1,254;    0,500
432,548;    6,310;   -1,163;   -0,045
433,137;   -0,043;   -1,254;   -1,318
433,726;   14,972;    0,292;    0,500
434,315;   17,682;   -0,526;    2,409
434,905;   54,480;   -1,254;    1,409
435,494;   43,312;    0,746;    0,955
436,083;   12,102;   -0,981;   -0,955
436,672;   45,477;    0,110;    0,500
437,261;   27,934;    0,292;   -1,955
437,850;   89,392;    1,383;    0,682
438,439;  110,976;    3,291;    1,955
439,027;  166,772;    3,655;    1,773
439,616;  115,217;    2,927;    1,227
440,205;   35,235;    0,200;   -2,136
440,794;   29,078;    2,109;   -0,045
441,383;   11,924;   -1,346;   -0,591
441,971;    7,345;   -2,436;    0,591
442,560;    8,916;    0,563;   -1,773
443,149;   -9,228;    0,379;   -1,318
443,737;   -6,071;   -0,074;   -2,318
444,326;    3,759;    0,018;    0,318
444,915;   13,992;   -1,982;    0,864
445,503;   21,262;   -2,891;   -0,318
446,092;  136,149;    0,382;    2,136
446,680;   96,549;    0,382;    0,318
447,269;   41,804;   -0,346;   -0,318
447,857;   41,884;    0,018;   -1,773
448,445;   27,492;    0,563;    1,318
449,034;   13,625;   -1,528;   -1,136
449,622;   20,088;   -1,073;    3,500
450,210;   99,727;    2,017;    2,227
450,799;   67,150;    0,290;   -0,591
451,387;   62,403;    1,381;   -0,591
451,975;   60,127;    2,654;    0,864
452,563;   86,699;    3,472;    2,318
453,151;   30,582;   -0,528;   -1,227
453,739;   26,655;   -1,347;    0,136
454,328;   59,360;    2,381;   -2,136
454,916;   41,044;    2,562;   -0,136
455,504;   54,646;    1,017;    1,227
456,092;   19,721;    0,017;   -1,591
456,679;   10,561;    1,472;    0,682
457,267;  166,095;    4,017;    1,045
457,855;   49,013;    1,017;    1,409
458,443;   -2,601;   -0,165;    1,682
459,031;   34,089;    0,108;    2,409
459,619;   26,612;   -1,801;    2,864
460,206;    5,419;    0,835;    2,045
460,794;    5,904;   -2,983;   -0,227
461,382;   16,071;   -0,529;   -0,864
461,970;   17,066;    1,198;    1,864
462,557;   -0,130;   -0,711;   -0,682
463,145;   25,410;   -3,165;   -1,682
463,732;  122,591;    2,016;   -1,045
464,320;   42,071;   -0,075;   -3,045
464,907;   80,082;    2,743;   -0,773
465,495;   41,124;    0,743;   -1,227
466,082;   24,866;   -1,984;   -0,045
466,670;   35,537;   -2,529;    1,227
467,257;    5,349;   -1,711;    2,045
467,844;   31,428;   -0,075;    0,045
468,432;   22,465;    0,834;    3,500
469,019;   17,337;    0,925;   -1,773
469,606;   48,016;    0,470;    3,682
470,193;   52,683;   -1,439;    0,227
470,780;   32,616;   -2,075;    0,864
471,368;   10,317;   -1,257;   -0,773
471,955;   42,240;    1,379;   -0,682
472,542;   31,101;    0,652;   -1,136
473,129;    3,561;   -0,166;    0,136
473,716;    4,590;    1,470;    0,591
474,303;   11,789;    0,652;   -0,864
474,890;    9,464;   -1,439;   -0,500
475,477;   48,845;   -1,621;    0,409
476,064;   17,091;    1,106;   -1,591
476,650;   71,143;    0,288;    0,318
477,237;   28,506;   -0,258;    0,955
477,824;   20,288;   -1,076;    0,864
478,411;   -1,746;   -1,894;   -0,318
478,997;   -8,460;    0,560;   -0,773
479,584;   -9,844;    1,196;   -0,409
480,171;   26,781;   -0,440;   -0,773
480,757;   43,014;    2,651;    0,773
481,344;   18,796;    0,469;    0,409
481,931;   -3,246;    1,105;    1,045
482,517;   24,102;   -1,258;    0,318
483,104;   53,972;    1,106;    2,864
483,690;   11,542;   -1,804;    0,045
484,276;    8,187;   -0,895;    0,227
484,863;   76,622;    2,469;    1,136
485,449;   25,431;   -0,077;    0,318
486,035;   11,741;   -1,986;   -0,136
486,622;   37,653;   -0,895;    0,045
487,208;   10,769;    1,378;    1,500
487,794;   -6,703;    0,741;    0,318
488,380;   -2,271;    0,105;   -1,409
488,967;   -5,939;   -1,168;   -0,409
489,553;   -1,800;   -1,895;   -1,409
490,139;   18,760;    1,559;    0,773
490,725;   -0,016;    0,741;   -0,227
491,311;   12,939;    3,287;    3,045
491,897;    7,237;   -0,986;    1,500
492,483;   11,853;    0,105;    1,227
493,069;  171,723;    3,923;    0,864
493,655;   59,524;    1,650;    0,682
494,241;   16,842;    1,377;   -0,955
494,826;   18,555;    0,287;   -1,045
495,412;   32,467;    2,559;   -0,682
495,998;   10,719;   -0,805;   -0,318
496,584;   26,430;    0,377;    1,045
497,169;   32,884;    1,014;   -0,682
497,755;   14,915;    0,650;    1,227
498,341;   53,512;    0,559;    0,318
498,926;  101,463;    1,832;    1,955
499,512;   17,411;    1,286;    2,955
500,097;    9,031;    0,195;   -0,318
500,683;   14,565;   -0,350;    2,136
501,268;    7,585;   -0,169;   -0,955
501,854;   16,502;   -0,169;    1,227
502,439;    5,832;   -0,624;   -1,773
503,024;    3,295;    0,195;    0,500
503,610;   16,909;   -0,078;   -0,682
504,195;    6,460;    0,558;    1,955
504,780;   40,164;    2,922;    1,227
505,366;   73,386;    3,013;    2,864
505,951;   38,860;    0,740;    1,045
506,536;   18,539;   -3,260;   -3,682
507,121;   33,076;    0,285;   -0,318
507,706;   17,829;    2,376;    1,045
508,291;    6,959;    2,649;    1,136
508,876;    3,430;   -0,988;    2,591
509,461;    6,524;   -0,169;   -0,773
510,046;   23,947;    0,194;    0,318
510,631;   32,802;   -0,351;   -0,773
511,216;    6,282;    2,467;   -0,500
511,801;   22,743;   -0,442;    2,591
512,386;   26,959;    0,740;    0,500
512,971;   30,924;   -2,988;    0,955
513,555;   34,760;   -0,897;   -1,500
514,140;   23,367;   -0,442;   -3,136
514,725;   72,455;   -0,715;   -1,136
515,309;   35,586;   -0,533;    0,318
515,894;   11,938;   -0,624;   -2,227
516,479;   24,478;   -0,624;   -0,955
517,063;   26,583;    0,376;    1,227
517,648;   13,708;    1,012;   -1,136
518,232;    5,218;   -0,261;   -1,409
518,817;   44,778;   -0,079;    1,682
519,401;   95,997;    2,194;    0,591
519,985;  103,293;    1,103;    1,136
520,570;   52,721;    0,830;   -1,955
521,154;  103,292;    2,102;    0,591
521,738;  203,985;   -2,352;    2,409
522,323;  124,514;   -0,170;    1,682
522,907;  148,320;    0,466;   -0,136
523,491;  112,891;    0,557;    0,955
524,075;  118,360;    2,284;    0,591
524,659;  291,673;    1,466;    0,591
525,243;  273,800;    1,739;    0,409
525,827;  255,275;    0,648;   -0,045
526,411;  283,763;   -1,989;   -0,136
526,995;  411,573;   -0,352;    1,409
527,579;  504,797;   -0,443;   -1,045
528,163;  465,208;    0,375;   -1,500
528,747;  616,075;    2,466;   -0,773
529,331;  589,581;   -0,080;   -1,409
529,915;  430,319;    1,738;    0,955
530,499;  574,862;   -0,807;    1,227
531,082;  796,325;   -0,534;    1,591
531,666;  905,614;    1,374;    0,773
532,250;  820,180;    1,284;    2,682
532,833;  995,023;    0,920;    2,773
533,417;  807,225;   -1,807;    0,864
534,001;  982,390;    1,647;   -0,318
534,584;  926,026;    0,374;    0,500
535,168;  730,100;    0,465;    1,409
535,751; 1213,262;    0,647;    0,045
536,334;  887,975;   -0,898;   -0,409
536,918;  782,498;    0,011;    1,591
537,501;  806,708;   -0,899;    1,318
538,085;  891,131;   -0,444;    1,045
538,668;  973,509;    0,829;    2,409
539,251; 1384,250;    1,829;    3,773
539,834; 1093,580;    0,101;    0,773
540,418; 1250,275;   -1,990;    4,318
541,001; 1470,932;   -0,990;    1,773
541,584; 1180,511;    2,101;    2,227
542,167; 1302,949;    1,374;    2,955
542,750; 1146,846;    1,919;   -0,773
543,333;  953,579;    0,555;    2,136
543,916; 1301,485;    0,192;    2,500
544,499; 1191,386;   -1,354;    0,227
545,082; 1302,863;    1,374;    3,591
545,665; 1206,070;    1,919;    1,500
546,248; 1376,579;    1,010;   -0,318
546,830; 1351,715;   -0,445;    1,955
547,413; 1377,090;    1,010;   -0,773
547,996; 1418,743;    0,555;    0,500
548,579; 1258,248;    0,919;    0,955
549,161; 1542,907;    1,828;    2,682
549,744; 1414,958;   -0,809;    0,409
550,326; 1341,430;   -0,809;   -1,136
550,909; 1852,182;    2,737;    0,591
551,492; 1511,561;   -0,263;    0,227
552,074; 1596,708;   -0,173;   -1,318
552,657; 1650,623;    2,373;    0,045
553,239; 1484,483;   -0,173;   -0,773
553,821; 1403,859;   -1,082;    1,045
554,404; 1622,702;    1,282;    1,136
554,986; 1766,713;    0,464;    1,045
555,568; 1639,392;    1,191;   -0,955
556,151; 1843,679;    1,191;   -0,227
556,733; 1504,216;   -0,264;   -0,864
557,315; 1520,125;    0,100;    0,500
557,897; 1320,633;    0,554;   -0,500
558,479; 1338,744;   -1,991;    1,318
559,061; 1485,727;   -0,719;   -0,864
559,643; 1603,787;   -0,264;    0,045
560,225; 1642,051;    1,645;    2,864
560,807; 1517,514;    0,918;    0,318
561,389; 1436,017;    0,554;    2,318
561,971; 1506,522;    0,463;    2,136
562,553; 1516,102;   -1,628;    1,591
563,135; 1614,897;   -0,537;    1,136
563,717; 1972,977;    3,372;    1,136
564,298; 1855,883;    3,645;   -0,045
564,880; 1568,246;    0,645;   -1,409
565,462; 1437,609;    0,645;    1,318
566,043; 1785,059;   -0,446;    2,318
566,625; 1956,596;    1,918;    1,227
567,207; 1712,749;    1,099;    1,682
567,788; 1703,973;   -1,264;    1,500
568,370; 1836,456;    1,917;   -0,500
568,951; 1705,666;    0,190;    0,227
569,533; 1881,666;   -0,628;   -0,500
570,114; 2013,865;   -0,446;    0,682
570,695; 2046,288;   -0,174;   -1,318
571,277; 2012,572;   -0,265;   -1,682
571,858; 2257,126;    2,008;   -1,136
572,439; 2271,104;    1,554;   -1,045
573,021; 2251,194;    2,099;   -2,773
573,602; 2372,083;   -1,265;    0,318
574,183; 2418,736;   -2,083;    2,227
574,764; 2428,526;   -1,629;    0,409
575,345; 2549,620;    0,917;   -0,136
575,926; 2519,589;   -0,356;    0,136
576,507; 2584,711;    1,099;   -0,227
577,088; 2702,708;    3,099;    1,682
577,669; 2853,776;    0,735;    1,955
578,250; 3094,918;    0,644;   -1,045
578,831; 2939,205;   -1,356;   -2,227
579,412; 2825,517;   -0,810;    0,955
579,993; 3110,631;    1,008;    0,227
580,573; 3103,097;   -0,629;   -0,955
581,154; 2831,151;    0,735;   -0,591
581,735; 2990,128;    0,644;    0,773
582,315; 2856,128;   -0,629;    2,136
582,896; 3039,617;   -0,174;    1,227
583,477; 2855,821;    0,189;    1,227
584,057; 2950,174;    0,553;    0,955
584,638; 3025,813;    2,553;    2,318
585,218; 3213,338;   -0,538;    2,682
585,799; 3122,001;    0,281;   -0,227
586,379; 3013,163;    0,372;    1,591
586,959; 2863,106;    0,735;    0,318
587,540; 2703,261;   -0,629;    2,227
588,120; 2641,048;    1,007;   -0,045
588,700; 2490,219;    2,553;    2,136
589,281; 2752,091;    0,462;   -0,955
589,861; 2643,691;    0,099;   -1,682
590,441; 2565,017;    2,371;   -2,682
591,021; 2382,895;   -0,265;   -2,591
591,601; 2488,560;   -0,537;    0,500
592,181; 2577,984;   -0,719;   -0,773
592,761; 2278,187;    0,007;    1,409
593,341; 2426,822;   -0,901;    0,045
593,921; 2369,614;   -0,265;    1,591
594,501; 2268,472;   -0,538;    1,318
595,081; 2243,327;    0,917;   -0,318
595,661; 2478,691;   -1,447;    0,955
596,240; 2523,654;   -0,537;    0,136
596,820; 2695,677;    0,372;    1,955
597,400; 2410,577;    2,008;    0,773
597,980; 2438,589;    2,008;    1,045
598,559; 2430,643;    2,735;   -0,227
599,139; 2378,512;   -0,174;   -1,227
599,718; 2354,966;   -0,174;   -0,409
600,298; 2424,009;    0,735;    0,682
600,877; 2801,160;    2,917;    1,409
601,457; 2702,910;    2,281;    1,136
602,036; 2570,279;    0,190;    2,045
602,616; 2503,126;    0,644;    1,682
603,195; 2655,084;   -0,355;    3,500
603,774; 2585,859;   -0,901;    2,045
604,354; 2512,873;    0,826;   -0,500
604,933; 2427,444;    0,463;    1,864
605,512; 2624,532;    3,554;    0,591
606,091; 2618,476;   -0,537;    3,773
606,671; 2654,643;    0,281;    0,773
607,250; 2645,842;    1,644;    3,136
607,829; 2670,646;    2,372;    3,227
608,408; 2543,001;    1,190;    2,591
608,987; 2492,101;    1,281;    3,409
609,566; 2371,154;   -1,265;   -2,500
610,145; 2445,678;   -1,082;    0,682
610,723; 2603,169;    4,372;    6,864
611,302; 2367,025;   -0,446;    1,682
611,881; 2502,729;    5,008;   11,227
612,460; 2389,934;    1,645;    3,955
613,039; 2438,857;   -0,082;    2,045
613,617; 2180,138;    1,736;    4,773
614,196; 2210,300;    1,099;    1,227
614,775; 2371,110;    1,009;    2,409
615,353; 2374,559;    0,736;    0,864
615,932; 2314,945;    0,100;    2,409
616,510; 2450,193;    0,554;    0,591
617,089; 2828,514;    7,100;   17,591
617,667; 2508,318;    2,372;    6,136
618,246; 2143,491;   -1,537;    1,318
618,824; 2264,613;   -3,355;   -0,955
619,402; 2224,713;   -2,900;   -1,773
619,981; 2373,784;   -0,173;   -1,045
620,559; 2349,432;    0,009;    1,682
621,137; 2348,753;   -0,718;    1,864
621,715; 2049,153;   -1,173;   -0,682
622,293; 2083,014;   -0,537;   -0,773
622,871; 2362,761;   -0,718;    0,500
623,450; 2176,656;    0,373;   -0,864
624,028; 2305,244;    0,191;   -0,955
624,606; 2243,244;   -1,718;    1,682
625,183; 2131,850;   -1,536;   -1,136
625,761; 2161,569;    1,009;    1,136
626,339; 2544,284;    1,373;    2,591
626,917; 2270,572;   -0,172;   -0,045
627,495; 2275,236;   -0,354;    1,318
628,073; 2236,657;   -0,263;    2,864
628,650; 2206,131;    0,100;    2,136
629,228; 2292,171;    0,373;    4,409
629,806; 2021,966;    2,282;    1,136
630,383; 2107,001;    1,464;   -0,318
630,961; 2101,878;    2,555;   -0,955
631,539; 2045,526;    2,464;    0,227
632,116; 2703,696;   11,373;   15,409
632,694; 2372,927;    2,555;    6,500
633,271; 2180,748;    0,828;    2,682
633,848; 2297,595;    1,828;    2,045
634,426; 2103,660;   -1,081;    1,773
635,003; 1935,988;    1,101;   -0,409
635,580; 2300,317;    1,192;    3,682
636,158; 2146,553;    3,737;    1,227
636,735; 1992,297;    0,555;   -0,500
637,312; 2002,453;   -0,809;   -0,682
637,889; 2024,888;   -4,354;   -0,682
638,466; 1997,448;   -3,990;   -0,409
639,043; 1988,386;    2,101;   -1,136
639,620; 1989,193;   -2,262;   -0,955
640,197; 2129,734;    1,100;    1,682
640,774; 2104,119;   -0,172;    1,136
641,351; 2196,595;    0,737;    1,136
641,928; 2247,980;   -0,627;    1,409
642,505; 2358,547;    0,828;   -0,500
643,082; 2241,568;   -1,718;    1,227
643,658; 1906,589;   -0,718;    1,500
644,235; 2017,520;    1,191;    2,500
644,812; 2182,268;    1,918;    0,773
645,388; 2120,835;   -0,991;    1,409
645,965; 1910,220;   -0,809;    1,682
646,542; 1935,605;   -1,445;   -0,227
647,118; 2388,171;    1,009;   -0,955
647,695; 2221,283;   -0,263;    1,136
648,271; 2016,577;   -0,536;    0,500
648,848; 2147,326;    0,736;    2,227
649,424; 2255,893;    0,827;    1,318
650,000; 1981,641;   -0,354;   -1,045
650,577; 2055,935;   -0,627;   -0,955
651,153; 2173,320;   -1,809;    0,955
651,729; 2180,250;    1,191;    0,864
652,305; 2458,544;    0,645;    2,773
652,881; 2905,293;   -0,082;    1,136
653,458; 3821,132;    1,100;    0,227
654,034; 4348,153;    0,282;    1,591
654,610; 4421,084;    0,554;    0,773
655,186; 4827,650;    0,645;    3,045
655,762; 4475,035;   -0,991;    0,409
656,338; 4466,329;    0,100;    0,136
656,913; 4769,441;   -0,082;    0,409
657,489; 4489,554;    0,827;   -0,318
658,065; 4578,666;   -0,173;   -1,591
658,641; 4830,051;   -0,900;   -0,864
659,217; 4558,254;   -0,991;    0,409
659,792; 4311,911;    0,645;   -0,409
660,368; 4420,933;   -2,173;   -0,682
660,944; 4610,954;   -2,082;    1,227
661,519; 3943,248;   -0,628;    0,409
662,095; 3050,451;   -1,719;    0,591
662,670; 2364,654;    1,281;   -0,136
663,246; 2350,857;    1,009;   -0,409
663,821; 2407,696;    0,281;    1,682
664,396; 2139,354;    0,009;    1,864
664,972; 2170,284;    0,009;   -0,500
665,547; 2331,397;    1,372;    0,136
666,122; 2273,963;   -1,082;    0,318
666,698; 2436,803;   -0,173;    0,318
667,273; 2091,733;   -0,173;    0,136
667,848; 2285,209;    2,372;    1,500
668,423; 2366,230;    2,190;    2,318
668,998; 2294,342;    2,827;   -0,682
669,573; 2352,727;   -3,264;   -1,500
670,148; 2487,021;   -1,446;   -0,682
670,723; 2198,315;   -1,810;    0,318
671,298; 2557,336;    2,372;    1,045
671,873; 2436,994;   -0,082;   -0,136
672,448; 2423,924;    0,645;    0,136
673,023; 2443,945;   -1,992;   -0,227
673,597; 2624,330;    0,827;    2,318
674,172; 2617,170;   -0,355;    0,318
674,747; 2471,191;    0,372;   -1,045
675,321; 2247,576;   -0,628;    3,318
675,896; 2110,597;    0,645;    1,045
676,471; 2361,255;    2,645;    1,591
677,045; 2254,367;   -1,264;    0,682
677,620; 2295,115;    0,190;    1,136
678,194; 2315,228;   -2,628;    1,136
678,769; 2300,249;   -1,083;   -0,318
679,343; 2381,179;   -0,628;    1,773
679,917; 2450,019;   -1,446;    1,955
680,492; 2322,040;    0,826;    3,227
681,066; 2352,425;    3,372;    0,409
681,640; 2348,446;    1,463;   -0,318
682,214; 2450,467;    0,735;    0,500
682,788; 2390,852;   -1,356;   -0,773
683,363; 2426,510;   -1,810;    1,682
683,937; 2282,076;   -1,719;   -0,318
684,511; 2507,370;    0,463;   -0,591
685,085; 2440,664;   -1,356;    0,318
685,659; 2298,504;   -2,538;    0,864
686,232; 2547,798;   -0,356;   -0,318
686,806; 2437,364;   -0,901;    0,409
687,380; 2486,931;   -0,174;    0,591
687,954; 2503,225;   -1,174;    1,136
688,528; 2610,428;   -0,719;    1,955
689,101; 2683,904;   -3,992;    1,045
689,675; 2478,471;   -0,356;   -0,136
690,249; 2552,492;   -0,719;    0,409
690,822; 2617,786;    0,280;    0,318
691,396; 2488,353;   -0,265;    1,227
691,969; 2355,828;    1,280;    0,136
692,543; 2459,213;   -0,447;   -1,955
693,116; 2277,053;   -0,265;   -1,409
693,690; 2328,892;    0,099;    0,500
694,263; 2451,641;   -1,083;    2,955
694,836; 2698,844;    1,371;    3,591
695,410; 2424,047;   -0,265;    1,773
695,983; 2438,159;    0,189;    0,591
696,556; 2305,453;   -0,447;   -1,045
697,129; 2377,383;   -0,356;    1,409
697,703; 2365,223;   -1,629;    1,955
698,276; 2371,517;    1,462;   -0,773
698,849; 2423,538;    1,280;    1,409
699,422; 2278,832;   -1,083;    0,591
699,995; 2186,399;    0,007;    0,136
700,568; 2372,602;   -0,629;    3,045
701,140; 2392,805;   -2,811;    1,682
701,713; 2508,644;   -0,174;    2,409
702,286; 2400,574;   -0,538;    0,864
702,859; 2380,141;   -0,902;   -0,591
703,432; 2326,799;    0,825;    0,682
704,004; 2288,911;    0,462;    0,318
704,577; 2143,569;   -0,629;    0,136
705,150; 2264,044;    0,189;    2,500
705,722; 2346,975;   -0,356;   -3,227
706,295; 2374,541;   -0,175;   -0,591
706,867; 2199,290;   -0,175;    1,955
707,440; 2400,038;   -1,720;   -0,409
708,012; 2472,787;    0,462;    0,591
708,584; 2323,626;    2,462;    0,227
709,157; 2284,011;    1,825;   -0,591
709,729; 2417,487;    2,280;    2,045
710,301; 2553,054;    0,734;    0,045
710,874; 2510,711;   -1,447;   -0,227
711,446; 2138,823;    0,371;    0,864
712,018; 2248,208;    0,098;    0,500
712,590; 2155,230;   -1,993;    1,682
713,162; 2474,978;    0,825;    1,318
713,734; 2348,727;    1,825;   -2,045
714,306; 2298,839;   -1,902;   -0,409
714,878; 2121,951;    0,825;    0,864
715,450; 2261,336;    0,643;    0,864
716,022; 2297,812;    1,552;    1,318
716,593; 2330,560;    0,189;    0,591
717,165; 2374,309;   -3,175;   -1,227
717,737; 2508,694;    0,280;    0,409
718,309; 2327,169;    0,280;   -0,045
718,880; 2245,827;   -0,539;   -1,409
719,452; 2356,394;   -0,175;   -1,591
720,024; 2348,597;    0,734;   -0,591
720,595; 2362,073;   -2,902;    0,955
721,167; 2244,366;    0,370;   -2,045
721,738; 2222,933;   -0,812;   -1,045
722,309; 2295,591;   -0,993;   -1,227
722,881; 2124,794;   -1,357;    0,773
723,452; 2311,997;   -2,630;    2,864
724,023; 2369,018;   -0,721;    2,682
724,595; 2390,676;    0,007;    0,682
725,166; 2191,879;    0,007;   -0,409
725,737; 2358,536;    1,734;    0,227
726,308; 2275,467;   -0,266;    0,318
726,879; 2191,306;   -1,630;    1,227
727,450; 2324,418;    0,552;   -0,045
728,021; 2183,440;    3,097;    0,682
728,592; 2346,461;    0,734;    0,500
729,163; 2495,755;    0,643;   -0,136
729,734; 2494,958;    0,188;   -0,227
730,305; 2357,888;    1,734;    0,136
730,876; 2342,182;    0,188;    2,955
731,447; 2667,840;    2,188;    2,682
732,017; 2529,134;    1,097;    1,864
732,588; 2409,610;    0,734;    1,227
733,159; 2562,085;    0,643;   -1,045
733,729; 2299,016;    0,006;    0,409
734,300; 2349,037;    0,915;    0,864
734,870; 2294,876;    3,461;    0,591
735,441; 2327,898;    0,370;   -0,591
736,011; 2222,192;    0,643;   -1,591
736,582; 2239,122;   -0,812;    0,045
737,152; 2215,325;   -1,721;   -2,045
737,722; 2300,437;   -0,267;   -0,682
738,293; 2135,367;   -1,358;    1,318
738,863; 2294,571;    2,461;    2,318
739,433; 2548,592;    5,279;    0,318
740,003; 2432,613;   -0,994;   -0,682
740,573; 2444,816;    2,097;   -1,591
741,143; 2393,110;   -1,085;    0,318
741,713; 2369,313;    1,188;   -0,500
742,283; 2339,880;    0,915;    1,591
742,853; 2238,992;    1,915;    1,591
743,423; 2067,195;    1,733;    0,045
743,993; 2141,762;   -0,358;    1,500
744,563; 2039,510;    0,097;   -0,864
745,133; 2084,622;   -0,812;   -0,864
745,702; 2175,371;   -0,267;    1,773
746,272; 2214,483;   -0,176;    0,591
746,842; 2221,959;   -1,358;   -0,591
747,411; 2134,526;   -0,267;   -0,318
747,981; 2044,274;    0,097;    0,500
748,551; 2085,750;    2,278;   -1,045
749,120; 2179,408;    0,642;   -0,227
749,690; 2217,974;   -0,631;    2,409
750,259; 2350,632;    1,369;    2,955
750,828; 2348,380;    1,551;   -1,955
751,398; 2227,038;    1,278;   -0,045
751,967; 2550,423;    2,187;    0,409
752,536; 2304,444;   -0,813;   -0,227
753,105; 2456,284;    0,096;    0,227
753,675; 2245,941;    0,096;    1,773
754,244; 2238,599;   -0,904;    3,591
754,813; 2268,165;    0,551;    1,227
755,382; 2162,732;    0,460;    0,955
755,951; 2316,481;    1,551;    3,682
756,520; 2366,775;   -0,085;    1,864
757,089; 2619,250;    0,278;    0,500
757,658; 2323,908;    1,733;    1,227
758,227; 2202,566;    1,096;    0,318
758,795; 2303,951;    1,187;    1,136
759,364; 2434,790;   -0,086;   -0,591
759,933; 2132,357;   -1,176;   -0,045
760,501; 2082,287;    0,733;   -1,318
761,070; 2231,035;   -2,813;   -1,409
761,639; 2460,329;   -1,904;    1,318
762,207; 2306,351;    1,551;   -0,955
762,776; 2354,645;    0,369;    0,864
763,344; 2222,030;   -0,995;    0,591
763,913; 1874,233;   -0,722;    1,409
764,481; 2524,254;    1,005;   -0,136
765,049; 2464,821;   -1,358;    1,409
765,618; 2344,933;   -0,086;    0,318
766,186; 2265,499;    0,278;    0,136
766,754; 2285,157;    0,005;    1,864
767,322; 1991,815;   -1,995;    0,409
767,890; 1962,018;   -0,722;   -1,773
768,459; 2132,766;   -2,177;   -0,318
769,027; 2338,969;    1,641;    3,409
769,595; 2053,172;    3,278;    2,591
770,163; 2118,103;    3,823;    2,955
770,730; 2118,215;    0,732;   -0,136
771,298; 2091,691;    0,187;   -1,409
771,866; 2078,530;   -1,541;    4,955
772,434; 2116,279;   -0,631;   -1,864
773,002; 2367,754;    0,005;    0,682
773,569; 2233,867;    0,914;    1,682
774,137; 2303,524;   -0,268;   -0,045
774,705; 2277,182;    0,278;   -0,136
775,272; 2092,658;    0,641;    0,682
775,840; 2206,679;   -0,177;    2,682
776,407; 2173,791;    0,277;    1,955
776,975; 1934,449;   -0,632;    0,318
777,542; 2079,924;   -1,086;   -0,045
778,110; 2076,946;   -1,268;   -0,045
778,677; 1950,421;   -2,359;   -0,864
779,244; 1996,079;    2,186;    1,045
779,812; 2144,191;    1,823;    0,864
780,379; 2180,031;    0,005;    1,136
780,946; 2071,052;    1,005;   -0,773
781,513; 2090,346;   -1,450;    0,318
782,080; 1939,458;   -0,086;    2,864
782,647; 2062,116;   -0,268;    3,045
783,214; 1993,319;   -0,177;    3,864
783,781; 2117,158;   -0,723;   -0,682
784,348; 2090,452;   -0,632;    1,500
784,915; 1944,110;   -3,177;    0,318
785,482; 2124,585;    1,368;    2,591
786,049; 2194,698;    0,186;   -0,591
786,615; 2109,082;    0,277;   -0,955
787,182; 2002,376;    0,186;   -0,682
787,749; 1978,670;   -2,814;    1,409
788,315; 2016,692;   -1,632;   -0,409
788,882; 2032,440;    1,550;   -1,227
789,448; 2329,916;    1,732;   -0,955
790,015; 2124,755;    1,095;    3,227
790,581; 2230,777;    1,459;    0,227
791,148; 2033,525;    0,641;    1,045
791,714; 2014,455;   -0,541;    3,136
792,280; 1981,931;    0,186;    1,591
792,847; 1906,953;    0,550;    2,500
793,413; 2006,974;   -0,269;   -0,318
793,979; 2060,086;    3,459;   -1,318
794,545; 2406,834;    4,459;    2,682
795,111; 2204,310;    2,186;    1,318
795,678; 2069,877;    0,731;   -1,682
796,244; 2239,353;    3,368;    0,136
796,810; 2181,919;    1,731;    0,773
797,375; 2176,850;    0,549;   -2,136
797,941; 1799,598;   -0,541;    0,591
798,507; 1776,892;   -0,451;   -0,955
799,073; 1794,550;   -0,360;    0,591
799,639; 1878,753;   -2,632;    3,136
800,205; 1807,047;    0,095;    2,682
800,770; 1750,432;    0,640;    1,773
801,336; 1723,453;    1,368;   -0,955
801,901; 2353,292;    4,549;    3,136
802,467; 2089,950;   -0,542;    2,045
803,033; 1741,517;   -0,087;    0,864
803,598; 1760,720;    1,913;   -1,045
804,163; 1821,014;    1,095;   -0,318
804,729; 1917,490;   -0,178;    1,136
805,294; 1844,420;    0,822;    2,227
805,859; 1703,987;    0,731;   -0,409
806,425; 2099,462;    1,186;    2,682
806,990; 2068,211;    2,186;    4,318
807,555; 1875,141;   -1,451;    2,591
808,120; 2029,981;    0,822;   -0,409
808,685; 1762,820;    0,185;   -2,500
809,250; 1614,841;    0,004;   -0,500
809,815; 1702,044;    1,913;    0,682
810,380; 1907,702;   -0,269;    1,591
810,945; 2046,905;   -1,087;    2,045
811,510; 1886,745;    2,094;    1,591
812,075; 1810,675;   -0,633;   -1,409
812,640; 2084,787;    2,003;    1,409
813,204; 1889,536;    0,822;   -0,227
813,769; 2096,739;    2,094;   -0,045
814,334; 2033,669;    0,458;    0,864
814,898; 1803,417;    0,367;    0,591
815,463; 1830,439;    1,276;   -0,773
816,027; 1740,005;   -0,724;   -2,318
816,592; 1755,208;    0,640;   -2,045
817,156; 1796,048;    2,094;    1,136
817,721; 1876,069;    4,276;    2,318
818,285; 1671,272;    2,912;    1,500
818,849; 1794,657;   -1,451;    1,682
819,414; 1680,951;   -0,269;    2,955
819,978; 1604,609;   -1,269;    1,773
820,542; 2032,266;    2,003;    0,500
821,106; 1848,560;   -0,815;    0,682
821,670; 2009,945;   -0,815;    2,591
822,234; 1767,785;   -0,270;    1,409
822,798; 1613,079;    0,003;    0,500
823,362; 1951,645;   -0,633;    4,227
823,926; 1658,303;    0,094;    1,136
824,490; 1867,779;   -0,997;   -0,682
825,054; 1782,254;   -0,088;   -1,136
825,618; 1618,276;   -1,542;   -1,500
826,181; 1648,933;    0,458;   -1,318
826,745; 1722,591;    1,367;   -1,045
827,309; 2001,794;    1,185;    1,318
827,872; 1853,724;    1,367;    0,955
828,436; 1818,018;    1,185;   -0,773
828,999; 1780,494;   -0,997;    1,227
829,563; 1685,152;   -0,179;    1,136
830,126; 1633,173;   -0,179;   -0,591
830,690; 1645,649;   -1,997;    2,864
831,253; 1543,306;   -0,543;    2,227
831,816; 1597,509;   -1,906;    0,500
832,380; 1526,712;    0,185;    0,864
832,943; 1545,825;   -1,361;   -0,500
833,506; 1560,482;    2,639;   -1,227
834,069; 1784,140;    3,912;   -0,955
834,632; 1672,707;    1,730;    1,318
835,195; 1675,364;    1,003;    0,955
835,758; 1577,567;   -0,997;    1,955
836,321; 1514,043;    0,730;   -1,045
836,884; 1525,519;   -0,725;   -0,955
837,447; 1510,813;   -2,816;    1,773
838,010; 1656,743;    0,366;    3,227
838,573; 1734,310;   -1,179;    0,773
839,135; 1641,149;   -1,361;   -0,955
839,698; 1582,989;    1,275;    0,409
840,261; 1510,283;    1,003;   -0,227
840,823; 1457,940;   -0,543;    0,864
841,386; 1450,689;   -0,452;   -2,409
841,948; 1811,255;   -1,361;    1,773
842,511; 1502,822;    0,912;    1,682
843,073; 1774,571;    1,912;    0,227
843,636; 1513,956;   -0,361;   -0,227
844,198; 1729,613;    0,911;    0,591
844,760; 1703,453;    1,093;    1,955
845,322; 1444,201;    0,548;    1,136
845,885; 1609,768;    0,730;    0,591
846,447; 1599,971;   -1,998;    0,227
847,009; 1928,083;    1,911;   -0,682
847,571; 1612,741;    0,820;   -2,045
848,133; 1567,671;   -1,089;   -1,864
848,695; 1426,147;   -0,543;    1,409
849,257; 1491,804;   -1,089;   -1,682
849,819; 1671,189;   -0,998;   -0,409
850,381; 1525,756;   -0,725;   -0,864
850,942; 1605,595;    1,093;   -0,591
851,504; 1629,980;    1,184;    0,227
852,066; 1544,729;    1,275;   -1,591
852,628; 1551,477;   -0,180;    1,955
853,189; 1362,953;    1,638;    2,682
853,751; 1436,429;   -0,907;    1,409
854,312; 1615,087;   -0,453;   -1,682
854,874; 1771,017;   -2,089;   -0,773
855,435; 1578,129;   -0,907;   -1,682
855,997; 1692,696;   -1,816;   -0,136
856,558; 1713,353;    0,366;    1,773
857,119; 1562,829;    0,820;    2,864
857,681; 1401,123;    0,002;    0,318
858,242; 1633,962;    1,911;   -2,136
858,803; 1708,893;    0,456;   -0,773
859,364; 1662,096;    0,184;   -4,773
859,925; 1672,663;   -2,453;   -0,955
860,486; 1557,502;   -0,453;   -0,955
861,047; 1438,069;   -0,544;   -1,227
861,608; 1483,363;   -1,089;   -0,773
862,169; 1412,566;    0,638;   -0,045
862,730; 1458,769;    0,456;    1,409
863,291; 1509,972;   -0,635;   -0,500
863,852; 1502,720;   -0,635;    1,955
864,412; 1440,014;   -0,271;   -0,864
864,973; 1616,399;   -0,089;    0,500
865,534; 1791,421;   -1,726;    0,227
866,094; 1621,896;    1,820;    0,227
866,655; 1703,190;    1,274;    3,318
867,215; 1559,121;    0,274;    0,136
867,776; 1437,142;    0,547;   -0,136
868,336; 1496,890;   -1,453;    0,136
868,897; 1895,184;    2,638;    1,682
869,457; 1649,206;    1,365;    0,318
870,017; 1485,954;    0,547;   -1,227
870,578; 1500,612;   -0,817;    0,773
871,138; 1460,815;   -2,089;   -0,955
871,698; 1331,018;   -0,817;   -1,318
872,258; 1479,766;   -0,453;   -2,864
872,818; 1728,969;    2,729;    0,045
873,378; 1511,445;    0,638;    1,045
873,938; 1438,285;    0,547;    0,500
874,498; 1352,397;    0,274;   -1,955
875,058; 1423,418;    2,183;    1,773
875,618; 1417,894;    1,910;   -2,682
876,177; 1461,642;    1,274;    0,136
876,737; 1229,391;   -0,090;    1,955
877,297; 1683,412;    0,183;    1,955
877,856; 1595,524;   -0,362;    0,318
878,416; 1334,818;    1,183;   -0,136
878,976; 1317,112;   -1,817;    0,409
879,535; 1385,406;    0,092;    3,136
880,095; 1377,337;   -0,544;    0,045
880,654; 1255,812;   -1,090;    1,318
881,213; 1610,288;    2,456;    1,500
881,773; 1415,582;    2,637;    2,682
882,332; 2053,967;    3,365;    5,136
882,891; 1454,170;    3,092;    2,136
883,451; 1467,191;   -1,272;    1,682
884,010; 1347,576;   -2,908;   -0,409
884,569; 1314,597;   -0,999;   -0,045
885,128; 1543,982;    2,819;   -1,864
885,687; 1851,367;    4,455;    0,682
886,246; 2023,479;    1,455;    2,136
886,805; 1713,410;    2,455;    2,045
887,364; 1373,976;   -0,999;   -0,500
887,922; 1291,725;   -1,181;    0,045
888,481; 1443,382;   -1,545;    0,591
889,040; 1603,495;    1,183;    2,136
889,599; 1475,880;    2,455;    1,409
890,157; 1481,901;    1,455;    2,409
890,716; 1379,922;   -0,090;    0,227
891,274; 1470,489;    0,092;   -1,136
891,833; 1580,692;    1,546;    0,864
892,391; 1377,895;   -0,454;    0,500
892,950; 1578,280;    1,819;   -0,773
893,508; 1397,756;    0,455;   -0,409
894,067; 1234,231;    0,637;    0,136
894,625; 1344,798;   -0,636;   -1,500
895,183; 1322,456;   -0,363;   -0,682
895,741; 1653,022;    1,728;   -1,773
896,299; 1415,498;   -0,545;   -2,409
896,858; 1318,428;    0,819;   -1,591
897,416; 1458,722;    2,728;   -1,318
897,974; 1380,380;    1,819;    0,318
898,532; 1899,856;    6,091;    2,682
899,089; 1529,241;    2,091;   -0,682
899,647; 1399,171;   -1,454;    1,318
900,205; 1459,738;    1,182;    1,045
900,763; 1461,850;   -0,454;    0,227
901,321; 1414,417;    2,364;   -1,409
901,878; 1205,801;   -1,000;   -0,773
902,436; 1266,186;   -1,363;    1,318
902,994; 2117,389;    4,728;    3,682
903,551; 1585,320;    0,728;    0,409
904,109; 1458,432;    0,182;   -1,409
904,666; 1391,635;    2,455;    1,045
905,224; 1262,111;    0,182;   -0,409
905,781; 1420,496;    0,727;   -0,318
906,338; 1343,971;   -1,363;    1,045
906,895; 1213,720;    0,637;    2,045
907,453; 1517,741;    1,727;    1,136
908,010; 1352,672;   -0,909;    0,409
908,567; 1287,511;    1,273;    0,591
909,124; 1085,259;    0,364;   -1,500
909,681; 1146,099;   -2,909;    0,682
910,238; 1240,302;    0,636;   -1,318
910,795; 1210,414;   -0,273;   -1,136
911,352; 1200,414;   -2,909;   -2,682
911,909; 1195,414;   -1,364;   -0,864
912,466; 1243,051;   -3,182;    1,500
913,022; 1254,778;   -1,636;    0,500
913,579; 1394,778;   -0,909;    2,045
914,136; 1245,141;    1,636;    0,955
914,692; 1313,778;    0,091;   -1,227
915,249; 1237,505;    1,455;    0,409
915,806; 1327,323;    0,182;    1,955
916,362; 1233,141;    1,909;    1,864
916,918; 1127,596;    2,000;    1,045
917,475; 1365,960;   -1,182;    0,955
918,031; 1161,869;    3,364;   -0,045
918,587; 1224,869;   -0,909;   -0,318
919,144; 1137,414;   -2,273;    0,227
919,700; 1092,414;    1,727;    0,773
920,256; 1060,051;    0,727;    0,045
920,812; 1103,778;   -0,727;   -1,045
921,368; 1044,778;   -1,727;   -1,045
921,924; 1036,232;    0,182;   -0,136
922,480; 1141,778;   -0,545;    1,227
923,036; 1175,778;    1,273;    1,955
923,592; 1065,960;    0,455;    0,318
924,148; 1100,051;    0,455;   -0,955
924,704; 1239,960;   -1,364;   -0,409
925,259; 1080,232;   -0,273;    0,591
925,815; 1027,778;    1,455;    0,500
926,371;  976,505;    2,909;    1,409
926,926; 1147,960;    2,091;    0,591
927,482; 1111,323;   -1,364;    0,773
928,037; 1038,323;    0,909;    2,045
928,593; 1252,232;    1,636;    1,045
929,148;  990,414;   -1,818;   -1,500
929,704; 1052,141;   -1,455;   -0,500
930,259;  928,778;    0,091;   -0,136
930,814; 1148,414;   -0,818;    1,955
931,369; 1062,869;    1,091;   -0,773
931,925;  838,141;   -0,091;    0,136
932,480;  949,323;   -2,818;   -2,591
933,035; 1369,323;    0,545;   -0,318
933,590; 1240,596;    0,364;   -1,773
934,145;  802,414;   -1,364;   -0,318
934,700;  698,960;    0,455;   -0,591
935,255;  779,687;   -0,091;    0,045
935,809; 1133,232;    3,182;    0,864
936,364;  713,960;   -0,455;   -0,136
936,919;  718,596;    0,455;   -1,773
937,474;  629,869;    1,455;    0,136
938,028;  667,051;   -1,636;    1,136
938,583; 1075,323;    1,818;    4,682
939,138;  706,414;    2,091;    2,136
939,692;  561,687;    1,636;   -1,136
940,247;  607,141;   -0,727;   -1,045
940,801;  681,414;   -0,636;    0,227
941,355;  573,596;   -0,364;    2,591
941,910;  447,869;   -0,273;   -2,136
942,464;  494,778;   -0,818;   -0,318
943,018;  785,323;    1,000;   -0,227
943,572;  594,778;    2,545;   -0,682
944,126;  641,414;    0,091;   -0,409
944,681;  513,141;    3,091;    0,227
945,235;  449,051;    1,000;   -0,591
945,789;  400,141;    0,364;   -1,864
946,342;  730,960;    0,455;   -0,591
946,896;  462,778;   -2,273;    0,955
947,450;  432,596;    1,545;   -0,227
948,004;  702,960;    1,727;   -0,045
948,558;  493,505;    0,273;   -0,864
949,111;  488,051;   -0,273;   -0,318
949,665;  715,414;    1,636;   -0,682
950,219;  663,869;   -0,091;   -1,045
950,772;  580,232;   -1,909;    1,864
951,326;  568,232;    0,545;   -0,955
951,879;  484,596;    0,727;   -2,318
952,433;  636,778;    0,000;    2,227
952,986;  446,687;    2,909;    0,682
953,539;  397,232;   -0,273;    0,591
954,093;  342,141;    0,545;   -1,318
954,646;  498,141;    0,909;    1,318
955,199;  417,960;    0,000;   -0,500
955,752;  637,596;   -0,455;    1,773
956,305;  480,141;   -0,091;    2,955
956,858;  529,687;    0,818;   -0,318
957,411;  598,778;   -0,545;    2,136
957,964;  490,869;    1,364;    2,136
958,517;  398,505;   -1,545;    3,136
959,070;  352,596;   -0,455;    1,955
959,623;  662,505;    1,091;    1,500
960,176;  605,960;    1,727;    2,045
960,728;  571,778;   -2,727;    0,773
961,281;  505,051;    0,545;    0,500
961,834;  415,687;   -0,909;    0,864
962,386;  422,869;    1,727;    1,045
962,939;  383,141;    0,364;   -0,318
963,491;  430,505;    0,455;    1,136
964,043;  363,414;    1,182;    2,409
964,596;  556,687;   -1,000;    2,227
965,148;  456,414;   -1,000;    1,773
965,700;  360,869;    1,091;   -0,227
966,253;  538,505;   -0,636;    0,318
966,805;  496,596;   -2,273;    0,773
967,357;  417,414;    1,091;   -1,500
967,909;  537,414;    0,455;   -1,227
968,461;  415,141;    0,545;    3,136
969,013;  361,141;   -0,182;   -0,864
969,565;  524,323;   -0,455;   -1,136
970,117;  788,051;   -0,364;    1,045
970,669;  530,596;    0,182;   -0,136
971,220;  311,051;   -0,455;   -1,500
971,772;  404,414;   -0,636;   -0,318
972,324;  508,505;    0,091;   -0,500
972,876;  407,323;    0,818;   -0,045
973,427;  540,051;    1,909;   -1,045
973,979;  610,414;   -0,727;   -2,500
974,530;  398,323;    1,818;    1,318
975,082;  469,323;   -0,545;    1,682
975,633;  406,778;    1,091;    1,682
976,184;  473,505;    0,909;    0,773
976,736;  465,960;    0,091;    0,227
977,287;  479,778;   -0,909;   -0,500
977,838;  443,869;    0,909;   -0,318
978,389;  447,414;   -1,000;   -0,500
978,940;  301,869;    0,545;   -0,409
979,491;  297,869;    0,091;   -0,500
980,042;  410,869;    0,182;    3,045
980,593;  412,232;   -2,545;    0,227
981,144;  510,505;    2,545;   -0,500
981,695;  564,778;    1,455;    1,500
982,246;  503,960;   -0,273;    1,045
982,797;  358,414;   -1,727;    0,682
983,347;  513,869;    0,364;    0,591
983,898;  724,687;    3,091;    0,409
984,449;  676,232;    2,182;    0,773
984,999;  507,596;    1,455;   -1,136
985,550;  458,232;    0,182;   -0,318
986,100;  303,232;   -0,455;   -0,318
986,651;  301,414;   -0,818;    0,045
987,201;  342,414;   -1,000;   -0,591
987,751;  355,232;    0,818;    2,864
988,302;  409,505;    2,636;    1,500
988,852;  452,232;    0,455;   -1,136
989,402;  521,414;    0,091;    0,682
989,952;  544,778;   -2,182;    0,864
990,502;  383,778;   -0,091;    0,682
991,052;  279,778;   -0,727;    0,045
991,602;  330,869;   -2,909;    1,318
992,152;  391,505;    0,455;    0,682
992,702;  426,141;    1,364;   -0,045
993,252;  368,596;   -3,000;   -0,500
993,802;  472,141;   -0,273;    1,318
994,352;  421,323;   -1,545;    1,136
994,901;  318,414;   -0,182;    3,227
995,451;  310,960;   -0,182;    0,318
996,000;  351,960;    1,636;    0,318
996,550;  362,596;    2,273;    0,227
997,100;  404,869;    1,273;   -0,045
997,649;  551,778;    2,182;    0,955
998,198;  359,869;    1,727;   -1,500
998,748;  485,414;    1,091;   -2,318
999,297;  413,596;   -0,818;   -0,409
999,846;  550,414;    1,000;   -0,773
1000,395;  448,869;   -0,818;    0,500
1000,945;  573,141;    1,818;   -0,773
1001,494;  575,414;    2,364;    0,682
1002,043;  550,869;    4,636;    0,864
1002,592;  358,232;   -1,091;    1,955
1003,141;  357,869;   -0,455;   -0,682
1003,690;  524,687;    1,727;    0,500
1004,238;  389,323;    1,455;   -0,045
1004,787;  308,323;    1,364;    1,227
1005,336;  503,960;    0,364;    0,682
1005,885;  442,051;    1,364;   -2,773
1006,433;  430,869;    0,545;    0,955
1006,982;  641,960;    0,455;    1,682
1007,531;  474,869;   -1,818;   -0,227
1008,079;  419,505;   -2,273;    0,500
1008,627;  360,596;   -1,455;    0,409
1009,176;  386,051;    0,000;   -1,955
1009,724;  333,505;    1,091;    0,864
1010,273;  485,687;    1,273;    0,500
1010,821;  364,596;    0,091;    1,409
1011,369;  324,596;   -1,364;    1,318
1011,917;  347,505;   -1,364;   -0,591
1012,465;  439,687;    1,273;   -1,591
1013,013;  422,323;    2,091;   -1,682
1013,561;  528,960;    0,455;   -0,773
1014,109;  633,141;   -1,909;    1,682
1014,657;  493,414;    0,364;    0,591
1015,205;  378,505;    1,636;   -0,955
1015,753;  321,232;   -0,545;   -1,409
1016,301;  408,687;   -2,636;    3,045
1016,848;  490,141;   -1,273;    0,409
1017,396;  495,596;    2,545;    0,045
1017,944;  487,596;    1,182;    1,864
1018,491;  390,687;    0,273;    1,409
1019,039;  718,232;    0,455;    0,591
1019,586;  459,051;   -1,364;    1,682
1020,134;  434,778;    0,455;    1,500
1020,681;  515,869;    0,182;   -1,136
1021,228;  423,596;    2,909;   -2,227
1021,776;  405,141;    1,182;   -1,136
1022,323;  642,232;    0,455;    0,773
1022,870;  554,232;   -1,000;   -0,045
1023,417;  597,232;    2,636;    1,864
1023,964;  417,960;    2,636;    1,227
1024,511;  394,869;    1,000;    0,773
1025,058;  418,869;    3,182;   -0,045
1025,605;  376,414;   -2,273;    3,136
1026,152;  605,960;    1,727;   -0,591
1026,699;  451,051;    1,818;    1,318
1027,245;  423,687;   -0,091;    0,318
1027,792;  359,596;   -1,000;    1,409
1028,339;  597,778;    2,364;   -0,045
1028,885;  448,778;    1,000;   -0,227
1029,432;  397,414;   -0,091;    0,227
1029,978;  511,596;   -1,000;   -1,591
1030,525;  502,414;    1,000;    0,409
1031,071;  362,505;   -1,364;    1,136
1031,618;  678,687;    0,364;    1,682
1032,164;  495,869;   -0,091;    3,045
1032,710;  542,414;    1,636;   -1,500
1033,256;  500,141;   -0,636;   -0,136
1033,803;  346,778;   -0,545;    1,500
1034,349;  204,505;   -1,364;    0,136
1034,895;  257,596;    0,000;   -0,318
1035,441;  334,051;   -0,818;    0,318
1035,987;  385,869;   -2,364;   -0,682
1036,533;  467,141;   -1,455;   -0,955
1037,078;  665,141;    1,455;    1,682
1037,624;  513,505;    2,455;   -0,955
1038,170;  375,051;    0,455;   -0,318
1038,716;  466,596;    1,636;   -0,409
1039,261;  332,778;   -2,273;   -0,773
1039,807;  349,778;   -0,091;    3,409
1040,352;  389,414;   -1,909;   -0,318
1040,898;  384,051;   -1,545;   -0,682
1041,443;  297,051;   -1,455;   -2,591
1041,989;  606,778;    1,091;    1,591
1042,534;  395,960;   -0,364;    2,591
1043,079;  287,505;    2,909;    0,955
1043,625;  406,596;    1,818;    0,500
1044,170;  423,778;   -1,364;    1,045
1044,715;  624,778;    2,455;    0,955
1045,260;  518,687;    2,182;   -0,955
1045,805;  358,141;    1,182;   -0,591
1046,350;  312,869;    1,364;   -0,409
1046,895;  513,505;    2,909;    1,591
1047,440;  499,960;    5,364;    0,409
1047,985;  360,596;    2,818;   -0,955
1048,530;  329,960;    1,545;    1,227
1049,074;  402,687;    0,000;    0,318
1049,619;  330,323;   -1,364;    1,955
1050,164;  325,778;    0,455;    0,227
1050,708;  409,232;   -0,455;    0,045
1051,253;  666,778;    1,273;   -2,227
1051,797;  456,596;    0,818;   -1,318
1052,342;  284,596;   -1,182;    1,045
1052,886;  382,869;    0,364;   -1,409
1053,430;  260,778;   -1,364;    0,136
1053,975;  362,232;   -0,818;   -0,318
1054,519;  378,323;   -0,727;    3,227
1055,063;  434,323;    0,909;    1,318
1055,607;  421,051;   -0,182;    0,227
1056,151;  419,051;    2,909;    1,682
1056,695;  329,141;    2,273;   -1,136
1057,239;  322,687;   -1,727;   -0,682
1057,783;  372,869;    0,818;   -1,500
1058,327;  438,960;    0,000;    1,409
1058,871;  588,141;   -0,545;    1,318
1059,415;  462,960;   -0,818;   -0,045
1059,958;  614,505;    1,455;    2,591
1060,502;  379,505;   -1,000;   -0,773
1061,046;  267,596;    0,364;   -0,955
1061,589;  250,869;   -3,000;   -1,136
1062,133;  220,414;   -1,273;    1,864
1062,676;  267,960;    1,182;    0,864
1063,220;  308,778;    1,091;    0,500
1063,763;  334,141;    0,909;    1,136
1064,306;  360,960;   -0,909;    1,864
1064,849;  356,232;   -0,909;    0,591
1065,393;  336,051;    2,000;   -1,500
1065,936;  342,414;    0,182;   -0,409
1066,479;  248,232;   -1,455;    1,318
1067,022;  278,141;   -0,273;   -0,227
1067,565;  248,869;   -0,091;   -1,318
1068,108;  221,687;    0,727;   -0,591
1068,651;  196,960;   -0,636;    1,409
1069,194;  211,323;   -0,455;   -1,682
1069,736;  232,505;   -1,273;    0,955
1070,279;  197,778;   -1,364;   -0,500
1070,822;  291,051;   -2,000;   -0,318
1071,364;  427,687;   -0,364;    1,318
1071,907;  282,414;   -0,727;    3,227
1072,450;  134,960;    0,000;   -0,045
1072,992;  216,869;   -0,273;    3,136
1073,535;  291,687;    2,091;    2,136
1074,077;  203,687;   -0,727;    2,045
1074,619;  205,141;   -1,364;    0,591
1075,161;  229,960;   -1,091;    1,500
1075,704;  360,323;    1,545;    1,227
1076,246;  220,232;   -0,182;    0,682
1076,788;  154,232;   -0,364;    1,773
1077,330;  159,778;    1,273;    2,136
1077,872;  209,687;    0,909;    0,955
1078,414;  383,869;    2,727;    0,773
1078,956;  230,596;    1,273;   -0,227
1079,498;  381,687;    1,636;    0,318
1080,040;  233,414;    1,909;   -1,318
1080,581;  191,778;    1,636;   -0,318
1081,123;  134,778;    0,091;   -0,773
1081,665;  143,596;   -1,182;   -0,955
1082,206;  333,596;    1,364;   -0,500
1082,748;  256,141;    0,727;    2,045
1083,289;  161,323;   -2,000;    1,318
1083,831;  153,596;   -0,545;    0,227
1084,372;  203,687;    0,000;    0,591
1084,913;  196,323;    1,091;    0,864
1085,455;  146,778;   -1,909;   -2,045
1085,996;  147,778;   -2,273;    0,136
1086,537;  185,141;   -0,091;    0,864
1087,078;  190,414;   -0,909;   -2,136
1087,619;  243,323;   -1,273;    0,227
1088,160;  202,141;    0,000;    1,318
1088,701;  178,869;   -1,091;    0,682
1089,242;  161,414;    1,364;   -2,227
1089,783;  214,141;   -0,273;    1,409
1090,324;  189,414;    0,455;    0,682
1090,865;  132,505;    2,727;   -0,409
1091,405;  105,051;    0,727;    2,227
1091,946;  155,141;    0,182;   -0,955
1092,487;  100,414;    0,818;   -1,409
1093,027;  219,051;   -1,364;   -1,500
1093,568;  148,778;   -0,364;    1,227
1094,108;  186,960;    0,273;    1,773
1094,649;  153,051;   -1,182;    0,136
1095,189;  121,960;   -0,636;   -0,682
1095,729;  123,960;   -0,091;    0,955
1096,269;  110,687;    0,727;   -0,955
1096,810;  269,141;   -1,364;    0,500
1097,350;  204,323;    1,364;   -0,773
1097,890;  149,596;    0,364;    1,227
1098,430;  315,232;    2,364;    2,864
1098,970;  242,141;    2,182;    1,682
1099,510;  133,232;    0,545;   -2,318
1100,050;  116,051;    1,000;   -1,591
1100,589;  128,869;   -0,727;   -0,318
1101,129;  174,141;    0,818;   -0,955
1101,669;  264,414;    1,727;    2,136
1102,209;  184,505;   -0,091;    2,227
1102,748;  150,323;    0,000;    0,955
1103,288;  158,869;    1,273;   -1,227
1103,827;  150,414;    3,091;   -2,227
1104,367;  112,323;   -0,091;   -2,409
1104,906;  112,960;    1,364;   -1,136
1105,445;  160,869;    0,636;   -1,136
1105,985;  130,323;   -0,727;    1,500
1106,524;  142,687;   -1,727;   -0,682
1107,063;  135,051;   -2,727;    1,409
1107,602;  106,141;   -1,909;   -1,500
1108,141;   91,141;   -1,909;    1,500
1108,680;  155,141;   -3,455;   -0,591
1109,219;  122,778;   -0,909;   -0,500
1109,758;  114,232;    0,455;    0,682
1110,297;  109,505;    1,000;   -0,682
1110,836;   85,869;   -0,727;    0,955
1111,375;  121,869;   -2,545;    0,409
1111,913;  154,232;   -1,000;    0,773
1112,452;  133,687;   -0,273;    0,136
1112,991;   84,960;    1,091;    1,955
1113,529;   82,505;   -0,818;   -0,045
1114,068;  112,778;   -0,273;    2,955
1114,606;   75,687;   -0,364;   -0,955
1115,144;  144,323;   -1,273;    1,045
1115,683;  112,687;   -0,727;    0,318
1116,221;  141,778;   -0,455;   -0,864
1116,759;   95,323;    0,636;   -0,864
1117,297;  177,414;    0,000;    1,864
1117,836;   97,869;   -2,182;   -1,227
1118,374;   99,051;    0,182;   -0,682
1118,912;  102,596;    0,909;    2,682
1119,450;   99,051;    1,000;    0,864
1119,988;   98,960;    1,545;    2,136
1120,525;  363,596;    5,091;    3,318
1121,063;  194,960;    1,182;    1,864
1121,601;  103,778;   -0,909;   -1,227
1122,139;   80,869;   -0,727;   -2,045
1122,676;  185,869;   -0,727;    2,773
1123,214;  155,960;   -1,182;    4,409
1123,751;   72,596;    1,727;    2,227
1124,289;  107,960;   -0,091;   -0,409
1124,826;   77,687;    1,727;    0,227
1125,364;   43,505;    1,727;   -0,955
1125,901;  147,323;    1,182;    1,227
1126,438;  157,778;    0,818;    0,955
1126,975;   47,141;   -0,727;   -0,773
1127,513;   67,505;    0,273;    2,136
1128,050;   46,051;    1,636;   -0,682
1128,587;   84,778;    2,000;   -0,227
1129,124;  109,687;    0,091;    1,318
1129,661;   59,141;    0,273;    0,227
1130,198;  130,414;    1,636;    0,773
1130,734;   98,778;    0,182;    1,409
1131,271;   45,778;   -0,909;    0,864
1131,808;  112,141;    2,909;    3,045
1132,345;   68,051;    1,545;    0,318
1132,881;   23,596;   -1,545;   -1,864
1133,418;   80,051;    0,727;   -1,136
1133,954;   47,596;    2,455;   -2,682
1134,491;   82,051;    1,364;   -0,773
1135,027;   53,596;    2,364;    0,864
1135,564;   79,051;    0,273;    2,955
1136,100;   76,141;    0,364;    2,136
1136,636;   39,778;   -1,273;   -1,045
1137,172;   64,141;    0,000;   -1,045
1137,708;   44,869;   -1,364;   -1,045
1138,245;   37,778;    1,273;   -1,227
1138,781;   29,323;    1,091;   -3,318
1139,317;   48,232;    1,273;   -1,409
1139,852;   56,505;    3,091;    0,136
1140,388;   84,414;   -1,182;   -0,409
1140,924;   49,596;   -1,091;   -2,227
1141,460;   29,778;   -1,636;    0,136
1141,996;   16,323;   -1,364;    2,682
1142,531;   28,051;    1,364;    3,318
1143,067;  106,869;    1,182;    1,045
1143,602;  138,141;   -0,091;   -0,318
1144,138;   73,141;   -2,636;    1,045
1144,673;   30,687;   -1,455;    1,409
1145,209;   40,596;   -1,909;   -0,318
1145,744;   23,687;   -0,727;    0,864
1146,279;   65,596;    1,818;   -0,136
1146,815;   37,232;    1,545;   -2,682
1147,350;   55,051;   -1,364;    0,045
1147,885;   27,778;   -0,818;   -1,318
1148,420;   28,960;   -2,273;    0,773
1148,955;   26,778;   -1,727;    1,864
1149,490;   32,869;   -0,909;   -1,591
1150,025;   23,869;    0,455;   -1,773
1150,560;   59,687;    1,091;   -0,955
1151,094;   48,596;    1,455;   -0,591
1151,629;   49,414;    1,636;    0,864
1152,164;   32,414;    1,364;    1,318
1152,698;   21,960;   -0,182;   -0,136
1153,233;   10,051;    0,091;   -0,682
1153,767;   19,778;   -3,000;   -2,318
1154,302;   32,869;   -1,455;    1,773
1154,836;   33,232;   -0,455;   -2,136
1155,371;   41,414;   -1,364;    3,682
1155,905;   27,414;   -0,636;    1,682
1156,439;   29,232;   -0,636;   -0,500
1156,973;   38,232;    0,364;    0,318
1157,507;   20,687;   -0,364;    0,682
1158,042;   24,687;   -0,727;    1,045
1158,576;   40,414;    0,182;    1,773
1159,110;   41,323;   -0,818;    2,409
1159,643;   30,232;    0,636;   -0,045
1160,177;   16,414;   -1,545;    1,500

