
Integration time [ms]:   0,040
Averaging Nr. [scans]: 11
Smoothing Nr. [pixels]: 0
Data measured with spectrometer [name]: 7318044SP
Wave   ;Sample   ;Dark     ;Reference
[nm]   ;[counts] ;[counts] ;[counts] 

186,757;    7,810;   31,551;    1,318
187,357;   32,167;   22,551;    0,955
187,958;   14,258;   15,460;   -1,591
188,558;   38,884;    8,915;   -1,227
189,159;   14,737;    6,733;   -4,500
189,759;  -16,849;    7,278;   -3,591
190,360;  -19,961;    2,824;   -2,136
190,960;   16,307;    2,915;   -4,136
191,560;   26,629;    3,189;   -6,591
192,161;  240,993;    4,372;   -3,500
192,761;   98,332;    4,010;   -3,227
193,361;   49,118;    1,556;   -3,773
193,962;   91,233;    2,010;   -2,682
194,562;   17,906;    1,189;   -3,955
195,162;   21,945;   -2,448;   -2,227
195,762;  141,642;   -3,176;   -0,045
196,362;   94,468;    1,370;   -2,500
196,963;    0,822;    2,006;   -0,864
197,563;   50,711;    1,551;   -0,955
198,163;   -3,334;    0,096;   -0,682
198,763;    4,560;    1,733;   -0,500
199,363;   58,097;    3,096;   -0,500
199,963;   27,723;    0,369;    0,409
200,563;   12,589;    2,823;   -1,409
201,163;    1,935;    3,277;   -0,227
201,763;   35,076;    3,732;    0,318
202,363;    4,571;    1,459;    1,500
202,963;   35,768;    1,459;    1,045
203,563;   86,438;    0,277;    0,500
204,162;   15,744;    2,096;   -1,864
204,762;    9,005;    0,550;    0,591
205,362;  -12,622;    3,004;    1,955
205,962;   17,654;    3,096;    1,955
206,562;   17,428;    1,823;    2,318
207,161;    1,789;   -0,087;    0,318
207,761;   71,007;    1,277;    2,409
208,361;    1,851;   -0,268;    1,409
208,960;   27,454;    0,459;    1,500
209,560;   25,120;    1,277;    1,591
210,160;   37,188;    0,550;    1,864
210,759;    6,230;    4,186;    1,227
211,359;   -0,939;    1,459;    1,045
211,958;  100,939;    1,277;    2,045
212,558;  116,708;    1,732;    1,864
213,157;   45,451;    1,822;    1,500
213,757;  185,747;    3,822;   -0,227
214,356;   66,285;    1,277;   -0,409
214,956;  152,924;    3,095;    0,409
215,555;   37,606;    2,095;    2,136
216,154;   12,093;   -2,723;   -0,591
216,754;   11,168;    0,277;    0,773
217,353;   23,327;   -0,268;   -1,045
217,952;  -25,710;   -0,178;    0,318
218,552;   48,844;    1,368;   -0,773
219,151;    2,702;    0,277;    0,955
219,750;    1,196;    0,004;   -0,227
220,349;  -13,240;   -0,451;    1,045
220,948;   53,330;   -1,360;    1,136
221,548;   -0,842;    0,913;    1,227
222,147;    9,696;   -0,087;   -0,409
222,746;   87,305;   -0,451;   -0,955
223,345;   32,710;    0,731;    0,500
223,944;   28,430;   -0,451;    0,773
224,543;   36,506;    1,004;   -1,409
225,142;   14,204;    0,094;    0,136
225,741;   30,273;   -0,814;    1,045
226,340;   19,165;   -0,451;   -0,955
226,939;   62,043;   -0,996;   -0,136
227,538;   -0,901;   -0,360;   -0,773
228,137;   73,126;   -0,814;    0,864
228,735;   41,754;   -0,541;    1,227
229,334;   -8,807;   -0,905;   -0,227
229,933;   83,821;    0,459;    0,591
230,532;   80,268;    1,186;   -0,409
231,131;  118,508;    1,732;    0,318
231,729;   49,416;   -2,450;   -2,318
232,328;   12,086;   -0,723;   -1,500
232,927;   24,244;    1,004;   -0,500
233,525;   18,348;    3,640;    0,045
234,124;   29,598;    2,368;   -1,591
234,723;   -1,336;    0,913;   -1,045
235,321;   -9,329;    2,277;    0,136
235,920;   -2,758;    1,186;   -1,227
236,518;   82,886;    3,459;    0,318
237,117;    8,315;    0,004;   -0,227
237,715;   15,804;    0,640;   -0,500
238,314;   24,201;   -0,087;   -2,318
238,912;   83,507;   -0,723;   -1,409
239,510;   43,474;    0,459;   -1,227
240,109;   88,121;    0,004;    3,773
240,707;   68,947;   -0,996;    1,227
241,305;    2,128;    0,550;    0,136
241,904;   29,492;   -0,178;   -2,045
242,502;  102,425;   -0,632;   -0,227
243,100;   42,242;   -0,087;   -0,955
243,698;    1,822;    0,732;    1,682
244,297;   23,110;   -0,632;    0,682
244,895;   11,836;   -0,269;   -2,318
245,493;   90,703;    2,186;   -0,591
246,091;   99,910;    1,368;   -1,318
246,689;   49,811;    1,004;    0,591
247,287;   42,315;    0,822;   -1,136
247,885;   25,388;   -1,451;    1,227
248,483;   12,820;    1,822;   -0,500
249,081;   49,420;    0,185;    1,591
249,679;   56,693;   -0,178;    1,682
250,277;    1,694;   -1,723;    0,864
250,875;   54,796;   -1,087;   -1,045
251,473;   10,265;   -1,178;    0,500
252,071;   59,183;    1,459;    1,045
252,669;   19,521;   -1,814;    0,318
253,267;    6,163;   -0,087;    0,773
253,864;   20,406;   -0,360;    0,682
254,462;   70,000;    1,640;    1,591
255,060;    1,232;   -0,269;    1,318
255,658;   -8,115;    0,822;   -0,136
256,255;   19,671;    0,186;   -2,045
256,853;   41,570;   -0,269;    1,409
257,451;   13,869;    0,822;    1,864
258,048;  191,919;    1,822;    1,864
258,646;   83,355;    1,731;   -1,045
259,243;  105,206;   -0,087;    2,227
259,841;   61,224;   -0,814;    0,318
260,438;   13,454;   -0,087;    0,864
261,036;   52,242;   -1,905;    1,409
261,633;    2,356;   -0,087;    2,227
262,231;   -7,198;    2,731;   -0,045
262,828;  -21,543;   -0,905;    1,136
263,425;    5,811;    0,913;   -0,591
264,023;    4,777;    0,186;    0,045
264,620;   61,157;   -0,360;   -0,318
265,217;  102,893;   -2,087;    3,136
265,815;   16,949;   -1,905;    2,136
266,412;   45,091;    0,731;    0,136
267,009;   43,860;   -1,451;    0,773
267,606;   75,537;    0,822;   -0,955
268,203;   19,035;   -0,269;   -0,591
268,801;   16,364;    1,731;    0,591
269,398;    3,991;   -0,360;    2,500
269,995;   38,185;    0,277;    1,591
270,592;   22,589;   -0,632;   -0,500
271,189;   -0,340;    0,186;    0,409
271,786;  -15,329;   -0,632;    1,227
272,383;   47,077;   -1,087;    0,227
272,980;   15,571;    0,277;    0,318
273,577;   -1,054;    0,004;    1,227
274,174;   -2,807;    0,822;    2,591
274,771;   32,794;   -0,814;   -0,773
275,367;  198,756;    2,277;    1,409
275,964;   94,738;    0,731;   -0,500
276,561;   16,091;    1,549;   -1,045
277,158;  -14,489;    0,095;   -1,773
277,755;   81,147;    2,185;    0,409
278,351;   39,802;   -0,451;   -1,500
278,948;   53,015;   -0,815;    0,045
279,545;   36,040;   -1,360;    2,318
280,141;   79,381;   -1,723;   -2,045
280,738;   91,505;   -0,451;   -0,136
281,334;   24,900;   -1,633;    0,591
281,931;   11,228;   -0,087;   -1,318
282,528;   60,129;    0,822;   -0,500
283,124;   82,000;   -1,087;   -0,500
283,721;   75,468;   -0,451;    1,409
284,317;   32,939;    0,185;    2,500
284,913;   90,179;   -1,360;    0,591
285,510;  151,906;    0,640;   -0,318
286,106;   92,767;   -2,269;   -0,955
286,703;   46,593;   -0,360;    1,955
287,299;   17,587;   -1,451;   -0,591
287,895;    9,554;    0,822;   -1,045
288,491;    8,809;    0,186;    2,136
289,088;   39,486;   -2,360;    2,409
289,684;   49,612;   -1,723;    1,500
290,280;  116,357;    0,368;    0,682
290,876;   87,116;    1,822;    5,500
291,472;   59,907;    1,276;    2,227
292,068;   75,965;    1,367;    0,227
292,665;   32,951;    2,095;    0,773
293,261;    4,677;    0,276;    2,136
293,857;   62,159;    2,913;    2,136
294,453;   18,994;    3,550;    0,955
295,049;  108,610;   -0,268;    1,955
295,644;   57,261;    0,095;    0,136
296,240;    1,089;   -0,905;   -0,136
296,836;   32,545;   -0,995;    0,318
297,432;   64,885;    1,096;   -0,500
298,028;   73,951;    0,732;    0,773
298,624;   36,206;    1,459;    1,864
299,220;   25,827;    2,368;    0,591
299,815;   25,900;    1,005;   -0,409
300,411;   58,610;    0,914;    1,773
301,007;   79,109;    1,368;    0,227
301,602;   26,074;   -0,541;   -2,318
302,198;   89,845;    0,732;   -0,773
302,794;   32,678;    1,187;   -0,500
303,389;   -5,843;   -1,177;    1,045
303,985;   10,967;    0,550;    1,409
304,580;   76,125;    1,459;    1,591
305,176;   32,850;   -3,086;    0,136
305,771;  -23,316;   -1,268;   -1,227
306,367;  149,890;    4,095;    0,136
306,962;   55,801;    0,641;    1,500
307,558;   75,735;   -0,450;    0,136
308,153;   60,676;    1,095;   -1,136
308,748;    2,231;   -0,814;    1,682
309,344;  142,105;   -0,632;   -1,318
309,939;  131,610;   -1,905;   -1,318
310,534;   27,312;   -0,086;   -1,682
311,130;   16,305;    0,459;   -2,500
311,725;    7,916;    1,004;   -0,500
312,320;   22,330;    2,459;    0,045
312,915;   59,502;    1,459;   -1,045
313,510;  143,502;    1,550;   -0,500
314,105;   27,687;    1,096;    1,409
314,700;   -5,520;   -3,086;   -1,045
315,295;   12,488;   -0,904;    0,045
315,890;   -1,488;    1,277;    0,864
316,485;   46,205;   -0,359;   -0,318
317,080;    0,636;   -3,086;    1,591
317,675;  134,338;    2,005;   -0,682
318,270;  232,068;    5,550;    3,318
318,865;  153,696;    3,278;    3,045
319,460;   87,495;   -0,904;    0,591
320,055;   16,680;   -0,541;   -1,227
320,650;   19,061;   -1,995;   -0,591
321,244;   19,539;   -0,177;   -1,409
321,839;   18,777;   -1,541;   -0,227
322,434;   36,330;   -1,086;   -1,591
323,029;   10,051;    1,732;    1,591
323,623;   12,049;    1,550;    0,773
324,218;   91,994;    2,368;    1,409
324,812;   48,323;    1,096;    1,591
325,407;   46,586;   -0,814;    2,045
326,002;  116,297;    0,277;   -0,409
326,596;   86,455;    0,914;    1,318
327,191;   11,892;    0,823;   -1,045
327,785;   25,364;   -0,813;   -0,227
328,379;   18,925;    1,368;    0,136
328,974;   33,049;    0,914;   -3,955
329,568;   45,818;    0,186;   -2,409
330,163;   93,737;    2,096;    1,045
330,757;   21,742;    2,459;    1,591
331,351;   -6,224;    0,459;    0,682
331,945;  -14,694;    0,914;    1,409
332,540;   39,602;   -1,723;   -0,591
333,134;   34,452;   -1,086;    0,773
333,728;   47,751;    0,005;    0,318
334,322;   -4,240;   -1,177;   -0,864
334,916;    2,237;    0,277;    0,955
335,510;   60,156;   -0,450;   -0,136
336,105;   44,801;   -1,086;    1,591
336,699;   11,808;   -1,086;    0,591
337,293;   32,187;   -1,723;    0,318
337,887;    3,908;   -2,723;    1,955
338,481;   54,627;    0,459;    0,591
339,074;   95,501;   -0,359;    2,682
339,668;   88,700;   -1,632;    1,227
340,262;  369,039;    1,732;    3,227
340,856;  159,558;    1,822;   -0,682
341,450;   27,599;    1,004;    1,864
342,044;   56,369;    1,459;    0,136
342,637;  104,484;    0,913;   -2,136
343,231;   56,935;   -2,360;    0,682
343,825;   39,437;   -1,086;   -0,591
344,419;   49,537;   -1,995;    0,500
345,012;  324,860;    2,459;    4,045
345,606;  206,869;    4,641;    1,591
346,199;   63,614;   -1,813;   -0,227
346,793;  121,449;    1,914;    2,045
347,386;   34,100;   -0,813;   -1,136
347,980;   -6,252;   -0,268;   -0,045
348,573;   36,493;    2,278;    0,409
349,167;  235,403;    5,278;    4,773
349,760;  140,180;    2,914;    2,682
350,354;  115,465;   -0,813;    1,136
350,947;  144,761;    1,096;    1,682
351,540;   82,050;   -0,358;   -1,409
352,134;   25,940;    1,096;    1,136
352,727;   32,888;   -0,086;    1,136
353,320;   47,560;    0,005;    0,591
353,913;   11,642;   -1,995;    1,864
354,507;  133,683;    0,823;   -1,227
355,100;   56,906;    0,460;    0,864
355,693;  330,058;    2,005;    2,409
356,286;  166,932;    0,823;    2,773
356,879;   85,469;   -0,722;    1,227
357,472;   86,709;   -0,904;    1,500
358,065;  112,272;   -0,722;    2,500
358,658;   22,461;   -0,540;    2,318
359,251;   19,023;   -1,631;   -0,591
359,844;  129,975;   -1,904;   -1,136
360,437;  167,435;   -2,995;    0,045
361,030;   65,081;    1,369;   -0,682
361,623;   65,256;    2,824;    0,318
362,215;  223,280;   -0,086;    2,045
362,808;  107,602;   -2,358;   -1,682
363,401;   54,431;   -2,449;    0,136
363,994;  194,324;   -0,631;   -1,500
364,586;   74,302;    0,824;   -1,500
365,179;   39,096;   -0,449;   -1,136
365,772;  -29,380;   -1,995;    2,045
366,364;   56,211;    1,915;   -3,227
366,957;   74,562;    2,279;   -0,045
367,549;   51,043;    2,188;   -0,864
368,142;   62,747;    1,825;   -1,500
368,734;   39,917;    0,734;   -2,136
369,327;    1,761;    1,643;   -0,500
369,919;   14,731;   -1,538;    0,409
370,512;   29,189;   -1,083;   -0,500
371,104;  237,362;   -0,901;    1,591
371,696;  235,015;    1,191;   -0,955
372,289;  126,739;    0,373;    1,136
372,881;  100,509;   -2,080;    1,318
373,473;   26,294;   -2,170;    1,136
374,066;   92,870;   -0,169;    0,500
374,658;   68,551;    0,378;    1,136
375,250;    5,957;    0,653;   -1,409
375,842;   52,036;    0,473;   -0,045
376,434;    6,416;   -0,435;   -0,409
377,026;  -21,306;    0,204;   -2,500
377,618;   21,459;   -0,158;   -0,682
378,210;  -38,811;   -0,338;   -1,955
378,802;  -48,327;    0,754;   -0,591
379,394;  331,816;    1,846;    0,682
379,986;   73,254;    1,393;   -0,955
380,578;  -16,190;   -0,153;    0,773
381,170;  247,910;   -0,972;    0,045
381,762;  153,692;    0,755;    1,409
382,354;  110,999;   -0,065;   -1,318
382,945;   32,728;   -2,976;    0,318
383,537;  -10,686;   -2,705;   -1,955
384,129;   -8,452;   -2,160;   -1,136
384,721;  108,072;   -0,252;    0,955
385,312;   43,424;   -0,161;   -0,955
385,904;  116,964;   -2,706;    1,591
386,496;   50,504;   -0,979;    1,045
387,087;  170,096;    1,022;    2,500
387,679;  109,222;   -1,160;    0,045
388,270;   75,125;    2,840;    2,045
388,862;   50,198;    1,295;   -0,318
389,453;   37,571;   -0,887;    1,045
390,045;   42,629;   -0,705;   -2,682
390,636;  -59,080;    0,204;   -0,591
391,227;    4,835;   -0,523;   -0,045
391,819;  -24,935;    0,204;    0,773
392,410;  219,319;    1,022;    0,045
393,001;   40,569;   -0,979;   -1,591
393,593;  107,998;    1,930;   -0,045
394,184;  147,767;    1,385;   -0,409
394,775;   40,900;    1,839;    2,136
395,366;  -48,882;    1,385;    0,773
395,957;  118,005;    0,113;    0,136
396,548;   16,308;   -0,342;    2,682
397,139;  114,436;   -2,433;    0,591
397,730;   38,795;   -1,888;    0,955
398,321;   56,083;   -1,252;    0,955
398,912;    1,999;   -0,615;    0,136
399,503;   -3,620;   -3,524;   -1,409
400,094;   35,089;    0,294;    1,682
400,685;   25,719;   -0,433;    0,045
401,276;   -8,164;    0,930;   -0,955
401,867;  -35,282;   -0,888;    0,773
402,458;  -74,941;   -2,251;   -2,318
403,048;   54,867;    1,112;    0,591
403,639;   12,068;    0,840;    0,864
404,230;  111,916;    2,476;    0,318
404,821;  169,198;   -0,615;    0,045
405,411;   78,196;    1,203;   -2,591
406,002;    2,461;   -1,252;   -1,136
406,592;  216,302;    2,294;    0,045
407,183;   93,151;    0,566;   -1,500
407,774;   67,466;    3,475;   -0,136
408,364;   14,177;    0,930;    0,409
408,954;  124,053;    0,384;    1,227
409,545;  127,210;    1,021;    1,045
410,135;   91,893;    1,293;    0,500
410,726;   42,336;    1,838;    0,318
411,316;  204,917;    0,111;    0,773
411,906;   65,494;   -0,253;   -0,409
412,497;   76,042;   -1,070;   -0,045
413,087;   14,852;   -1,980;   -0,227
413,677;  -44,995;   -0,707;    3,864
414,267;  -51,334;    0,656;    1,409
414,857;  -80,284;   -2,980;    4,227
415,448;  -76,347;    0,839;    0,500
416,038;  -37,909;    0,020;   -0,591
416,628;    6,344;   -0,889;    0,409
417,218;   56,153;    0,565;    3,318
417,808;  194,293;    0,202;   -0,409
418,398;   78,607;    0,020;    2,682
418,988;  -28,749;    2,020;    0,591
419,578;   53,657;   -0,707;    1,409
420,168;  -16,944;   -1,343;   -0,955
420,757;  131,323;   -1,343;   -1,500
421,347;   35,067;    0,111;   -0,227
421,937;   11,530;    2,292;    1,409
422,527;  131,091;    0,838;   -0,773
423,116;  266,086;   -0,253;   -0,045
423,706;    0,614;   -1,889;    0,318
424,296;  -41,039;    1,384;    0,682
424,885;   79,325;   -0,071;   -3,045
425,475;   53,539;    1,474;   -2,864
426,065;  -46,536;   -0,980;   -0,318
426,654;  -67,316;   -0,435;   -0,318
427,244;  177,422;    0,020;    1,409
427,833;  157,456;    1,383;   -0,500
428,423;   32,288;   -0,526;    1,136
429,012;   28,782;   -0,344;   -1,136
429,601;  152,475;   -1,344;    0,136
430,191;   50,659;    1,292;    4,318
430,780;  -46,456;   -0,344;   -0,409
431,369;  144,574;    0,746;   -0,045
431,959;   23,739;   -1,254;    0,500
432,548;  -28,113;   -1,163;   -0,045
433,137;  -84,015;   -1,254;   -1,318
433,726;  -22,361;    0,292;    0,500
434,315;   11,498;   -0,526;    2,409
434,905;  115,131;   -1,254;    1,409
435,494;  112,000;    0,746;    0,955
436,083;  -17,535;   -0,981;   -0,955
436,672;   66,745;    0,110;    0,500
437,261;   21,165;    0,292;   -1,955
437,850;  240,595;    1,383;    0,682
438,439;  291,229;    3,291;    1,955
439,027;  397,476;    3,655;    1,773
439,616;  328,218;    2,927;    1,227
440,205;  107,666;    0,200;   -2,136
440,794;   57,168;    2,109;   -0,045
441,383;   -3,751;   -1,346;   -0,591
441,971;  -40,148;   -2,436;    0,591
442,560;  -23,555;    0,563;   -1,773
443,149; -109,397;    0,379;   -1,318
443,737;  -67,627;   -0,074;   -2,318
444,326;  -38,530;    0,018;    0,318
444,915;    3,553;   -1,982;    0,864
445,503;   11,281;   -2,891;   -0,318
446,092;  261,437;    0,382;    2,136
446,680;  194,651;    0,382;    0,318
447,269;   97,146;   -0,346;   -0,318
447,857;   87,673;    0,018;   -1,773
448,445;   43,673;    0,563;    1,318
449,034;   -6,889;   -1,528;   -1,136
449,622;   -1,153;   -1,073;    3,500
450,210;  274,926;    2,017;    2,227
450,799;  190,710;    0,290;   -0,591
451,387;  145,809;    1,381;   -0,591
451,975;  135,537;    2,654;    0,864
452,563;  211,811;    3,472;    2,318
453,151;   38,230;   -0,528;   -1,227
453,739;   80,715;   -1,347;    0,136
454,328;  192,757;    2,381;   -2,136
454,916;  123,285;    2,562;   -0,136
455,504;  144,013;    1,017;    1,227
456,092;   27,485;    0,017;   -1,591
456,679;  -20,796;    1,472;    0,682
457,267;  398,822;    4,017;    1,045
457,855;   72,978;    1,017;    1,409
458,443;  -64,462;   -0,165;    1,682
459,031;   94,961;    0,108;    2,409
459,619;   51,094;   -1,801;    2,864
460,206;  -36,708;    0,835;    2,045
460,794;  -31,379;   -2,983;   -0,227
461,382;   16,809;   -0,529;   -0,864
461,970;   13,834;    1,198;    1,864
462,557;  -63,968;   -0,711;   -0,682
463,145;   55,454;   -3,165;   -1,682
463,732;  301,807;    2,016;   -1,045
464,320;   79,037;   -0,075;   -3,045
464,907;  229,294;    2,743;   -0,773
465,495;  128,926;    0,743;   -1,227
466,082;   54,863;   -1,984;   -0,045
466,670;   77,078;   -2,529;    1,227
467,257;  -36,386;   -1,711;    2,045
467,844;   74,175;   -0,075;    0,045
468,432;   56,605;    0,834;    3,500
469,019;   12,437;    0,925;   -1,773
469,606;   91,182;    0,470;    3,682
470,193;  121,353;   -1,439;    0,227
470,780;   71,628;   -2,075;    0,864
471,368;    0,808;   -1,257;   -0,773
471,955;  111,735;    1,379;   -0,682
472,542;   71,435;    0,652;   -1,136
473,129;  -36,431;   -0,166;    0,136
473,716;  -25,976;    1,470;    0,591
474,303;    0,313;    0,652;   -0,864
474,890;    6,913;   -1,439;   -0,500
475,477;  121,077;   -1,621;    0,409
476,064;   15,405;    1,106;   -1,591
476,650;  135,556;    0,288;    0,318
477,237;   38,192;   -0,258;    0,955
477,824;   21,911;   -1,076;    0,864
478,411;  -71,486;   -1,894;   -0,318
478,997;  -70,843;    0,560;   -0,773
479,584; -120,903;    1,196;   -0,409
480,171;   53,817;   -0,440;   -0,773
480,757;  122,162;    2,651;    0,773
481,344;    7,345;    0,469;    0,409
481,931;  -85,570;    1,105;    1,045
482,517;   46,879;   -1,258;    0,318
483,104;  119,973;    1,106;    2,864
483,690;   -8,366;   -1,804;    0,045
484,276;  -23,062;   -0,895;    0,227
484,863;  197,468;    2,469;    1,136
485,449;   34,721;   -0,077;    0,318
486,035;  -10,849;   -1,986;   -0,136
486,622;   82,615;   -0,895;    0,045
487,208;   -1,212;    1,378;    1,500
487,794;  -79,933;    0,741;    0,318
488,380;  -80,231;    0,105;   -1,409
488,967;  -71,458;   -1,168;   -0,409
489,553;  -52,192;   -1,895;   -1,409
490,139;   35,973;    1,559;    0,773
490,725;  -49,713;    0,741;   -0,227
491,311;   -1,333;    3,287;    3,045
491,897;  -14,217;   -0,986;    1,500
492,483;  -12,664;    0,105;    1,227
493,069;  424,419;    3,923;    0,864
493,655;  142,971;    1,650;    0,682
494,241;   12,079;    1,377;   -0,955
494,826;   20,436;    0,287;   -1,045
495,412;   93,197;    2,559;   -0,682
495,998;   -5,113;   -0,805;   -0,318
496,584;   51,086;    0,377;    1,045
497,169;   70,052;    1,014;   -0,682
497,755;   -0,323;    0,650;    1,227
498,341;  138,317;    0,559;    0,318
498,926;  260,323;    1,832;    1,955
499,512;    1,094;    1,286;    2,955
500,097;    2,906;    0,195;   -0,318
500,683;   26,172;   -0,350;    2,136
501,268;  -30,597;   -0,169;   -0,955
501,854;  -14,895;   -0,169;    1,227
502,439;  -17,030;   -0,624;   -1,773
503,024;    3,773;    0,195;    0,500
503,610;   34,418;   -0,078;   -0,682
504,195;  -19,822;    0,558;    1,955
504,780;   66,890;    2,922;    1,227
505,366;  155,296;    3,013;    2,864
505,951;   78,323;    0,740;    1,045
506,536;   -1,056;   -3,260;   -3,682
507,121;   58,515;    0,285;   -0,318
507,706;   13,721;    2,376;    1,045
508,291;  -35,214;    2,649;    1,136
508,876;  -37,458;   -0,988;    2,591
509,461;   11,825;   -0,169;   -0,773
510,046;   49,916;    0,194;    0,318
510,631;   54,959;   -0,351;   -0,773
511,216;  -19,051;    2,467;   -0,500
511,801;   22,299;   -0,442;    2,591
512,386;   42,445;    0,740;    0,500
512,971;   56,038;   -2,988;    0,955
513,555;   92,850;   -0,897;   -1,500
514,140;   51,122;   -0,442;   -3,136
514,725;  164,714;   -0,715;   -1,136
515,309;   80,574;   -0,533;    0,318
515,894;   -0,649;   -0,624;   -2,227
516,479;   34,069;   -0,624;   -0,955
517,063;   32,268;    0,376;    1,227
517,648;   -9,790;    1,012;   -1,136
518,232;  -36,356;   -0,261;   -1,409
518,817;   49,173;   -0,079;    1,682
519,401;  160,455;    2,194;    0,591
519,985;  155,389;    1,103;    1,136
520,570;   37,388;    0,830;   -1,955
521,154;  160,651;    2,102;    0,591
521,738;  358,244;   -2,352;    2,409
522,323;  219,874;   -0,170;    1,682
522,907;  263,550;    0,466;   -0,136
523,491;  213,392;    0,557;    0,955
524,075;  232,285;    2,284;    0,591
524,659;  552,179;    1,466;    0,591
525,243;  539,154;    1,739;    0,409
525,827;  581,987;    0,648;   -0,045
526,411;  721,542;   -1,989;   -0,136
526,995; 1043,955;   -0,352;    1,409
527,579; 1247,076;   -0,443;   -1,045
528,163; 1362,421;    0,375;   -1,500
528,747; 1765,744;    2,466;   -0,773
529,331; 1984,191;   -0,080;   -1,409
529,915; 2070,380;    1,738;    0,955
530,499; 2461,892;   -0,807;    1,227
531,082; 2782,059;   -0,534;    1,591
531,666; 3002,485;    1,374;    0,773
532,250; 3536,818;    1,284;    2,682
532,833; 4112,957;    0,920;    2,773
533,417; 4384,915;   -1,807;    0,864
534,001; 4723,831;    1,647;   -0,318
534,584; 5562,581;    0,374;    0,500
535,168; 5830,292;    0,465;    1,409
535,751; 6391,890;    0,647;    0,045
536,334; 6344,964;   -0,898;   -0,409
536,918; 7199,790;    0,011;    1,591
537,501; 7627,269;   -0,899;    1,318
538,085; 8034,417;   -0,444;    1,045
538,668; 8484,400;    0,829;    2,409
539,251; 9180,383;    1,829;    3,773
539,834; 9581,169;    0,101;    0,773
540,418; 9895,522;   -1,990;    4,318
541,001;10235,605;   -0,990;    1,773
541,584;10529,411;    2,101;    2,227
542,167;10550,315;    1,374;    2,955
542,750;10917,785;    1,919;   -0,773
543,333;10787,840;    0,555;    2,136
543,916;11731,693;    0,192;    2,500
544,499;12480,379;   -1,354;    0,227
545,082;12705,006;    1,374;    3,591
545,665;13073,338;    1,919;    1,500
546,248;13539,840;    1,010;   -0,318
546,830;13375,221;   -0,445;    1,955
547,413;13953,103;    1,010;   -0,773
547,996;14588,086;    0,555;    0,500
548,579;14530,737;    0,919;    0,955
549,161;14478,911;    1,828;    2,682
549,744;14421,380;   -0,809;    0,409
550,326;15024,488;   -0,809;   -1,136
550,909;14979,842;    2,737;    0,591
551,492;15457,257;   -0,263;    0,227
552,074;15379,213;   -0,173;   -1,318
552,657;15998,824;    2,373;    0,045
553,239;15901,593;   -0,173;   -0,773
553,821;15898,429;   -1,082;    1,045
554,404;15535,965;    1,282;    1,136
554,986;15974,518;    0,464;    1,045
555,568;16608,922;    1,191;   -0,955
556,151;15918,178;    1,191;   -0,227
556,733;16180,659;   -0,264;   -0,864
557,315;16692,830;    0,100;    0,500
557,897;16557,946;    0,554;   -0,500
558,479;16740,450;   -1,991;    1,318
559,061;16915,877;   -0,719;   -0,864
559,643;17312,002;   -0,264;    0,045
560,225;17704,096;    1,645;    2,864
560,807;17782,729;    0,918;    0,318
561,389;17334,745;    0,554;    2,318
561,971;18120,874;    0,463;    2,136
562,553;17960,554;   -1,628;    1,591
563,135;18146,745;   -0,537;    1,136
563,717;17773,340;    3,372;    1,136
564,298;18519,727;    3,645;   -0,045
564,880;18328,501;    0,645;   -1,409
565,462;18543,046;    0,645;    1,318
566,043;19734,264;   -0,446;    2,318
566,625;19291,892;    1,918;    1,227
567,207;19165,585;    1,099;    1,682
567,788;20331,898;   -1,264;    1,500
568,370;21198,706;    1,917;   -0,500
568,951;21115,286;    0,190;    0,227
569,533;22018,093;   -0,628;   -0,500
570,114;22466,825;   -0,446;    0,682
570,695;23005,871;   -0,174;   -1,318
571,277;23531,969;   -0,265;   -1,682
571,858;24326,830;    2,008;   -1,136
572,439;25290,054;    1,554;   -1,045
573,021;25486,430;    2,099;   -2,773
573,602;26028,233;   -1,265;    0,318
574,183;27036,124;   -2,083;    2,227
574,764;27237,339;   -1,629;    0,409
575,345;27819,520;    0,917;   -0,136
575,926;28467,588;   -0,356;    0,136
576,507;28472,588;    1,099;   -0,227
577,088;29666,555;    3,099;    1,682
577,669;29653,041;    0,735;    1,955
578,250;30486,397;    0,644;   -1,045
578,831;31201,187;   -1,356;   -2,227
579,412;31449,297;   -0,810;    0,955
579,993;32402,379;    1,008;    0,227
580,573;32764,421;   -0,629;   -0,955
581,154;31770,264;    0,735;   -0,591
581,735;32745,727;    0,644;    0,773
582,315;32300,363;   -0,629;    2,136
582,896;32481,521;   -0,174;    1,227
583,477;31956,899;    0,189;    1,227
584,057;32169,346;    0,553;    0,955
584,638;32522,925;    2,553;    2,318
585,218;32528,603;   -0,538;    2,682
585,799;32751,025;    0,281;   -0,227
586,379;32677,191;    0,372;    1,591
586,959;31410,372;    0,735;    0,318
587,540;30747,609;   -0,629;    2,227
588,120;30347,417;    1,007;   -0,045
588,700;29301,989;    2,553;    2,136
589,281;29651,173;    0,462;   -0,955
589,861;29636,346;    0,099;   -1,682
590,441;29471,007;    2,371;   -2,682
591,021;28476,189;   -0,265;   -2,591
591,601;28665,803;   -0,537;    0,500
592,181;28727,713;   -0,719;   -0,773
592,761;27974,410;    0,007;    1,409
593,341;27897,694;   -0,901;    0,045
593,921;27901,522;   -0,265;    1,591
594,501;27820,950;   -0,538;    1,318
595,081;27642,902;    0,917;   -0,318
595,661;28029,596;   -1,447;    0,955
596,240;28609,200;   -0,537;    0,136
596,820;28272,805;    0,372;    1,955
597,400;28468,604;    2,008;    0,773
597,980;28669,440;    2,008;    1,045
598,559;28653,670;    2,735;   -0,227
599,139;28352,447;   -0,174;   -1,227
599,718;28293,719;   -0,174;   -0,409
600,298;28572,703;    0,735;    0,682
600,877;28821,283;    2,917;    1,409
601,457;29158,706;    2,281;    1,136
602,036;29073,704;    0,190;    2,045
602,616;29299,250;    0,644;    1,682
603,195;29649,425;   -0,355;    3,500
603,774;29223,350;   -0,901;    2,045
604,354;29094,606;    0,826;   -0,500
604,933;28612,143;    0,463;    1,864
605,512;28721,143;    3,554;    0,591
606,091;28766,426;   -0,537;    3,773
606,671;29621,772;    0,281;    0,773
607,250;28750,061;    1,644;    3,136
607,829;28984,873;    2,372;    3,227
608,408;28796,558;    1,190;    2,591
608,987;27821,305;    1,281;    3,409
609,566;28143,786;   -1,265;   -2,500
610,145;28297,032;   -1,082;    0,682
610,723;28686,188;    4,372;    6,864
611,302;27930,322;   -0,446;    1,682
611,881;27437,478;    5,008;   11,227
612,460;28323,379;    1,645;    3,955
613,039;28725,430;   -0,082;    2,045
613,617;27428,303;    1,736;    4,773
614,196;27643,776;    1,099;    1,227
614,775;27976,563;    1,009;    2,409
615,353;27918,985;    0,736;    0,864
615,932;27695,340;    0,100;    2,409
616,510;28269,554;    0,554;    0,591
617,089;27774,241;    7,100;   17,591
617,667;27523,621;    2,372;    6,136
618,246;27428,374;   -1,537;    1,318
618,824;27556,374;   -3,355;   -0,955
619,402;27120,018;   -2,900;   -1,773
619,981;27622,367;   -0,173;   -1,045
620,559;27453,714;    0,009;    1,682
621,137;26993,912;   -0,718;    1,864
621,715;27036,887;   -1,173;   -0,682
622,293;26889,417;   -0,537;   -0,773
622,871;27394,557;   -0,718;    0,500
623,450;27013,096;    0,373;   -0,864
624,028;26905,739;    0,191;   -0,955
624,606;26490,864;   -1,718;    1,682
625,183;26899,989;   -1,536;   -1,136
625,761;26530,799;    1,009;    1,136
626,339;26844,236;    1,373;    2,591
626,917;27263,628;   -0,172;   -0,045
627,495;27267,958;   -0,354;    1,318
628,073;26723,050;   -0,263;    2,864
628,650;26452,304;    0,100;    2,136
629,228;26829,369;    0,373;    4,409
629,806;26227,502;    2,282;    1,136
630,383;26457,512;    1,464;   -0,318
630,961;26265,172;    2,555;   -0,955
631,539;26056,735;    2,464;    0,227
632,116;25383,444;   11,373;   15,409
632,694;25970,347;    2,555;    6,500
633,271;26273,754;    0,828;    2,682
633,848;26216,687;    1,828;    2,045
634,426;26249,730;   -1,081;    1,773
635,003;25332,857;    1,101;   -0,409
635,580;25621,279;    1,192;    3,682
636,158;26232,112;    3,737;    1,227
636,735;26172,515;    0,555;   -0,500
637,312;26387,240;   -0,809;   -0,682
637,889;26479,020;   -4,354;   -0,682
638,466;25942,048;   -3,990;   -0,409
639,043;25911,026;    2,101;   -1,136
639,620;26257,803;   -2,262;   -0,955
640,197;26637,197;    1,100;    1,682
640,774;26744,081;   -0,172;    1,136
641,351;27137,055;    0,737;    1,136
641,928;26531,576;   -0,627;    1,409
642,505;26220,823;    0,828;   -0,500
643,082;26373,889;   -1,718;    1,227
643,658;25395,591;   -0,718;    1,500
644,235;26127,565;    1,191;    2,500
644,812;26471,449;    1,918;    0,773
645,388;26194,151;   -0,991;    1,409
645,965;26298,944;   -0,809;    1,682
646,542;26350,737;   -1,445;   -0,227
647,118;26346,257;    1,009;   -0,955
647,695;26689,323;   -0,263;    1,136
648,271;26606,752;   -0,536;    0,500
648,848;26910,182;    0,736;    2,227
649,424;26737,247;    0,827;    1,318
650,000;26500,313;   -0,354;   -1,045
650,577;26297,924;   -0,627;   -0,955
651,153;26780,262;   -1,809;    0,955
651,729;27838,419;    1,191;    0,864
652,305;28301,576;    0,645;    2,773
652,881;33477,096;   -0,082;    1,136
653,458;40787,343;    1,100;    0,227
654,034;44718,409;    0,282;    1,591
654,610;46238,838;    0,554;    0,773
655,186;47605,449;    0,645;    3,045
655,762;47303,151;   -0,991;    0,409
656,338;47378,672;    0,100;    0,136
656,913;48365,737;   -0,082;    0,409
657,489;47624,894;    0,827;   -0,318
658,065;47614,778;   -0,173;   -1,591
658,641;48279,934;   -0,900;   -0,864
659,217;47585,182;   -0,991;    0,409
659,792;46961,338;    0,645;   -0,409
660,368;47240,767;   -2,173;   -0,682
660,944;46612,288;   -2,082;    1,227
661,519;41255,535;   -0,628;    0,409
662,095;34715,237;   -1,719;    0,591
662,670;29996,030;    1,281;   -0,136
663,246;28884,459;    1,009;   -0,409
663,821;28185,343;    0,281;    1,682
664,396;27699,318;    0,009;    1,864
664,972;27991,475;    0,009;   -0,500
665,547;28252,177;    1,372;    0,136
666,122;28346,879;   -1,082;    0,318
666,698;28603,944;   -0,173;    0,318
667,273;27954,737;   -0,173;    0,136
667,848;28789,166;    2,372;    1,500
668,423;28580,414;    2,190;    2,318
668,998;29169,389;    2,827;   -0,682
669,573;29753,091;   -3,264;   -1,500
670,148;29617,520;   -1,446;   -0,682
670,723;29377,313;   -1,810;    0,318
671,298;29831,560;    2,372;    1,045
671,873;29928,262;   -0,082;   -0,136
672,448;29866,510;    0,645;    0,136
673,023;30221,394;   -1,992;   -0,227
673,597;30573,368;    0,827;    2,318
674,172;30363,071;   -0,355;    0,318
674,747;29828,682;    0,372;   -1,045
675,321;29710,475;   -0,628;    3,318
675,896;29217,995;    0,645;    1,045
676,471;30247,697;    2,645;    1,591
677,045;29988,399;   -1,264;    0,682
677,620;30051,555;    0,190;    1,136
678,194;30359,076;   -2,628;    1,136
678,769;29899,687;   -1,083;   -0,318
679,343;30230,934;   -0,628;    1,773
679,917;30083,182;   -1,446;    1,955
680,492;30181,520;    0,826;    3,227
681,066;30315,949;    3,372;    0,409
681,640;30346,742;    1,463;   -0,318
682,214;31169,717;    0,735;    0,500
682,788;30717,237;   -1,356;   -0,773
683,363;30691,121;   -1,810;    1,682
683,937;30358,823;   -1,719;   -0,318
684,511;31155,071;    0,463;   -0,591
685,085;30816,227;   -1,356;    0,318
685,659;30624,020;   -2,538;    0,864
686,232;30920,722;   -0,356;   -0,318
686,806;30543,606;   -0,901;    0,409
687,380;31247,672;   -0,174;    0,591
687,954;31452,555;   -1,174;    1,136
688,528;31139,348;   -0,719;    1,955
689,101;31970,687;   -3,992;    1,045
689,675;31519,934;   -0,356;   -0,136
690,249;30910,273;   -0,719;    0,409
690,822;31195,338;    0,280;    0,318
691,396;31308,677;   -0,265;    1,227
691,969;30799,833;    1,280;    0,136
692,543;31222,990;   -0,447;   -1,955
693,116;30907,874;   -0,265;   -1,409
693,690;30787,939;    0,099;    0,500
694,263;31326,369;   -1,083;    2,955
694,836;31342,434;    1,371;    3,591
695,410;29992,954;   -0,265;    1,773
695,983;30481,565;    0,189;    0,591
696,556;30426,813;   -0,447;   -1,045
697,129;30784,515;   -0,356;    1,409
697,703;30412,399;   -1,629;    1,955
698,276;30408,283;    1,462;   -0,773
698,849;30222,439;    1,280;    1,409
699,422;30645,232;   -1,083;    0,591
699,995;30292,389;    0,007;    0,136
700,568;30795,909;   -0,629;    3,045
701,140;30852,884;   -2,811;    1,682
701,713;30594,768;   -0,174;    2,409
702,286;30277,197;   -0,538;    0,864
702,859;30161,899;   -0,902;   -0,591
703,432;29352,601;    0,825;    0,682
704,004;29825,303;    0,462;    0,318
704,577;29698,187;   -0,629;    0,136
705,150;30298,434;    0,189;    2,500
705,722;30065,045;   -0,356;   -3,227
706,295;29857,929;   -0,175;   -0,591
706,867;29679,540;   -0,175;    1,955
707,440;29923,606;   -1,720;   -0,409
708,012;30157,490;    0,462;    0,591
708,584;30108,101;    2,462;    0,227
709,157;30400,076;    1,825;   -0,591
709,729;29996,323;    2,280;    2,045
710,301;30912,934;    0,734;    0,045
710,874;30923,818;   -1,447;   -0,227
711,446;29819,065;    0,371;    0,864
712,018;29687,586;    0,098;    0,500
712,590;29421,015;   -1,993;    1,682
713,162;29993,808;    0,825;    1,318
713,734;30212,783;    1,825;   -2,045
714,306;30066,394;   -1,902;   -0,409
714,878;28747,732;    0,825;    0,864
715,450;29597,980;    0,643;    0,864
716,022;29866,136;    1,552;    1,318
716,593;30002,929;    0,189;    0,591
717,165;29884,813;   -3,175;   -1,227
717,737;29610,879;    0,280;    0,409
718,309;29299,762;    0,280;   -0,045
718,880;29281,646;   -0,539;   -1,409
719,452;29482,985;   -0,175;   -1,591
720,024;29058,959;    0,734;   -0,591
720,595;29598,480;   -2,902;    0,955
721,167;29153,091;    0,370;   -2,045
721,738;28734,065;   -0,812;   -1,045
722,309;28710,040;   -0,993;   -1,227
722,881;28448,651;   -1,357;    0,773
723,452;29039,262;   -2,630;    2,864
724,023;29246,964;   -0,721;    2,682
724,595;29009,212;    0,007;    0,682
725,166;28761,914;    0,007;   -0,409
725,737;28407,252;    1,734;    0,227
726,308;28467,591;   -0,266;    0,318
726,879;28890,384;   -1,630;    1,227
727,450;28772,813;    0,552;   -0,045
728,021;28799,970;    3,097;    0,682
728,592;28588,035;    0,734;    0,500
729,163;28895,101;    0,643;   -0,136
729,734;28971,803;    0,188;   -0,227
730,305;29276,596;    1,734;    0,136
730,876;29655,389;    0,188;    2,955
731,447;29446,727;    2,188;    2,682
732,017;29512,156;    1,097;    1,864
732,588;29015,768;    0,734;    1,227
733,159;29154,742;    0,643;   -1,045
733,729;28947,353;    0,006;    0,409
734,300;28228,964;    0,915;    0,864
734,870;28675,939;    3,461;    0,591
735,441;29283,096;    0,370;   -0,591
736,011;28990,798;    0,643;   -1,591
736,582;28969,500;   -0,812;    0,045
737,152;28442,747;   -1,721;   -2,045
737,722;28862,995;   -0,267;   -0,682
738,293;28562,788;   -1,358;    1,318
738,863;28441,672;    2,461;    2,318
739,433;28249,919;    5,279;    0,318
740,003;28860,894;   -0,994;   -0,682
740,573;28282,232;    2,097;   -1,591
741,143;28212,480;   -1,085;    0,318
741,713;29002,363;    1,188;   -0,500
742,283;28692,611;    0,915;    1,591
742,853;28433,495;    1,915;    1,591
743,423;27884,197;    1,733;    0,045
743,993;28029,990;   -0,358;    1,500
744,563;27409,692;    0,097;   -0,864
745,133;27358,212;   -0,812;   -0,864
745,702;28054,278;   -0,267;    1,773
746,272;27232,161;   -0,176;    0,591
746,842;26970,591;   -1,358;   -0,591
747,411;27398,566;   -0,267;   -0,318
747,981;27650,449;    0,097;    0,500
748,551;27704,788;    2,278;   -1,045
749,120;27525,672;    0,642;   -0,227
749,690;27875,646;   -0,631;    2,409
750,259;28177,712;    1,369;    2,955
750,828;28193,323;    1,551;   -1,955
751,398;28459,207;    1,278;   -0,045
751,967;27941,727;    2,187;    0,409
752,536;28168,884;   -0,813;   -0,227
753,105;28598,768;    0,096;    0,227
753,675;28430,197;    0,096;    1,773
754,244;28354,444;   -0,904;    3,591
754,813;28401,055;    0,551;    1,227
755,382;27994,485;    0,460;    0,955
755,951;28574,732;    1,551;    3,682
756,520;28055,798;   -0,085;    1,864
757,089;28654,864;    0,278;    0,500
757,658;28891,293;    1,733;    1,227
758,227;28844,813;    1,096;    0,318
758,795;29234,606;    1,187;    1,136
759,364;29417,763;   -0,086;   -0,591
759,933;28423,828;   -1,176;   -0,045
760,501;27884,985;    0,733;   -1,318
761,070;28425,505;   -2,813;   -1,409
761,639;29098,480;   -1,904;    1,318
762,207;28445,091;    1,551;   -0,955
762,776;28321,338;    0,369;    0,864
763,344;28309,313;   -0,995;    0,591
763,913;27399,197;   -0,722;    1,409
764,481;28112,990;    1,005;   -0,136
765,049;27898,692;   -1,358;    1,409
765,618;27764,303;   -0,086;    0,318
766,186;27811,187;    0,278;    0,136
766,754;27998,071;    0,005;    1,864
767,322;26960,409;   -1,995;    0,409
767,890;27049,566;   -0,722;   -1,773
768,459;27424,631;   -2,177;   -0,318
769,027;27649,970;    1,641;    3,409
769,595;26649,853;    3,278;    2,591
770,163;27089,010;    3,823;    2,955
770,730;26766,167;    0,732;   -0,136
771,298;26541,687;    0,187;   -1,409
771,866;26649,389;   -1,541;    4,955
772,434;27020,454;   -0,631;   -1,864
773,002;27184,429;    0,005;    0,682
773,569;26852,858;    0,914;    1,682
774,137;26679,742;   -0,268;   -0,045
774,705;27433,626;    0,278;   -0,136
775,272;26873,055;    0,641;    0,682
775,840;26633,394;   -0,177;    2,682
776,407;26160,732;    0,277;    1,955
776,975;25784,071;   -0,632;    0,318
777,542;26791,136;   -1,086;   -0,045
778,110;26577,111;   -1,268;   -0,045
778,677;26230,358;   -2,359;   -0,864
779,244;26017,606;    2,186;    1,045
779,812;26142,035;    1,823;    0,864
780,379;25995,283;    0,005;    1,136
780,946;26256,985;    1,005;   -0,773
781,513;26602,323;   -1,450;    0,318
782,080;25919,843;   -0,086;    2,864
782,647;26686,364;   -0,268;    3,045
783,214;26263,338;   -0,177;    3,864
783,781;25884,131;   -0,723;   -0,682
784,348;25757,470;   -0,632;    1,500
784,915;26267,626;   -3,177;    0,318
785,482;26052,692;    1,368;    2,591
786,049;26457,576;    0,186;   -0,591
786,615;26549,096;    0,277;   -0,955
787,182;26226,434;    0,186;   -0,682
787,749;25952,227;   -2,814;    1,409
788,315;25270,293;   -1,632;   -0,409
788,882;25593,722;    1,550;   -1,227
789,448;26329,606;    1,732;   -0,955
790,015;26279,672;    1,095;    3,227
790,581;25854,919;    1,459;    0,227
791,148;25803,076;    0,641;    1,045
791,714;25992,778;   -0,541;    3,136
792,280;25621,207;    0,186;    1,591
792,847;25176,182;    0,550;    2,500
793,413;25756,338;   -0,269;   -0,318
793,979;25261,040;    3,459;   -1,318
794,545;25344,924;    4,459;    2,682
795,111;24736,990;    2,186;    1,318
795,678;24944,692;    0,731;   -1,682
796,244;24609,030;    3,368;    0,136
796,810;25121,459;    1,731;    0,773
797,375;24782,889;    0,549;   -2,136
797,941;24846,773;   -0,541;    0,591
798,507;25007,202;   -0,451;   -0,955
799,073;24550,631;   -0,360;    0,591
799,639;24609,424;   -2,632;    3,136
800,205;24585,035;    0,095;    2,682
800,770;24163,828;    0,640;    1,773
801,336;24214,985;    1,368;   -0,955
801,901;23931,232;    4,549;    3,136
802,467;24475,298;   -0,542;    2,045
803,033;23836,091;   -0,087;    0,864
803,598;24058,156;    1,913;   -1,045
804,163;24048,495;    1,095;   -0,318
804,729;24041,651;   -0,178;    1,136
805,294;24427,081;    0,822;    2,227
805,859;24193,510;    0,731;   -0,409
806,425;23644,576;    1,186;    2,682
806,990;23275,914;    2,186;    4,318
807,555;23820,980;   -1,451;    2,591
808,120;23680,045;    0,822;   -0,409
808,685;23732,293;    0,185;   -2,500
809,250;23261,177;    0,004;   -0,500
809,815;23622,333;    1,913;    0,682
810,380;24140,126;   -0,269;    1,591
810,945;24727,919;   -1,087;    2,045
811,510;23833,621;    2,094;    1,591
812,075;23524,687;   -0,633;   -1,409
812,640;23554,025;    2,003;    1,409
813,204;23600,273;    0,822;   -0,227
813,769;24104,975;    2,094;   -0,045
814,334;23479,949;    0,458;    0,864
814,898;23565,833;    0,367;    0,591
815,463;23423,899;    1,276;   -0,773
816,027;23425,692;   -0,724;   -2,318
816,592;23444,030;    0,640;   -2,045
817,156;22940,005;    2,094;    1,136
817,721;22815,798;    4,276;    2,318
818,285;22786,500;    2,912;    1,500
818,849;23417,838;   -1,451;    1,682
819,414;23342,268;   -0,269;    2,955
819,978;22842,242;   -1,269;    1,773
820,542;23423,853;    2,003;    0,500
821,106;23138,737;   -0,815;    0,682
821,670;23309,803;   -0,815;    2,591
822,234;23027,414;   -0,270;    1,409
822,798;22319,480;    0,003;    0,500
823,362;22293,364;   -0,633;    4,227
823,926;21580,611;    0,094;    1,136
824,490;21860,222;   -0,997;   -0,682
825,054;22330,106;   -0,088;   -1,136
825,618;21916,353;   -1,542;   -1,500
826,181;21862,965;    0,458;   -1,318
826,745;21778,667;    1,367;   -1,045
827,309;22128,187;    1,185;    1,318
827,872;21443,980;    1,367;    0,955
828,436;22505,136;    1,185;   -0,773
828,999;22539,656;   -0,997;    1,227
829,563;21293,359;   -0,179;    1,136
830,126;21151,606;   -0,179;   -0,591
830,690;21129,672;   -1,997;    2,864
831,253;20660,919;   -0,543;    2,227
831,816;20837,621;   -1,906;    0,500
832,380;20709,232;    0,185;    0,864
832,943;20956,025;   -1,361;   -0,500
833,506;20427,273;    2,639;   -1,227
834,069;21226,884;    3,912;   -0,955
834,632;21248,677;    1,730;    1,318
835,195;21181,742;    1,003;    0,955
835,758;20326,081;   -0,997;    1,955
836,321;20206,419;    0,730;   -1,045
836,884;20282,576;   -0,725;   -0,955
837,447;20318,096;   -2,816;    1,773
838,010;20641,980;    0,366;    3,227
838,573;20885,682;   -1,179;    0,773
839,135;20829,384;   -1,361;   -0,955
839,698;20266,177;    1,275;    0,409
840,261;19796,697;    1,003;   -0,227
840,823;19655,399;   -0,543;    0,864
841,386;19940,737;   -0,452;   -2,409
841,948;19784,621;   -1,361;    1,773
842,511;19544,141;    0,912;    1,682
843,073;19650,752;    1,912;    0,227
843,636;19428,000;   -0,361;   -0,227
844,198;19406,066;    0,911;    0,591
844,760;19547,404;    1,093;    1,955
845,322;19142,924;    0,548;    1,136
845,885;19587,808;    0,730;    0,591
846,447;20017,055;   -1,998;    0,227
847,009;19617,758;    1,911;   -0,682
847,571;19963,823;    0,820;   -2,045
848,133;20091,071;   -1,089;   -1,864
848,695;19881,682;   -0,543;    1,409
849,257;19406,111;   -1,089;   -1,682
849,819;19586,722;   -0,998;   -0,409
850,381;19658,697;   -0,725;   -0,864
850,942;20028,217;    1,093;   -0,591
851,504;19993,646;    1,184;    0,227
852,066;20035,258;    1,275;   -1,591
852,628;19521,505;   -0,180;    1,955
853,189;19089,571;    1,638;    2,682
853,751;19168,454;   -0,907;    1,409
854,312;18967,793;   -0,453;   -1,682
854,874;19523,677;   -2,089;   -0,773
855,435;20088,651;   -0,907;   -1,682
855,997;20250,353;   -1,816;   -0,136
856,558;19501,692;    0,366;    1,773
857,119;19612,848;    0,820;    2,864
857,681;19299,187;    0,002;    0,318
858,242;19388,798;    1,911;   -2,136
858,803;19801,227;    0,456;   -0,773
859,364;20347,929;    0,184;   -4,773
859,925;19657,904;   -2,453;   -0,955
860,486;19517,788;   -0,453;   -0,955
861,047;19219,126;   -0,544;   -1,227
861,608;19057,919;   -1,089;   -0,773
862,169;19207,258;    0,638;   -0,045
862,730;18966,687;    0,456;    1,409
863,291;19210,571;   -0,635;   -0,500
863,852;19630,182;   -0,635;    1,955
864,412;19027,975;   -0,271;   -0,864
864,973;17583,131;   -0,089;    0,500
865,534;17475,561;   -1,726;    0,227
866,094;19001,899;    1,820;    0,227
866,655;18674,965;    1,274;    3,318
867,215;18956,485;    0,274;    0,136
867,776;18789,187;    0,547;   -0,136
868,336;18890,434;   -1,453;    0,136
868,897;18348,227;    2,638;    1,682
869,457;18060,020;    1,365;    0,318
870,017;18279,449;    0,547;   -1,227
870,578;18809,606;   -0,817;    0,773
871,138;18525,944;   -2,089;   -0,955
871,698;18067,283;   -0,817;   -1,318
872,258;17945,985;   -0,453;   -2,864
872,818;18308,323;    2,729;    0,045
873,378;18236,480;    0,638;    1,045
873,938;17738,909;    0,547;    0,500
874,498;18117,157;    0,274;   -1,955
875,058;18024,313;    2,183;    1,773
875,618;17870,470;    1,910;   -2,682
876,177;17812,263;    1,274;    0,136
876,737;17420,874;   -0,090;    1,955
877,297;17418,576;    0,183;    1,955
877,856;17444,369;   -0,362;    0,318
878,416;17370,707;    1,183;   -0,136
878,976;17568,500;   -1,817;    0,409
879,535;17744,838;    0,092;    3,136
880,095;17474,268;   -0,544;    0,045
880,654;17638,333;   -1,090;    1,318
881,213;17703,944;    2,456;    1,500
881,773;17345,556;    2,637;    2,682
882,332;17752,712;    3,365;    5,136
882,891;17587,960;    3,092;    2,136
883,451;18068,662;   -1,272;    1,682
884,010;17459,636;   -2,908;   -0,409
884,569;17543,975;   -0,999;   -0,045
885,128;17681,040;    2,819;   -1,864
885,687;17770,288;    4,455;    0,682
886,246;17463,899;    1,455;    2,136
886,805;17237,692;    2,455;    2,045
887,364;17526,394;   -0,999;   -0,500
887,922;17874,641;   -1,181;    0,045
888,481;17376,162;   -1,545;    0,591
889,040;17721,682;    1,183;    2,136
889,599;18416,384;    2,455;    1,409
890,157;18446,540;    1,455;    2,409
890,716;18120,242;   -0,090;    0,227
891,274;17945,490;    0,092;   -1,136
891,833;18409,737;    1,546;    0,864
892,391;18288,985;   -0,454;    0,500
892,950;18340,232;    1,819;   -0,773
893,508;18705,298;    0,455;   -0,409
894,067;18010,909;    0,637;    0,136
894,625;17947,157;   -0,636;   -1,500
895,183;18190,949;   -0,363;   -0,682
895,741;18056,742;    1,728;   -1,773
896,299;17882,263;   -0,545;   -2,409
896,858;18098,056;    0,819;   -1,591
897,416;18246,394;    2,728;   -1,318
897,974;17980,550;    1,819;    0,318
898,532;18119,071;    6,091;    2,682
899,089;17996,227;    2,091;   -0,682
899,647;18022,747;   -1,454;    1,318
900,205;17745,268;    1,182;    1,045
900,763;17923,242;   -0,454;    0,227
901,321;17927,308;    2,364;   -1,409
901,878;17337,828;   -1,000;   -0,773
902,436;17232,712;   -1,363;    1,318
902,994;17632,050;    4,728;    3,682
903,551;17024,480;    0,728;    0,409
904,109;17412,818;    0,182;   -1,409
904,666;16965,975;    2,455;    1,045
905,224;16797,313;    0,182;   -0,409
905,781;16549,742;    0,727;   -0,318
906,338;16636,172;   -1,363;    1,045
906,895;16553,146;    0,637;    2,045
907,453;16493,121;    1,727;    1,136
908,010;16542,823;   -0,909;    0,409
908,567;16178,798;    1,273;    0,591
909,124;15665,682;    0,364;   -1,500
909,681;15756,111;   -2,909;    0,682
910,238;15868,540;    0,636;   -1,318
910,795;16161,061;   -0,273;   -1,136
911,352;15790,061;   -2,909;   -2,682
911,909;15174,152;   -1,364;   -0,864
912,466;15695,970;   -3,182;    1,500
913,022;15259,697;   -1,636;    0,500
913,579;15589,970;   -0,909;    2,045
914,136;15269,697;    1,636;    0,955
914,692;15651,333;    0,091;   -1,227
915,249;15216,606;    1,455;    0,409
915,806;15442,970;    0,182;    1,955
916,362;15195,788;    1,909;    1,864
916,918;14723,152;    2,000;    1,045
917,475;14706,061;   -1,182;    0,955
918,031;14759,970;    3,364;   -0,045
918,587;14221,424;   -0,909;   -0,318
919,144;14404,424;   -2,273;    0,227
919,700;14739,515;    1,727;    0,773
920,256;14324,152;    0,727;    0,045
920,812;13942,697;   -0,727;   -1,045
921,368;13980,697;   -1,727;   -1,045
921,924;13632,515;    0,182;   -0,136
922,480;13197,242;   -0,545;    1,227
923,036;13782,061;    1,273;    1,955
923,592;13729,515;    0,455;    0,318
924,148;13643,515;    0,455;   -0,955
924,704;12920,606;   -1,364;   -0,409
925,259;13178,424;   -0,273;    0,591
925,815;12929,152;    1,455;    0,500
926,371;12432,970;    2,909;    1,409
926,926;12308,515;    2,091;    0,591
927,482;11960,697;   -1,364;    0,773
928,037;11830,152;    0,909;    2,045
928,593;12107,242;    1,636;    1,045
929,148;11912,879;   -1,818;   -1,500
929,704;11411,879;   -1,455;   -0,500
930,259;11646,152;    0,091;   -0,136
930,814;10696,242;   -0,818;    1,955
931,369;10378,697;    1,091;   -0,773
931,925;10228,242;   -0,091;    0,136
932,480;10115,788;   -2,818;   -2,591
933,035; 9983,697;    0,545;   -0,318
933,590; 9753,424;    0,364;   -1,773
934,145; 9366,515;   -1,364;   -0,318
934,700; 9706,606;    0,455;   -0,591
935,255; 9514,242;   -0,091;    0,045
935,809; 8778,879;    3,182;    0,864
936,364; 7880,152;   -0,455;   -0,136
936,919; 7832,242;    0,455;   -1,773
937,474; 7684,242;    1,455;    0,136
938,028; 7444,333;   -1,636;    1,136
938,583; 6906,879;    1,818;    4,682
939,138; 7170,242;    2,091;    2,136
939,692; 6587,152;    1,636;   -1,136
940,247; 6313,515;   -0,727;   -1,045
940,801; 5825,606;   -0,636;    0,227
941,355; 5699,152;   -0,364;    2,591
941,910; 5335,152;   -0,273;   -2,136
942,464; 5423,152;   -0,818;   -0,318
943,018; 5229,424;    1,000;   -0,227
943,572; 5167,606;    2,545;   -0,682
944,126; 4579,970;    0,091;   -0,409
944,681; 4467,697;    3,091;    0,227
945,235; 4455,970;    1,000;   -0,591
945,789; 4393,970;    0,364;   -1,864
946,342; 4475,242;    0,455;   -0,591
946,896; 4288,788;   -2,273;    0,955
947,450; 4021,242;    1,545;   -0,227
948,004; 4185,424;    1,727;   -0,045
948,558; 4213,424;    0,273;   -0,864
949,111; 4143,970;   -0,273;   -0,318
949,665; 4182,879;    1,636;   -0,682
950,219; 4052,242;   -0,091;   -1,045
950,772; 4116,061;   -1,909;    1,864
951,326; 4007,606;    0,545;   -0,955
951,879; 4137,424;    0,727;   -2,318
952,433; 4173,788;    0,000;    2,227
952,986; 3997,697;    2,909;    0,682
953,539; 3954,424;   -0,273;    0,591
954,093; 3870,606;    0,545;   -1,318
954,646; 4006,061;    0,909;    1,318
955,199; 3815,515;    0,000;   -0,500
955,752; 3687,788;   -0,455;    1,773
956,305; 3648,515;   -0,091;    2,955
956,858; 3817,424;    0,818;   -0,318
957,411; 3983,606;   -0,545;    2,136
957,964; 3820,152;    1,364;    2,136
958,517; 3808,424;   -1,545;    3,136
959,070; 3625,788;   -0,455;    1,955
959,623; 3706,424;    1,091;    1,500
960,176; 3468,879;    1,727;    2,045
960,728; 3454,152;   -2,727;    0,773
961,281; 3497,606;    0,545;    0,500
961,834; 3559,788;   -0,909;    0,864
962,386; 3466,970;    1,727;    1,045
962,939; 3396,606;    0,364;   -0,318
963,491; 3529,152;    0,455;    1,136
964,043; 3382,061;    1,182;    2,409
964,596; 3516,697;   -1,000;    2,227
965,148; 3374,152;   -1,000;    1,773
965,700; 3276,424;    1,091;   -0,227
966,253; 3441,333;   -0,636;    0,318
966,805; 3268,879;   -2,273;    0,773
967,357; 3325,606;    1,091;   -1,500
967,909; 3275,061;    0,455;   -1,227
968,461; 3371,515;    0,545;    3,136
969,013; 3332,606;   -0,182;   -0,864
969,565; 3387,788;   -0,455;   -1,136
970,117; 3420,424;   -0,364;    1,045
970,669; 3281,515;    0,182;   -0,136
971,220; 3151,424;   -0,455;   -1,500
971,772; 3072,242;   -0,636;   -0,318
972,324; 3193,333;    0,091;   -0,500
972,876; 3148,970;    0,818;   -0,045
973,427; 3281,515;    1,909;   -1,045
973,979; 3243,515;   -0,727;   -2,500
974,530; 3293,515;    1,818;    1,318
975,082; 3297,333;   -0,545;    1,682
975,633; 3188,788;    1,091;    1,682
976,184; 3317,970;    0,909;    0,773
976,736; 3093,333;    0,091;    0,227
977,287; 2914,424;   -0,909;   -0,500
977,838; 3096,061;    0,909;   -0,318
978,389; 3155,879;   -1,000;   -0,500
978,940; 3007,970;    0,545;   -0,409
979,491; 3038,152;    0,091;   -0,500
980,042; 3013,061;    0,182;    3,045
980,593; 3088,333;   -2,545;    0,227
981,144; 3102,606;    2,545;   -0,500
981,695; 3069,152;    1,455;    1,500
982,246; 3037,242;   -0,273;    1,045
982,797; 3196,697;   -1,727;    0,682
983,347; 3317,788;    0,364;    0,591
983,898; 3470,970;    3,091;    0,409
984,449; 3271,697;    2,182;    0,773
984,999; 3205,242;    1,455;   -1,136
985,550; 2981,424;    0,182;   -0,318
986,100; 3021,788;   -0,455;   -0,318
986,651; 3043,333;   -0,818;    0,045
987,201; 3025,788;   -1,000;   -0,591
987,751; 3106,879;    0,818;    2,864
988,302; 3090,970;    2,636;    1,500
988,852; 3119,970;    0,455;   -1,136
989,402; 3157,333;    0,091;    0,682
989,952; 3062,424;   -2,182;    0,864
990,502; 3177,242;   -0,091;    0,682
991,052; 3132,242;   -0,727;    0,045
991,602; 3007,152;   -2,909;    1,318
992,152; 2992,606;    0,455;    0,682
992,702; 2982,515;    1,364;   -0,045
993,252; 2915,606;   -3,000;   -0,500
993,802; 2999,242;   -0,273;    1,318
994,352; 3222,788;   -1,545;    1,136
994,901; 3325,242;   -0,182;    3,227
995,451; 3231,879;   -0,182;    0,318
996,000; 3328,242;    1,636;    0,318
996,550; 3032,242;    2,273;    0,227
997,100; 3031,606;    1,273;   -0,045
997,649; 3319,606;    2,182;    0,955
998,198; 2924,606;    1,727;   -1,500
998,748; 3124,970;    1,091;   -2,318
999,297; 3070,788;   -0,818;   -0,409
999,846; 3105,424;    1,000;   -0,773
1000,395; 3148,242;   -0,818;    0,500
1000,945; 3106,061;    1,818;   -0,773
1001,494; 3199,879;    2,364;    0,682
1002,043; 3182,970;    4,636;    0,864
1002,592; 3017,697;   -1,091;    1,955
1003,141; 3171,697;   -0,455;   -0,682
1003,690; 3035,424;    1,727;    0,500
1004,238; 3095,970;    1,455;   -0,045
1004,787; 2733,697;    1,364;    1,227
1005,336; 3000,606;    0,364;    0,682
1005,885; 3145,152;    1,364;   -2,773
1006,433; 3289,788;    0,545;    0,955
1006,982; 3329,061;    0,455;    1,682
1007,531; 3233,061;   -1,818;   -0,227
1008,079; 3194,152;   -2,273;    0,500
1008,627; 3327,970;   -1,455;    0,409
1009,176; 3063,152;    0,000;   -1,955
1009,724; 3115,697;    1,091;    0,864
1010,273; 3164,879;    1,273;    0,500
1010,821; 3270,152;    0,091;    1,409
1011,369; 2989,242;   -1,364;    1,318
1011,917; 2984,061;   -1,364;   -0,591
1012,465; 3268,061;    1,273;   -1,591
1013,013; 3399,606;    2,091;   -1,682
1013,561; 3256,606;    0,455;   -0,773
1014,109; 3319,515;   -1,909;    1,682
1014,657; 3184,242;    0,364;    0,591
1015,205; 3285,515;    1,636;   -0,955
1015,753; 3353,879;   -0,545;   -1,409
1016,301; 3387,515;   -2,636;    3,045
1016,848; 3386,152;   -1,273;    0,409
1017,396; 3409,970;    2,545;    0,045
1017,944; 3548,061;    1,182;    1,864
1018,491; 3303,424;    0,273;    1,409
1019,039; 3445,788;    0,455;    0,591
1019,586; 3370,606;   -1,364;    1,682
1020,134; 3482,606;    0,455;    1,500
1020,681; 3516,788;    0,182;   -1,136
1021,228; 3520,606;    2,909;   -2,227
1021,776; 3344,606;    1,182;   -1,136
1022,323; 3559,515;    0,455;    0,773
1022,870; 3501,333;   -1,000;   -0,045
1023,417; 3372,606;    2,636;    1,864
1023,964; 3528,515;    2,636;    1,227
1024,511; 3355,152;    1,000;    0,773
1025,058; 3156,697;    3,182;   -0,045
1025,605; 3218,788;   -2,273;    3,136
1026,152; 3449,788;    1,727;   -0,591
1026,699; 3161,970;    1,818;    1,318
1027,245; 3318,697;   -0,091;    0,318
1027,792; 3544,242;   -1,000;    1,409
1028,339; 3430,515;    2,364;   -0,045
1028,885; 3276,333;    1,000;   -0,227
1029,432; 3204,606;   -0,091;    0,227
1029,978; 3271,061;   -1,000;   -1,591
1030,525; 3185,242;    1,000;    0,409
1031,071; 3441,606;   -1,364;    1,136
1031,618; 3519,515;    0,364;    1,682
1032,164; 3296,879;   -0,091;    3,045
1032,710; 3362,333;    1,636;   -1,500
1033,256; 3283,061;   -0,636;   -0,136
1033,803; 3256,333;   -0,545;    1,500
1034,349; 2954,788;   -1,364;    0,136
1034,895; 3101,697;    0,000;   -0,318
1035,441; 3099,061;   -0,818;    0,318
1035,987; 3102,879;   -2,364;   -0,682
1036,533; 3105,424;   -1,455;   -0,955
1037,078; 3299,697;    1,455;    1,682
1037,624; 3109,879;    2,455;   -0,955
1038,170; 3170,333;    0,455;   -0,318
1038,716; 3059,697;    1,636;   -0,409
1039,261; 2982,152;   -2,273;   -0,773
1039,807; 2917,970;   -0,091;    3,409
1040,352; 2972,333;   -1,909;   -0,318
1040,898; 3016,515;   -1,545;   -0,682
1041,443; 2914,242;   -1,455;   -2,591
1041,989; 2947,515;    1,091;    1,591
1042,534; 2837,879;   -0,364;    2,591
1043,079; 2950,333;    2,909;    0,955
1043,625; 2725,697;    1,818;    0,500
1044,170; 2772,424;   -1,364;    1,045
1044,715; 3015,333;    2,455;    0,955
1045,260; 2827,879;    2,182;   -0,955
1045,805; 2893,970;    1,182;   -0,591
1046,350; 2818,242;    1,364;   -0,409
1046,895; 2783,152;    2,909;    1,591
1047,440; 2725,152;    5,364;    0,409
1047,985; 2617,788;    2,818;   -0,955
1048,530; 2536,515;    1,545;    1,227
1049,074; 2606,970;    0,000;    0,318
1049,619; 2585,242;   -1,364;    1,955
1050,164; 2380,515;    0,455;    0,227
1050,708; 2423,697;   -0,455;    0,045
1051,253; 2780,061;    1,273;   -2,227
1051,797; 2492,697;    0,818;   -1,318
1052,342; 2495,424;   -1,182;    1,045
1052,886; 2510,697;    0,364;   -1,409
1053,430; 2389,333;   -1,364;    0,136
1053,975; 2400,061;   -0,818;   -0,318
1054,519; 2386,515;   -0,727;    3,227
1055,063; 2390,424;    0,909;    1,318
1055,607; 2254,970;   -0,182;    0,227
1056,151; 2290,424;    2,909;    1,682
1056,695; 2211,697;    2,273;   -1,136
1057,239; 2274,606;   -1,727;   -0,682
1057,783; 2287,515;    0,818;   -1,500
1058,327; 2228,424;    0,000;    1,409
1058,871; 2449,061;   -0,545;    1,318
1059,415; 2159,333;   -0,818;   -0,045
1059,958; 2415,606;    1,455;    2,591
1060,502; 2144,606;   -1,000;   -0,773
1061,046; 2048,697;    0,364;   -0,955
1061,589; 2027,152;   -3,000;   -1,136
1062,133; 1924,879;   -1,273;    1,864
1062,676; 1859,697;    1,182;    0,864
1063,220; 1843,152;    1,091;    0,500
1063,763; 1871,697;    0,909;    1,136
1064,306; 1963,152;   -0,909;    1,864
1064,849; 1845,333;   -0,909;    0,591
1065,393; 1848,606;    2,000;   -1,500
1065,936; 1955,152;    0,182;   -0,409
1066,479; 1833,697;   -1,455;    1,318
1067,022; 1865,970;   -0,273;   -0,227
1067,565; 1749,970;   -0,091;   -1,318
1068,108; 1776,424;    0,727;   -0,591
1068,651; 1754,697;   -0,636;    1,409
1069,194; 1686,515;   -0,455;   -1,682
1069,736; 1692,152;   -1,273;    0,955
1070,279; 1670,242;   -1,364;   -0,500
1070,822; 1714,333;   -2,000;   -0,318
1071,364; 1802,333;   -0,364;    1,318
1071,907; 1614,879;   -0,727;    3,227
1072,450; 1530,970;    0,000;   -0,045
1072,992; 1514,879;   -0,273;    3,136
1073,535; 1669,152;    2,091;    2,136
1074,077; 1439,333;   -0,727;    2,045
1074,619; 1411,152;   -1,364;    0,591
1075,161; 1456,970;   -1,091;    1,500
1075,704; 1642,242;    1,545;    1,227
1076,246; 1432,970;   -0,182;    0,682
1076,788; 1348,515;   -0,364;    1,773
1077,330; 1418,333;    1,273;    2,136
1077,872; 1381,061;    0,909;    0,955
1078,414; 1621,333;    2,727;    0,773
1078,956; 1348,970;    1,273;   -0,227
1079,498; 1624,697;    1,636;    0,318
1080,040; 1327,242;    1,909;   -1,318
1080,581; 1252,879;    1,636;   -0,318
1081,123; 1168,788;    0,091;   -0,773
1081,665; 1214,515;   -1,182;   -0,955
1082,206; 1533,333;    1,364;   -0,500
1082,748; 1386,970;    0,727;    2,045
1083,289; 1254,970;   -2,000;    1,318
1083,831; 1171,515;   -0,545;    0,227
1084,372; 1209,242;    0,000;    0,591
1084,913; 1203,788;    1,091;    0,864
1085,455; 1165,606;   -1,909;   -2,045
1085,996; 1142,606;   -2,273;    0,136
1086,537; 1166,515;   -0,091;    0,864
1087,078; 1206,152;   -0,909;   -2,136
1087,619; 1252,242;   -1,273;    0,227
1088,160; 1154,242;    0,000;    1,318
1088,701; 1142,606;   -1,091;    0,682
1089,242; 1077,242;    1,364;   -2,227
1089,783; 1180,242;   -0,273;    1,409
1090,324; 1143,606;    0,455;    0,682
1090,865; 1021,788;    2,727;   -0,409
1091,405;  991,424;    0,727;    2,227
1091,946; 1015,879;    0,182;   -0,955
1092,487;  937,606;    0,818;   -1,409
1093,027; 1108,970;   -1,364;   -1,500
1093,568;  961,788;   -0,364;    1,227
1094,108; 1063,061;    0,273;    1,773
1094,649;  990,242;   -1,182;    0,136
1095,189;  922,606;   -0,636;   -0,682
1095,729;  883,606;   -0,091;    0,955
1096,269;  881,879;    0,727;   -0,955
1096,810; 1216,242;   -1,364;    0,500
1097,350; 1031,333;    1,364;   -0,773
1097,890;  930,697;    0,364;    1,227
1098,430; 1189,424;    2,364;    2,864
1098,970; 1059,788;    2,182;    1,682
1099,510;  911,424;    0,545;   -2,318
1100,050;  843,424;    1,000;   -1,591
1100,589;  801,788;   -0,727;   -0,318
1101,129;  941,788;    0,818;   -0,955
1101,669; 1089,424;    1,727;    2,136
1102,209;  900,515;   -0,091;    2,227
1102,748;  854,424;    0,000;    0,955
1103,288;  849,061;    1,273;   -1,227
1103,827;  882,424;    3,091;   -2,227
1104,367;  755,333;   -0,091;   -2,409
1104,906;  714,879;    1,364;   -1,136
1105,445;  794,606;    0,636;   -1,136
1105,985;  732,697;   -0,727;    1,500
1106,524;  787,697;   -1,727;   -0,682
1107,063;  758,333;   -2,727;    1,409
1107,602;  726,061;   -1,909;   -1,500
1108,141;  646,424;   -1,909;    1,500
1108,680;  759,152;   -3,455;   -0,591
1109,219;  697,697;   -0,909;   -0,500
1109,758;  697,152;    0,455;    0,682
1110,297;  666,242;    1,000;   -0,682
1110,836;  606,333;   -0,727;    0,955
1111,375;  779,152;   -2,545;    0,409
1111,913;  786,606;   -1,000;    0,773
1112,452;  725,333;   -0,273;    0,136
1112,991;  593,697;    1,091;    1,955
1113,529;  544,788;   -0,818;   -0,045
1114,068;  626,333;   -0,273;    2,955
1114,606;  523,970;   -0,364;   -0,955
1115,144;  688,788;   -1,273;    1,045
1115,683;  634,879;   -0,727;    0,318
1116,221;  683,152;   -0,455;   -0,864
1116,759;  581,515;    0,636;   -0,864
1117,297;  790,788;    0,000;    1,864
1117,836;  597,788;   -2,182;   -1,227
1118,374;  600,424;    0,182;   -0,682
1118,912;  541,152;    0,909;    2,682
1119,450;  523,606;    1,000;    0,864
1119,988;  581,970;    1,545;    2,136
1120,525; 1049,788;    5,091;    3,318
1121,063;  750,333;    1,182;    1,864
1121,601;  559,606;   -0,909;   -1,227
1122,139;  502,242;   -0,727;   -2,045
1122,676;  702,515;   -0,727;    2,773
1123,214;  634,606;   -1,182;    4,409
1123,751;  435,424;    1,727;    2,227
1124,289;  568,152;   -0,091;   -0,409
1124,826;  427,424;    1,727;    0,227
1125,364;  354,515;    1,727;   -0,955
1125,901;  554,152;    1,182;    1,227
1126,438;  671,424;    0,818;    0,955
1126,975;  389,970;   -0,727;   -0,773
1127,513;  462,242;    0,273;    2,136
1128,050;  371,152;    1,636;   -0,682
1128,587;  465,879;    2,000;   -0,227
1129,124;  507,697;    0,091;    1,318
1129,661;  378,152;    0,273;    0,227
1130,198;  542,606;    1,636;    0,773
1130,734;  493,333;    0,182;    1,409
1131,271;  344,242;   -0,909;    0,864
1131,808;  524,061;    2,909;    3,045
1132,345;  389,515;    1,545;    0,318
1132,881;  240,970;   -1,545;   -1,864
1133,418;  394,333;    0,727;   -1,136
1133,954;  330,152;    2,455;   -2,682
1134,491;  415,242;    1,364;   -0,773
1135,027;  304,606;    2,364;    0,864
1135,564;  402,061;    0,273;    2,955
1136,100;  388,606;    0,364;    2,136
1136,636;  266,515;   -1,273;   -1,045
1137,172;  367,788;    0,000;   -1,045
1137,708;  285,788;   -1,364;   -1,045
1138,245;  290,424;    1,273;   -1,227
1138,781;  238,061;    1,091;   -3,318
1139,317;  305,333;    1,273;   -1,409
1139,852;  293,424;    3,091;    0,136
1140,388;  419,697;   -1,182;   -0,409
1140,924;  297,061;   -1,091;   -2,227
1141,460;  232,424;   -1,636;    0,136
1141,996;  171,788;   -1,364;    2,682
1142,531;  221,515;    1,364;    3,318
1143,067;  442,879;    1,182;    1,045
1143,602;  510,061;   -0,091;   -0,318
1144,138;  337,242;   -2,636;    1,045
1144,673;  189,333;   -1,455;    1,409
1145,209;  273,061;   -1,909;   -0,318
1145,744;  187,879;   -0,727;    0,864
1146,279;  337,788;    1,818;   -0,136
1146,815;  239,788;    1,545;   -2,682
1147,350;  287,152;   -1,364;    0,045
1147,885;  196,970;   -0,818;   -1,318
1148,420;  193,333;   -2,273;    0,773
1148,955;  176,061;   -1,727;    1,864
1149,490;  200,697;   -0,909;   -1,591
1150,025;  185,879;    0,455;   -1,773
1150,560;  299,333;    1,091;   -0,955
1151,094;  262,788;    1,455;   -0,591
1151,629;  272,606;    1,636;    0,864
1152,164;  190,697;    1,364;    1,318
1152,698;  158,152;   -0,182;   -0,136
1153,233;  108,697;    0,091;   -0,682
1153,767;  160,424;   -3,000;   -2,318
1154,302;  213,606;   -1,455;    1,773
1154,836;  209,697;   -0,455;   -2,136
1155,371;  272,152;   -1,364;    3,682
1155,905;  220,879;   -0,636;    1,682
1156,439;  182,242;   -0,636;   -0,500
1156,973;  217,152;    0,364;    0,318
1157,507;  138,424;   -0,364;    0,682
1158,042;  173,061;   -0,727;    1,045
1158,576;  225,697;    0,182;    1,773
1159,110;  223,697;   -0,818;    2,409
1159,643;  187,697;    0,636;   -0,045
1160,177;  120,970;   -1,545;    1,500

