
Integration time [ms]:   0,040
Averaging Nr. [scans]: 11
Smoothing Nr. [pixels]: 0
Data measured with spectrometer [name]: 7318044SP
Wave   ;Sample   ;Dark     ;Reference
[nm]   ;[counts] ;[counts] ;[counts] 

186,757;   34,656;   31,551;    1,318
187,357;   40,965;   22,551;    0,955
187,958;   27,634;   15,460;   -1,591
188,558;   38,092;    8,915;   -1,227
189,159;   25,265;    6,733;   -4,500
189,759;   14,889;    7,278;   -3,591
190,360;   10,142;    2,824;   -2,136
190,960;   25,926;    2,915;   -4,136
191,560;   29,154;    3,189;   -6,591
192,161;  132,898;    4,372;   -3,500
192,761;   76,473;    4,010;   -3,227
193,361;   43,490;    1,556;   -3,773
193,962;   61,556;    2,010;   -2,682
194,562;   23,459;    1,189;   -3,955
195,162;   19,491;   -2,448;   -2,227
195,762;   73,834;   -3,176;   -0,045
196,362;   53,395;    1,370;   -2,500
196,963;   15,639;    2,006;   -0,864
197,563;   35,101;    1,551;   -0,955
198,163;   15,505;    0,096;   -0,682
198,763;   17,357;    1,733;   -0,500
199,363;   39,563;    3,096;   -0,500
199,963;   23,755;    0,369;    0,409
200,563;   20,327;    2,823;   -1,409
201,163;   12,926;    3,277;   -0,227
201,763;   26,791;    3,732;    0,318
202,363;   12,595;    1,459;    1,500
202,963;   22,106;    1,459;    1,045
203,563;   44,648;    0,277;    0,500
204,162;   18,047;    2,096;   -1,864
204,762;   10,791;    0,550;    0,591
205,362;    8,183;    3,004;    1,955
205,962;   18,281;    3,096;    1,955
206,562;   16,834;    1,823;    2,318
207,161;   11,976;   -0,087;    0,318
207,761;   52,927;    1,277;    2,409
208,361;   17,610;   -0,268;    1,409
208,960;   23,613;    0,459;    1,500
209,560;   19,999;    1,277;    1,591
210,160;   27,875;    0,550;    1,864
210,759;   17,608;    4,186;    1,227
211,359;   10,950;    1,459;    1,045
211,958;   67,175;    1,277;    2,045
212,558;   63,485;    1,732;    1,864
213,157;   31,600;    1,822;    1,500
213,757;  106,639;    3,822;   -0,227
214,356;   47,864;    1,277;   -0,409
214,956;  103,423;    3,095;    0,409
215,555;   40,320;    2,095;    2,136
216,154;   19,232;   -2,723;   -0,591
216,754;   19,578;    0,277;    0,773
217,353;   30,117;   -0,268;   -1,045
217,952;   10,321;   -0,178;    0,318
218,552;   42,693;    1,368;   -0,773
219,151;   20,075;    0,277;    0,955
219,750;   10,613;    0,004;   -0,227
220,349;    8,462;   -0,451;    1,045
220,948;   49,949;   -1,360;    1,136
221,548;   18,549;    0,913;    1,227
222,147;   24,872;   -0,087;   -0,409
222,746;   68,105;   -0,451;   -0,955
223,345;   35,422;    0,731;    0,500
223,944;   32,614;   -0,451;    0,773
224,543;   36,317;    1,004;   -1,409
225,142;   23,232;    0,094;    0,136
225,741;   35,310;   -0,814;    1,045
226,340;   30,084;   -0,451;   -0,955
226,939;   61,945;   -0,996;   -0,136
227,538;   23,104;   -0,360;   -0,773
228,137;   70,689;   -0,814;    0,864
228,735;   49,953;   -0,541;    1,227
229,334;   13,390;   -0,905;   -0,227
229,933;   68,777;    0,459;    0,591
230,532;   63,580;    1,186;   -0,409
231,131;   94,604;    1,732;    0,318
231,729;   49,733;   -2,450;   -2,318
232,328;   29,886;   -0,723;   -1,500
232,927;   32,638;    1,004;   -0,500
233,525;   25,013;    3,640;    0,045
234,124;   32,850;    2,368;   -1,591
234,723;   17,194;    0,913;   -1,045
235,321;   13,241;    2,277;    0,136
235,920;   21,106;    1,186;   -1,227
236,518;   62,699;    3,459;    0,318
237,117;   21,737;    0,004;   -0,227
237,715;   33,578;    0,640;   -0,500
238,314;   34,789;   -0,087;   -2,318
238,912;   71,428;   -0,723;   -1,409
239,510;   47,029;    0,459;   -1,227
240,109;   85,025;    0,004;    3,773
240,707;   71,885;   -0,996;    1,227
241,305;   26,949;    0,550;    0,136
241,904;   51,222;   -0,178;   -2,045
242,502;  106,976;   -0,632;   -0,227
243,100;   65,742;   -0,087;   -0,955
243,698;   35,401;    0,732;    1,682
244,297;   54,399;   -0,632;    0,682
244,895;   54,224;   -0,269;   -2,318
245,493;  125,855;    2,186;   -0,591
246,091;  142,271;    1,368;   -1,318
246,689;  111,535;    1,004;    0,591
247,287;  104,341;    0,822;   -1,136
247,885;   86,791;   -1,451;    1,227
248,483;   69,875;    1,822;   -0,500
249,081;  129,683;    0,185;    1,591
249,679;  151,014;   -0,178;    1,682
250,277;   84,638;   -1,723;    0,864
250,875;  168,660;   -1,087;   -1,045
251,473;  112,113;   -1,178;    0,500
252,071;  185,602;    1,459;    1,045
252,669;  129,887;   -1,814;    0,318
253,267;  100,278;   -0,087;    0,773
253,864;  146,796;   -0,360;    0,682
254,462;  245,310;    1,640;    1,591
255,060;  113,538;   -0,269;    1,318
255,658;  113,978;    0,822;   -0,136
256,255;  159,787;    0,186;   -2,045
256,853;  194,427;   -0,269;    1,409
257,451;  172,200;    0,822;    1,864
258,048;  484,429;    1,822;    1,864
258,646;  279,392;    1,731;   -1,045
259,243;  357,791;   -0,087;    2,227
259,841;  264,166;   -0,814;    0,318
260,438;  153,524;   -0,087;    0,864
261,036;  252,229;   -1,905;    1,409
261,633;  167,905;   -0,087;    2,227
262,231;  140,682;    2,731;   -0,045
262,828;  147,349;   -0,905;    1,136
263,425;  195,229;    0,913;   -0,591
264,023;  206,902;    0,186;    0,045
264,620;  327,010;   -0,360;   -0,318
265,217;  434,714;   -2,087;    3,136
265,815;  225,029;   -1,905;    2,136
266,412;  321,732;    0,731;    0,136
267,009;  344,464;   -1,451;    0,773
267,606;  418,210;    0,822;   -0,955
268,203;  258,449;   -0,269;   -0,591
268,801;  286,517;    1,731;    0,591
269,398;  210,093;   -0,360;    2,500
269,995;  346,894;    0,277;    1,591
270,592;  300,939;   -0,632;   -0,500
271,189;  215,550;    0,186;    0,409
271,786;  189,878;   -0,632;    1,227
272,383;  403,519;   -1,087;    0,227
272,980;  276,843;    0,277;    0,318
273,577;  237,833;    0,004;    1,227
274,174;  216,689;    0,822;    2,591
274,771;  347,432;   -0,814;   -0,773
275,367;  678,278;    2,277;    1,409
275,964;  496,390;    0,731;   -0,500
276,561;  311,368;    1,549;   -1,045
277,158;  225,378;    0,095;   -1,773
277,755;  448,774;    2,185;    0,409
278,351;  361,201;   -0,451;   -1,500
278,948;  417,580;   -0,815;    0,045
279,545;  361,113;   -1,360;    2,318
280,141;  521,892;   -1,723;   -2,045
280,738;  489,778;   -0,451;   -0,136
281,334;  308,729;   -1,633;    0,591
281,931;  330,291;   -0,087;   -1,318
282,528;  426,704;    0,822;   -0,500
283,124;  493,946;   -1,087;   -0,500
283,721;  489,710;   -0,451;    1,409
284,317;  351,578;    0,185;    2,500
284,913;  518,270;   -1,360;    0,591
285,510;  744,634;    0,640;   -0,318
286,106;  571,879;   -2,269;   -0,955
286,703;  396,642;   -0,360;    1,955
287,299;  344,347;   -1,451;   -0,591
287,895;  327,922;    0,822;   -1,045
288,491;  315,911;    0,186;    2,136
289,088;  449,624;   -2,360;    2,409
289,684;  502,614;   -1,723;    1,500
290,280;  652,684;    0,368;    0,682
290,876;  608,998;    1,822;    5,500
291,472;  524,926;    1,276;    2,227
292,068;  545,534;    1,367;    0,227
292,665;  432,620;    2,095;    0,773
293,261;  333,295;    0,276;    2,136
293,857;  546,485;    2,913;    2,136
294,453;  459,950;    3,550;    0,955
295,049;  692,288;   -0,268;    1,955
295,644;  527,533;    0,095;    0,136
296,240;  395,380;   -0,905;   -0,136
296,836;  540,094;   -0,995;    0,318
297,432;  688,120;    1,096;   -0,500
298,028;  745,944;    0,732;    0,773
298,624;  595,212;    1,459;    1,864
299,220;  564,493;    2,368;    0,591
299,815;  561,241;    1,005;   -0,409
300,411;  686,743;    0,914;    1,773
301,007;  821,917;    1,368;    0,227
301,602;  639,291;   -0,541;   -2,318
302,198;  775,374;    0,732;   -0,773
302,794;  611,372;    1,187;   -0,500
303,389;  571,308;   -1,177;    1,045
303,985;  631,513;    0,550;    1,409
304,580;  766,909;    1,459;    1,591
305,176;  670,012;   -3,086;    0,136
305,771;  535,913;   -1,268;   -1,227
306,367;  970,790;    4,095;    0,136
306,962;  706,200;    0,641;    1,500
307,558;  739,557;   -0,450;    0,136
308,153;  839,294;    1,095;   -1,136
308,748;  609,693;   -0,814;    1,682
309,344; 1012,248;   -0,632;   -1,318
309,939; 1025,444;   -1,905;   -1,318
310,534;  676,573;   -0,086;   -1,682
311,130;  627,253;    0,459;   -2,500
311,725;  573,505;    1,004;   -0,500
312,320;  644,487;    2,459;    0,045
312,915;  760,400;    1,459;   -1,045
313,510;  981,608;    1,550;   -0,500
314,105;  677,225;    1,096;    1,409
314,700;  500,296;   -3,086;   -1,045
315,295;  586,454;   -0,904;    0,045
315,890;  500,818;    1,277;    0,864
316,485;  628,250;   -0,359;   -0,318
317,080;  533,036;   -3,086;    1,591
317,675;  866,860;    2,005;   -0,682
318,270; 1074,055;    5,550;    3,318
318,865;  956,319;    3,278;    3,045
319,460;  760,015;   -0,904;    0,591
320,055;  584,054;   -0,541;   -1,227
320,650;  570,916;   -1,995;   -0,591
321,244;  577,553;   -0,177;   -1,409
321,839;  611,959;   -1,541;   -0,227
322,434;  674,033;   -1,086;   -1,591
323,029;  574,375;    1,732;    1,591
323,623;  534,602;    1,550;    0,773
324,218;  721,131;    2,368;    1,409
324,812;  646,654;    1,096;    1,591
325,407;  658,833;   -0,814;    2,045
326,002;  791,484;    0,277;   -0,409
326,596;  721,906;    0,914;    1,318
327,191;  546,258;    0,823;   -1,045
327,785;  546,906;   -0,813;   -0,227
328,379;  579,261;    1,368;    0,136
328,974;  632,628;    0,914;   -3,955
329,568;  669,120;    0,186;   -2,409
330,163;  753,304;    2,096;    1,045
330,757;  582,547;    2,459;    1,591
331,351;  532,998;    0,459;    0,682
331,945;  533,000;    0,914;    1,409
332,540;  700,007;   -1,723;   -0,591
333,134;  694,380;   -1,086;    0,773
333,728;  685,458;    0,005;    0,318
334,322;  581,610;   -1,177;   -0,864
334,916;  555,292;    0,277;    0,955
335,510;  776,528;   -0,450;   -0,136
336,105;  792,349;   -1,086;    1,591
336,699;  660,033;   -1,086;    0,591
337,293;  701,635;   -1,723;    0,318
337,887;  639,308;   -2,723;    1,955
338,481;  829,819;    0,459;    0,591
339,074;  960,374;   -0,359;    2,682
339,668;  945,054;   -1,632;    1,227
340,262; 1599,755;    1,732;    3,227
340,856; 1150,468;    1,822;   -0,682
341,450;  750,727;    1,004;    1,864
342,044;  840,908;    1,459;    0,136
342,637; 1024,843;    0,913;   -2,136
343,231; 1043,570;   -2,360;    0,682
343,825;  860,933;   -1,086;   -0,591
344,419;  845,416;   -1,995;    0,500
345,012; 1465,703;    2,459;    4,045
345,606; 1255,011;    4,641;    1,591
346,199;  888,263;   -1,813;   -0,227
346,793; 1054,125;    1,914;    2,045
347,386;  827,006;   -0,813;   -1,136
347,980;  684,840;   -0,268;   -0,045
348,573;  832,332;    2,278;    0,409
349,167; 1135,806;    5,278;    4,773
349,760; 1062,281;    2,914;    2,682
350,354;  993,959;   -0,813;    1,136
350,947; 1049,603;    1,096;    1,682
351,540;  854,497;   -0,358;   -1,409
352,134;  689,102;    1,096;    1,136
352,727;  746,705;   -0,086;    1,136
353,320;  781,695;    0,005;    0,591
353,913;  683,114;   -1,995;    1,864
354,507;  944,704;    0,823;   -1,227
355,100;  806,651;    0,460;    0,864
355,693; 1249,051;    2,005;    2,409
356,286;  967,457;    0,823;    2,773
356,879;  797,844;   -0,722;    1,227
357,472;  766,328;   -0,904;    1,500
358,065;  847,638;   -0,722;    2,500
358,658;  669,290;   -0,540;    2,318
359,251;  601,399;   -1,631;   -0,591
359,844;  833,157;   -1,904;   -1,136
360,437;  938,302;   -2,995;    0,045
361,030;  753,577;    1,369;   -0,682
361,623;  743,523;    2,824;    0,318
362,215; 1016,524;   -0,086;    2,045
362,808;  829,213;   -2,358;   -1,682
363,401;  744,813;   -2,449;    0,136
363,994; 1016,367;   -0,631;   -1,500
364,586;  752,750;    0,824;   -1,500
365,179;  680,776;   -0,449;   -1,136
365,772;  495,919;   -1,995;    2,045
366,364;  690,685;    1,915;   -3,227
366,957;  786,824;    2,279;   -0,045
367,549;  695,994;    2,188;   -0,864
368,142;  701,682;    1,825;   -1,500
368,734;  649,242;    0,734;   -2,136
369,327;  551,438;    1,643;   -0,500
369,919;  610,416;   -1,538;    0,409
370,512;  656,449;   -1,083;   -0,500
371,104;  955,504;   -0,901;    1,591
371,696; 1000,696;    1,191;   -0,955
372,289;  838,954;    0,373;    1,136
372,881;  762,225;   -2,080;    1,318
373,473;  608,493;   -2,170;    1,136
374,066;  740,955;   -0,169;    0,500
374,658;  692,302;    0,378;    1,136
375,250;  612,747;    0,653;   -1,409
375,842;  689,118;    0,473;   -0,045
376,434;  642,672;   -0,435;   -0,409
377,026;  649,775;    0,204;   -2,500
377,618;  691,250;   -0,158;   -0,682
378,210;  604,073;   -0,338;   -1,955
378,802;  558,391;    0,754;   -0,591
379,394; 1064,236;    1,846;    0,682
379,986;  777,185;    1,393;   -0,955
380,578;  671,843;   -0,153;    0,773
381,170;  959,886;   -0,972;    0,045
381,762;  827,845;    0,755;    1,409
382,354;  775,908;   -0,065;   -1,318
382,945;  653,093;   -2,976;    0,318
383,537;  588,178;   -2,705;   -1,955
384,129;  590,610;   -2,160;   -1,136
384,721;  740,293;   -0,252;    0,955
385,312;  640,823;   -0,161;   -0,955
385,904;  776,646;   -2,706;    1,591
386,496;  641,345;   -0,979;    1,045
387,087;  819,624;    1,022;    2,500
387,679;  757,822;   -1,160;    0,045
388,270;  749,346;    2,840;    2,045
388,862;  695,127;    1,295;   -0,318
389,453;  650,674;   -0,887;    1,045
390,045;  691,399;   -0,705;   -2,682
390,636;  575,612;    0,204;   -0,591
391,227;  631,094;   -0,523;   -0,045
391,819;  631,972;    0,204;    0,773
392,410;  938,908;    1,022;    0,045
393,001;  710,630;   -0,979;   -1,591
393,593;  799,765;    1,930;   -0,045
394,184;  860,102;    1,385;   -0,409
394,775;  668,478;    1,839;    2,136
395,366;  611,156;    1,385;    0,773
395,957;  857,020;    0,113;    0,136
396,548;  715,977;   -0,342;    2,682
397,139;  890,623;   -2,433;    0,591
397,730;  765,681;   -1,888;    0,955
398,321;  769,166;   -1,252;    0,955
398,912;  692,603;   -0,615;    0,136
399,503;  709,134;   -3,524;   -1,409
400,094;  743,642;    0,294;    1,682
400,685;  736,043;   -0,433;    0,045
401,276;  634,881;    0,930;   -0,955
401,867;  629,867;   -0,888;    0,773
402,458;  589,315;   -2,251;   -2,318
403,048;  801,929;    1,112;    0,591
403,639;  695,564;    0,840;    0,864
404,230;  879,041;    2,476;    0,318
404,821;  929,952;   -0,615;    0,045
405,411;  797,751;    1,203;   -2,591
406,002;  673,859;   -1,252;   -1,136
406,592;  970,353;    2,294;    0,045
407,183;  779,738;    0,566;   -1,500
407,774;  735,620;    3,475;   -0,136
408,364;  692,265;    0,930;    0,409
408,954;  837,087;    0,384;    1,227
409,545;  837,515;    1,021;    1,045
410,135;  756,762;    1,293;    0,500
410,726;  698,935;    1,838;    0,318
411,316;  943,886;    0,111;    0,773
411,906;  702,629;   -0,253;   -0,409
412,497;  710,214;   -1,070;   -0,045
413,087;  628,692;   -1,980;   -0,227
413,677;  553,029;   -0,707;    3,864
414,267;  536,354;    0,656;    1,409
414,857;  492,861;   -2,980;    4,227
415,448;  508,648;    0,839;    0,500
416,038;  537,059;    0,020;   -0,591
416,628;  599,275;   -0,889;    0,409
417,218;  682,759;    0,565;    3,318
417,808;  865,540;    0,202;   -0,409
418,398;  683,188;    0,020;    2,682
418,988;  529,229;    2,020;    0,591
419,578;  647,533;   -0,707;    1,409
420,168;  583,010;   -1,343;   -0,955
420,757;  782,742;   -1,343;   -1,500
421,347;  628,423;    0,111;   -0,227
421,937;  566,491;    2,292;    1,409
422,527;  729,878;    0,838;   -0,773
423,116;  901,364;   -0,253;   -0,045
423,706;  531,385;   -1,889;    0,318
424,296;  455,367;    1,384;    0,682
424,885;  639,912;   -0,071;   -3,045
425,475;  601,591;    1,474;   -2,864
426,065;  436,394;   -0,980;   -0,318
426,654;  397,671;   -0,435;   -0,318
427,244;  756,720;    0,020;    1,409
427,833;  722,112;    1,383;   -0,500
428,423;  539,208;   -0,526;    1,136
429,012;  530,628;   -0,344;   -1,136
429,601;  684,209;   -1,344;    0,136
430,191;  531,619;    1,292;    4,318
430,780;  396,950;   -0,344;   -0,409
431,369;  653,582;    0,746;   -0,045
431,959;  504,538;   -1,254;    0,500
432,548;  398,840;   -1,163;   -0,045
433,137;  303,219;   -1,254;   -1,318
433,726;  409,867;    0,292;    0,500
434,315;  435,216;   -0,526;    2,409
434,905;  564,209;   -1,254;    1,409
435,494;  565,490;    0,746;    0,955
436,083;  377,272;   -0,981;   -0,955
436,672;  473,105;    0,110;    0,500
437,261;  398,933;    0,292;   -1,955
437,850;  696,933;    1,383;    0,682
438,439;  743,166;    3,291;    1,955
439,027;  860,600;    3,655;    1,773
439,616;  765,598;    2,927;    1,227
440,205;  481,064;    0,200;   -2,136
440,794;  398,188;    2,109;   -0,045
441,383;  301,133;   -1,346;   -0,591
441,971;  249,825;   -2,436;    0,591
442,560;  259,495;    0,563;   -1,773
443,149;  126,991;    0,379;   -1,318
443,737;  197,534;   -0,074;   -2,318
444,326;  220,976;    0,018;    0,318
444,915;  277,208;   -1,982;    0,864
445,503;  279,565;   -2,891;   -0,318
446,092;  549,363;    0,382;    2,136
446,680;  459,041;    0,382;    0,318
447,269;  349,118;   -0,346;   -0,318
447,857;  323,113;    0,018;   -1,773
448,445;  268,268;    0,563;    1,318
449,034;  192,036;   -1,528;   -1,136
449,622;  191,409;   -1,073;    3,500
450,210;  468,062;    2,017;    2,227
450,799;  374,760;    0,290;   -0,591
451,387;  322,379;    1,381;   -0,591
451,975;  294,555;    2,654;    0,864
452,563;  367,483;    3,472;    2,318
453,151;  188,558;   -0,528;   -1,227
453,739;  218,736;   -1,347;    0,136
454,328;  308,891;    2,381;   -2,136
454,916;  239,671;    2,562;   -0,136
455,504;  246,814;    1,017;    1,227
456,092;  148,612;    0,017;   -1,591
456,679;  110,726;    1,472;    0,682
457,267;  455,085;    4,017;    1,045
457,855;  183,642;    1,017;    1,409
458,443;   63,582;   -0,165;    1,682
459,031;  172,813;    0,108;    2,409
459,619;  145,968;   -1,801;    2,864
460,206;   72,050;    0,835;    2,045
460,794;   69,359;   -2,983;   -0,227
461,382;   99,900;   -0,529;   -0,864
461,970;  109,348;    1,198;    1,864
462,557;   52,697;   -0,711;   -0,682
463,145;  129,688;   -3,165;   -1,682
463,732;  309,880;    2,016;   -1,045
464,320;  140,641;   -0,075;   -3,045
464,907;  228,285;    2,743;   -0,773
465,495;  151,161;    0,743;   -1,227
466,082;   97,163;   -1,984;   -0,045
466,670;  122,107;   -2,529;    1,227
467,257;   54,468;   -1,711;    2,045
467,844;  106,551;   -0,075;    0,045
468,432;   84,953;    0,834;    3,500
469,019;   68,379;    0,925;   -1,773
469,606;  122,507;    0,470;    3,682
470,193;  134,914;   -1,439;    0,227
470,780;   92,927;   -2,075;    0,864
471,368;   57,180;   -1,257;   -0,773
471,955;  109,555;    1,379;   -0,682
472,542;   81,606;    0,652;   -1,136
473,129;   31,696;   -0,166;    0,136
473,716;   30,995;    1,470;    0,591
474,303;   43,649;    0,652;   -0,864
474,890;   40,067;   -1,439;   -0,500
475,477;   95,452;   -1,621;    0,409
476,064;   42,890;    1,106;   -1,591
476,650;  106,842;    0,288;    0,318
477,237;   52,206;   -0,258;    0,955
477,824;   41,444;   -1,076;    0,864
478,411;   12,863;   -1,894;   -0,318
478,997;    2,612;    0,560;   -0,773
479,584;   -8,035;    1,196;   -0,409
480,171;   48,404;   -0,440;   -0,773
480,757;   68,828;    2,651;    0,773
481,344;   32,146;    0,469;    0,409
481,931;   -0,140;    1,105;    1,045
482,517;   37,923;   -1,258;    0,318
483,104;   74,689;    1,106;    2,864
483,690;   22,534;   -1,804;    0,045
484,276;   12,277;   -0,895;    0,227
484,863;  102,344;    2,469;    1,136
485,449;   40,254;   -0,077;    0,318
486,035;   15,929;   -1,986;   -0,136
486,622;   48,743;   -0,895;    0,045
487,208;   23,137;    1,378;    1,500
487,794;   -0,420;    0,741;    0,318
488,380;   -0,894;    0,105;   -1,409
488,967;   -4,186;   -1,168;   -0,409
489,553;   -0,233;   -1,895;   -1,409
490,139;   28,600;    1,559;    0,773
490,725;    5,916;    0,741;   -0,227
491,311;   16,415;    3,287;    3,045
491,897;   16,259;   -0,986;    1,500
492,483;   19,151;    0,105;    1,227
493,069;  219,474;    3,923;    0,864
493,655;   88,372;    1,650;    0,682
494,241;   31,416;    1,377;   -0,955
494,826;   27,121;    0,287;   -1,045
495,412;   49,488;    2,559;   -0,682
495,998;   16,666;   -0,805;   -0,318
496,584;   43,827;    0,377;    1,045
497,169;   57,103;    1,014;   -0,682
497,755;   27,418;    0,650;    1,227
498,341;   85,003;    0,559;    0,318
498,926;  157,687;    1,832;    1,955
499,512;   35,843;    1,286;    2,955
500,097;   37,179;    0,195;   -0,318
500,683;   54,073;   -0,350;    2,136
501,268;   32,275;   -0,169;   -0,955
501,854;   56,288;   -0,169;    1,227
502,439;   55,172;   -0,624;   -1,773
503,024;   68,174;    0,195;    0,500
503,610;   96,150;   -0,078;   -0,682
504,195;   73,432;    0,558;    1,955
504,780;  166,220;    2,922;    1,227
505,366;  261,985;    3,013;    2,864
505,951;  213,481;    0,740;    1,045
506,536;  152,885;   -3,260;   -3,682
507,121;  241,691;    0,285;   -0,318
507,706;  202,899;    2,376;    1,045
508,291;  159,671;    2,649;    1,136
508,876;  187,161;   -0,988;    2,591
509,461;  281,702;   -0,169;   -0,773
510,046;  362,033;    0,194;    0,318
510,631;  394,519;   -0,351;   -0,773
511,216;  311,913;    2,467;   -0,500
511,801;  439,636;   -0,442;    2,591
512,386;  503,769;    0,740;    0,500
512,971;  547,562;   -2,988;    0,955
513,555;  657,027;   -0,897;   -1,500
514,140;  643,729;   -0,442;   -3,136
514,725;  819,281;   -0,715;   -1,136
515,309;  714,501;   -0,533;    0,318
515,894;  602,307;   -0,624;   -2,227
516,479;  680,396;   -0,624;   -0,955
517,063;  719,044;    0,376;    1,227
517,648;  696,533;    1,012;   -1,136
518,232;  680,424;   -0,261;   -1,409
518,817;  830,075;   -0,079;    1,682
519,401; 1061,019;    2,194;    0,591
519,985;  950,312;    1,103;    1,136
520,570;  786,565;    0,830;   -1,955
521,154; 1002,959;    2,102;    0,591
521,738; 1309,115;   -2,352;    2,409
522,323; 1138,815;   -0,170;    1,682
522,907; 1100,631;    0,466;   -0,136
523,491;  982,476;    0,557;    0,955
524,075;  934,764;    2,284;    0,591
524,659; 1202,071;    1,466;    0,591
525,243; 1097,655;    1,739;    0,409
525,827; 1034,133;    0,648;   -0,045
526,411; 1102,798;   -1,989;   -0,136
526,995; 1304,702;   -0,352;    1,409
527,579; 1345,665;   -0,443;   -1,045
528,163; 1278,537;    0,375;   -1,500
528,747; 1479,947;    2,466;   -0,773
529,331; 1419,633;   -0,080;   -1,409
529,915; 1174,739;    1,738;    0,955
530,499; 1297,282;   -0,807;    1,227
531,082; 1445,193;   -0,534;    1,591
531,666; 1522,861;    1,374;    0,773
532,250; 1439,417;    1,284;    2,682
532,833; 1615,814;    0,920;    2,773
533,417; 1377,380;   -1,807;    0,864
534,001; 1498,641;    1,647;   -0,318
534,584; 1440,557;    0,374;    0,500
535,168; 1237,176;    0,465;    1,409
535,751; 1690,054;    0,647;    0,045
536,334; 1305,225;   -0,898;   -0,409
536,918; 1263,928;    0,011;    1,591
537,501; 1252,143;   -0,899;    1,318
538,085; 1320,841;   -0,444;    1,045
538,668; 1341,220;    0,829;    2,409
539,251; 1736,689;    1,829;    3,773
539,834; 1469,108;    0,101;    0,773
540,418; 1588,086;   -1,990;    4,318
541,001; 1777,285;   -0,990;    1,773
541,584; 1503,789;    2,101;    2,227
542,167; 1591,852;    1,374;    2,955
542,750; 1438,298;    1,919;   -0,773
543,333; 1207,132;    0,555;    2,136
543,916; 1557,759;    0,192;    2,500
544,499; 1432,299;   -1,354;    0,227
545,082; 1537,959;    1,374;    3,591
545,665; 1459,527;    1,919;    1,500
546,248; 1619,223;    1,010;   -0,318
546,830; 1570,721;   -0,445;    1,955
547,413; 1591,013;    1,010;   -0,773
547,996; 1654,670;    0,555;    0,500
548,579; 1455,363;    0,919;    0,955
549,161; 1715,023;    1,828;    2,682
549,744; 1595,352;   -0,809;    0,409
550,326; 1550,642;   -0,809;   -1,136
550,909; 2034,763;    2,737;    0,591
551,492; 1716,226;   -0,263;    0,227
552,074; 1777,564;   -0,173;   -1,318
552,657; 1836,025;    2,373;    0,045
553,239; 1662,342;   -0,173;   -0,773
553,821; 1585,619;   -1,082;    1,045
554,404; 1774,377;    1,282;    1,136
554,986; 1914,392;    0,464;    1,045
555,568; 1801,890;    1,191;   -0,955
556,151; 1992,360;    1,191;   -0,227
556,733; 1675,984;   -0,264;   -0,864
557,315; 1669,267;    0,100;    0,500
557,897; 1473,228;    0,554;   -0,500
558,479; 1499,431;   -1,991;    1,318
559,061; 1633,242;   -0,719;   -0,864
559,643; 1757,660;   -0,264;    0,045
560,225; 1791,278;    1,645;    2,864
560,807; 1677,569;    0,918;    0,318
561,389; 1607,347;    0,554;    2,318
561,971; 1666,319;    0,463;    2,136
562,553; 1666,526;   -1,628;    1,591
563,135; 1758,503;   -0,537;    1,136
563,717; 2101,309;    3,372;    1,136
564,298; 2001,309;    3,645;   -0,045
564,880; 1724,596;    0,645;   -1,409
565,462; 1595,778;    0,645;    1,318
566,043; 1931,125;   -0,446;    2,318
566,625; 2078,480;    1,918;    1,227
567,207; 1847,185;    1,099;    1,682
567,788; 1854,683;   -1,264;    1,500
568,370; 1986,265;    1,917;   -0,500
568,951; 1863,742;    0,190;    0,227
569,533; 2049,389;   -0,628;   -0,500
570,114; 2182,662;   -0,446;    0,682
570,695; 2228,553;   -0,174;   -1,318
571,277; 2199,204;   -0,265;   -1,682
571,858; 2424,119;    2,008;   -1,136
572,439; 2453,273;    1,554;   -1,045
573,021; 2432,109;    2,099;   -2,773
573,602; 2563,903;   -1,265;    0,318
574,183; 2618,197;   -2,083;    2,227
574,764; 2619,894;   -1,629;    0,409
575,345; 2724,719;    0,917;   -0,136
575,926; 2726,771;   -0,356;    0,136
576,507; 2803,439;    1,099;   -0,227
577,088; 2931,891;    3,099;    1,682
577,669; 3056,692;    0,735;    1,955
578,250; 3321,015;    0,644;   -1,045
578,831; 3179,676;   -1,356;   -2,227
579,412; 3057,434;   -0,810;    0,955
579,993; 3352,458;    1,008;    0,227
580,573; 3347,106;   -0,629;   -0,955
581,154; 3027,250;    0,735;   -0,591
581,735; 3236,499;    0,644;    0,773
582,315; 3076,408;   -0,629;    2,136
582,896; 3259,531;   -0,174;    1,227
583,477; 3060,834;    0,189;    1,227
584,057; 3157,091;    0,553;    0,955
584,638; 3231,913;    2,553;    2,318
585,218; 3422,528;   -0,538;    2,682
585,799; 3322,551;    0,281;   -0,227
586,379; 3251,709;    0,372;    1,591
586,959; 3074,021;    0,735;    0,318
587,540; 2905,550;   -0,629;    2,227
588,120; 2819,891;    1,007;   -0,045
588,700; 2679,145;    2,553;    2,136
589,281; 2933,373;    0,462;   -0,955
589,861; 2822,884;    0,099;   -1,682
590,441; 2751,845;    2,371;   -2,682
591,021; 2533,267;   -0,265;   -2,591
591,601; 2642,468;   -0,537;    0,500
592,181; 2740,254;   -0,719;   -0,773
592,761; 2432,935;    0,007;    1,409
593,341; 2583,463;   -0,901;    0,045
593,921; 2536,252;   -0,265;    1,591
594,501; 2436,024;   -0,538;    1,318
595,081; 2401,782;    0,917;   -0,318
595,661; 2621,422;   -1,447;    0,955
596,240; 2720,199;   -0,537;    0,136
596,820; 2850,215;    0,372;    1,955
597,400; 2567,580;    2,008;    0,773
597,980; 2597,040;    2,008;    1,045
598,559; 2584,736;    2,735;   -0,227
599,139; 2541,334;   -0,174;   -1,227
599,718; 2504,607;   -0,174;   -0,409
600,298; 2593,920;    0,735;    0,682
600,877; 2941,157;    2,917;    1,409
601,457; 2882,174;    2,281;    1,136
602,036; 2734,641;    0,190;    2,045
602,616; 2679,122;    0,644;    1,682
603,195; 2848,529;   -0,355;    3,500
603,774; 2744,943;   -0,901;    2,045
604,354; 2677,776;    0,826;   -0,500
604,933; 2576,078;    0,463;    1,864
605,512; 2760,617;    3,554;    0,591
606,091; 2758,282;   -0,537;    3,773
606,671; 2821,907;    0,281;    0,773
607,250; 2808,198;    1,644;    3,136
607,829; 2813,449;    2,372;    3,227
608,408; 2713,625;    1,190;    2,591
608,987; 2629,715;    1,281;    3,409
609,566; 2509,704;   -1,265;   -2,500
610,145; 2605,384;   -1,082;    0,682
610,723; 2764,876;    4,372;    6,864
611,302; 2507,453;   -0,446;    1,682
611,881; 2623,979;    5,008;   11,227
612,460; 2529,366;    1,645;    3,955
613,039; 2604,283;   -0,082;    2,045
613,617; 2309,487;    1,736;    4,773
614,196; 2334,187;    1,099;    1,227
614,775; 2509,171;    1,009;    2,409
615,353; 2496,253;    0,736;    0,864
615,932; 2424,913;    0,100;    2,409
616,510; 2566,344;    0,554;    0,591
617,089; 2941,482;    7,100;   17,591
617,667; 2625,922;    2,372;    6,136
618,246; 2277,273;   -1,537;    1,318
618,824; 2389,942;   -3,355;   -0,955
619,402; 2336,224;   -2,900;   -1,773
619,981; 2490,199;   -0,173;   -1,045
620,559; 2478,208;    0,009;    1,682
621,137; 2480,440;   -0,718;    1,864
621,715; 2173,387;   -1,173;   -0,682
622,293; 2213,883;   -0,537;   -0,773
622,871; 2484,358;   -0,718;    0,500
623,450; 2310,609;    0,373;   -0,864
624,028; 2423,020;    0,191;   -0,955
624,606; 2338,017;   -1,718;    1,682
625,183; 2268,072;   -1,536;   -1,136
625,761; 2270,608;    1,009;    1,136
626,339; 2650,967;    1,373;    2,591
626,917; 2392,423;   -0,172;   -0,045
627,495; 2395,634;   -0,354;    1,318
628,073; 2343,595;   -0,263;    2,864
628,650; 2304,532;    0,100;    2,136
629,228; 2408,122;    0,373;    4,409
629,806; 2122,549;    2,282;    1,136
630,383; 2220,851;    1,464;   -0,318
630,961; 2206,916;    2,555;   -0,955
631,539; 2154,467;    2,464;    0,227
632,116; 2795,825;   11,373;   15,409
632,694; 2473,323;    2,555;    6,500
633,271; 2288,316;    0,828;    2,682
633,848; 2404,894;    1,828;    2,045
634,426; 2217,315;   -1,081;    1,773
635,003; 2063,358;    1,101;   -0,409
635,580; 2400,777;    1,192;    3,682
636,158; 2250,112;    3,737;    1,227
636,735; 2105,773;    0,555;   -0,500
637,312; 2106,663;   -0,809;   -0,682
637,889; 2135,450;   -4,354;   -0,682
638,466; 2084,360;   -3,990;   -0,409
639,043; 2082,470;    2,101;   -1,136
639,620; 2102,913;   -2,262;   -0,955
640,197; 2243,214;    1,100;    1,682
640,774; 2223,145;   -0,172;    1,136
641,351; 2307,713;    0,737;    1,136
641,928; 2335,371;   -0,627;    1,409
642,505; 2440,484;    0,828;   -0,500
643,082; 2346,143;   -1,718;    1,227
643,658; 2007,710;   -0,718;    1,500
644,235; 2121,096;    1,191;    2,500
644,812; 2279,936;    1,918;    0,773
645,388; 2212,504;   -0,991;    1,409
645,965; 2007,253;   -0,809;    1,682
646,542; 2041,821;   -1,445;   -0,227
647,118; 2494,479;    1,009;   -0,955
647,695; 2328,501;   -0,263;    1,136
648,271; 2128,432;   -0,536;    0,500
648,848; 2249,545;    0,736;    2,227
649,424; 2361,931;    0,827;    1,318
650,000; 2075,135;   -0,354;   -1,045
650,577; 2148,884;   -0,627;   -0,955
651,153; 2265,724;   -1,809;    0,955
651,729; 2279,474;    1,191;    0,864
652,305; 2558,041;    0,645;    2,773
652,881; 3038,791;   -0,082;    1,136
653,458; 3999,358;    1,100;    0,227
654,034; 4572,653;    0,282;    1,591
654,610; 4617,311;    0,554;    0,773
655,186; 5037,879;    0,645;    3,045
655,762; 4713,810;   -0,991;    0,409
656,338; 4676,469;    0,100;    0,136
656,913; 5004,945;   -0,082;    0,409
657,489; 4724,513;    0,827;   -0,318
658,065; 4826,262;   -0,173;   -1,591
658,641; 5067,648;   -0,900;   -0,864
659,217; 4800,034;   -0,991;    0,409
659,792; 4527,874;    0,645;   -0,409
660,368; 4645,623;   -2,173;   -0,682
660,944; 4829,463;   -2,082;    1,227
661,519; 4127,031;   -0,628;    0,409
662,095; 3221,508;   -1,719;    0,591
662,670; 2495,530;    1,281;   -0,136
663,246; 2473,825;    1,009;   -0,409
663,821; 2505,756;    0,281;    1,682
664,396; 2241,141;    0,009;    1,864
664,972; 2290,345;    0,009;   -0,500
665,547; 2449,095;    1,372;    0,136
666,122; 2386,753;   -1,082;    0,318
666,698; 2540,048;   -0,173;    0,318
667,273; 2187,525;   -0,173;    0,136
667,848; 2389,274;    2,372;    1,500
668,423; 2468,387;    2,190;    2,318
668,998; 2404,682;    2,827;   -0,682
669,573; 2463,704;   -3,264;   -1,500
670,148; 2594,180;   -1,446;   -0,682
670,723; 2316,384;   -1,810;    0,318
671,298; 2676,861;    2,372;    1,045
671,873; 2549,429;   -0,082;   -0,136
672,448; 2538,814;    0,645;    0,136
673,023; 2556,018;   -1,992;   -0,227
673,597; 2750,222;    0,827;    2,318
674,172; 2720,971;   -0,355;    0,318
674,747; 2578,993;    0,372;   -1,045
675,321; 2346,470;   -0,628;    3,318
675,896; 2225,038;    0,645;    1,045
676,471; 2475,787;    2,645;    1,591
677,045; 2369,355;   -1,264;    0,682
677,620; 2392,104;    0,190;    1,136
678,194; 2440,762;   -2,628;    1,136
678,769; 2417,875;   -1,083;   -0,318
679,343; 2502,716;   -0,628;    1,773
679,917; 2559,192;   -1,446;    1,955
680,492; 2418,851;    0,826;    3,227
681,066; 2463,418;    3,372;    0,409
681,640; 2457,168;    1,463;   -0,318
682,214; 2580,644;    0,735;    0,500
682,788; 2493,030;   -1,356;   -0,773
683,363; 2540,143;   -1,810;    1,682
683,937; 2388,074;   -1,719;   -0,318
684,511; 2614,460;    0,463;   -0,591
685,085; 2573,482;   -1,356;    0,318
685,659; 2420,231;   -2,538;    0,864
686,232; 2646,981;   -0,356;   -0,318
686,806; 2545,821;   -0,901;    0,409
687,380; 2618,116;   -0,174;    0,591
687,954; 2628,138;   -1,174;    1,136
688,528; 2717,978;   -0,719;    1,955
689,101; 2828,455;   -3,992;    1,045
689,675; 2607,477;   -0,356;   -0,136
690,249; 2663,862;   -0,719;    0,409
690,822; 2716,521;    0,280;    0,318
691,396; 2607,088;   -0,265;    1,227
691,969; 2465,656;    1,280;    0,136
692,543; 2571,042;   -0,447;   -1,955
693,116; 2379,336;   -0,265;   -1,409
693,690; 2441,631;    0,099;    0,500
694,263; 2595,199;   -1,083;    2,955
694,836; 2821,857;    1,371;    3,591
695,410; 2522,698;   -0,265;    1,773
695,983; 2536,811;    0,189;    0,591
696,556; 2430,105;   -0,447;   -1,045
697,129; 2500,673;   -0,356;    1,409
697,703; 2482,059;   -1,629;    1,955
698,276; 2483,535;    1,462;   -0,773
698,849; 2522,830;    1,280;    1,409
699,422; 2402,852;   -1,083;    0,591
699,995; 2301,692;    0,007;    0,136
700,568; 2503,351;   -0,629;    3,045
701,140; 2511,555;   -2,811;    1,682
701,713; 2619,940;   -0,174;    2,409
702,286; 2517,781;   -0,538;    0,864
702,859; 2488,166;   -0,902;   -0,591
703,432; 2418,189;    0,825;    0,682
704,004; 2407,302;    0,462;    0,318
704,577; 2254,687;   -0,629;    0,136
705,150; 2361,709;    0,189;    2,500
705,722; 2441,550;   -0,356;   -3,227
706,295; 2470,208;   -0,175;   -0,591
706,867; 2297,685;   -0,175;    1,955
707,440; 2502,889;   -1,720;   -0,409
708,012; 2566,002;    0,462;    0,591
708,584; 2433,296;    2,462;    0,227
709,157; 2419,046;    1,825;   -0,591
709,729; 2536,795;    2,280;    2,045
710,301; 2680,363;    0,734;    0,045
710,874; 2640,657;   -1,447;   -0,227
711,446; 2248,589;    0,371;    0,864
712,018; 2335,520;    0,098;    0,500
712,590; 2253,905;   -1,993;    1,682
713,162; 2564,746;    0,825;    1,318
713,734; 2451,950;    1,825;   -2,045
714,306; 2416,517;   -1,902;   -0,409
714,878; 2242,176;    0,825;    0,864
715,450; 2369,289;    0,643;    0,864
716,022; 2413,038;    1,552;    1,318
716,593; 2442,696;    0,189;    0,591
717,165; 2490,173;   -3,175;   -1,227
717,737; 2612,195;    0,280;    0,409
718,309; 2437,854;    0,280;   -0,045
718,880; 2349,512;   -0,539;   -1,409
719,452; 2457,807;   -0,175;   -1,591
720,024; 2440,556;    0,734;   -0,591
720,595; 2454,306;   -2,902;    0,955
721,167; 2349,419;    0,370;   -2,045
721,738; 2313,259;   -0,812;   -1,045
722,309; 2376,917;   -0,993;   -1,227
722,881; 2219,030;   -1,357;    0,773
723,452; 2413,052;   -2,630;    2,864
724,023; 2462,438;   -0,721;    2,682
724,595; 2494,824;    0,007;    0,682
725,166; 2296,391;    0,007;   -0,409
725,737; 2448,413;    1,734;    0,227
726,308; 2374,163;   -0,266;    0,318
726,879; 2290,730;   -1,630;    1,227
727,450; 2418,116;    0,552;   -0,045
728,021; 2309,593;    3,097;    0,682
728,592; 2459,706;    0,734;    0,500
729,163; 2598,728;    0,643;   -0,136
729,734; 2593,932;    0,188;   -0,227
730,305; 2455,226;    1,734;    0,136
730,876; 2433,703;    0,188;    2,955
731,447; 2739,543;    2,188;    2,682
732,017; 2639,111;    1,097;    1,864
732,588; 2498,678;    0,734;    1,227
733,159; 2654,246;    0,643;   -1,045
733,729; 2397,813;    0,006;    0,409
734,300; 2434,836;    0,915;    0,864
734,870; 2394,949;    3,461;    0,591
735,441; 2417,698;    0,370;   -0,591
736,011; 2309,720;    0,643;   -1,591
736,582; 2349,924;   -0,812;    0,045
737,152; 2314,401;   -1,721;   -2,045
737,722; 2390,877;   -0,267;   -0,682
738,293; 2234,263;   -1,358;    1,318
738,863; 2408,739;    2,461;    2,318
739,433; 2629,398;    5,279;    0,318
740,003; 2518,784;   -0,994;   -0,682
740,573; 2530,897;    2,097;   -1,591
741,143; 2491,646;   -1,085;    0,318
741,713; 2462,304;    1,188;   -0,500
742,283; 2435,599;    0,915;    1,591
742,853; 2334,621;    1,915;    1,591
743,423; 2159,553;    1,733;    0,045
743,993; 2244,938;   -0,358;    1,500
744,563; 2120,960;    0,097;   -0,864
745,133; 2165,619;   -0,812;   -0,864
745,702; 2261,641;   -0,267;    1,773
746,272; 2306,299;   -0,176;    0,591
746,842; 2320,412;   -1,358;   -0,591
747,411; 2232,343;   -0,267;   -0,318
747,981; 2152,638;    0,097;    0,500
748,551; 2185,660;    2,278;   -1,045
749,120; 2272,682;    0,642;   -0,227
749,690; 2293,159;   -0,631;    2,409
750,259; 2454,272;    1,369;    2,955
750,828; 2460,203;    1,551;   -1,955
751,398; 2322,862;    1,278;   -0,045
751,967; 2619,429;    2,187;    0,409
752,536; 2393,633;   -0,813;   -0,227
753,105; 2546,837;    0,096;    0,227
753,675; 2337,132;    0,096;    1,773
754,244; 2333,608;   -0,904;    3,591
754,813; 2354,176;    0,551;    1,227
755,382; 2263,653;    0,460;    0,955
755,951; 2412,220;    1,551;    3,682
756,520; 2455,333;   -0,085;    1,864
757,089; 2717,810;    0,278;    0,500
757,658; 2434,195;    1,733;    1,227
758,227; 2296,945;    1,096;    0,318
758,795; 2395,331;    1,187;    1,136
759,364; 2533,989;   -0,086;   -0,591
759,933; 2235,920;   -1,176;   -0,045
760,501; 2184,488;    0,733;   -1,318
761,070; 2323,964;   -2,813;   -1,409
761,639; 2568,714;   -1,904;    1,318
762,207; 2401,554;    1,551;   -0,955
762,776; 2463,667;    0,369;    0,864
763,344; 2316,598;   -0,995;    0,591
763,913; 1965,075;   -0,722;    1,409
764,481; 2615,370;    1,005;   -0,136
765,049; 2541,392;   -1,358;    1,409
765,618; 2431,141;   -0,086;    0,318
766,186; 2346,345;    0,278;    0,136
766,754; 2380,912;    0,005;    1,864
767,322; 2070,116;   -1,995;    0,409
767,890; 2035,684;   -0,722;   -1,773
768,459; 2236,070;   -2,177;   -0,318
769,027; 2440,819;    1,641;    3,409
769,595; 2147,932;    3,278;    2,591
770,163; 2195,863;    3,823;    2,955
770,730; 2186,794;    0,732;   -0,136
771,298; 2168,635;    0,187;   -1,409
771,866; 2156,566;   -1,541;    4,955
772,434; 2201,861;   -0,631;   -1,864
773,002; 2455,792;    0,005;    0,682
773,569; 2317,450;    0,914;    1,682
774,137; 2387,290;   -0,268;   -0,045
774,705; 2370,494;    0,278;   -0,136
775,272; 2185,607;    0,641;    0,682
775,840; 2291,811;   -0,177;    2,682
776,407; 2263,651;    0,277;    1,955
776,975; 2020,492;   -0,632;    0,318
777,542; 2167,787;   -1,086;   -0,045
778,110; 2183,536;   -1,268;   -0,045
778,677; 2054,376;   -2,359;   -0,864
779,244; 2091,762;    2,186;    1,045
779,812; 2234,966;    1,823;    0,864
780,379; 2262,533;    0,005;    1,136
780,946; 2161,192;    1,005;   -0,773
781,513; 2183,668;   -1,450;    0,318
782,080; 2027,418;   -0,086;    2,864
782,647; 2152,803;   -0,268;    3,045
783,214; 2064,280;   -0,177;    3,864
783,781; 2197,029;   -0,723;   -0,682
784,348; 2183,415;   -0,632;    1,500
784,915; 2055,074;   -3,177;    0,318
785,482; 2206,278;    1,368;    2,591
786,049; 2287,118;    0,186;   -0,591
786,615; 2219,504;    0,277;   -0,955
787,182; 2115,889;    0,186;   -0,682
787,749; 2067,184;   -2,814;    1,409
788,315; 2075,752;   -1,632;   -0,409
788,882; 2112,501;    1,550;   -1,227
789,448; 2411,796;    1,732;   -0,955
790,015; 2219,909;    1,095;    3,227
790,581; 2317,385;    1,459;    0,227
791,148; 2109,953;    0,641;    1,045
791,714; 2092,430;   -0,541;    3,136
792,280; 2065,361;    0,186;    1,591
792,847; 1995,565;    0,550;    2,500
793,413; 2079,132;   -0,269;   -0,318
793,979; 2139,700;    3,459;   -1,318
794,545; 2484,813;    4,459;    2,682
795,111; 2274,835;    2,186;    1,318
795,678; 2129,402;    0,731;   -1,682
796,244; 2315,243;    3,368;    0,136
796,810; 2287,810;    1,731;    0,773
797,375; 2247,105;    0,549;   -2,136
797,941; 1883,672;   -0,541;    0,591
798,507; 1854,149;   -0,451;   -0,955
799,073; 1872,353;   -0,360;    0,591
799,639; 1962,557;   -2,632;    3,136
800,205; 1893,852;    0,095;    2,682
800,770; 1837,237;    0,640;    1,773
801,336; 1801,260;    1,368;   -0,955
801,901; 2414,372;    4,549;    3,136
802,467; 2164,304;   -0,542;    2,045
803,033; 1830,689;   -0,087;    0,864
803,598; 1838,439;    1,913;   -1,045
804,163; 1898,824;    1,095;   -0,318
804,729; 1994,756;   -0,178;    1,136
805,294; 1925,869;    0,822;    2,227
805,859; 1807,436;    0,731;   -0,409
806,425; 2174,640;    1,186;    2,682
806,990; 2127,935;    2,186;    4,318
807,555; 1947,139;   -1,451;    2,591
808,120; 2098,070;    0,822;   -0,409
808,685; 1836,910;    0,185;   -2,500
809,250; 1681,750;    0,004;   -0,500
809,815; 1772,591;    1,913;    0,682
810,380; 1989,613;   -0,269;    1,591
810,945; 2134,635;   -1,087;    2,045
811,510; 1957,202;    2,094;    1,591
812,075; 1881,952;   -0,633;   -1,409
812,640; 2153,701;    2,003;    1,409
813,204; 1963,996;    0,822;   -0,227
813,769; 2175,018;    2,094;   -0,045
814,334; 2109,586;    0,458;    0,864
814,898; 1878,153;    0,367;    0,591
815,463; 1880,902;    1,276;   -0,773
816,027; 1807,652;   -0,724;   -2,318
816,592; 1839,947;    0,640;   -2,045
817,156; 1864,969;    2,094;    1,136
817,721; 1935,627;    4,276;    2,318
818,285; 1742,831;    2,912;    1,500
818,849; 1871,671;   -1,451;    1,682
819,414; 1779,784;   -0,269;    2,955
819,978; 1698,806;   -1,269;    1,773
820,542; 2108,829;    2,003;    0,500
821,106; 1930,578;   -0,815;    0,682
821,670; 2094,327;   -0,815;    2,591
822,234; 1843,349;   -0,270;    1,409
822,798; 1695,735;    0,003;    0,500
823,362; 2016,484;   -0,633;    4,227
823,926; 1719,234;    0,094;    1,136
824,490; 1932,165;   -0,997;   -0,682
825,054; 1845,642;   -0,088;   -1,136
825,618; 1702,300;   -1,542;   -1,500
826,181; 1716,413;    0,458;   -1,318
826,745; 1786,253;    1,367;   -1,045
827,309; 2080,093;    1,185;    1,318
827,872; 1916,661;    1,367;    0,955
828,436; 1890,501;    1,185;   -0,773
828,999; 1862,705;   -0,997;    1,227
829,563; 1761,273;   -0,179;    1,136
830,126; 1703,931;   -0,179;   -0,591
830,690; 1711,590;   -1,997;    2,864
831,253; 1598,703;   -0,543;    2,227
831,816; 1672,725;   -1,906;    0,500
832,380; 1580,020;    0,185;    0,864
832,943; 1610,951;   -1,361;   -0,500
833,506; 1630,336;    2,639;   -1,227
834,069; 1862,813;    3,912;   -0,955
834,632; 1762,290;    1,730;    1,318
835,195; 1761,766;    1,003;    0,955
835,758; 1638,879;   -0,997;    1,955
836,321; 1572,538;    0,730;   -1,045
836,884; 1592,287;   -0,725;   -0,955
837,447; 1588,582;   -2,816;    1,773
838,010; 1722,513;    0,366;    3,227
838,573; 1803,444;   -1,179;    0,773
839,135; 1719,194;   -1,361;   -0,955
839,698; 1637,398;    1,275;    0,409
840,261; 1572,510;    1,003;   -0,227
840,823; 1522,260;   -0,543;    0,864
841,386; 1514,918;   -0,452;   -2,409
841,948; 1866,940;   -1,361;    1,773
842,511; 1568,508;    0,912;    1,682
843,073; 1851,621;    1,912;    0,227
843,636; 1580,370;   -0,361;   -0,227
844,198; 1791,756;    0,911;    0,591
844,760; 1760,778;    1,093;    1,955
845,322; 1515,891;    0,548;    1,136
845,885; 1661,277;    0,730;    0,591
846,447; 1659,026;   -1,998;    0,227
847,009; 1976,321;    1,911;   -0,682
847,571; 1670,434;    0,820;   -2,045
848,133; 1637,911;   -1,089;   -1,864
848,695; 1503,296;   -0,543;    1,409
849,257; 1563,500;   -1,089;   -1,682
849,819; 1731,522;   -0,998;   -0,409
850,381; 1590,544;   -0,725;   -0,864
850,942; 1665,566;    1,093;   -0,591
851,504; 1692,952;    1,184;    0,227
852,066; 1615,883;    1,275;   -1,591
852,628; 1615,905;   -0,180;    1,955
853,189; 1415,564;    1,638;    2,682
853,751; 1493,859;   -0,907;    1,409
854,312; 1666,426;   -0,453;   -1,682
854,874; 1820,176;   -2,089;   -0,773
855,435; 1642,925;   -0,907;   -1,682
855,997; 1765,220;   -1,816;   -0,136
856,558; 1770,515;    0,366;    1,773
857,119; 1619,264;    0,820;    2,864
857,681; 1456,195;    0,002;    0,318
858,242; 1690,581;    1,911;   -2,136
858,803; 1781,057;    0,456;   -0,773
859,364; 1716,261;    0,184;   -4,773
859,925; 1739,102;   -2,453;   -0,955
860,486; 1637,396;   -0,453;   -0,955
861,047; 1510,509;   -0,544;   -1,227
861,608; 1533,077;   -1,089;   -0,773
862,169; 1487,917;    0,638;   -0,045
862,730; 1511,667;    0,456;    1,409
863,291; 1590,234;   -0,635;   -0,500
863,852; 1576,074;   -0,635;    1,955
864,412; 1500,006;   -0,271;   -0,864
864,973; 1663,846;   -0,089;    0,500
865,534; 1828,959;   -1,726;    0,227
866,094; 1661,799;    1,820;    0,227
866,655; 1757,276;    1,274;    3,318
867,215; 1628,298;    0,274;    0,136
867,776; 1503,956;    0,547;   -0,136
868,336; 1556,796;   -1,453;    0,136
868,897; 1952,273;    2,638;    1,682
869,457; 1714,113;    1,365;    0,318
870,017; 1543,499;    0,547;   -1,227
870,578; 1563,067;   -0,817;    0,773
871,138; 1528,543;   -2,089;   -0,955
871,698; 1405,747;   -0,817;   -1,318
872,258; 1536,315;   -0,453;   -2,864
872,818; 1784,791;    2,729;    0,045
873,378; 1578,904;    0,638;    1,045
873,938; 1496,745;    0,547;    0,500
874,498; 1419,221;    0,274;   -1,955
875,058; 1469,607;    2,183;    1,773
875,618; 1464,356;    1,910;   -2,682
876,177; 1504,287;    1,274;    0,136
876,737; 1275,855;   -0,090;    1,955
877,297; 1734,695;    0,183;    1,955
877,856; 1650,899;   -0,362;    0,318
878,416; 1384,103;    1,183;   -0,136
878,976; 1378,580;   -1,817;    0,409
879,535; 1451,238;    0,092;    3,136
880,095; 1424,078;   -0,544;    0,045
880,654; 1310,646;   -1,090;    1,318
881,213; 1662,486;    2,456;    1,500
881,773; 1465,599;    2,637;    2,682
882,332; 2099,349;    3,365;    5,136
882,891; 1499,916;    3,092;    2,136
883,451; 1514,847;   -1,272;    1,682
884,010; 1388,142;   -2,908;   -0,409
884,569; 1375,164;   -0,999;   -0,045
885,128; 1594,641;    2,819;   -1,864
885,687; 1907,754;    4,455;    0,682
886,246; 2087,321;    1,455;    2,136
886,805; 1759,980;    2,455;    2,045
887,364; 1422,547;   -0,999;   -0,500
887,922; 1350,660;   -1,181;    0,045
888,481; 1494,864;   -1,545;    0,591
889,040; 1664,159;    1,183;    2,136
889,599; 1537,181;    2,455;    1,409
890,157; 1528,203;    1,455;    2,409
890,716; 1441,498;   -0,090;    0,227
891,274; 1532,065;    0,092;   -1,136
891,833; 1642,542;    1,546;    0,864
892,391; 1427,201;   -0,454;    0,500
892,950; 1640,314;    1,819;   -0,773
893,508; 1447,427;    0,455;   -0,409
894,067; 1299,358;    0,637;    0,136
894,625; 1403,925;   -0,636;   -1,500
895,183; 1370,856;   -0,363;   -0,682
895,741; 1710,424;    1,728;   -1,773
896,299; 1470,992;   -0,545;   -2,409
896,858; 1367,104;    0,819;   -1,591
897,416; 1513,672;    2,728;   -1,318
897,974; 1432,694;    1,819;    0,318
898,532; 1938,989;    6,091;    2,682
899,089; 1572,829;    2,091;   -0,682
899,647; 1455,579;   -1,454;    1,318
900,205; 1499,692;    1,182;    1,045
900,763; 1500,714;   -0,454;    0,227
901,321; 1464,190;    2,364;   -1,409
901,878; 1254,303;   -1,000;   -0,773
902,436; 1317,598;   -1,363;    1,318
902,994; 2177,166;    4,728;    3,682
903,551; 1642,460;    0,728;    0,409
904,109; 1513,937;    0,182;   -1,409
904,666; 1446,505;    2,455;    1,045
905,224; 1318,708;    0,182;   -0,409
905,781; 1476,458;    0,727;   -0,318
906,338; 1383,025;   -1,363;    1,045
906,895; 1260,684;    0,637;    2,045
907,453; 1565,160;    1,727;    1,136
908,010; 1401,455;   -0,909;    0,409
908,567; 1325,386;    1,273;    0,591
909,124; 1139,772;    0,364;   -1,500
909,681; 1193,703;   -2,909;    0,682
910,238; 1287,544;    0,636;   -1,318
910,795; 1277,293;   -0,273;   -1,136
911,352; 1255,111;   -2,909;   -2,682
911,909; 1244,838;   -1,364;   -0,864
912,466; 1309,929;   -3,182;    1,500
913,022; 1303,475;   -1,636;    0,500
913,579; 1429,111;   -0,909;    2,045
914,136; 1294,111;    1,636;    0,955
914,692; 1367,020;    0,091;   -1,227
915,249; 1301,384;    1,455;    0,409
915,806; 1384,384;    0,182;    1,955
916,362; 1293,384;    1,909;    1,864
916,918; 1179,566;    2,000;    1,045
917,475; 1404,293;   -1,182;    0,955
918,031; 1198,929;    3,364;   -0,045
918,587; 1278,838;   -0,909;   -0,318
919,144; 1187,838;   -2,273;    0,227
919,700; 1137,111;    1,727;    0,773
920,256; 1098,747;    0,727;    0,045
920,812; 1136,929;   -0,727;   -1,045
921,368; 1094,747;   -1,727;   -1,045
921,924; 1068,020;    0,182;   -0,136
922,480; 1176,929;   -0,545;    1,227
923,036; 1220,384;    1,273;    1,955
923,592; 1109,293;    0,455;    0,318
924,148; 1137,747;    0,455;   -0,955
924,704; 1289,202;   -1,364;   -0,409
925,259; 1126,384;   -0,273;    0,591
925,815; 1064,838;    1,455;    0,500
926,371; 1020,475;    2,909;    1,409
926,926; 1188,747;    2,091;    0,591
927,482; 1145,929;   -1,364;    0,773
928,037; 1072,020;    0,909;    2,045
928,593; 1291,657;    1,636;    1,045
929,148; 1030,657;   -1,818;   -1,500
929,704; 1085,293;   -1,455;   -0,500
930,259;  972,929;    0,091;   -0,136
930,814; 1175,747;   -0,818;    1,955
931,369; 1087,838;    1,091;   -0,773
931,925;  861,384;   -0,091;    0,136
932,480;  980,202;   -2,818;   -2,591
933,035; 1393,384;    0,545;   -0,318
933,590; 1259,384;    0,364;   -1,773
934,145;  821,293;   -1,364;   -0,318
934,700;  726,475;    0,455;   -0,591
935,255;  804,929;   -0,091;    0,045
935,809; 1157,020;    3,182;    0,864
936,364;  734,566;   -0,455;   -0,136
936,919;  744,838;    0,455;   -1,773
937,474;  650,929;    1,455;    0,136
938,028;  675,293;   -1,636;    1,136
938,583; 1097,293;    1,818;    4,682
939,138;  734,384;    2,091;    2,136
939,692;  585,202;    1,636;   -1,136
940,247;  633,293;   -0,727;   -1,045
940,801;  702,475;   -0,636;    0,227
941,355;  593,475;   -0,364;    2,591
941,910;  469,293;   -0,273;   -2,136
942,464;  520,929;   -0,818;   -0,318
943,018;  798,020;    1,000;   -0,227
943,572;  604,384;    2,545;   -0,682
944,126;  664,111;    0,091;   -0,409
944,681;  525,747;    3,091;    0,227
945,235;  461,747;    1,000;   -0,591
945,789;  413,929;    0,364;   -1,864
946,342;  748,929;    0,455;   -0,591
946,896;  477,020;   -2,273;    0,955
947,450;  449,111;    1,545;   -0,227
948,004;  726,657;    1,727;   -0,045
948,558;  510,838;    0,273;   -0,864
949,111;  500,929;   -0,273;   -0,318
949,665;  725,384;    1,636;   -0,682
950,219;  671,293;   -0,091;   -1,045
950,772;  586,566;   -1,909;    1,864
951,326;  580,293;    0,545;   -0,955
951,879;  497,202;    0,727;   -2,318
952,433;  653,020;    0,000;    2,227
952,986;  464,838;    2,909;    0,682
953,539;  412,293;   -0,273;    0,591
954,093;  358,747;    0,545;   -1,318
954,646;  517,838;    0,909;    1,318
955,199;  425,384;    0,000;   -0,500
955,752;  645,747;   -0,455;    1,773
956,305;  483,929;   -0,091;    2,955
956,858;  545,838;    0,818;   -0,318
957,411;  609,202;   -0,545;    2,136
957,964;  499,111;    1,364;    2,136
958,517;  413,384;   -1,545;    3,136
959,070;  359,838;   -0,455;    1,955
959,623;  675,566;    1,091;    1,500
960,176;  616,657;    1,727;    2,045
960,728;  578,566;   -2,727;    0,773
961,281;  509,838;    0,545;    0,500
961,834;  427,020;   -0,909;    0,864
962,386;  432,475;    1,727;    1,045
962,939;  398,475;    0,364;   -0,318
963,491;  449,747;    0,455;    1,136
964,043;  378,475;    1,182;    2,409
964,596;  572,111;   -1,000;    2,227
965,148;  464,020;   -1,000;    1,773
965,700;  372,020;    1,091;   -0,227
966,253;  552,384;   -0,636;    0,318
966,805;  507,566;   -2,273;    0,773
967,357;  424,657;    1,091;   -1,500
967,909;  552,111;    0,455;   -1,227
968,461;  429,384;    0,545;    3,136
969,013;  373,657;   -0,182;   -0,864
969,565;  535,838;   -0,455;   -1,136
970,117;  799,202;   -0,364;    1,045
970,669;  540,929;    0,182;   -0,136
971,220;  324,747;   -0,455;   -1,500
971,772;  424,475;   -0,636;   -0,318
972,324;  528,111;    0,091;   -0,500
972,876;  425,929;    0,818;   -0,045
973,427;  559,111;    1,909;   -1,045
973,979;  628,929;   -0,727;   -2,500
974,530;  409,929;    1,818;    1,318
975,082;  481,929;   -0,545;    1,682
975,633;  422,475;    1,091;    1,682
976,184;  492,747;    0,909;    0,773
976,736;  487,929;    0,091;    0,227
977,287;  486,929;   -0,909;   -0,500
977,838;  445,293;    0,909;   -0,318
978,389;  460,657;   -1,000;   -0,500
978,940;  314,384;    0,545;   -0,409
979,491;  311,293;    0,091;   -0,500
980,042;  422,020;    0,182;    3,045
980,593;  426,111;   -2,545;    0,227
981,144;  532,566;    2,545;   -0,500
981,695;  581,293;    1,455;    1,500
982,246;  516,566;   -0,273;    1,045
982,797;  372,747;   -1,727;    0,682
983,347;  534,838;    0,364;    0,591
983,898;  753,747;    3,091;    0,409
984,449;  705,929;    2,182;    0,773
984,999;  523,929;    1,455;   -1,136
985,550;  481,747;    0,182;   -0,318
986,100;  322,657;   -0,455;   -0,318
986,651;  318,657;   -0,818;    0,045
987,201;  353,111;   -1,000;   -0,591
987,751;  367,384;    0,818;    2,864
988,302;  424,202;    2,636;    1,500
988,852;  464,111;    0,455;   -1,136
989,402;  541,293;    0,091;    0,682
989,952;  562,293;   -2,182;    0,864
990,502;  395,202;   -0,091;    0,682
991,052;  296,202;   -0,727;    0,045
991,602;  341,657;   -2,909;    1,318
992,152;  406,475;    0,455;    0,682
992,702;  443,202;    1,364;   -0,045
993,252;  383,202;   -3,000;   -0,500
993,802;  479,384;   -0,273;    1,318
994,352;  426,293;   -1,545;    1,136
994,901;  328,475;   -0,182;    3,227
995,451;  320,657;   -0,182;    0,318
996,000;  361,657;    1,636;    0,318
996,550;  372,202;    2,273;    0,227
997,100;  414,566;    1,273;   -0,045
997,649;  564,929;    2,182;    0,955
998,198;  373,475;    1,727;   -1,500
998,748;  497,475;    1,091;   -2,318
999,297;  418,475;   -0,818;   -0,409
999,846;  565,747;    1,000;   -0,773
1000,395;  463,838;   -0,818;    0,500
1000,945;  581,657;    1,818;   -0,773
1001,494;  591,111;    2,364;    0,682
1002,043;  568,475;    4,636;    0,864
1002,592;  367,929;   -1,091;    1,955
1003,141;  368,747;   -0,455;   -0,682
1003,690;  534,384;    1,727;    0,500
1004,238;  407,475;    1,455;   -0,045
1004,787;  315,657;    1,364;    1,227
1005,336;  515,838;    0,364;    0,682
1005,885;  458,384;    1,364;   -2,773
1006,433;  446,384;    0,545;    0,955
1006,982;  659,293;    0,455;    1,682
1007,531;  481,111;   -1,818;   -0,227
1008,079;  425,293;   -2,273;    0,500
1008,627;  368,111;   -1,455;    0,409
1009,176;  395,475;    0,000;   -1,955
1009,724;  340,747;    1,091;    0,864
1010,273;  507,111;    1,273;    0,500
1010,821;  378,929;    0,091;    1,409
1011,369;  335,202;   -1,364;    1,318
1011,917;  361,384;   -1,364;   -0,591
1012,465;  447,566;    1,273;   -1,591
1013,013;  440,566;    2,091;   -1,682
1013,561;  543,202;    0,455;   -0,773
1014,109;  643,293;   -1,909;    1,682
1014,657;  515,293;    0,364;    0,591
1015,205;  392,020;    1,636;   -0,955
1015,753;  335,475;   -0,545;   -1,409
1016,301;  424,747;   -2,636;    3,045
1016,848;  500,020;   -1,273;    0,409
1017,396;  504,475;    2,545;    0,045
1017,944;  493,384;    1,182;    1,864
1018,491;  393,929;    0,273;    1,409
1019,039;  735,747;    0,455;    0,591
1019,586;  469,475;   -1,364;    1,682
1020,134;  452,475;    0,455;    1,500
1020,681;  532,111;    0,182;   -1,136
1021,228;  429,747;    2,909;   -2,227
1021,776;  410,657;    1,182;   -1,136
1022,323;  653,020;    0,455;    0,773
1022,870;  559,747;   -1,000;   -0,045
1023,417;  618,111;    2,636;    1,864
1023,964;  427,111;    2,636;    1,227
1024,511;  402,566;    1,000;    0,773
1025,058;  436,202;    3,182;   -0,045
1025,605;  384,929;   -2,273;    3,136
1026,152;  620,838;    1,727;   -0,591
1026,699;  466,475;    1,818;    1,318
1027,245;  441,202;   -0,091;    0,318
1027,792;  375,020;   -1,000;    1,409
1028,339;  611,111;    2,364;   -0,045
1028,885;  460,747;    1,000;   -0,227
1029,432;  409,293;   -0,091;    0,227
1029,978;  525,111;   -1,000;   -1,591
1030,525;  518,566;    1,000;    0,409
1031,071;  379,475;   -1,364;    1,136
1031,618;  689,384;    0,364;    1,682
1032,164;  507,838;   -0,091;    3,045
1032,710;  554,929;    1,636;   -1,500
1033,256;  515,111;   -0,636;   -0,136
1033,803;  360,657;   -0,545;    1,500
1034,349;  215,202;   -1,364;    0,136
1034,895;  268,384;    0,000;   -0,318
1035,441;  349,566;   -0,818;    0,318
1035,987;  401,202;   -2,364;   -0,682
1036,533;  485,657;   -1,455;   -0,955
1037,078;  690,929;    1,455;    1,682
1037,624;  530,293;    2,455;   -0,955
1038,170;  384,838;    0,455;   -0,318
1038,716;  475,111;    1,636;   -0,409
1039,261;  345,293;   -2,273;   -0,773
1039,807;  365,566;   -0,091;    3,409
1040,352;  399,747;   -1,909;   -0,318
1040,898;  390,384;   -1,545;   -0,682
1041,443;  305,747;   -1,455;   -2,591
1041,989;  619,929;    1,091;    1,591
1042,534;  412,111;   -0,364;    2,591
1043,079;  298,020;    2,909;    0,955
1043,625;  415,475;    1,818;    0,500
1044,170;  435,747;   -1,364;    1,045
1044,715;  643,838;    2,455;    0,955
1045,260;  533,384;    2,182;   -0,955
1045,805;  370,475;    1,182;   -0,591
1046,350;  325,747;    1,364;   -0,409
1046,895;  525,929;    2,909;    1,591
1047,440;  520,020;    5,364;    0,409
1047,985;  380,747;    2,818;   -0,955
1048,530;  336,293;    1,545;    1,227
1049,074;  407,929;    0,000;    0,318
1049,619;  347,020;   -1,364;    1,955
1050,164;  329,747;    0,455;    0,227
1050,708;  416,929;   -0,455;    0,045
1051,253;  671,838;    1,273;   -2,227
1051,797;  465,384;    0,818;   -1,318
1052,342;  289,657;   -1,182;    1,045
1052,886;  394,020;    0,364;   -1,409
1053,430;  273,202;   -1,364;    0,136
1053,975;  374,838;   -0,818;   -0,318
1054,519;  382,657;   -0,727;    3,227
1055,063;  461,475;    0,909;    1,318
1055,607;  442,293;   -0,182;    0,227
1056,151;  429,838;    2,909;    1,682
1056,695;  336,838;    2,273;   -1,136
1057,239;  335,111;   -1,727;   -0,682
1057,783;  383,111;    0,818;   -1,500
1058,327;  448,111;    0,000;    1,409
1058,871;  600,929;   -0,545;    1,318
1059,415;  466,020;   -0,818;   -0,045
1059,958;  629,020;    1,455;    2,591
1060,502;  387,020;   -1,000;   -0,773
1061,046;  274,111;    0,364;   -0,955
1061,589;  255,838;   -3,000;   -1,136
1062,133;  228,202;   -1,273;    1,864
1062,676;  276,202;    1,182;    0,864
1063,220;  312,657;    1,091;    0,500
1063,763;  343,475;    0,909;    1,136
1064,306;  372,384;   -0,909;    1,864
1064,849;  369,293;   -0,909;    0,591
1065,393;  344,384;    2,000;   -1,500
1065,936;  350,111;    0,182;   -0,409
1066,479;  265,384;   -1,455;    1,318
1067,022;  298,202;   -0,273;   -0,227
1067,565;  261,020;   -0,091;   -1,318
1068,108;  231,475;    0,727;   -0,591
1068,651;  200,384;   -0,636;    1,409
1069,194;  215,657;   -0,455;   -1,682
1069,736;  239,202;   -1,273;    0,955
1070,279;  207,657;   -1,364;   -0,500
1070,822;  308,838;   -2,000;   -0,318
1071,364;  437,293;   -0,364;    1,318
1071,907;  287,202;   -0,727;    3,227
1072,450;  140,111;    0,000;   -0,045
1072,992;  222,202;   -0,273;    3,136
1073,535;  302,020;    2,091;    2,136
1074,077;  212,929;   -0,727;    2,045
1074,619;  208,384;   -1,364;    0,591
1075,161;  243,020;   -1,091;    1,500
1075,704;  371,657;    1,545;    1,227
1076,246;  221,747;   -0,182;    0,682
1076,788;  157,657;   -0,364;    1,773
1077,330;  164,384;    1,273;    2,136
1077,872;  209,202;    0,909;    0,955
1078,414;  391,202;    2,727;    0,773
1078,956;  239,838;    1,273;   -0,227
1079,498;  382,020;    1,636;    0,318
1080,040;  238,384;    1,909;   -1,318
1080,581;  197,475;    1,636;   -0,318
1081,123;  136,293;    0,091;   -0,773
1081,665;  154,747;   -1,182;   -0,955
1082,206;  351,747;    1,364;   -0,500
1082,748;  263,293;    0,727;    2,045
1083,289;  167,657;   -2,000;    1,318
1083,831;  158,384;   -0,545;    0,227
1084,372;  209,657;    0,000;    0,591
1084,913;  207,384;    1,091;    0,864
1085,455;  151,020;   -1,909;   -2,045
1085,996;  154,111;   -2,273;    0,136
1086,537;  186,111;   -0,091;    0,864
1087,078;  196,838;   -0,909;   -2,136
1087,619;  248,566;   -1,273;    0,227
1088,160;  203,747;    0,000;    1,318
1088,701;  185,020;   -1,091;    0,682
1089,242;  168,384;    1,364;   -2,227
1089,783;  223,475;   -0,273;    1,409
1090,324;  201,293;    0,455;    0,682
1090,865;  139,293;    2,727;   -0,409
1091,405;  110,747;    0,727;    2,227
1091,946;  156,020;    0,182;   -0,955
1092,487;  101,384;    0,818;   -1,409
1093,027;  227,020;   -1,364;   -1,500
1093,568;  154,657;   -0,364;    1,227
1094,108;  193,566;    0,273;    1,773
1094,649;  155,384;   -1,182;    0,136
1095,189;  124,384;   -0,636;   -0,682
1095,729;  126,020;   -0,091;    0,955
1096,269;  113,838;    0,727;   -0,955
1096,810;  274,020;   -1,364;    0,500
1097,350;  212,838;    1,364;   -0,773
1097,890;  163,384;    0,364;    1,227
1098,430;  328,929;    2,364;    2,864
1098,970;  255,747;    2,182;    1,682
1099,510;  142,293;    0,545;   -2,318
1100,050;  124,747;    1,000;   -1,591
1100,589;  131,929;   -0,727;   -0,318
1101,129;  183,838;    0,818;   -0,955
1101,669;  273,202;    1,727;    2,136
1102,209;  187,838;   -0,091;    2,227
1102,748;  161,929;    0,000;    0,955
1103,288;  162,475;    1,273;   -1,227
1103,827;  152,657;    3,091;   -2,227
1104,367;  115,566;   -0,091;   -2,409
1104,906;  112,475;    1,364;   -1,136
1105,445;  162,566;    0,636;   -1,136
1105,985;  136,838;   -0,727;    1,500
1106,524;  150,566;   -1,727;   -0,682
1107,063;  137,838;   -2,727;    1,409
1107,602;  111,384;   -1,909;   -1,500
1108,141;   92,020;   -1,909;    1,500
1108,680;  160,384;   -3,455;   -0,591
1109,219;  128,384;   -0,909;   -0,500
1109,758;  114,566;    0,455;    0,682
1110,297;  115,111;    1,000;   -0,682
1110,836;   84,202;   -0,727;    0,955
1111,375;  127,929;   -2,545;    0,409
1111,913;  161,202;   -1,000;    0,773
1112,452;  135,838;   -0,273;    0,136
1112,991;   81,202;    1,091;    1,955
1113,529;   83,293;   -0,818;   -0,045
1114,068;  115,566;   -0,273;    2,955
1114,606;   80,202;   -0,364;   -0,955
1115,144;  149,929;   -1,273;    1,045
1115,683;  112,838;   -0,727;    0,318
1116,221;  144,020;   -0,455;   -0,864
1116,759;   95,838;    0,636;   -0,864
1117,297;  183,929;    0,000;    1,864
1117,836;  103,202;   -2,182;   -1,227
1118,374;  105,111;    0,182;   -0,682
1118,912;  107,475;    0,909;    2,682
1119,450;   99,747;    1,000;    0,864
1119,988;  103,202;    1,545;    2,136
1120,525;  373,657;    5,091;    3,318
1121,063;  199,202;    1,182;    1,864
1121,601;  105,475;   -0,909;   -1,227
1122,139;   85,202;   -0,727;   -2,045
1122,676;  190,929;   -0,727;    2,773
1123,214;  161,566;   -1,182;    4,409
1123,751;   79,566;    1,727;    2,227
1124,289;  120,111;   -0,091;   -0,409
1124,826;   85,747;    1,727;    0,227
1125,364;   42,566;    1,727;   -0,955
1125,901;  146,838;    1,182;    1,227
1126,438;  159,657;    0,818;    0,955
1126,975;   49,566;   -0,727;   -0,773
1127,513;   73,475;    0,273;    2,136
1128,050;   52,657;    1,636;   -0,682
1128,587;   87,293;    2,000;   -0,227
1129,124;  108,838;    0,091;    1,318
1129,661;   58,838;    0,273;    0,227
1130,198;  139,657;    1,636;    0,773
1130,734;  101,293;    0,182;    1,409
1131,271;   47,020;   -0,909;    0,864
1131,808;  120,475;    2,909;    3,045
1132,345;   71,566;    1,545;    0,318
1132,881;   25,566;   -1,545;   -1,864
1133,418;   78,111;    0,727;   -1,136
1133,954;   55,202;    2,455;   -2,682
1134,491;   85,929;    1,364;   -0,773
1135,027;   48,384;    2,364;    0,864
1135,564;   86,202;    0,273;    2,955
1136,100;   73,475;    0,364;    2,136
1136,636;   39,566;   -1,273;   -1,045
1137,172;   68,838;    0,000;   -1,045
1137,708;   48,657;   -1,364;   -1,045
1138,245;   42,657;    1,273;   -1,227
1138,781;   27,929;    1,091;   -3,318
1139,317;   51,293;    1,273;   -1,409
1139,852;   59,657;    3,091;    0,136
1140,388;   87,475;   -1,182;   -0,409
1140,924;   48,293;   -1,091;   -2,227
1141,460;   28,475;   -1,636;    0,136
1141,996;   20,202;   -1,364;    2,682
1142,531;   32,475;    1,364;    3,318
1143,067;  112,929;    1,182;    1,045
1143,602;  140,020;   -0,091;   -0,318
1144,138;   70,747;   -2,636;    1,045
1144,673;   30,293;   -1,455;    1,409
1145,209;   47,747;   -1,909;   -0,318
1145,744;   26,384;   -0,727;    0,864
1146,279;   71,020;    1,818;   -0,136
1146,815;   41,384;    1,545;   -2,682
1147,350;   59,475;   -1,364;    0,045
1147,885;   27,929;   -0,818;   -1,318
1148,420;   25,293;   -2,273;    0,773
1148,955;   26,838;   -1,727;    1,864
1149,490;   30,384;   -0,909;   -1,591
1150,025;   18,929;    0,455;   -1,773
1150,560;   63,929;    1,091;   -0,955
1151,094;   47,657;    1,455;   -0,591
1151,629;   45,657;    1,636;    0,864
1152,164;   27,747;    1,364;    1,318
1152,698;   23,293;   -0,182;   -0,136
1153,233;    9,929;    0,091;   -0,682
1153,767;   22,384;   -3,000;   -2,318
1154,302;   39,111;   -1,455;    1,773
1154,836;   35,566;   -0,455;   -2,136
1155,371;   47,657;   -1,364;    3,682
1155,905;   29,747;   -0,636;    1,682
1156,439;   28,566;   -0,636;   -0,500
1156,973;   43,020;    0,364;    0,318
1157,507;   19,929;   -0,364;    0,682
1158,042;   28,384;   -0,727;    1,045
1158,576;   35,475;    0,182;    1,773
1159,110;   39,111;   -0,818;    2,409
1159,643;   30,929;    0,636;   -0,045
1160,177;   14,293;   -1,545;    1,500

