
Integration time [ms]:   0,040
Averaging Nr. [scans]: 11
Smoothing Nr. [pixels]: 0
Data measured with spectrometer [name]: 7318044SP
Wave   ;Sample   ;Dark     ;Reference
[nm]   ;[counts] ;[counts] ;[counts] 

186,757;   28,093;   31,551;    1,318
187,357;   18,363;   22,551;    0,955
187,958;   13,636;   15,460;   -1,591
188,558;   11,820;    8,915;   -1,227
189,159;    7,273;    6,733;   -4,500
189,759;    7,545;    7,278;   -3,591
190,360;    6,997;    2,824;   -2,136
190,960;    5,539;    2,915;   -4,136
191,560;    3,350;    3,189;   -6,591
192,161;    5,154;    4,372;   -3,500
192,761;    4,140;    4,010;   -3,227
193,361;    4,048;    1,556;   -3,773
193,962;    2,328;    2,010;   -2,682
194,562;    0,438;    1,189;   -3,955
195,162;   -0,190;   -2,448;   -2,227
195,762;    2,724;   -3,176;   -0,045
196,362;    0,907;    1,370;   -2,500
196,963;   -0,729;    2,006;   -0,864
197,563;    0,002;    1,551;   -0,955
198,163;    0,731;    0,096;   -0,682
198,763;    5,458;    1,733;   -0,500
199,363;    4,094;    3,096;   -0,500
199,963;    3,824;    0,369;    0,409
200,563;    6,734;    2,823;   -1,409
201,163;    2,462;    3,277;   -0,227
201,763;    2,371;    3,732;    0,318
202,363;    3,735;    1,459;    1,500
202,963;    2,645;    1,459;    1,045
203,563;    1,463;    0,277;    0,500
204,162;   -0,355;    2,096;   -1,864
204,762;    4,194;    0,550;    0,591
205,362;    2,192;    3,004;    1,955
205,962;    2,462;    3,096;    1,955
206,562;    3,283;    1,823;    2,318
207,161;    1,649;   -0,087;    0,318
207,761;    1,464;    1,277;    2,409
208,361;    0,463;   -0,268;    1,409
208,960;    0,828;    0,459;    1,500
209,560;    2,376;    1,277;    1,591
210,160;    2,375;    0,550;    1,864
210,759;    2,374;    4,186;    1,227
211,359;    5,013;    1,459;    1,045
211,958;    6,829;    1,277;    2,045
212,558;    5,647;    1,732;    1,864
213,157;    1,193;    1,822;    1,500
213,757;    8,286;    3,822;   -0,227
214,356;    3,467;    1,277;   -0,409
214,956;    6,465;    3,095;    0,409
215,555;    3,650;    2,095;    2,136
216,154;    4,741;   -2,723;   -0,591
216,754;    2,196;    0,277;    0,773
217,353;    1,921;   -0,268;   -1,045
217,952;   -0,803;   -0,178;    0,318
218,552;    5,379;    1,368;   -0,773
219,151;    0,380;    0,277;    0,955
219,750;    2,472;    0,004;   -0,227
220,349;    1,470;   -0,451;    1,045
220,948;    3,108;   -1,360;    1,136
221,548;    0,015;    0,913;    1,227
222,147;    0,833;   -0,087;   -0,409
222,746;    3,835;   -0,451;   -0,955
223,345;    2,653;    0,731;    0,500
223,944;    4,561;   -0,451;    0,773
224,543;    4,378;    1,004;   -1,409
225,142;    3,109;    0,094;    0,136
225,741;    2,198;   -0,814;    1,045
226,340;    3,653;   -0,451;   -0,955
226,939;    4,651;   -0,996;   -0,136
227,538;    3,834;   -0,360;   -0,773
228,137;    7,741;   -0,814;    0,864
228,735;    2,287;   -0,541;    1,227
229,334;    1,923;   -0,905;   -0,227
229,933;    6,559;    0,459;    0,591
230,532;    6,558;    1,186;   -0,409
231,131;   10,285;    1,732;    0,318
231,729;    4,013;   -2,450;   -2,318
232,328;    5,104;   -0,723;   -1,500
232,927;    4,467;    1,004;   -0,500
233,525;    3,379;    3,640;    0,045
234,124;    6,013;    2,368;   -1,591
234,723;    3,832;    0,913;   -1,045
235,321;    4,196;    2,277;    0,136
235,920;    1,468;    1,186;   -1,227
236,518;    7,560;    3,459;    0,318
237,117;    4,015;    0,004;   -0,227
237,715;    4,650;    0,640;   -0,500
238,314;    2,650;   -0,087;   -2,318
238,912;    9,377;   -0,723;   -1,409
239,510;    3,558;    0,459;   -1,227
240,109;    6,466;    0,004;    3,773
240,707;    7,921;   -0,996;    1,227
241,305;    2,285;    0,550;    0,136
241,904;    4,830;   -0,178;   -2,045
242,502;   10,740;   -0,632;   -0,227
243,100;    6,468;   -0,087;   -0,955
243,698;    2,830;    0,732;    1,682
244,297;    6,196;   -0,632;    0,682
244,895;    4,196;   -0,269;   -2,318
245,493;    8,652;    2,186;   -0,591
246,091;   12,288;    1,368;   -1,318
246,689;    9,924;    1,004;    0,591
247,287;    6,742;    0,822;   -1,136
247,885;    2,198;   -1,451;    1,227
248,483;    3,924;    1,822;   -0,500
249,081;    5,927;    0,185;    1,591
249,679;    4,108;   -0,178;    1,682
250,277;    4,379;   -1,723;    0,864
250,875;    7,923;   -1,087;   -1,045
251,473;    4,288;   -1,178;    0,500
252,071;    9,469;    1,459;    1,045
252,669;    5,197;   -1,814;    0,318
253,267;    2,836;   -0,087;    0,773
253,864;    4,197;   -0,360;    0,682
254,462;    8,743;    1,640;    1,591
255,060;    3,288;   -0,269;    1,318
255,658;    3,106;    0,822;   -0,136
256,255;    3,833;    0,186;   -2,045
256,853;    3,653;   -0,269;    1,409
257,451;    4,651;    0,822;    1,864
258,048;   23,833;    1,822;    1,864
258,646;   10,379;    1,731;   -1,045
259,243;   12,471;   -0,087;    2,227
259,841;    8,834;   -0,814;    0,318
260,438;    4,925;   -0,087;    0,864
261,036;    6,377;   -1,905;    1,409
261,633;    3,379;   -0,087;    2,227
262,231;    2,561;    2,731;   -0,045
262,828;    2,559;   -0,905;    1,136
263,425;    3,469;    0,913;   -0,591
264,023;    2,652;    0,186;    0,045
264,620;    9,288;   -0,360;   -0,318
265,217;   11,379;   -2,087;    3,136
265,815;    4,108;   -1,905;    2,136
266,412;    6,197;    0,731;    0,136
267,009;    7,106;   -1,451;    0,773
267,606;   10,198;    0,822;   -0,955
268,203;    4,378;   -0,269;   -0,591
268,801;    3,288;    1,731;    0,591
269,398;    2,744;   -0,360;    2,500
269,995;    6,377;    0,277;    1,591
270,592;    4,286;   -0,632;   -0,500
271,189;    0,471;    0,186;    0,409
271,786;    2,469;   -0,632;    1,227
272,383;    7,378;   -1,087;    0,227
272,980;    4,924;    0,277;    0,318
273,577;    5,104;    0,004;    1,227
274,174;    3,013;    0,822;    2,591
274,771;    6,743;   -0,814;   -0,773
275,367;   32,649;    2,277;    1,409
275,964;   12,105;    0,731;   -0,500
276,561;    4,107;    1,549;   -1,045
277,158;    2,381;    0,095;   -1,773
277,755;   10,199;    2,185;    0,409
278,351;    6,925;   -0,451;   -1,500
278,948;    7,290;   -0,815;    0,045
279,545;    5,562;   -1,360;    2,318
280,141;   11,378;   -1,723;   -2,045
280,738;   11,379;   -0,451;   -0,136
281,334;    5,562;   -1,633;    0,591
281,931;    5,110;   -0,087;   -1,318
282,528;   10,473;    0,822;   -0,500
283,124;   11,834;   -1,087;   -0,500
283,721;   12,018;   -0,451;    1,409
284,317;    4,655;    0,185;    2,500
284,913;   11,019;   -1,360;    0,591
285,510;   13,019;    0,640;   -0,318
286,106;   11,018;   -2,269;   -0,955
286,703;    4,926;   -0,360;    1,955
287,299;    5,379;   -1,451;   -0,591
287,895;    4,743;    0,822;   -1,045
288,491;    4,562;    0,186;    2,136
289,088;    4,835;   -2,360;    2,409
289,684;    6,561;   -1,723;    1,500
290,280;   12,469;    0,368;    0,682
290,876;    9,288;    1,822;    5,500
291,472;    9,654;    1,276;    2,227
292,068;    7,927;    1,367;    0,227
292,665;    8,743;    2,095;    0,773
293,261;    3,744;    0,276;    2,136
293,857;    8,469;    2,913;    2,136
294,453;    6,014;    3,550;    0,955
295,049;   13,919;   -0,268;    1,955
295,644;    7,375;    0,095;    0,136
296,240;    2,556;   -0,905;   -0,136
296,836;    5,554;   -0,995;    0,318
297,432;    7,462;    1,096;   -0,500
298,028;    9,281;    0,732;    0,773
298,624;    6,737;    1,459;    1,864
299,220;    8,372;    2,368;    0,591
299,815;    5,464;    1,005;   -0,409
300,411;    6,101;    0,914;    1,773
301,007;    5,735;    1,368;    0,227
301,602;    1,827;   -0,541;   -2,318
302,198;   12,280;    0,732;   -0,773
302,794;    7,554;    1,187;   -0,500
303,389;    4,645;   -1,177;    1,045
303,985;    4,918;    0,550;    1,409
304,580;   15,917;    1,459;    1,591
305,176;    8,192;   -3,086;    0,136
305,771;    0,738;   -1,268;   -1,227
306,367;   24,556;    4,095;    0,136
306,962;    8,191;    0,641;    1,500
307,558;    7,100;   -0,450;    0,136
308,153;    5,737;    1,095;   -1,136
308,748;    2,464;   -0,814;    1,682
309,344;   16,556;   -0,632;   -1,318
309,939;   13,556;   -1,905;   -1,318
310,534;    5,102;   -0,086;   -1,682
311,130;    4,100;    0,459;   -2,500
311,725;    5,647;    1,004;   -0,500
312,320;    5,827;    2,459;    0,045
312,915;    7,374;    1,459;   -1,045
313,510;   17,374;    1,550;   -0,500
314,105;    6,644;    1,096;    1,409
314,700;    2,008;   -3,086;   -1,045
315,295;    3,008;   -0,904;    0,045
315,890;    2,009;    1,277;    0,864
316,485;    7,283;   -0,359;   -0,318
317,080;    6,191;   -3,086;    1,591
317,675;   18,100;    2,005;   -0,682
318,270;   35,553;    5,550;    3,318
318,865;   17,280;    3,278;    3,045
319,460;   11,009;   -0,904;    0,591
320,055;    7,097;   -0,541;   -1,227
320,650;    5,370;   -1,995;   -0,591
321,244;    4,280;   -0,177;   -1,409
321,839;    2,463;   -1,541;   -0,227
322,434;    4,737;   -1,086;   -1,591
323,029;    3,371;    1,732;    1,591
323,623;    1,464;    1,550;    0,773
324,218;   15,007;    2,368;    1,409
324,812;   10,008;    1,096;    1,591
325,407;    8,100;   -0,814;    2,045
326,002;   18,373;    0,277;   -0,409
326,596;   10,826;    0,914;    1,318
327,191;    6,918;    0,823;   -1,045
327,785;    7,190;   -0,813;   -0,227
328,379;    4,645;    1,368;    0,136
328,974;    3,282;    0,914;   -3,955
329,568;    6,190;    0,186;   -2,409
330,163;   13,280;    2,096;    1,045
330,757;    5,010;    2,459;    1,591
331,351;    2,737;    0,459;    0,682
331,945;    4,463;    0,914;    1,409
332,540;    6,919;   -1,723;   -0,591
333,134;    6,829;   -1,086;    0,773
333,728;   10,101;    0,005;    0,318
334,322;    3,554;   -1,177;   -0,864
334,916;    4,739;    0,277;    0,955
335,510;    8,282;   -0,450;   -0,136
336,105;    7,100;   -1,086;    1,591
336,699;    2,192;   -1,086;    0,591
337,293;    4,648;   -1,723;    0,318
337,887;    0,282;   -2,723;    1,955
338,481;    3,464;    0,459;    0,591
339,074;   11,466;   -0,359;    2,682
339,668;    8,920;   -1,632;    1,227
340,262;   50,193;    1,732;    3,227
340,856;   22,921;    1,822;   -0,682
341,450;    4,831;    1,004;    1,864
342,044;    4,102;    1,459;    0,136
342,637;    9,557;    0,913;   -2,136
343,231;    4,379;   -2,360;    0,682
343,825;    3,828;   -1,086;   -0,591
344,419;    5,554;   -1,995;    0,500
345,012;   38,008;    2,459;    4,045
345,606;   18,462;    4,641;    1,591
346,199;    6,189;   -1,813;   -0,227
346,793;    9,279;    1,914;    2,045
347,386;    6,736;   -0,813;   -1,136
347,980;    3,005;   -0,268;   -0,045
348,573;    6,277;    2,278;    0,409
349,167;   30,821;    5,278;    4,773
349,760;   14,003;    2,914;    2,682
350,354;    7,909;   -0,813;    1,136
350,947;   12,365;    1,096;    1,682
351,540;    7,910;   -0,358;   -1,409
352,134;    1,730;    1,096;    1,136
352,727;    2,187;   -0,086;    1,136
353,320;    4,094;    0,005;    0,591
353,913;    1,186;   -1,995;    1,864
354,507;    7,277;    0,823;   -1,227
355,100;    1,549;    0,460;    0,864
355,693;   28,365;    2,005;    2,409
356,286;   11,367;    0,823;    2,773
356,879;    5,185;   -0,722;    1,227
357,472;    4,458;   -0,904;    1,500
358,065;    6,911;   -0,722;    2,500
358,658;    1,458;   -0,540;    2,318
359,251;    0,276;   -1,631;   -0,591
359,844;    7,093;   -1,904;   -1,136
360,437;    9,550;   -2,995;    0,045
361,030;    5,003;    1,369;   -0,682
361,623;    4,911;    2,824;    0,318
362,215;   14,457;   -0,086;    2,045
362,808;    6,003;   -2,358;   -1,682
363,401;    3,274;   -2,449;    0,136
363,994;   14,455;   -0,631;   -1,500
364,586;    7,998;    0,824;   -1,500
365,179;    6,179;   -0,449;   -1,136
365,772;   -0,271;   -1,995;    2,045
366,364;    3,816;    1,915;   -3,227
366,957;    2,994;    2,279;   -0,045
367,549;    4,175;    2,188;   -0,864
368,142;    4,446;    1,825;   -1,500
368,734;    2,534;    0,734;   -2,136
369,327;    1,169;    1,643;   -0,500
369,919;    2,257;   -1,538;    0,409
370,512;    4,163;   -1,083;   -0,500
371,104;   17,338;   -0,901;    1,591
371,696;   17,240;    1,191;   -0,955
372,289;    6,326;    0,373;    1,136
372,881;    4,955;   -2,080;    1,318
373,473;    2,675;   -2,170;    1,136
374,066;    2,845;   -0,169;    0,500
374,658;    4,737;    0,378;    1,136
375,250;    3,904;    0,653;   -1,409
375,842;    3,250;    0,473;   -0,045
376,434;   -0,219;   -0,435;   -0,409
377,026;    1,853;    0,204;   -2,500
377,618;    5,835;   -0,158;   -0,682
378,210;    2,909;   -0,338;   -1,955
378,802;    3,443;    0,754;   -0,591
379,394;   16,888;    1,846;    0,682
379,986;    7,881;    1,393;   -0,955
380,578;    3,334;   -0,153;    0,773
381,170;   12,886;   -0,972;    0,045
381,762;    7,623;    0,755;    1,409
382,354;    5,727;   -0,065;   -1,318
382,945;    2,558;   -2,976;    0,318
383,537;    3,118;   -2,705;   -1,955
384,129;    3,039;   -2,160;   -1,136
384,721;    3,589;   -0,252;    0,955
385,312;    3,501;   -0,161;   -0,955
385,904;    7,044;   -2,706;    1,591
386,496;    4,951;   -0,979;    1,045
387,087;   13,401;    1,022;    2,500
387,679;    8,490;   -1,160;    0,045
388,270;    6,397;    2,840;    2,045
388,862;    6,580;    1,295;   -0,318
389,453;    7,852;   -0,887;    1,045
390,045;    7,852;   -0,705;   -2,682
390,636;    2,577;    0,204;   -0,591
391,227;    3,852;   -0,523;   -0,045
391,819;    2,217;    0,204;    0,773
392,410;   16,037;    1,022;    0,045
393,001;    5,042;   -0,979;   -1,591
393,593;    4,680;    1,930;   -0,045
394,184;    8,770;    1,385;   -0,409
394,775;    3,770;    1,839;    2,136
395,366;    1,131;    1,385;    0,773
395,957;    6,037;    0,113;    0,136
396,548;    2,585;   -0,342;    2,682
397,139;    7,127;   -2,433;    0,591
397,730;    5,313;   -1,888;    0,955
398,321;    6,951;   -1,252;    0,955
398,912;    5,133;   -0,615;    0,136
399,503;    2,315;   -3,524;   -1,409
400,094;    3,316;    0,294;    1,682
400,685;    2,496;   -0,433;    0,045
401,276;    3,586;    0,930;   -0,955
401,867;    1,951;   -0,888;    0,773
402,458;    1,586;   -2,251;   -2,318
403,048;    4,224;    1,112;    0,591
403,639;    3,313;    0,840;    0,864
404,230;    7,770;    2,476;    0,318
404,821;   11,133;   -0,615;    0,045
405,411;    6,316;    1,203;   -2,591
406,002;    3,861;   -1,252;   -1,136
406,592;   17,317;    2,294;    0,045
407,183;    8,501;    0,566;   -1,500
407,774;    7,955;    3,475;   -0,136
408,364;    4,318;    0,930;    0,409
408,954;    8,228;    0,384;    1,227
409,545;   10,864;    1,021;    1,045
410,135;    8,139;    1,293;    0,500
410,726;    2,961;    1,838;    0,318
411,316;   14,140;    0,111;    0,773
411,906;    6,141;   -0,253;   -0,409
412,497;    5,502;   -1,070;   -0,045
413,087;    9,230;   -1,980;   -0,227
413,677;    2,415;   -0,707;    3,864
414,267;    4,506;    0,656;    1,409
414,857;    3,597;   -2,980;    4,227
415,448;    5,230;    0,839;    0,500
416,038;    4,867;    0,020;   -0,591
416,628;    5,960;   -0,889;    0,409
417,218;    2,689;    0,565;    3,318
417,808;   11,598;    0,202;   -0,409
418,398;   11,235;    0,020;    2,682
418,988;    4,962;    2,020;    0,591
419,578;   10,961;   -0,707;    1,409
420,168;    5,687;   -1,343;   -0,955
420,757;    8,685;   -1,343;   -1,500
421,347;    5,509;    0,111;   -0,227
421,937;    3,054;    2,292;    1,409
422,527;    7,146;    0,838;   -0,773
423,116;   19,053;   -0,253;   -0,045
423,706;    8,054;   -1,889;    0,318
424,296;    4,326;    1,384;    0,682
424,885;    7,781;   -0,071;   -3,045
425,475;    5,236;    1,474;   -2,864
426,065;    3,418;   -0,980;   -0,318
426,654;    1,785;   -0,435;   -0,318
427,244;   17,328;    0,020;    1,409
427,833;   14,145;    1,383;   -0,500
428,423;    8,693;   -0,526;    1,136
429,012;    8,059;   -0,344;   -1,136
429,601;   11,787;   -1,344;    0,136
430,191;    8,058;    1,292;    4,318
430,780;    4,239;   -0,344;   -0,409
431,369;   12,605;    0,746;   -0,045
431,959;    5,787;   -1,254;    0,500
432,548;    2,788;   -1,163;   -0,045
433,137;    2,698;   -1,254;   -1,318
433,726;    2,970;    0,292;    0,500
434,315;    6,607;   -0,526;    2,409
434,905;   12,428;   -1,254;    1,409
435,494;   10,154;    0,746;    0,955
436,083;    2,879;   -0,981;   -0,955
436,672;   12,516;    0,110;    0,500
437,261;    5,972;    0,292;   -1,955
437,850;   16,153;    1,383;    0,682
438,439;   20,974;    3,291;    1,955
439,027;   38,066;    3,655;    1,773
439,616;   26,522;    2,927;    1,227
440,205;    8,611;    0,200;   -2,136
440,794;    6,704;    2,109;   -0,045
441,383;    3,978;   -1,346;   -0,591
441,971;    5,433;   -2,436;    0,591
442,560;    6,889;    0,563;   -1,773
443,149;   -1,545;    0,379;   -1,318
443,737;   -0,106;   -0,074;   -2,318
444,326;    3,071;    0,018;    0,318
444,915;    1,434;   -1,982;    0,864
445,503;    6,888;   -2,891;   -0,318
446,092;   43,525;    0,382;    2,136
446,680;   29,072;    0,382;    0,318
447,269;   11,163;   -0,346;   -0,318
447,857;   10,983;    0,018;   -1,773
448,445;    7,892;    0,563;    1,318
449,034;    5,437;   -1,528;   -1,136
449,622;    4,892;   -1,073;    3,500
450,210;   20,804;    2,017;    2,227
450,799;   14,350;    0,290;   -0,591
451,387;   17,260;    1,381;   -0,591
451,975;   13,259;    2,654;    0,864
452,563;   18,258;    3,472;    2,318
453,151;    9,351;   -0,528;   -1,227
453,739;    7,990;   -1,347;    0,136
454,328;   11,353;    2,381;   -2,136
454,916;   11,536;    2,562;   -0,136
455,504;   15,080;    1,017;    1,227
456,092;    7,352;    0,017;   -1,591
456,679;    6,352;    1,472;    0,682
457,267;   46,172;    4,017;    1,045
457,855;   18,627;    1,017;    1,409
458,443;    1,992;   -0,165;    1,682
459,031;    8,446;    0,108;    2,409
459,619;    8,445;   -1,801;    2,864
460,206;    3,173;    0,835;    2,045
460,794;    3,628;   -2,983;   -0,227
461,382;    3,449;   -0,529;   -0,864
461,970;    6,540;    1,198;    1,864
462,557;    3,176;   -0,711;   -0,682
463,145;    6,630;   -3,165;   -1,682
463,732;   32,632;    2,016;   -1,045
464,320;   11,997;   -0,075;   -3,045
464,907;   20,178;    2,743;   -0,773
465,495;   10,818;    0,743;   -1,227
466,082;    9,997;   -1,984;   -0,045
466,670;   11,270;   -2,529;    1,227
467,257;    5,544;   -1,711;    2,045
467,844;    8,726;   -0,075;    0,045
468,432;    6,181;    0,834;    3,500
469,019;    5,001;    0,925;   -1,773
469,606;   12,545;    0,470;    3,682
470,193;   10,730;   -1,439;    0,227
470,780;    8,091;   -2,075;    0,864
471,368;    4,820;   -1,257;   -0,773
471,955;    8,910;    1,379;   -0,682
472,542;    5,367;    0,652;   -1,136
473,129;    2,456;   -0,166;    0,136
473,716;    3,910;    1,470;    0,591
474,303;    4,910;    0,652;   -0,864
474,890;    3,550;   -1,439;   -0,500
475,477;   11,733;   -1,621;    0,409
476,064;    4,735;    1,106;   -1,591
476,650;   16,096;    0,288;    0,318
477,237;    8,369;   -0,258;    0,955
477,824;    7,915;   -1,076;    0,864
478,411;    4,733;   -1,894;   -0,318
478,997;    0,553;    0,560;   -0,773
479,584;    0,191;    1,196;   -0,409
480,171;    8,009;   -0,440;   -0,773
480,757;   10,556;    2,651;    0,773
481,344;    5,009;    0,469;    0,409
481,931;    4,469;    1,105;    1,045
482,517;    7,012;   -1,258;    0,318
483,104;   15,373;    1,106;    2,864
483,690;    5,464;   -1,804;    0,045
484,276;    6,375;   -0,895;    0,227
484,863;   24,829;    2,469;    1,136
485,449;    9,740;   -0,077;    0,318
486,035;    5,467;   -1,986;   -0,136
486,622;   12,011;   -0,895;    0,045
487,208;    4,467;    1,378;    1,500
487,794;    3,105;    0,741;    0,318
488,380;    3,105;    0,105;   -1,409
488,967;    0,563;   -1,168;   -0,409
489,553;    3,925;   -1,895;   -1,409
490,139;    8,380;    1,559;    0,773
490,725;    3,835;    0,741;   -0,227
491,311;    6,289;    3,287;    3,045
491,897;    3,380;   -0,986;    1,500
492,483;    2,835;    0,105;    1,227
493,069;   48,289;    3,923;    0,864
493,655;   21,109;    1,650;    0,682
494,241;    5,472;    1,377;   -0,955
494,826;    7,016;    0,287;   -1,045
495,412;   11,289;    2,559;   -0,682
495,998;    7,565;   -0,805;   -0,318
496,584;    9,837;    0,377;    1,045
497,169;   10,020;    1,014;   -0,682
497,755;    4,295;    0,650;    1,227
498,341;   16,201;    0,559;    0,318
498,926;   24,202;    1,832;    1,955
499,512;    8,390;    1,286;    2,955
500,097;    5,569;    0,195;   -0,318
500,683;    5,296;   -0,350;    2,136
501,268;    3,932;   -0,169;   -0,955
501,854;    5,933;   -0,169;    1,227
502,439;    6,117;   -0,624;   -1,773
503,024;    6,752;    0,195;    0,500
503,610;    4,479;   -0,078;   -0,682
504,195;    2,934;    0,558;    1,955
504,780;   13,205;    2,922;    1,227
505,366;   23,478;    3,013;    2,864
505,951;   11,300;    0,740;    1,045
506,536;    7,118;   -3,260;   -3,682
507,121;   11,117;    0,285;   -0,318
507,706;    7,027;    2,376;    1,045
508,291;    3,846;    2,649;    1,136
508,876;    5,032;   -0,988;    2,591
509,461;    4,212;   -0,169;   -0,773
510,046;    8,757;    0,194;    0,318
510,631;   10,483;   -0,351;   -0,773
511,216;    4,212;    2,467;   -0,500
511,801;   10,482;   -0,442;    2,591
512,386;   10,757;    0,740;    0,500
512,971;    6,395;   -2,988;    0,955
513,555;    5,485;   -0,897;   -1,500
514,140;    5,394;   -0,442;   -3,136
514,725;   21,033;   -0,715;   -1,136
515,309;   13,396;   -0,533;    0,318
515,894;    6,123;   -0,624;   -2,227
516,479;    8,760;   -0,624;   -0,955
517,063;    7,487;    0,376;    1,227
517,648;    2,578;    1,012;   -1,136
518,232;    2,127;   -0,261;   -1,409
518,817;    6,036;   -0,079;    1,682
519,401;   14,127;    2,194;    0,591
519,985;   11,217;    1,103;    1,136
520,570;    4,491;    0,830;   -1,955
521,154;    7,219;    2,102;    0,591
521,738;   11,949;   -2,352;    2,409
522,323;    8,128;   -0,170;    1,682
522,907;    4,312;    0,466;   -0,136
523,491;    4,858;    0,557;    0,955
524,075;    3,949;    2,284;    0,591
524,659;   14,311;    1,466;    0,591
525,243;    7,221;    1,739;    0,409
525,827;    5,676;    0,648;   -0,045
526,411;    5,584;   -1,989;   -0,136
526,995;   13,857;   -0,352;    1,409
527,579;   12,224;   -0,443;   -1,045
528,163;    8,861;    0,375;   -1,500
528,747;    7,679;    2,466;   -0,773
529,331;    9,133;   -0,080;   -1,409
529,915;    5,952;    1,738;    0,955
530,499;    8,770;   -0,807;    1,227
531,082;   15,405;   -0,534;    1,591
531,666;   32,136;    1,374;    0,773
532,250;   16,952;    1,284;    2,682
532,833;   16,317;    0,920;    2,773
533,417;   11,408;   -1,807;    0,864
534,001;   22,864;    1,647;   -0,318
534,584;   14,593;    0,374;    0,500
535,168;    4,138;    0,465;    1,409
535,751;   33,318;    0,647;    0,045
536,334;   11,955;   -0,898;   -0,409
536,918;    5,500;    0,011;    1,591
537,501;    4,228;   -0,899;    1,318
538,085;    5,501;   -0,444;    1,045
538,668;   11,956;    0,829;    2,409
539,251;   25,684;    1,829;    3,773
539,834;   10,411;    0,101;    0,773
540,418;   12,685;   -1,990;    4,318
541,001;   22,503;   -0,990;    1,773
541,584;   12,870;    2,101;    2,227
542,167;   18,776;    1,374;    2,955
542,750;    6,959;    1,919;   -0,773
543,333;    0,780;    0,555;    2,136
543,916;   11,687;    0,192;    2,500
544,499;    7,142;   -1,354;    0,227
545,082;   13,052;    1,374;    3,591
545,665;    8,233;    1,919;    1,500
546,248;   23,234;    1,010;   -0,318
546,830;   14,415;   -0,445;    1,955
547,413;   12,508;    1,010;   -0,773
547,996;    6,873;    0,555;    0,500
548,579;    5,874;    0,919;    0,955
549,161;   26,419;    1,828;    2,682
549,744;   13,693;   -0,809;    0,409
550,326;    5,421;   -0,809;   -1,136
550,909;   32,513;    2,737;    0,591
551,492;   11,966;   -0,263;    0,227
552,074;   15,513;   -0,173;   -1,318
552,657;   19,150;    2,373;    0,045
553,239;   10,514;   -0,173;   -0,773
553,821;    5,512;   -1,082;    1,045
554,404;   24,877;    1,282;    1,136
554,986;   22,423;    0,464;    1,045
555,568;   12,696;    1,191;   -0,955
556,151;   29,878;    1,191;   -0,227
556,733;   10,332;   -0,264;   -0,864
557,315;   18,880;    0,100;    0,500
557,897;    7,879;    0,554;   -0,500
558,479;    5,607;   -1,991;    1,318
559,061;    9,336;   -0,719;   -0,864
559,643;   12,699;   -0,264;    0,045
560,225;   13,696;    1,645;    2,864
560,807;    4,062;    0,918;    0,318
561,389;    4,972;    0,554;    2,318
561,971;    6,702;    0,463;    2,136
562,553;    6,973;   -1,628;    1,591
563,135;    7,518;   -0,537;    1,136
563,717;   46,518;    3,372;    1,136
564,298;   36,700;    3,645;   -0,045
564,880;   13,885;    0,645;   -1,409
565,462;    5,067;    0,645;    1,318
566,043;    8,156;   -0,446;    2,318
566,625;   40,428;    1,918;    1,227
567,207;   20,066;    1,099;    1,682
567,788;    6,703;   -1,264;    1,500
568,370;    6,159;    1,917;   -0,500
568,951;    5,976;    0,190;    0,227
569,533;    4,615;   -0,628;   -0,500
570,114;    8,156;   -0,446;    0,682
570,695;    9,886;   -0,174;   -1,318
571,277;    7,342;   -0,265;   -1,682
571,858;   17,341;    2,008;   -1,136
572,439;    6,795;    1,554;   -1,045
573,021;    6,526;    2,099;   -2,773
573,602;   11,616;   -1,265;    0,318
574,183;   12,617;   -2,083;    2,227
574,764;    5,980;   -1,629;    0,409
575,345;    9,435;    0,917;   -0,136
575,926;    5,979;   -0,356;    0,136
576,507;    8,525;    1,099;   -0,227
577,088;    4,888;    3,099;    1,682
577,669;   22,617;    0,735;    1,955
578,250;   28,435;    0,644;   -1,045
578,831;   13,892;   -1,356;   -2,227
579,412;   15,526;   -0,810;    0,955
579,993;   12,163;    1,008;    0,227
580,573;    4,799;   -0,629;   -0,955
581,154;   14,526;    0,735;   -0,591
581,735;   14,253;    0,644;    0,773
582,315;   32,253;   -0,629;    2,136
582,896;   13,344;   -0,174;    1,227
583,477;    1,618;    0,189;    1,227
584,057;    9,435;    0,553;    0,955
584,638;   19,981;    2,553;    2,318
585,218;   30,072;   -0,538;    2,682
585,799;   17,798;    0,281;   -0,227
586,379;   13,434;    0,372;    1,591
586,959;   12,708;    0,735;    0,318
587,540;    6,346;   -0,629;    2,227
588,120;    3,348;    1,007;   -0,045
588,700;   13,074;    2,553;    2,136
589,281;   25,708;    0,462;   -0,955
589,861;   12,345;    0,099;   -1,682
590,441;    5,163;    2,371;   -2,682
591,021;    5,617;   -0,265;   -2,591
591,601;    8,070;   -0,537;    0,500
592,181;    6,524;   -0,719;   -0,773
592,761;    2,802;    0,007;    1,409
593,341;   11,253;   -0,901;    0,045
593,921;   14,979;   -0,265;    1,591
594,501;    9,980;   -0,538;    1,318
595,081;    9,525;    0,917;   -0,318
595,661;   11,798;   -1,447;    0,955
596,240;    7,433;   -0,537;    0,136
596,820;   43,614;    0,372;    1,955
597,400;   20,707;    2,008;    0,773
597,980;    9,706;    2,008;    1,045
598,559;    3,980;    2,735;   -0,227
599,139;    5,798;   -0,174;   -1,227
599,718;    4,162;   -0,174;   -0,409
600,298;    2,616;    0,735;    0,682
600,877;   50,979;    2,917;    1,409
601,457;   19,614;    2,281;    1,136
602,036;    8,070;    0,190;    2,045
602,616;   10,887;    0,644;    1,682
603,195;   19,704;   -0,355;    3,500
603,774;   25,159;   -0,901;    2,045
604,354;   23,705;    0,826;   -0,500
604,933;   17,070;    0,463;    1,864
605,512;   16,160;    3,554;    0,591
606,091;   14,977;   -0,537;    3,773
606,671;   14,341;    0,281;    0,773
607,250;   34,523;    1,644;    3,136
607,829;   23,794;    2,372;    3,227
608,408;   16,431;    1,190;    2,591
608,987;   25,065;    1,281;    3,409
609,566;   10,071;   -1,265;   -2,500
610,145;   19,611;   -1,082;    0,682
610,723;   27,975;    4,372;    6,864
611,302;   15,519;   -0,446;    1,682
611,881;   51,974;    5,008;   11,227
612,460;   20,611;    1,645;    3,955
613,039;    8,973;   -0,082;    2,045
613,617;    7,794;    1,736;    4,773
614,196;    8,611;    1,099;    1,227
614,775;   10,064;    1,009;    2,409
615,353;   12,790;    0,736;    0,864
615,932;   18,972;    0,100;    2,409
616,510;   16,336;    0,554;    0,591
617,089;   79,063;    7,100;   17,591
617,667;   31,063;    2,372;    6,136
618,246;   11,699;   -1,537;    1,318
618,824;   13,608;   -3,355;   -0,955
619,402;   11,790;   -2,900;   -1,773
619,981;   13,243;   -0,173;   -1,045
620,559;   10,788;    0,009;    1,682
621,137;    7,516;   -0,718;    1,864
621,715;    5,244;   -1,173;   -0,682
622,293;    9,789;   -0,537;   -0,773
622,871;    9,425;   -0,718;    0,500
623,450;    8,060;    0,373;   -0,864
624,028;   24,515;    0,191;   -0,955
624,606;   16,060;   -1,718;    1,682
625,183;    6,786;   -1,536;   -1,136
625,761;   24,695;    1,009;    1,136
626,339;   40,060;    1,373;    2,591
626,917;   17,603;   -0,172;   -0,045
627,495;    8,603;   -0,354;    1,318
628,073;   12,693;   -0,263;    2,864
628,650;   20,513;    0,100;    2,136
629,228;   17,696;    0,373;    4,409
629,806;    9,149;    2,282;    1,136
630,383;    9,966;    1,464;   -0,318
630,961;    8,240;    2,555;   -0,955
631,539;   14,239;    2,464;    0,227
632,116;  127,240;   11,373;   15,409
632,694;   56,603;    2,555;    6,500
633,271;   34,237;    0,828;    2,682
633,848;   39,147;    1,828;    2,045
634,426;   17,873;   -1,081;    1,773
635,003;    7,506;    1,101;   -0,409
635,580;   39,506;    1,192;    3,682
636,158;   31,235;    3,737;    1,227
636,735;   14,328;    0,555;   -0,500
637,312;    9,420;   -0,809;   -0,682
637,889;    9,327;   -4,354;   -0,682
638,466;    8,324;   -3,990;   -0,409
639,043;   15,049;    2,101;   -1,136
639,620;   10,049;   -2,262;   -0,955
640,197;   14,874;    1,100;    1,682
640,774;    5,511;   -0,172;    1,136
641,351;    6,965;    0,737;    1,136
641,928;   27,875;   -0,627;    1,409
642,505;   33,329;    0,828;   -0,500
643,082;   17,239;   -1,718;    1,227
643,658;   12,421;   -0,718;    1,500
644,235;    9,057;    1,191;    2,500
644,812;   17,694;    1,918;    0,773
645,388;   15,876;   -0,991;    1,409
645,965;    9,603;   -0,809;    1,682
646,542;   12,421;   -1,445;   -0,227
647,118;   31,513;    1,009;   -0,955
647,695;   14,240;   -0,263;    1,136
648,271;    8,149;   -0,536;    0,500
648,848;   18,604;    0,736;    2,227
649,424;   28,786;    0,827;    1,318
650,000;   13,423;   -0,354;   -1,045
650,577;   13,968;   -0,627;   -0,955
651,153;   10,514;   -1,809;    0,955
651,729;   11,150;    1,191;    0,864
652,305;   49,241;    0,645;    2,773
652,881;   30,333;   -0,082;    1,136
653,458;   15,151;    1,100;    0,227
654,034;   12,151;    0,282;    1,591
654,610;   17,151;    0,554;    0,773
655,186;   65,879;    0,645;    3,045
655,762;   23,152;   -0,991;    0,409
656,338;   16,879;    0,100;    0,136
656,913;   18,516;   -0,082;    0,409
657,489;   11,879;    0,827;   -0,318
658,065;   17,971;   -0,173;   -1,591
658,641;   11,425;   -0,900;   -0,864
659,217;    8,244;   -0,991;    0,409
659,792;   26,789;    0,645;   -0,409
660,368;   17,698;   -2,173;   -0,682
660,944;   10,608;   -2,082;    1,227
661,519;   10,335;   -0,628;    0,409
662,095;   10,608;   -1,719;    0,591
662,670;    7,336;    1,281;   -0,136
663,246;    8,063;    1,009;   -0,409
663,821;   17,154;    0,281;    1,682
664,396;   11,791;    0,009;    1,864
664,972;   12,154;    0,009;   -0,500
665,547;   10,791;    1,372;    0,136
666,122;   13,428;   -1,082;    0,318
666,698;   24,155;   -0,173;    0,318
667,273;   11,701;   -0,173;    0,136
667,848;   11,701;    2,372;    1,500
668,423;   22,974;    2,190;    2,318
668,998;   13,792;    2,827;   -0,682
669,573;    9,338;   -3,264;   -1,500
670,148;   17,065;   -1,446;   -0,682
670,723;    8,065;   -1,810;    0,318
671,298;   27,884;    2,372;    1,045
671,873;   20,611;   -0,082;   -0,136
672,448;   18,339;    0,645;    0,136
673,023;   16,884;   -1,992;   -0,227
673,597;   23,066;    0,827;    2,318
674,172;   25,976;   -0,355;    0,318
674,747;   18,248;    0,372;   -1,045
675,321;    8,067;   -0,628;    3,318
675,896;    5,976;    0,645;    1,045
676,471;   26,067;    2,645;    1,591
677,045;   13,522;   -1,264;    0,682
677,620;   15,249;    0,190;    1,136
678,194;    8,250;   -2,628;    1,136
678,769;   16,068;   -1,083;   -0,318
679,343;   18,250;   -0,628;    1,773
679,917;   24,796;   -1,446;    1,955
680,492;   15,796;    0,826;    3,227
681,066;   15,523;    3,372;    0,409
681,640;   12,160;    1,463;   -0,318
682,214;   11,978;    0,735;    0,500
682,788;   13,887;   -1,356;   -0,773
683,363;   21,887;   -1,810;    1,682
683,937;   12,342;   -1,719;   -0,318
684,511;   14,797;    0,463;   -0,591
685,085;   11,615;   -1,356;    0,318
685,659;    9,706;   -2,538;    0,864
686,232;   23,070;   -0,356;   -0,318
686,806;   15,161;   -0,901;    0,409
687,380;    8,252;   -0,174;    0,591
687,954;    6,889;   -1,174;    1,136
688,528;   26,253;   -0,719;    1,955
689,101;   12,707;   -3,992;    1,045
689,675;    7,980;   -0,356;   -0,136
690,249;   21,526;   -0,719;    0,409
690,822;   21,435;    0,280;    0,318
691,396;   18,617;   -0,265;    1,227
691,969;   12,981;    1,280;    0,136
692,543;    5,527;   -0,447;   -1,955
693,116;    7,254;   -0,265;   -1,409
693,690;   10,345;    0,099;    0,500
694,263;    8,436;   -1,083;    2,955
694,836;   33,346;    1,371;    3,591
695,410;   24,982;   -0,265;    1,773
695,983;   30,982;    0,189;    0,591
696,556;   13,346;   -0,447;   -1,045
697,129;    4,528;   -0,356;    1,409
697,703;   28,256;   -1,629;    1,955
698,276;   15,710;    1,462;   -0,773
698,849;   25,347;    1,280;    1,409
699,422;   11,802;   -1,083;    0,591
699,995;    5,256;    0,007;    0,136
700,568;    7,529;   -0,629;    3,045
701,140;    9,166;   -2,811;    1,682
701,713;   20,257;   -0,174;    2,409
702,286;   11,712;   -0,538;    0,864
702,859;   22,712;   -0,902;   -0,591
703,432;   38,257;    0,825;    0,682
704,004;   21,348;    0,462;    0,318
704,577;   10,258;   -0,629;    0,136
705,150;   18,258;    0,189;    2,500
705,722;   19,713;   -0,356;   -3,227
706,295;   24,895;   -0,175;   -0,591
706,867;   19,531;   -0,175;    1,955
707,440;   18,440;   -1,720;   -0,409
708,012;   30,168;    0,462;    0,591
708,584;   28,350;    2,462;    0,227
709,157;    7,168;    1,825;   -0,591
709,729;   20,714;    2,280;    2,045
710,301;   10,441;    0,734;    0,045
710,874;    7,714;   -1,447;   -0,227
711,446;    6,987;    0,371;    0,864
712,018;    7,896;    0,098;    0,500
712,590;    6,715;   -1,993;    1,682
713,162;   15,897;    0,825;    1,318
713,734;    7,715;    1,825;   -2,045
714,306;    2,806;   -1,902;   -0,409
714,878;    9,079;    0,825;    0,864
715,450;    6,079;    0,643;    0,864
716,022;    5,443;    1,552;    1,318
716,593;    8,262;    0,189;    0,591
717,165;   10,353;   -3,175;   -1,227
717,737;   27,444;    0,280;    0,409
718,309;   12,717;    0,280;   -0,045
718,880;    7,808;   -0,539;   -1,409
719,452;   11,808;   -0,175;   -1,591
720,024;   20,444;    0,734;   -0,591
720,595;   13,717;   -2,902;    0,955
721,167;   11,263;    0,370;   -2,045
721,738;   18,718;   -0,812;   -1,045
722,309;   40,991;   -0,993;   -1,227
722,881;   14,718;   -1,357;    0,773
723,452;   12,445;   -2,630;    2,864
724,023;   14,900;   -0,721;    2,682
724,595;   16,719;    0,007;    0,682
725,166;   12,810;    0,007;   -0,409
725,737;   25,810;    1,734;    0,227
726,308;   11,355;   -0,266;    0,318
726,879;    8,174;   -1,630;    1,227
727,450;    9,538;    0,552;   -0,045
728,021;   12,265;    3,097;    0,682
728,592;   20,902;    0,734;    0,500
729,163;   26,265;    0,643;   -0,136
729,734;   22,447;    0,188;   -0,227
730,305;   22,539;    1,734;    0,136
730,876;   18,357;    0,188;    2,955
731,447;   44,357;    2,188;    2,682
732,017;   35,812;    1,097;    1,864
732,588;   14,630;    0,734;    1,227
733,159;   52,449;    0,643;   -1,045
733,729;   22,812;    0,006;    0,409
734,300;   31,358;    0,915;    0,864
734,870;   15,176;    3,461;    0,591
735,441;   18,995;    0,370;   -0,591
736,011;   16,268;    0,643;   -1,591
736,582;   11,541;   -0,812;    0,045
737,152;   23,541;   -1,721;   -2,045
737,722;   20,995;   -0,267;   -0,682
738,293;   11,087;   -1,358;    1,318
738,863;   23,450;    2,461;    2,318
739,433;   54,814;    5,279;    0,318
740,003;   22,451;   -0,994;   -0,682
740,573;   31,360;    2,097;   -1,591
741,143;   20,178;   -1,085;    0,318
741,713;   14,542;    1,188;   -0,500
742,283;   17,997;    0,915;    1,591
742,853;   15,179;    1,915;    1,591
743,423;    5,088;    1,733;    0,045
743,993;   13,997;   -0,358;    1,500
744,563;   15,543;    0,097;   -0,864
745,133;   13,089;   -0,812;   -0,864
745,702;   10,543;   -0,267;    1,773
746,272;   22,634;   -0,176;    0,591
746,842;   23,180;   -1,358;   -0,591
747,411;   10,362;   -0,267;   -0,318
747,981;    6,090;    0,097;    0,500
748,551;    5,272;    2,278;   -1,045
749,120;   16,454;    0,642;   -0,227
749,690;   11,817;   -0,631;    2,409
750,259;   18,272;    1,369;    2,955
750,828;   22,363;    1,551;   -1,955
751,398;   12,000;    1,278;   -0,045
751,967;   49,000;    2,187;    0,409
752,536;   24,818;   -0,813;   -0,227
753,105;   28,273;    0,096;    0,227
753,675;   16,000;    0,096;    1,773
754,244;   11,001;   -0,904;    3,591
754,813;   15,183;    0,551;    1,227
755,382;   12,819;    0,460;    0,955
755,951;   18,001;    1,551;    3,682
756,520;   33,547;   -0,085;    1,864
757,089;   35,729;    0,278;    0,500
757,658;   19,184;    1,733;    1,227
758,227;    6,275;    1,096;    0,318
758,795;    9,911;    1,187;    1,136
759,364;    8,639;   -0,086;   -0,591
759,933;    7,184;   -1,176;   -0,045
760,501;    5,094;    0,733;   -1,318
761,070;   15,003;   -2,813;   -1,409
761,639;    7,639;   -1,904;    1,318
762,207;   10,912;    1,551;   -0,955
762,776;   18,458;    0,369;    0,864
763,344;    9,731;   -0,995;    0,591
763,913;    3,276;   -0,722;    1,409
764,481;   40,549;    1,005;   -0,136
765,049;   34,913;   -1,358;    1,409
765,618;   39,368;   -0,086;    0,318
766,186;   18,550;    0,278;    0,136
766,754;   18,732;    0,005;    1,864
767,322;    8,368;   -1,995;    0,409
767,890;    7,914;   -0,722;   -1,773
768,459;    6,732;   -2,177;   -0,318
769,027;   23,914;    1,641;    3,409
769,595;   10,096;    3,278;    2,591
770,163;   46,460;    3,823;    2,955
770,730;   19,279;    0,732;   -0,136
771,298;   16,733;    0,187;   -1,409
771,866;    8,188;   -1,541;    4,955
772,434;    8,915;   -0,631;   -1,864
773,002;   33,007;    0,005;    0,682
773,569;   21,643;    0,914;    1,682
774,137;   21,098;   -0,268;   -0,045
774,705;    9,553;    0,278;   -0,136
775,272;   10,735;    0,641;    0,682
775,840;   13,098;   -0,177;    2,682
776,407;   16,917;    0,277;    1,955
776,975;   13,553;   -0,632;    0,318
777,542;    9,008;   -1,086;   -0,045
778,110;    8,281;   -1,268;   -0,045
778,677;    6,645;   -2,359;   -0,864
779,244;    9,372;    2,186;    1,045
779,812;    4,645;    1,823;    0,864
780,379;   18,100;    0,005;    1,136
780,946;   15,555;    1,005;   -0,773
781,513;    8,464;   -1,450;    0,318
782,080;    5,919;   -0,086;    2,864
782,647;    8,919;   -0,268;    3,045
783,214;    7,646;   -0,177;    3,864
783,781;   16,555;   -0,723;   -0,682
784,348;   19,283;   -0,632;    1,500
784,915;    6,465;   -3,177;    0,318
785,482;   39,738;    1,368;    2,591
786,049;   17,465;    0,186;   -0,591
786,615;    5,556;    0,277;   -0,955
787,182;    5,011;    0,186;   -0,682
787,749;    2,829;   -2,814;    1,409
788,315;   10,193;   -1,632;   -0,409
788,882;    7,193;    1,550;   -1,227
789,448;   39,648;    1,732;   -0,955
790,015;   16,285;    1,095;    3,227
790,581;   20,194;    1,459;    0,227
791,148;   15,103;    0,641;    1,045
791,714;    9,376;   -0,541;    3,136
792,280;    8,285;    0,186;    1,591
792,847;    4,013;    0,550;    2,500
793,413;    8,468;   -0,269;   -0,318
793,979;   30,922;    3,459;   -1,318
794,545;   63,832;    4,459;    2,682
795,111;   35,014;    2,186;    1,318
795,678;   23,286;    0,731;   -1,682
796,244;   38,923;    3,368;    0,136
796,810;   21,741;    1,731;    0,773
797,375;   15,287;    0,549;   -2,136
797,941;    5,560;   -0,541;    0,591
798,507;    8,106;   -0,451;   -0,955
799,073;   10,106;   -0,360;    0,591
799,639;    5,924;   -2,632;    3,136
800,205;    4,742;    0,095;    2,682
800,770;    7,288;    0,640;    1,773
801,336;   11,288;    1,368;   -0,955
801,901;   78,925;    4,549;    3,136
802,467;   37,652;   -0,542;    2,045
803,033;   12,925;   -0,087;    0,864
803,598;   10,653;    1,913;   -1,045
804,163;   13,198;    1,095;   -0,318
804,729;   15,108;   -0,178;    1,136
805,294;    8,835;    0,822;    2,227
805,859;    3,199;    0,731;   -0,409
806,425;   55,017;    1,186;    2,682
806,990;   40,017;    2,186;    4,318
807,555;   13,290;   -1,451;    2,591
808,120;   23,745;    0,822;   -0,409
808,685;   13,472;    0,185;   -2,500
809,250;    5,563;    0,004;   -0,500
809,815;    4,745;    1,913;    0,682
810,380;   14,382;   -0,269;    1,591
810,945;   27,564;   -1,087;    2,045
811,510;   14,655;    2,094;    1,591
812,075;   10,928;   -0,633;   -1,409
812,640;   36,565;    2,003;    1,409
813,204;   20,019;    0,822;   -0,227
813,769;   20,474;    2,094;   -0,045
814,334;   18,292;    0,458;    0,864
814,898;    7,929;    0,367;    0,591
815,463;   12,747;    1,276;   -0,773
816,027;    5,747;   -0,724;   -2,318
816,592;    4,020;    0,640;   -2,045
817,156;   18,839;    2,094;    1,136
817,721;   23,748;    4,276;    2,318
818,285;   11,475;    2,912;    1,500
818,849;   12,567;   -1,451;    1,682
819,414;    8,203;   -0,269;    2,955
819,978;    5,931;   -1,269;    1,773
820,542;   17,294;    2,003;    0,500
821,106;    8,749;   -0,815;    0,682
821,670;   33,840;   -0,815;    2,591
822,234;   12,840;   -0,270;    1,409
822,798;    5,386;    0,003;    0,500
823,362;   18,477;   -0,633;    4,227
823,926;   11,023;    0,094;    1,136
824,490;   24,568;   -0,997;   -0,682
825,054;   10,569;   -0,088;   -1,136
825,618;    7,751;   -1,542;   -1,500
826,181;   12,660;    0,458;   -1,318
826,745;   16,660;    1,367;   -1,045
827,309;   51,569;    1,185;    1,318
827,872;   27,479;    1,367;    0,955
828,436;   13,115;    1,185;   -0,773
828,999;    8,842;   -0,997;    1,227
829,563;    8,934;   -0,179;    1,136
830,126;   10,661;   -0,179;   -0,591
830,690;   17,843;   -1,997;    2,864
831,253;    8,480;   -0,543;    2,227
831,816;   13,298;   -1,906;    0,500
832,380;   10,571;    0,185;    0,864
832,943;    9,116;   -1,361;   -0,500
833,506;    4,571;    2,639;   -1,227
834,069;   21,844;    3,912;   -0,955
834,632;   10,390;    1,730;    1,318
835,195;    8,844;    1,003;    0,955
835,758;    7,390;   -0,997;    1,955
836,321;   13,481;    0,730;   -1,045
836,884;    8,663;   -0,725;   -0,955
837,447;    6,572;   -2,816;    1,773
838,010;   15,391;    0,366;    3,227
838,573;    9,300;   -1,179;    0,773
839,135;    5,209;   -1,361;   -0,955
839,698;   12,755;    1,275;    0,409
840,261;    6,482;    1,003;   -0,227
840,823;    6,210;   -0,543;    0,864
841,386;    7,392;   -0,452;   -2,409
841,948;   25,574;   -1,361;    1,773
842,511;   13,301;    0,912;    1,682
843,073;   15,483;    1,912;    0,227
843,636;    7,847;   -0,361;   -0,227
844,198;   11,666;    0,911;    0,591
844,760;   11,393;    1,093;    1,955
845,322;    7,120;    0,548;    1,136
845,885;   18,121;    0,730;    0,591
846,447;   12,939;   -1,998;    0,227
847,009;   41,666;    1,911;   -0,682
847,571;   17,121;    0,820;   -2,045
848,133;    8,667;   -1,089;   -1,864
848,695;    4,849;   -0,543;    1,409
849,257;    6,304;   -1,089;   -1,682
849,819;   13,576;   -0,998;   -0,409
850,381;    7,122;   -0,725;   -0,864
850,942;    3,213;    1,093;   -0,591
851,504;   13,941;    1,184;    0,227
852,066;    8,486;    1,275;   -1,591
852,628;   11,123;   -0,180;    1,955
853,189;    8,123;    1,638;    2,682
853,751;    7,759;   -0,907;    1,409
854,312;    8,123;   -0,453;   -1,682
854,874;   10,487;   -2,089;   -0,773
855,435;    9,305;   -0,907;   -1,682
855,997;    8,124;   -1,816;   -0,136
856,558;   16,397;    0,366;    1,773
857,119;   11,306;    0,820;    2,864
857,681;    3,670;    0,002;    0,318
858,242;   29,125;    1,911;   -2,136
858,803;   15,670;    0,456;   -0,773
859,364;    8,398;    0,184;   -4,773
859,925;   14,216;   -2,453;   -0,955
860,486;    9,307;   -0,453;   -0,955
861,047;    5,398;   -0,544;   -1,227
861,608;    7,126;   -1,089;   -0,773
862,169;    3,126;    0,638;   -0,045
862,730;    9,126;    0,456;    1,409
863,291;   11,308;   -0,635;   -0,500
863,852;   10,854;   -0,635;    1,955
864,412;   11,217;   -0,271;   -0,864
864,973;   29,763;   -0,089;    0,500
865,534;   25,036;   -1,726;    0,227
866,094;   15,945;    1,820;    0,227
866,655;   32,127;    1,274;    3,318
867,215;   15,491;    0,274;    0,136
867,776;    4,491;    0,547;   -0,136
868,336;    9,037;   -1,453;    0,136
868,897;   43,401;    2,638;    1,682
869,457;   21,492;    1,365;    0,318
870,017;    7,310;    0,547;   -1,227
870,578;    7,765;   -0,817;    0,773
871,138;   10,401;   -2,089;   -0,955
871,698;    7,402;   -0,817;   -1,318
872,258;   10,584;   -0,453;   -2,864
872,818;   19,402;    2,729;    0,045
873,378;   13,402;    0,638;    1,045
873,938;   14,220;    0,547;    0,500
874,498;    6,312;    0,274;   -1,955
875,058;   16,494;    2,183;    1,773
875,618;   12,312;    1,910;   -2,682
876,177;   15,948;    1,274;    0,136
876,737;    8,130;   -0,090;    1,955
877,297;   34,767;    0,183;    1,955
877,856;   19,949;   -0,362;    0,318
878,416;    7,586;    1,183;   -0,136
878,976;    7,949;   -1,817;    0,409
879,535;    7,131;    0,092;    3,136
880,095;    9,222;   -0,544;    0,045
880,654;    3,586;   -1,090;    1,318
881,213;   25,132;    2,456;    1,500
881,773;   10,132;    2,637;    2,682
882,332;   57,587;    3,365;    5,136
882,891;   19,678;    3,092;    2,136
883,451;   13,405;   -1,272;    1,682
884,010;    9,406;   -2,908;   -0,409
884,569;    3,224;   -0,999;   -0,045
885,128;   12,133;    2,819;   -1,864
885,687;   30,315;    4,455;    0,682
886,246;   49,861;    1,455;    2,136
886,805;   30,225;    2,455;    2,045
887,364;   10,316;   -0,999;   -0,500
887,922;    5,498;   -1,181;    0,045
888,481;   19,225;   -1,545;    0,591
889,040;   15,225;    1,183;    2,136
889,599;    9,862;    2,455;    1,409
890,157;   11,044;    1,455;    2,409
890,716;    5,135;   -0,090;    0,227
891,274;   14,408;    0,092;   -1,136
891,833;   17,317;    1,546;    0,864
892,391;    7,045;   -0,454;    0,500
892,950;   11,045;    1,819;   -0,773
893,508;    8,409;    0,455;   -0,409
894,067;    2,227;    0,637;    0,136
894,625;    6,318;   -0,636;   -1,500
895,183;    6,773;   -0,363;   -0,682
895,741;   26,773;    1,728;   -1,773
896,299;   11,319;   -0,545;   -2,409
896,858;    7,501;    0,819;   -1,591
897,416;   16,955;    2,728;   -1,318
897,974;   12,137;    1,819;    0,318
898,532;   63,319;    6,091;    2,682
899,089;   25,592;    2,091;   -0,682
899,647;   11,320;   -1,454;    1,318
900,205;    5,047;    1,182;    1,045
900,763;   11,320;   -0,454;    0,227
901,321;    7,593;    2,364;   -1,409
901,878;    3,139;   -1,000;   -0,773
902,436;    5,684;   -1,363;    1,318
902,994;   85,048;    4,728;    3,682
903,551;   28,321;    0,728;    0,409
904,109;    9,776;    0,182;   -1,409
904,666;    6,412;    2,455;    1,045
905,224;    3,867;    0,182;   -0,409
905,781;   11,867;    0,727;   -0,318
906,338;    9,322;   -1,363;    1,045
906,895;    5,686;    0,637;    2,045
907,453;   22,231;    1,727;    1,136
908,010;   13,686;   -0,909;    0,409
908,567;   12,141;    1,273;    0,591
909,124;    4,868;    0,364;   -1,500
909,681;    4,505;   -2,909;    0,682
910,238;    7,323;    0,636;   -1,318
910,795;    6,414;   -0,273;   -1,136
911,352;    3,960;   -2,909;   -2,682
911,909;    3,323;   -1,364;   -0,864
912,466;    3,505;   -3,182;    1,500
913,022;   12,141;   -1,636;    0,500
913,579;   18,414;   -0,909;    2,045
914,136;   10,778;    1,636;    0,955
914,692;    7,051;    0,091;   -1,227
915,249;   12,323;    1,455;    0,409
915,806;   13,687;    0,182;    1,955
916,362;   10,778;    1,909;    1,864
916,918;    9,778;    2,000;    1,045
917,475;    9,869;   -1,182;    0,955
918,031;    1,414;    3,364;   -0,045
918,587;    7,687;   -0,909;   -0,318
919,144;    6,687;   -2,273;    0,227
919,700;    3,323;    1,727;    0,773
920,256;    1,596;    0,727;    0,045
920,812;    7,141;   -0,727;   -1,045
921,368;    5,505;   -1,727;   -1,045
921,924;    6,778;    0,182;   -0,136
922,480;   14,596;   -0,545;    1,227
923,036;   13,960;    1,273;    1,955
923,592;    5,869;    0,455;    0,318
924,148;    5,687;    0,455;   -0,955
924,704;    6,505;   -1,364;   -0,409
925,259;    6,051;   -0,273;    0,591
925,815;    8,323;    1,455;    0,500
926,371;    6,323;    2,909;    1,409
926,926;   16,414;    2,091;    0,591
927,482;   13,596;   -1,364;    0,773
928,037;    7,414;    0,909;    2,045
928,593;   24,505;    1,636;    1,045
929,148;   10,778;   -1,818;   -1,500
929,704;   10,505;   -1,455;   -0,500
930,259;    7,051;    0,091;   -0,136
930,814;   13,414;   -0,818;    1,955
931,369;    8,323;    1,091;   -0,773
931,925;    7,596;   -0,091;    0,136
932,480;    9,960;   -2,818;   -2,591
933,035;   30,141;    0,545;   -0,318
933,590;   21,414;    0,364;   -1,773
934,145;    5,596;   -1,364;   -0,318
934,700;    2,960;    0,455;   -0,591
935,255;    8,323;   -0,091;    0,045
935,809;   33,687;    3,182;    0,864
936,364;    9,232;   -0,455;   -0,136
936,919;    3,869;    0,455;   -1,773
937,474;    2,141;    1,455;    0,136
938,028;    3,687;   -1,636;    1,136
938,583;   35,869;    1,818;    4,682
939,138;   13,778;    2,091;    2,136
939,692;    2,596;    1,636;   -1,136
940,247;    4,051;   -0,727;   -1,045
940,801;    2,687;   -0,636;    0,227
941,355;    2,596;   -0,364;    2,591
941,910;    3,505;   -0,273;   -2,136
942,464;    0,232;   -0,818;   -0,318
943,018;    7,778;    1,000;   -0,227
943,572;    5,505;    2,545;   -0,682
944,126;   11,141;    0,091;   -0,409
944,681;    7,051;    3,091;    0,227
945,235;    4,687;    1,000;   -0,591
945,789;    2,232;    0,364;   -1,864
946,342;   10,869;    0,455;   -0,591
946,896;    4,051;   -2,273;    0,955
947,450;   -1,768;    1,545;   -0,227
948,004;    9,323;    1,727;   -0,045
948,558;    7,687;    0,273;   -0,864
949,111;    6,596;   -0,273;   -0,318
949,665;   10,778;    1,636;   -0,682
950,219;    6,232;   -0,091;   -1,045
950,772;    3,323;   -1,909;    1,864
951,326;    4,869;    0,545;   -0,955
951,879;    4,323;    0,727;   -2,318
952,433;    6,596;    0,000;    2,227
952,986;    3,687;    2,909;    0,682
953,539;    1,141;   -0,273;    0,591
954,093;    1,505;    0,545;   -1,318
954,646;    4,596;    0,909;    1,318
955,199;    1,778;    0,000;   -0,500
955,752;   15,414;   -0,455;    1,773
956,305;    5,778;   -0,091;    2,955
956,858;    6,687;    0,818;   -0,318
957,411;   11,232;   -0,545;    2,136
957,964;    8,596;    1,364;    2,136
958,517;    3,687;   -1,545;    3,136
959,070;    4,051;   -0,455;    1,955
959,623;   10,778;    1,091;    1,500
960,176;    9,141;    1,727;    2,045
960,728;    7,596;   -2,727;    0,773
961,281;    4,596;    0,545;    0,500
961,834;    2,323;   -0,909;    0,864
962,386;    4,596;    1,727;    1,045
962,939;    4,141;    0,364;   -0,318
963,491;    4,505;    0,455;    1,136
964,043;    4,960;    1,182;    2,409
964,596;    7,960;   -1,000;    2,227
965,148;    4,960;   -1,000;    1,773
965,700;    3,778;    1,091;   -0,227
966,253;    8,232;   -0,636;    0,318
966,805;    4,960;   -2,273;    0,773
967,357;    4,596;    1,091;   -1,500
967,909;    7,232;    0,455;   -1,227
968,461;    2,141;    0,545;    3,136
969,013;    2,051;   -0,182;   -0,864
969,565;   10,323;   -0,455;   -1,136
970,117;   16,596;   -0,364;    1,045
970,669;    8,323;    0,182;   -0,136
971,220;    1,141;   -0,455;   -1,500
971,772;    2,960;   -0,636;   -0,318
972,324;    5,869;    0,091;   -0,500
972,876;    4,778;    0,818;   -0,045
973,427;    6,323;    1,909;   -1,045
973,979;    8,778;   -0,727;   -2,500
974,530;    6,141;    1,818;    1,318
975,082;    6,596;   -0,545;    1,682
975,633;    5,960;    1,091;    1,682
976,184;    4,687;    0,909;    0,773
976,736;    4,687;    0,091;    0,227
977,287;    6,505;   -0,909;   -0,500
977,838;    4,778;    0,909;   -0,318
978,389;    3,687;   -1,000;   -0,500
978,940;    1,323;    0,545;   -0,409
979,491;    3,596;    0,091;   -0,500
980,042;    6,051;    0,182;    3,045
980,593;    5,232;   -2,545;    0,227
981,144;    4,596;    2,545;   -0,500
981,695;    4,051;    1,455;    1,500
982,246;    0,869;   -0,273;    1,045
982,797;    1,596;   -1,727;    0,682
983,347;    4,505;    0,364;    0,591
983,898;   16,051;    3,091;    0,409
984,449;   15,778;    2,182;    0,773
984,999;    6,687;    1,455;   -1,136
985,550;    6,869;    0,182;   -0,318
986,100;    5,051;   -0,455;   -0,318
986,651;    4,051;   -0,818;    0,045
987,201;    2,414;   -1,000;   -0,591
987,751;    5,414;    0,818;    2,864
988,302;    4,960;    2,636;    1,500
988,852;    8,687;    0,455;   -1,136
989,402;    9,051;    0,091;    0,682
989,952;   11,414;   -2,182;    0,864
990,502;    2,596;   -0,091;    0,682
991,052;    3,869;   -0,727;    0,045
991,602;    4,596;   -2,909;    1,318
992,152;    5,596;    0,455;    0,682
992,702;    6,232;    1,364;   -0,045
993,252;    4,051;   -3,000;   -0,500
993,802;    7,232;   -0,273;    1,318
994,352;    6,323;   -1,545;    1,136
994,901;    1,414;   -0,182;    3,227
995,451;    0,596;   -0,182;    0,318
996,000;    0,687;    1,636;    0,318
996,550;    1,323;    2,273;    0,227
997,100;    2,232;    1,273;   -0,045
997,649;    6,141;    2,182;    0,955
998,198;    0,960;    1,727;   -1,500
998,748;    4,141;    1,091;   -2,318
999,297;    4,323;   -0,818;   -0,409
999,846;    4,232;    1,000;   -0,773
1000,395;    1,141;   -0,818;    0,500
1000,945;    6,141;    1,818;   -0,773
1001,494;    6,232;    2,364;    0,682
1002,043;    9,869;    4,636;    0,864
1002,592;    3,778;   -1,091;    1,955
1003,141;    3,505;   -0,455;   -0,682
1003,690;    8,505;    1,727;    0,500
1004,238;    4,051;    1,455;   -0,045
1004,787;    0,232;    1,364;    1,227
1005,336;    5,596;    0,364;    0,682
1005,885;    6,232;    1,364;   -2,773
1006,433;    5,778;    0,545;    0,955
1006,982;    5,414;    0,455;    1,682
1007,531;    5,778;   -1,818;   -0,227
1008,079;    2,596;   -2,273;    0,500
1008,627;    3,051;   -1,455;    0,409
1009,176;    4,869;    0,000;   -1,955
1009,724;    2,232;    1,091;    0,864
1010,273;    2,232;    1,273;    0,500
1010,821;    2,414;    0,091;    1,409
1011,369;    2,414;   -1,364;    1,318
1011,917;    1,323;   -1,364;   -0,591
1012,465;    4,596;    1,273;   -1,591
1013,013;    3,505;    2,091;   -1,682
1013,561;    8,596;    0,455;   -0,773
1014,109;    9,232;   -1,909;    1,682
1014,657;    4,505;    0,364;    0,591
1015,205;    1,323;    1,636;   -0,955
1015,753;    3,323;   -0,545;   -1,409
1016,301;    5,505;   -2,636;    3,045
1016,848;    7,414;   -1,273;    0,409
1017,396;    7,960;    2,545;    0,045
1017,944;    2,687;    1,182;    1,864
1018,491;    0,687;    0,273;    1,409
1019,039;    5,414;    0,455;    0,591
1019,586;    4,051;   -1,364;    1,682
1020,134;    5,141;    0,455;    1,500
1020,681;    6,323;    0,182;   -1,136
1021,228;    6,051;    2,909;   -2,227
1021,776;    4,414;    1,182;   -1,136
1022,323;    9,687;    0,455;    0,773
1022,870;    5,232;   -1,000;   -0,045
1023,417;    5,414;    2,636;    1,864
1023,964;    2,051;    2,636;    1,227
1024,511;    1,596;    1,000;    0,773
1025,058;    4,596;    3,182;   -0,045
1025,605;    3,505;   -2,273;    3,136
1026,152;    9,232;    1,727;   -0,591
1026,699;    3,687;    1,818;    1,318
1027,245;    3,778;   -0,091;    0,318
1027,792;    2,869;   -1,000;    1,409
1028,339;    8,960;    2,364;   -0,045
1028,885;    5,323;    1,000;   -0,227
1029,432;    4,414;   -0,091;    0,227
1029,978;    3,687;   -1,000;   -1,591
1030,525;    8,051;    1,000;    0,409
1031,071;    5,687;   -1,364;    1,136
1031,618;   12,323;    0,364;    1,682
1032,164;    5,596;   -0,091;    3,045
1032,710;    6,869;    1,636;   -1,500
1033,256;    4,687;   -0,636;   -0,136
1033,803;    2,596;   -0,545;    1,500
1034,349;    2,414;   -1,364;    0,136
1034,895;    0,323;    0,000;   -0,318
1035,441;    3,505;   -0,818;    0,318
1035,987;    2,323;   -2,364;   -0,682
1036,533;    3,596;   -1,455;   -0,955
1037,078;   14,778;    1,455;    1,682
1037,624;    9,414;    2,455;   -0,955
1038,170;    4,323;    0,455;   -0,318
1038,716;    6,869;    1,636;   -0,409
1039,261;    3,687;   -2,273;   -0,773
1039,807;    4,505;   -0,091;    3,409
1040,352;    4,414;   -1,909;   -0,318
1040,898;    2,778;   -1,545;   -0,682
1041,443;   -1,404;   -1,455;   -2,591
1041,989;   10,869;    1,091;    1,591
1042,534;    5,687;   -0,364;    2,591
1043,079;    2,323;    2,909;    0,955
1043,625;    5,414;    1,818;    0,500
1044,170;    1,596;   -1,364;    1,045
1044,715;    7,960;    2,455;    0,955
1045,260;    5,232;    2,182;   -0,955
1045,805;    3,323;    1,182;   -0,591
1046,350;    1,323;    1,364;   -0,409
1046,895;    7,869;    2,909;    1,591
1047,440;    5,596;    5,364;    0,409
1047,985;    1,414;    2,818;   -0,955
1048,530;    3,141;    1,545;    1,227
1049,074;    4,232;    0,000;    0,318
1049,619;    3,687;   -1,364;    1,955
1050,164;    3,505;    0,455;    0,227
1050,708;    7,141;   -0,455;    0,045
1051,253;   15,232;    1,273;   -2,227
1051,797;    5,687;    0,818;   -1,318
1052,342;    0,960;   -1,182;    1,045
1052,886;    3,141;    0,364;   -1,409
1053,430;    3,323;   -1,364;    0,136
1053,975;    7,687;   -0,818;   -0,318
1054,519;    0,869;   -0,727;    3,227
1055,063;    3,596;    0,909;    1,318
1055,607;    4,051;   -0,182;    0,227
1056,151;    4,232;    2,909;    1,682
1056,695;    1,869;    2,273;   -1,136
1057,239;    7,323;   -1,727;   -0,682
1057,783;    3,323;    0,818;   -1,500
1058,327;    4,323;    0,000;    1,409
1058,871;    9,960;   -0,545;    1,318
1059,415;    7,141;   -0,818;   -0,045
1059,958;    7,960;    1,455;    2,591
1060,502;    3,323;   -1,000;   -0,773
1061,046;    3,323;    0,364;   -0,955
1061,589;    0,687;   -3,000;   -1,136
1062,133;    0,869;   -1,273;    1,864
1062,676;    3,687;    1,182;    0,864
1063,220;    3,778;    1,091;    0,500
1063,763;    2,141;    0,909;    1,136
1064,306;    3,323;   -0,909;    1,864
1064,849;    3,051;   -0,909;    0,591
1065,393;    3,960;    2,000;   -1,500
1065,936;    1,505;    0,182;   -0,409
1066,479;   -1,313;   -1,455;    1,318
1067,022;   -1,495;   -0,273;   -0,227
1067,565;    3,596;   -0,091;   -1,318
1068,108;    4,232;    0,727;   -0,591
1068,651;    3,505;   -0,636;    1,409
1069,194;    3,323;   -0,455;   -1,682
1069,736;    1,505;   -1,273;    0,955
1070,279;    1,414;   -1,364;   -0,500
1070,822;    4,414;   -2,000;   -0,318
1071,364;    3,960;   -0,364;    1,318
1071,907;    3,051;   -0,727;    3,227
1072,450;    3,778;    0,000;   -0,045
1072,992;    0,960;   -0,273;    3,136
1073,535;    4,596;    2,091;    2,136
1074,077;    1,051;   -0,727;    2,045
1074,619;    0,323;   -1,364;    0,591
1075,161;    3,232;   -1,091;    1,500
1075,704;    5,960;    1,545;    1,227
1076,246;    3,141;   -0,182;    0,682
1076,788;    2,051;   -0,364;    1,773
1077,330;    3,960;    1,273;    2,136
1077,872;   -0,586;    0,909;    0,955
1078,414;    5,141;    2,727;    0,773
1078,956;    3,414;    1,273;   -0,227
1079,498;    4,141;    1,636;    0,318
1080,040;   -0,768;    1,909;   -1,318
1080,581;   -1,768;    1,636;   -0,318
1081,123;    1,596;    0,091;   -0,773
1081,665;    0,869;   -1,182;   -0,955
1082,206;    4,323;    1,364;   -0,500
1082,748;    3,414;    0,727;    2,045
1083,289;    2,051;   -2,000;    1,318
1083,831;    2,141;   -0,545;    0,227
1084,372;    2,141;    0,000;    0,591
1084,913;    2,960;    1,091;    0,864
1085,455;    1,414;   -1,909;   -2,045
1085,996;    0,687;   -2,273;    0,136
1086,537;   -0,222;   -0,091;    0,864
1087,078;    1,323;   -0,909;   -2,136
1087,619;    4,596;   -1,273;    0,227
1088,160;    3,323;    0,000;    1,318
1088,701;    1,414;   -1,091;    0,682
1089,242;    2,141;    1,364;   -2,227
1089,783;    3,232;   -0,273;    1,409
1090,324;    0,414;    0,455;    0,682
1090,865;   -1,131;    2,727;   -0,409
1091,405;    2,869;    0,727;    2,227
1091,946;    2,596;    0,182;   -0,955
1092,487;   -0,131;    0,818;   -1,409
1093,027;    3,687;   -1,364;   -1,500
1093,568;    0,869;   -0,364;    1,227
1094,108;    3,232;    0,273;    1,773
1094,649;    0,232;   -1,182;    0,136
1095,189;    0,596;   -0,636;   -0,682
1095,729;    2,687;   -0,091;    0,955
1096,269;    1,869;    0,727;   -0,955
1096,810;    2,596;   -1,364;    0,500
1097,350;    2,505;    1,364;   -0,773
1097,890;    2,778;    0,364;    1,227
1098,430;    7,687;    2,364;    2,864
1098,970;    2,051;    2,182;    1,682
1099,510;    3,414;    0,545;   -2,318
1100,050;    4,051;    1,000;   -1,591
1100,589;    3,869;   -0,727;   -0,318
1101,129;    1,141;    0,818;   -0,955
1101,669;    5,596;    1,727;    2,136
1102,209;    3,051;   -0,091;    2,227
1102,748;    0,687;    0,000;    0,955
1103,288;    2,051;    1,273;   -1,227
1103,827;    3,323;    3,091;   -2,227
1104,367;    4,596;   -0,091;   -2,409
1104,906;    3,141;    1,364;   -1,136
1105,445;    4,778;    0,636;   -1,136
1105,985;   -0,495;   -0,727;    1,500
1106,524;    3,141;   -1,727;   -0,682
1107,063;    3,051;   -2,727;    1,409
1107,602;   -1,404;   -1,909;   -1,500
1108,141;    0,323;   -1,909;    1,500
1108,680;    0,414;   -3,455;   -0,591
1109,219;   -0,040;   -0,909;   -0,500
1109,758;    1,051;    0,455;    0,682
1110,297;    1,232;    1,000;   -0,682
1110,836;   -0,949;   -0,727;    0,955
1111,375;    0,778;   -2,545;    0,409
1111,913;    2,141;   -1,000;    0,773
1112,452;   -0,222;   -0,273;    0,136
1112,991;    4,596;    1,091;    1,955
1113,529;    2,505;   -0,818;   -0,045
1114,068;    0,596;   -0,273;    2,955
1114,606;   -0,586;   -0,364;   -0,955
1115,144;    0,232;   -1,273;    1,045
1115,683;    1,596;   -0,727;    0,318
1116,221;    4,414;   -0,455;   -0,864
1116,759;    0,687;    0,636;   -0,864
1117,297;    2,596;    0,000;    1,864
1117,836;    2,051;   -2,182;   -1,227
1118,374;   -0,586;    0,182;   -0,682
1118,912;    3,232;    0,909;    2,682
1119,450;    2,051;    1,000;    0,864
1119,988;    1,051;    1,545;    2,136
1120,525;   10,505;    5,091;    3,318
1121,063;    5,960;    1,182;    1,864
1121,601;    2,960;   -0,909;   -1,227
1122,139;    1,960;   -0,727;   -2,045
1122,676;    3,414;   -0,727;    2,773
1123,214;    3,323;   -1,182;    4,409
1123,751;    0,505;    1,727;    2,227
1124,289;    1,960;   -0,091;   -0,409
1124,826;   -0,131;    1,727;    0,227
1125,364;   -0,768;    1,727;   -0,955
1125,901;    6,141;    1,182;    1,227
1126,438;    4,141;    0,818;    0,955
1126,975;    2,505;   -0,727;   -0,773
1127,513;    4,414;    0,273;    2,136
1128,050;    0,778;    1,636;   -0,682
1128,587;    3,687;    2,000;   -0,227
1129,124;    3,323;    0,091;    1,318
1129,661;    0,778;    0,273;    0,227
1130,198;    5,323;    1,636;    0,773
1130,734;    1,869;    0,182;    1,409
1131,271;    0,869;   -0,909;    0,864
1131,808;    6,505;    2,909;    3,045
1132,345;    5,051;    1,545;    0,318
1132,881;    3,141;   -1,545;   -1,864
1133,418;    1,141;    0,727;   -1,136
1133,954;    1,141;    2,455;   -2,682
1134,491;    1,232;    1,364;   -0,773
1135,027;   -0,677;    2,364;    0,864
1135,564;    0,778;    0,273;    2,955
1136,100;    2,778;    0,364;    2,136
1136,636;    0,869;   -1,273;   -1,045
1137,172;    2,505;    0,000;   -1,045
1137,708;    2,232;   -1,364;   -1,045
1138,245;    0,869;    1,273;   -1,227
1138,781;    1,232;    1,091;   -3,318
1139,317;    3,323;    1,273;   -1,409
1139,852;    1,051;    3,091;    0,136
1140,388;    2,141;   -1,182;   -0,409
1140,924;    1,232;   -1,091;   -2,227
1141,460;    2,141;   -1,636;    0,136
1141,996;    1,505;   -1,364;    2,682
1142,531;    3,414;    1,364;    3,318
1143,067;    3,778;    1,182;    1,045
1143,602;    4,232;   -0,091;   -0,318
1144,138;   -0,404;   -2,636;    1,045
1144,673;   -0,131;   -1,455;    1,409
1145,209;    0,596;   -1,909;   -0,318
1145,744;    0,141;   -0,727;    0,864
1146,279;    3,323;    1,818;   -0,136
1146,815;   -0,040;    1,545;   -2,682
1147,350;    3,232;   -1,364;    0,045
1147,885;    0,869;   -0,818;   -1,318
1148,420;   -0,768;   -2,273;    0,773
1148,955;    0,596;   -1,727;    1,864
1149,490;   -0,768;   -0,909;   -1,591
1150,025;   -0,949;    0,455;   -1,773
1150,560;    0,232;    1,091;   -0,955
1151,094;    0,051;    1,455;   -0,591
1151,629;    1,232;    1,636;    0,864
1152,164;    0,778;    1,364;    1,318
1152,698;    1,051;   -0,182;   -0,136
1153,233;    3,960;    0,091;   -0,682
1153,767;    0,414;   -3,000;   -2,318
1154,302;    1,687;   -1,455;    1,773
1154,836;    2,960;   -0,455;   -2,136
1155,371;    1,960;   -1,364;    3,682
1155,905;    3,141;   -0,636;    1,682
1156,439;    1,414;   -0,636;   -0,500
1156,973;    3,323;    0,364;    0,318
1157,507;    3,869;   -0,364;    0,682
1158,042;    1,596;   -0,727;    1,045
1158,576;   -0,040;    0,182;    1,773
1159,110;    3,232;   -0,818;    2,409
1159,643;    2,141;    0,636;   -0,045
1160,177;    2,232;   -1,545;    1,500

