
Integration time [ms]:   0,040
Averaging Nr. [scans]: 11
Smoothing Nr. [pixels]: 0
Data measured with spectrometer [name]: 7318044SP
Wave   ;Sample   ;Dark     ;Reference
[nm]   ;[counts] ;[counts] ;[counts] 

186,757;   33,599;   31,551;    1,318
187,357;   30,701;   22,551;    0,955
187,958;   22,075;   15,460;   -1,591
188,558;   25,411;    8,915;   -1,227
189,159;   15,710;    6,733;   -4,500
189,759;    5,524;    7,278;   -3,591
190,360;    6,029;    2,824;   -2,136
190,960;   12,894;    2,915;   -4,136
191,560;   14,326;    3,189;   -6,591
192,161;   74,167;    4,372;   -3,500
192,761;   37,496;    4,010;   -3,227
193,361;   21,440;    1,556;   -3,773
193,962;   31,773;    2,010;   -2,682
194,562;   10,546;    1,189;   -3,955
195,162;    5,838;   -2,448;   -2,227
195,762;   37,108;   -3,176;   -0,045
196,362;   22,508;    1,370;   -2,500
196,963;    5,288;    2,006;   -0,864
197,563;   17,869;    1,551;   -0,955
198,163;    7,157;    0,096;   -0,682
198,763;    6,107;    1,733;   -0,500
199,363;   18,206;    3,096;   -0,500
199,963;   12,484;    0,369;    0,409
200,563;   10,706;    2,823;   -1,409
201,163;    5,301;    3,277;   -0,227
201,763;   13,377;    3,732;    0,318
202,363;    5,039;    1,459;    1,500
202,963;    9,272;    1,459;    1,045
203,563;   22,785;    0,277;    0,500
204,162;    9,251;    2,096;   -1,864
204,762;    6,563;    0,550;    0,591
205,362;    0,965;    3,004;    1,955
205,962;    8,571;    3,096;    1,955
206,562;    9,212;    1,823;    2,318
207,161;    4,959;   -0,087;    0,318
207,761;   22,849;    1,277;    2,409
208,361;    6,348;   -0,268;    1,409
208,960;    9,381;    0,459;    1,500
209,560;    4,845;    1,277;    1,591
210,160;    9,257;    0,550;    1,864
210,759;    4,864;    4,186;    1,227
211,359;    3,799;    1,459;    1,045
211,958;   26,812;    1,277;    2,045
212,558;   25,975;    1,732;    1,864
213,157;    9,105;    1,822;    1,500
213,757;   45,272;    3,822;   -0,227
214,356;   16,043;    1,277;   -0,409
214,956;   38,045;    3,095;    0,409
215,555;   12,469;    2,095;    2,136
216,154;    2,561;   -2,723;   -0,591
216,754;    6,100;    0,277;    0,773
217,353;    4,217;   -0,268;   -1,045
217,952;   -0,924;   -0,178;    0,318
218,552;   11,079;    1,368;   -0,773
219,151;    3,571;    0,277;    0,955
219,750;    4,085;    0,004;   -0,227
220,349;    0,639;   -0,451;    1,045
220,948;   12,318;   -1,360;    1,136
221,548;    2,516;    0,913;    1,227
222,147;    2,411;   -0,087;   -0,409
222,746;   15,854;   -0,451;   -0,955
223,345;    6,142;    0,731;    0,500
223,944;    4,993;   -0,451;    0,773
224,543;    7,499;    1,004;   -1,409
225,142;    1,474;    0,094;    0,136
225,741;    5,649;   -0,814;    1,045
226,340;    3,847;   -0,451;   -0,955
226,939;   13,768;   -0,996;   -0,136
227,538;    7,732;   -0,360;   -0,773
228,137;   14,380;   -0,814;    0,864
228,735;    9,377;   -0,541;    1,227
229,334;    2,280;   -0,905;   -0,227
229,933;   13,470;    0,459;    0,591
230,532;   14,070;    1,186;   -0,409
231,131;   21,865;    1,732;    0,318
231,729;    9,727;   -2,450;   -2,318
232,328;    4,626;   -0,723;   -1,500
232,927;    1,664;    1,004;   -0,500
233,525;    4,610;    3,640;    0,045
234,124;    7,160;    2,368;   -1,591
234,723;    3,457;    0,913;   -1,045
235,321;    2,867;    2,277;    0,136
235,920;    2,003;    1,186;   -1,227
236,518;   18,959;    3,459;    0,318
237,117;    3,609;    0,004;   -0,227
237,715;    6,554;    0,640;   -0,500
238,314;    5,442;   -0,087;   -2,318
238,912;   14,716;   -0,723;   -1,409
239,510;   10,250;    0,459;   -1,227
240,109;   21,277;    0,004;    3,773
240,707;   16,473;   -0,996;    1,227
241,305;    1,768;    0,550;    0,136
241,904;    7,495;   -0,178;   -2,045
242,502;   26,231;   -0,632;   -0,227
243,100;   11,276;   -0,087;   -0,955
243,698;    1,585;    0,732;    1,682
244,297;   10,192;   -0,632;    0,682
244,895;    7,861;   -0,269;   -2,318
245,493;   13,981;    2,186;   -0,591
246,091;   17,332;    1,368;   -1,318
246,689;   10,602;    1,004;    0,591
247,287;    9,325;    0,822;   -1,136
247,885;    5,022;   -1,451;    1,227
248,483;    4,503;    1,822;   -0,500
249,081;    7,896;    0,185;    1,591
249,679;    8,521;   -0,178;    1,682
250,277;    3,091;   -1,723;    0,864
250,875;    7,642;   -1,087;   -1,045
251,473;    4,886;   -1,178;    0,500
252,071;   11,321;    1,459;    1,045
252,669;    5,993;   -1,814;    0,318
253,267;    1,186;   -0,087;    0,773
253,864;    3,416;   -0,360;    0,682
254,462;   11,013;    1,640;    1,591
255,060;    5,270;   -0,269;    1,318
255,658;    2,811;    0,822;   -0,136
256,255;    1,049;    0,186;   -2,045
256,853;    6,931;   -0,269;    1,409
257,451;    5,066;    0,822;    1,864
258,048;   36,051;    1,822;    1,864
258,646;   15,010;    1,731;   -1,045
259,243;   20,385;   -0,087;    2,227
259,841;   11,267;   -0,814;    0,318
260,438;    5,569;   -0,087;    0,864
261,036;   12,287;   -1,905;    1,409
261,633;    4,726;   -0,087;    2,227
262,231;   -0,106;    2,731;   -0,045
262,828;   -0,825;   -0,905;    1,136
263,425;    4,045;    0,913;   -0,591
264,023;    1,725;    0,186;    0,045
264,620;    9,731;   -0,360;   -0,318
265,217;   11,450;   -2,087;    3,136
265,815;    4,072;   -1,905;    2,136
266,412;    8,183;    0,731;    0,136
267,009;    4,427;   -1,451;    0,773
267,606;   12,919;    0,822;   -0,955
268,203;    3,482;   -0,269;   -0,591
268,801;    3,718;    1,731;    0,591
269,398;    2,395;   -0,360;    2,500
269,995;    8,266;    0,277;    1,591
270,592;    4,644;   -0,632;   -0,500
271,189;    3,396;    0,186;    0,409
271,786;    0,867;   -0,632;    1,227
272,383;   10,202;   -1,087;    0,227
272,980;    5,432;    0,277;    0,318
273,577;    5,063;    0,004;    1,227
274,174;    0,985;    0,822;    2,591
274,771;    3,811;   -0,814;   -0,773
275,367;   36,060;    2,277;    1,409
275,964;   17,825;    0,731;   -0,500
276,561;    3,547;    1,549;   -1,045
277,158;   -1,115;    0,095;   -1,773
277,755;   13,442;    2,185;    0,409
278,351;    8,552;   -0,451;   -1,500
278,948;    8,983;   -0,815;    0,045
279,545;    6,584;   -1,360;    2,318
280,141;   10,236;   -1,723;   -2,045
280,738;   12,714;   -0,451;   -0,136
281,334;    2,850;   -1,633;    0,591
281,931;   -0,415;   -0,087;   -1,318
282,528;    7,298;    0,822;   -0,500
283,124;   11,104;   -1,087;   -0,500
283,721;    9,755;   -0,451;    1,409
284,317;    3,317;    0,185;    2,500
284,913;    9,123;   -1,360;    0,591
285,510;    9,851;    0,640;   -0,318
286,106;    9,356;   -2,269;   -0,955
286,703;    6,518;   -0,360;    1,955
287,299;    2,085;   -1,451;   -0,591
287,895;    1,641;    0,822;   -1,045
288,491;    2,850;    0,186;    2,136
289,088;    8,603;   -2,360;    2,409
289,684;    6,993;   -1,723;    1,500
290,280;   11,409;    0,368;    0,682
290,876;    9,000;    1,822;    5,500
291,472;    5,886;    1,276;    2,227
292,068;    8,180;    1,367;    0,227
292,665;    2,267;    2,095;    0,773
293,261;    0,675;    0,276;    2,136
293,857;    6,494;    2,913;    2,136
294,453;    3,739;    3,550;    0,955
295,049;   12,666;   -0,268;    1,955
295,644;    4,023;    0,095;    0,136
296,240;    3,607;   -0,905;   -0,136
296,836;    5,904;   -0,995;    0,318
297,432;    8,578;    1,096;   -0,500
298,028;   10,307;    0,732;    0,773
298,624;    5,640;    1,459;    1,864
299,220;    4,067;    2,368;    0,591
299,815;    3,741;    1,005;   -0,409
300,411;    6,212;    0,914;    1,773
301,007;    8,480;    1,368;    0,227
301,602;    1,636;   -0,541;   -2,318
302,198;    7,177;    0,732;   -0,773
302,794;    3,329;    1,187;   -0,500
303,389;   -0,298;   -1,177;    1,045
303,985;    2,255;    0,550;    1,409
304,580;   15,417;    1,459;    1,591
305,176;    7,938;   -3,086;    0,136
305,771;    1,330;   -1,268;   -1,227
306,367;   29,168;    4,095;    0,136
306,962;   10,273;    0,641;    1,500
307,558;   12,543;   -0,450;    0,136
308,153;    4,305;    1,095;   -1,136
308,748;   -2,260;   -0,814;    1,682
309,344;   15,896;   -0,632;   -1,318
309,939;   14,143;   -1,905;   -1,318
310,534;    2,611;   -0,086;   -1,682
311,130;    4,382;    0,459;   -2,500
311,725;    0,224;    1,004;   -0,500
312,320;    2,914;    2,459;    0,045
312,915;    5,432;    1,459;   -1,045
313,510;   19,137;    1,550;   -0,500
314,105;    4,401;    1,096;    1,409
314,700;    1,243;   -3,086;   -1,045
315,295;    3,508;   -0,904;    0,045
315,890;    0,630;    1,277;    0,864
316,485;    2,321;   -0,359;   -0,318
317,080;    1,006;   -3,086;    1,591
317,675;   19,644;    2,005;   -0,682
318,270;   43,192;    5,550;    3,318
318,865;   19,825;    3,278;    3,045
319,460;   11,272;   -0,904;    0,591
320,055;    0,343;   -0,541;   -1,227
320,650;    2,781;   -1,995;   -0,591
321,244;    5,994;   -0,177;   -1,409
321,839;    3,798;   -1,541;   -0,227
322,434;    3,096;   -1,086;   -1,591
323,029;    0,299;    1,732;    1,591
323,623;    2,922;    1,550;    0,773
324,218;   18,096;    2,368;    1,409
324,812;    9,332;    1,096;    1,591
325,407;    6,181;   -0,814;    2,045
326,002;   18,549;    0,277;   -0,409
326,596;    9,871;    0,914;    1,318
327,191;    3,171;    0,823;   -1,045
327,785;    7,507;   -0,813;   -0,227
328,379;    3,808;    1,368;    0,136
328,974;    0,082;    0,914;   -3,955
329,568;    6,245;    0,186;   -2,409
330,163;    9,397;    2,096;    1,045
330,757;    1,238;    2,459;    1,591
331,351;    2,569;    0,459;    0,682
331,945;    1,781;    0,914;    1,409
332,540;    2,209;   -1,723;   -0,591
333,134;    3,243;   -1,086;    0,773
333,728;    4,480;    0,005;    0,318
334,322;    3,439;   -1,177;   -0,864
334,916;    2,275;    0,277;    0,955
335,510;    9,837;   -0,450;   -0,136
336,105;    3,807;   -1,086;    1,591
336,699;    0,491;   -1,086;    0,591
337,293;    1,904;   -1,723;    0,318
337,887;    2,824;   -2,723;    1,955
338,481;    6,479;    0,459;    0,591
339,074;   14,272;   -0,359;    2,682
339,668;   10,892;   -1,632;    1,227
340,262;   61,611;    1,732;    3,227
340,856;   19,122;    1,822;   -0,682
341,450;    3,421;    1,004;    1,864
342,044;    5,541;    1,459;    0,136
342,637;   12,368;    0,913;   -2,136
343,231;    3,068;   -2,360;    0,682
343,825;    5,760;   -1,086;   -0,591
344,419;    4,435;   -1,995;    0,500
345,012;   47,136;    2,459;    4,045
345,606;   23,845;    4,641;    1,591
346,199;    4,534;   -1,813;   -0,227
346,793;    9,063;    1,914;    2,045
347,386;    2,601;   -0,813;   -1,136
347,980;   -2,245;   -0,268;   -0,045
348,573;    2,433;    2,278;    0,409
349,167;   44,650;    5,278;    4,773
349,760;   17,294;    2,914;    2,682
350,354;   13,244;   -0,813;    1,136
350,947;    9,308;    1,096;    1,682
351,540;    3,031;   -0,358;   -1,409
352,134;   -3,341;    1,096;    1,136
352,727;    1,467;   -0,086;    1,136
353,320;    3,766;    0,005;    0,591
353,913;    2,603;   -1,995;    1,864
354,507;    5,436;    0,823;   -1,227
355,100;    0,782;    0,460;    0,864
355,693;   45,397;    2,005;    2,409
356,286;   18,565;    0,823;    2,773
356,879;    6,845;   -0,722;    1,227
357,472;    6,037;   -0,904;    1,500
358,065;    4,261;   -0,722;    2,500
358,658;    0,115;   -0,540;    2,318
359,251;    1,576;   -1,631;   -0,591
359,844;    7,252;   -1,904;   -1,136
360,437;    7,059;   -2,995;    0,045
361,030;    3,302;    1,369;   -0,682
361,623;    4,494;    2,824;    0,318
362,215;   20,162;   -0,086;    2,045
362,808;    5,362;   -2,358;   -1,682
363,401;    2,651;   -2,449;    0,136
363,994;   20,259;   -0,631;   -1,500
364,586;    8,809;    0,824;   -1,500
365,179;    3,392;   -0,449;   -1,136
365,772;    0,596;   -1,995;    2,045
366,364;    3,787;    1,915;   -3,227
366,957;    3,921;    2,279;   -0,045
367,549;    1,886;    2,188;   -0,864
368,142;    3,901;    1,825;   -1,500
368,734;    3,479;    0,734;   -2,136
369,327;   -1,124;    1,643;   -0,500
369,919;    1,866;   -1,538;    0,409
370,512;   -0,914;   -1,083;   -0,500
371,104;   31,826;   -0,901;    1,591
371,696;   29,155;    1,191;   -0,955
372,289;   11,964;    0,373;    1,136
372,881;    7,804;   -2,080;    1,318
373,473;    0,342;   -2,170;    1,136
374,066;    0,362;   -0,169;    0,500
374,658;    4,947;    0,378;    1,136
375,250;    2,202;    0,653;   -1,409
375,842;    1,187;    0,473;   -0,045
376,434;   -4,126;   -0,435;   -0,409
377,026;   -1,747;    0,204;   -2,500
377,618;    3,030;   -0,158;   -0,682
378,210;   -1,196;   -0,338;   -1,955
378,802;    3,324;    0,754;   -0,591
379,394;   52,293;    1,846;    0,682
379,986;   19,996;    1,393;   -0,955
380,578;    6,729;   -0,153;    0,773
381,170;   36,750;   -0,972;    0,045
381,762;   22,866;    0,755;    1,409
382,354;    9,961;   -0,065;   -1,318
382,945;    3,793;   -2,976;    0,318
383,537;   -0,862;   -2,705;   -1,955
384,129;    0,900;   -2,160;   -1,136
384,721;   10,162;   -0,252;    0,955
385,312;    5,189;   -0,161;   -0,955
385,904;    7,825;   -2,706;    1,591
386,496;    7,268;   -0,979;    1,045
387,087;   32,084;    1,022;    2,500
387,679;   16,178;   -1,160;    0,045
388,270;    7,563;    2,840;    2,045
388,862;    8,158;    1,295;   -0,318
389,453;    8,764;   -0,887;    1,045
390,045;    6,036;   -0,705;   -2,682
390,636;   -2,319;    0,204;   -0,591
391,227;    3,874;   -0,523;   -0,045
391,819;    1,653;    0,204;    0,773
392,410;   41,542;    1,022;    0,045
393,001;    9,121;   -0,979;   -1,591
393,593;    9,440;    1,930;   -0,045
394,184;   14,582;    1,385;   -0,409
394,775;    8,586;    1,839;    2,136
395,366;   -1,887;    1,385;    0,773
395,957;    9,822;    0,113;    0,136
396,548;    0,719;   -0,342;    2,682
397,139;   12,325;   -2,433;    0,591
397,730;    6,106;   -1,888;    0,955
398,321;    7,723;   -1,252;    0,955
398,912;    4,476;   -0,615;    0,136
399,503;    2,380;   -3,524;   -1,409
400,094;    0,247;    0,294;    1,682
400,685;    1,894;   -0,433;    0,045
401,276;    1,597;    0,930;   -0,955
401,867;   -2,709;   -0,888;    0,773
402,458;   -4,773;   -2,251;   -2,318
403,048;    4,312;    1,112;    0,591
403,639;    1,946;    0,840;    0,864
404,230;   17,592;    2,476;    0,318
404,821;   20,198;   -0,615;    0,045
405,411;    8,526;    1,203;   -2,591
406,002;    0,410;   -1,252;   -1,136
406,592;   37,395;    2,294;    0,045
407,183;   15,768;    0,566;   -1,500
407,774;   13,455;    3,475;   -0,136
408,364;    4,336;    0,930;    0,409
408,954;   12,823;    0,384;    1,227
409,545;    9,450;    1,021;    1,045
410,135;   10,716;    1,293;    0,500
410,726;    3,595;    1,838;    0,318
411,316;   32,031;    0,111;    0,773
411,906;   14,826;   -0,253;   -0,409
412,497;   11,624;   -1,070;   -0,045
413,087;    3,723;   -1,980;   -0,227
413,677;   -3,040;   -0,707;    3,864
414,267;    0,038;    0,656;    1,409
414,857;   -0,035;   -2,980;    4,227
415,448;    1,467;    0,839;    0,500
416,038;    0,574;    0,020;   -0,591
416,628;    3,405;   -0,889;    0,409
417,218;    6,083;    0,565;    3,318
417,808;   28,647;    0,202;   -0,409
418,398;   11,832;    0,020;    2,682
418,988;    0,574;    2,020;    0,591
419,578;   16,613;   -0,707;    1,409
420,168;    4,286;   -1,343;   -0,955
420,757;   17,377;   -1,343;   -1,500
421,347;    5,822;    0,111;   -0,227
421,937;    2,632;    2,292;    1,409
422,527;   18,762;    0,838;   -0,773
423,116;   42,467;   -0,253;   -0,045
423,706;    9,323;   -1,889;    0,318
424,296;    1,499;    1,384;    0,682
424,885;   14,681;   -0,071;   -3,045
425,475;   10,453;    1,474;   -2,864
426,065;    1,721;   -0,980;   -0,318
426,654;    0,665;   -0,435;   -0,318
427,244;   29,557;    0,020;    1,409
427,833;   18,173;    1,383;   -0,500
428,423;    6,722;   -0,526;    1,136
429,012;    5,167;   -0,344;   -1,136
429,601;   22,210;   -1,344;    0,136
430,191;   11,223;    1,292;    4,318
430,780;    2,181;   -0,344;   -0,409
431,369;   20,486;    0,746;   -0,045
431,959;    6,411;   -1,254;    0,500
432,548;   -1,125;   -1,163;   -0,045
433,137;   -5,816;   -1,254;   -1,318
433,726;    2,066;    0,292;    0,500
434,315;    2,547;   -0,526;    2,409
434,905;   19,487;   -1,254;    1,409
435,494;   11,518;    0,746;    0,955
436,083;    0,535;   -0,981;   -0,955
436,672;   17,753;    0,110;    0,500
437,261;    8,727;    0,292;   -1,955
437,850;   34,969;    1,383;    0,682
438,439;   45,989;    3,291;    1,955
439,027;   72,104;    3,655;    1,773
439,616;   41,256;    2,927;    1,227
440,205;   13,198;    0,200;   -2,136
440,794;    7,816;    2,109;   -0,045
441,383;    4,073;   -1,346;   -0,591
441,971;    2,970;   -2,436;    0,591
442,560;    1,589;    0,563;   -1,773
443,149;   -3,105;    0,379;   -1,318
443,737;   -5,363;   -0,074;   -2,318
444,326;   -2,675;    0,018;    0,318
444,915;    4,856;   -1,982;    0,864
445,503;    9,459;   -2,891;   -0,318
446,092;   69,756;    0,382;    2,136
446,680;   47,892;    0,382;    0,318
447,269;   17,100;   -0,346;   -0,318
447,857;   15,797;    0,018;   -1,773
448,445;    9,728;    0,563;    1,318
449,034;    2,984;   -1,528;   -1,136
449,622;    5,442;   -1,073;    3,500
450,210;   36,753;    2,017;    2,227
450,799;   21,865;    0,290;   -0,591
451,387;   22,799;    1,381;   -0,591
451,975;   20,857;    2,654;    0,864
452,563;   33,347;    3,472;    2,318
453,151;   11,162;   -0,528;   -1,227
453,739;    5,376;   -1,347;    0,136
454,328;   19,972;    2,381;   -2,136
454,916;   12,475;    2,562;   -0,136
455,504;   19,795;    1,017;    1,227
456,092;    6,757;    0,017;   -1,591
456,679;    4,583;    1,472;    0,682
457,267;   78,189;    4,017;    1,045
457,855;   22,406;    1,017;    1,409
458,443;   -0,522;   -0,165;    1,682
459,031;    7,251;    0,108;    2,409
459,619;    7,393;   -1,801;    2,864
460,206;    3,239;    0,835;    2,045
460,794;    1,646;   -2,983;   -0,227
461,382;    2,465;   -0,529;   -0,864
461,970;    6,917;    1,198;    1,864
462,557;    0,003;   -0,711;   -0,682
463,145;    4,969;   -3,165;   -1,682
463,732;   49,611;    2,016;   -1,045
464,320;   17,411;   -0,075;   -3,045
464,907;   28,020;    2,743;   -0,773
465,495;   12,709;    0,743;   -1,227
466,082;    6,131;   -1,984;   -0,045
466,670;   13,325;   -2,529;    1,227
467,257;    1,991;   -1,711;    2,045
467,844;    7,747;   -0,075;    0,045
468,432;    5,032;    0,834;    3,500
469,019;    2,843;    0,925;   -1,773
469,606;   20,885;    0,470;    3,682
470,193;   18,720;   -1,439;    0,227
470,780;    7,177;   -2,075;    0,864
471,368;    2,868;   -1,257;   -0,773
471,955;   16,114;    1,379;   -0,682
472,542;    9,284;    0,652;   -1,136
473,129;    1,131;   -0,166;    0,136
473,716;    1,109;    1,470;    0,591
474,303;    5,660;    0,652;   -0,864
474,890;    2,712;   -1,439;   -0,500
475,477;   18,841;   -1,621;    0,409
476,064;    8,201;    1,106;   -1,591
476,650;   25,123;    0,288;    0,318
477,237;   10,214;   -0,258;    0,955
477,824;    4,960;   -1,076;    0,864
478,411;   -2,415;   -1,894;   -0,318
478,997;   -3,619;    0,560;   -0,773
479,584;   -3,438;    1,196;   -0,409
480,171;    9,344;   -0,440;   -0,773
480,757;   12,972;    2,651;    0,773
481,344;    4,712;    0,469;    0,409
481,931;   -1,953;    1,105;    1,045
482,517;   10,399;   -1,258;    0,318
483,104;   20,742;    1,106;    2,864
483,690;    5,388;   -1,804;    0,045
484,276;    0,819;   -0,895;    0,227
484,863;   31,598;    2,469;    1,136
485,449;   12,691;   -0,077;    0,318
486,035;    2,523;   -1,986;   -0,136
486,622;   11,277;   -0,895;    0,045
487,208;    2,319;    1,378;    1,500
487,794;   -2,168;    0,741;    0,318
488,380;   -6,326;    0,105;   -1,409
488,967;   -6,481;   -1,168;   -0,409
489,553;   -3,801;   -1,895;   -1,409
490,139;    6,204;    1,559;    0,773
490,725;    0,855;    0,741;   -0,227
491,311;    5,839;    3,287;    3,045
491,897;    1,394;   -0,986;    1,500
492,483;    1,782;    0,105;    1,227
493,069;   74,132;    3,923;    0,864
493,655;   27,736;    1,650;    0,682
494,241;    5,265;    1,377;   -0,955
494,826;    5,196;    0,287;   -1,045
495,412;    9,379;    2,559;   -0,682
495,998;    2,078;   -0,805;   -0,318
496,584;    7,767;    0,377;    1,045
497,169;   11,708;    1,014;   -0,682
497,755;    3,725;    0,650;    1,227
498,341;   18,614;    0,559;    0,318
498,926;   42,480;    1,832;    1,955
499,512;    8,264;    1,286;    2,955
500,097;   -0,384;    0,195;   -0,318
500,683;    6,126;   -0,350;    2,136
501,268;    2,678;   -0,169;   -0,955
501,854;    7,895;   -0,169;    1,227
502,439;    3,889;   -0,624;   -1,773
503,024;    0,191;    0,195;    0,500
503,610;    4,910;   -0,078;   -0,682
504,195;    0,399;    0,558;    1,955
504,780;   13,599;    2,922;    1,227
505,366;   32,036;    3,013;    2,864
505,951;   17,418;    0,740;    1,045
506,536;    5,128;   -3,260;   -3,682
507,121;   12,093;    0,285;   -0,318
507,706;    9,011;    2,376;    1,045
508,291;    1,239;    2,649;    1,136
508,876;   -1,321;   -0,988;    2,591
509,461;   -0,112;   -0,169;   -0,773
510,046;    6,695;    0,194;    0,318
510,631;   11,826;   -0,351;   -0,773
511,216;    2,594;    2,467;   -0,500
511,801;   14,772;   -0,442;    2,591
512,386;   13,121;    0,740;    0,500
512,971;    9,024;   -2,988;    0,955
513,555;   12,057;   -0,897;   -1,500
514,140;    7,261;   -0,442;   -3,136
514,725;   27,993;   -0,715;   -1,136
515,309;   13,338;   -0,533;    0,318
515,894;    3,334;   -0,624;   -2,227
516,479;   10,455;   -0,624;   -0,955
517,063;    5,883;    0,376;    1,227
517,648;    1,895;    1,012;   -1,136
518,232;   -1,866;   -0,261;   -1,409
518,817;    8,412;   -0,079;    1,682
519,401;   21,757;    2,194;    0,591
519,985;   21,460;    1,103;    1,136
520,570;    8,788;    0,830;   -1,955
521,154;   14,011;    2,102;    0,591
521,738;   31,368;   -2,352;    2,409
522,323;   13,356;   -0,170;    1,682
522,907;   16,358;    0,466;   -0,136
523,491;   10,912;    0,557;    0,955
524,075;   10,917;    2,284;    0,591
524,659;   53,504;    1,466;    0,591
525,243;   47,971;    1,739;    0,409
525,827;   39,192;    0,648;   -0,045
526,411;   47,049;   -1,989;   -0,136
526,995;   77,805;   -0,352;    1,409
527,579;  110,735;   -0,443;   -1,045
528,163;   93,421;    0,375;   -1,500
528,747;  132,588;    2,466;   -0,773
529,331;  124,483;   -0,080;   -1,409
529,915;   72,246;    1,738;    0,955
530,499;  123,700;   -0,807;    1,227
531,082;  251,456;   -0,534;    1,591
531,666;  327,137;    1,374;    0,773
532,250;  251,865;    1,284;    2,682
532,833;  321,848;    0,920;    2,773
533,417;  242,219;   -1,807;    0,864
534,001;  352,822;    1,647;   -0,318
534,584;  296,978;    0,374;    0,500
535,168;  174,426;    0,465;    1,409
535,751;  470,050;    0,647;    0,045
536,334;  282,350;   -0,898;   -0,409
536,918;  150,978;    0,011;    1,591
537,501;  175,747;   -0,899;    1,318
538,085;  224,860;   -0,444;    1,045
538,668;  311,774;    0,829;    2,409
539,251;  553,688;    1,829;    3,773
539,834;  307,767;    0,101;    0,773
540,418;  434,398;   -1,990;    4,318
541,001;  605,463;   -0,990;    1,773
541,584;  397,150;    2,101;    2,227
542,167;  514,501;    1,374;    2,955
542,750;  345,439;    1,919;   -0,773
543,333;  241,355;    0,555;    2,136
543,916;  458,017;    0,192;    2,500
544,499;  400,774;   -1,354;    0,227
545,082;  476,418;    1,374;    3,591
545,665;  395,213;    1,919;    1,500
546,248;  524,355;    1,010;   -0,318
546,830;  503,976;   -0,445;    1,955
547,413;  468,953;    1,010;   -0,773
547,996;  434,810;    0,555;    0,500
548,579;  400,405;    0,919;    0,955
549,161;  643,868;    1,828;    2,682
549,744;  526,282;   -0,809;    0,409
550,326;  376,742;   -0,809;   -1,136
550,909;  842,875;    2,737;    0,591
551,492;  496,088;   -0,263;    0,227
552,074;  627,900;   -0,173;   -1,318
552,657;  660,811;    2,373;    0,045
553,239;  525,371;   -0,173;   -0,773
553,821;  385,766;   -1,082;    1,045
554,404;  652,534;    1,282;    1,136
554,986;  763,752;    0,464;    1,045
555,568;  599,585;    1,191;   -0,955
556,151;  808,499;    1,191;   -0,227
556,733;  480,464;   -0,264;   -0,864
557,315;  502,470;    0,100;    0,500
557,897;  376,820;    0,554;   -0,500
558,479;  394,737;   -1,991;    1,318
559,061;  486,645;   -0,719;   -0,864
559,643;  536,511;   -0,264;    0,045
560,225;  579,684;    1,645;    2,864
560,807;  418,693;    0,918;    0,318
561,389;  398,165;    0,554;    2,318
561,971;  499,370;    0,463;    2,136
562,553;  413,013;   -1,628;    1,591
563,135;  507,278;   -0,537;    1,136
563,717;  912,274;    3,372;    1,136
564,298;  801,032;    3,645;   -0,045
564,880;  550,161;    0,645;   -1,409
565,462;  372,343;    0,645;    1,318
566,043;  506,517;   -0,446;    2,318
566,625;  829,605;    1,918;    1,227
567,207;  642,113;    1,099;    1,682
567,788;  482,129;   -1,264;    1,500
568,370;  484,294;    1,917;   -0,500
568,951;  486,421;    0,190;    0,227
569,533;  592,700;   -0,628;   -0,500
570,114;  606,908;   -0,446;    0,682
570,695;  641,662;   -0,174;   -1,318
571,277;  620,062;   -0,265;   -1,682
571,858;  831,306;    2,008;   -1,136
572,439;  662,175;    1,554;   -1,045
573,021;  699,608;    2,099;   -2,773
573,602;  816,660;   -1,265;    0,318
574,183;  753,516;   -2,083;    2,227
574,764;  690,234;   -1,629;    0,409
575,345;  893,358;    0,917;   -0,136
575,926;  707,464;   -0,356;    0,136
576,507;  807,384;    1,099;   -0,227
577,088;  760,656;    3,099;    1,682
577,669;  941,531;    0,735;    1,955
578,250; 1141,244;    0,644;   -1,045
578,831;  906,254;   -1,356;   -2,227
579,412;  881,081;   -0,810;    0,955
579,993;  870,271;    1,008;    0,227
580,573;  786,002;   -0,629;   -0,955
581,154;  926,353;    0,735;   -0,591
581,735;  945,890;    0,644;    0,773
582,315; 1094,072;   -0,629;    2,136
582,896;  877,325;   -0,174;    1,227
583,477;  720,215;    0,189;    1,227
584,057;  867,270;    0,553;    0,955
584,638;  991,089;    2,553;    2,318
585,218; 1243,355;   -0,538;    2,682
585,799; 1048,513;    0,281;   -0,227
586,379;  900,929;    0,372;    1,591
586,959;  869,973;    0,735;    0,318
587,540;  770,424;   -0,629;    2,227
588,120;  798,782;    1,007;   -0,045
588,700;  816,441;    2,553;    2,136
589,281; 1010,637;    0,462;   -0,955
589,861;  854,747;    0,099;   -1,682
590,441;  704,733;    2,371;   -2,682
591,021;  807,086;   -0,265;   -2,591
591,601;  751,909;   -0,537;    0,500
592,181;  737,352;   -0,719;   -0,773
592,761;  633,371;    0,007;    1,409
593,341;  765,969;   -0,901;    0,045
593,921;  772,473;   -0,265;    1,591
594,501;  665,338;   -0,538;    1,318
595,081;  664,014;    0,917;   -0,318
595,661;  749,500;   -1,447;    0,955
596,240;  684,364;   -0,537;    0,136
596,820; 1124,490;    0,372;    1,955
597,400;  818,038;    2,008;    0,773
597,980;  701,432;    2,008;    1,045
598,559;  648,120;    2,735;   -0,227
599,139;  634,683;   -0,174;   -1,227
599,718;  629,683;   -0,174;   -0,409
600,298;  619,212;    0,735;    0,682
600,877; 1144,259;    2,917;    1,409
601,457;  830,930;    2,281;    1,136
602,036;  701,178;    0,190;    2,045
602,616;  757,793;    0,644;    1,682
603,195;  892,836;   -0,355;    3,500
603,774;  963,308;   -0,901;    2,045
604,354;  876,131;    0,826;   -0,500
604,933;  810,263;    0,463;    1,864
605,512;  912,866;    3,554;    0,591
606,091;  913,996;   -0,537;    3,773
606,671;  860,841;    0,281;    0,773
607,250; 1042,666;    1,644;    3,136
607,829;  983,414;    2,372;    3,227
608,408;  807,807;    1,190;    2,591
608,987;  933,350;    1,281;    3,409
609,566;  742,322;   -1,265;   -2,500
610,145;  841,997;   -1,082;    0,682
610,723;  891,101;    4,372;    6,864
611,302;  800,777;   -0,446;    1,682
611,881; 1107,256;    5,008;   11,227
612,460;  796,719;    1,645;    3,955
613,039;  673,387;   -0,082;    2,045
613,617;  655,882;    1,736;    4,773
614,196;  680,629;    1,099;    1,227
614,775;  760,652;    1,009;    2,409
615,353;  818,709;    0,736;    0,864
615,932;  780,535;    0,100;    2,409
616,510;  765,558;    0,554;    0,591
617,089; 1309,452;    7,100;   17,591
617,667;  880,720;    2,372;    6,136
618,246;  626,867;   -1,537;    1,318
618,824;  713,514;   -3,355;   -0,955
619,402;  740,790;   -2,900;   -1,773
619,981;  802,205;   -0,173;   -1,045
620,559;  703,177;    0,009;    1,682
621,137;  728,467;   -0,718;    1,864
621,715;  618,116;   -1,173;   -0,682
622,293;  648,372;   -0,537;   -0,773
622,871;  669,833;   -0,718;    0,500
623,450;  602,310;    0,373;   -0,864
624,028;  820,175;    0,191;   -0,955
624,606;  777,688;   -1,718;    1,682
625,183;  573,100;   -1,536;   -1,136
625,761;  726,733;    1,009;    1,136
626,339; 1053,793;    1,373;    2,591
626,917;  668,397;   -0,172;   -0,045
627,495;  603,498;   -0,354;    1,318
628,073;  740,908;   -0,263;    2,864
628,650;  764,980;    0,100;    2,136
629,228;  768,662;    0,373;    4,409
629,806;  564,531;    2,282;    1,136
630,383;  623,115;    1,464;   -0,318
630,961;  631,532;    2,555;   -0,955
631,539;  681,744;    2,464;    0,227
632,116; 1416,623;   11,373;   15,409
632,694; 1010,848;    2,555;    6,500
633,271;  850,480;    0,828;    2,682
633,848;  963,341;    1,828;    2,045
634,426;  665,358;   -1,081;    1,773
635,003;  525,430;    1,101;   -0,409
635,580;  965,055;    1,192;    3,682
636,158;  820,593;    3,737;    1,227
636,735;  622,208;    0,555;   -0,500
637,312;  619,809;   -0,809;   -0,682
637,889;  626,433;   -4,354;   -0,682
638,466;  613,855;   -3,990;   -0,409
639,043;  660,405;    2,101;   -1,136
639,620;  575,037;   -2,262;   -0,955
640,197;  720,871;    1,100;    1,682
640,774;  532,424;   -0,172;    1,136
641,351;  618,704;    0,737;    1,136
641,928;  819,166;   -0,627;    1,409
642,505;  949,901;    0,828;   -0,500
643,082;  757,363;   -1,718;    1,227
643,658;  603,825;   -0,718;    1,500
644,235;  590,924;    1,191;    2,500
644,812;  798,659;    1,918;    0,773
645,388;  777,575;   -0,991;    1,409
645,965;  540,037;   -0,809;    1,682
646,542;  554,408;   -1,445;   -0,227
647,118;  966,689;    1,009;   -0,955
647,695;  741,514;   -0,263;    1,136
648,271;  537,249;   -0,536;    0,500
648,848;  722,893;    0,736;    2,227
649,424;  856,355;    0,827;    1,318
650,000;  666,545;   -0,354;   -1,045
650,577;  698,643;   -0,627;   -0,955
651,153;  704,741;   -1,809;    0,955
651,729;  645,204;    1,191;    0,864
652,305; 1028,575;    0,645;    2,773
652,881; 1003,764;   -0,082;    1,136
653,458; 1148,317;    1,100;    0,227
654,034; 1252,961;    0,282;    1,591
654,610; 1384,696;    0,554;    0,773
655,186; 1894,885;    0,645;    3,045
655,762; 1394,074;   -0,991;    0,409
656,338; 1360,991;    0,100;    0,136
656,913; 1463,544;   -0,082;    0,409
657,489; 1234,552;    0,827;   -0,318
658,065; 1348,832;   -0,173;   -1,591
658,641; 1390,385;   -0,900;   -0,864
659,217; 1295,392;   -0,991;    0,409
659,792; 1442,582;    0,645;   -0,409
660,368; 1239,953;   -2,173;   -0,682
660,944; 1273,233;   -2,082;    1,227
661,519; 1135,604;   -0,628;    0,409
662,095;  850,976;   -1,719;    0,591
662,670;  678,710;    1,281;   -0,136
663,246;  597,172;    1,009;   -0,409
663,821;  783,089;    0,281;    1,682
664,396;  724,278;    0,009;    1,864
664,972;  623,922;    0,009;   -0,500
665,547;  701,748;    1,372;    0,136
666,122;  672,483;   -1,082;    0,318
666,698;  869,854;   -0,173;    0,318
667,273;  630,134;   -0,173;    0,136
667,848;  676,051;    2,372;    1,500
668,423;  862,695;    2,190;    2,318
668,998;  691,611;    2,827;   -0,682
669,573;  651,346;   -3,264;   -1,500
670,148;  857,081;   -1,446;   -0,682
670,723;  613,816;   -1,810;    0,318
671,298;  937,914;    2,372;    1,045
671,873;  830,467;   -0,082;   -0,136
672,448;  812,384;    0,645;    0,136
673,023;  804,573;   -1,992;   -0,227
673,597;  920,763;    0,827;    2,318
674,172;  975,043;   -0,355;    0,318
674,747;  867,141;    0,372;   -1,045
675,321;  603,331;   -0,628;    3,318
675,896;  533,247;    0,645;    1,045
676,471;  771,437;    2,645;    1,591
677,045;  692,808;   -1,264;    0,682
677,620;  797,270;    0,190;    1,136
678,194;  623,641;   -2,628;    1,136
678,769;  702,012;   -1,083;   -0,318
679,343;  760,565;   -0,628;    1,773
679,917;  895,209;   -1,446;    1,955
680,492;  724,398;    0,826;    3,227
681,066;  767,133;    3,372;    0,409
681,640;  688,323;    1,463;   -0,318
682,214;  705,421;    0,735;    0,500
682,788;  710,338;   -1,356;   -0,773
683,363;  869,436;   -1,810;    1,682
683,937;  729,807;   -1,719;   -0,318
684,511;  770,360;    0,463;   -0,591
685,085;  785,186;   -1,356;    0,318
685,659;  676,921;   -2,538;    0,864
686,232;  937,837;   -0,356;   -0,318
686,806;  803,481;   -0,901;    0,409
687,380;  678,762;   -0,174;    0,591
687,954;  616,587;   -1,174;    1,136
688,528;  961,777;   -0,719;    1,955
689,101;  783,693;   -3,992;    1,045
689,675;  670,064;   -0,356;   -0,136
690,249;  946,345;   -0,719;    0,409
690,822;  931,716;    0,280;    0,318
691,396;  800,632;   -0,265;    1,227
691,969;  724,640;    1,280;    0,136
692,543;  614,557;   -0,447;   -1,955
693,116;  575,382;   -0,265;   -1,409
693,690;  684,390;    0,099;    0,500
694,263;  625,488;   -1,083;    2,955
694,836; 1010,678;    1,371;    3,591
695,410;  881,322;   -0,265;    1,773
695,983;  903,147;    0,189;    0,591
696,556;  683,609;   -0,447;   -1,045
697,129;  597,344;   -0,356;    1,409
697,703;  833,170;   -1,629;    1,955
698,276;  721,814;    1,462;   -0,773
698,849;  889,367;    1,280;    1,409
699,422;  634,374;   -1,083;    0,591
699,995;  519,109;    0,007;    0,136
700,568;  683,208;   -0,629;    3,045
701,140;  712,942;   -2,811;    1,682
701,713;  887,950;   -0,174;    2,409
702,286;  775,957;   -0,538;    0,864
702,859;  853,874;   -0,902;   -0,591
703,432;  936,154;    0,825;    0,682
704,004;  813,071;    0,462;    0,318
704,577;  680,897;   -0,629;    0,136
705,150;  732,995;    0,189;    2,500
705,722;  794,003;   -0,356;   -3,227
706,295;  867,465;   -0,175;   -0,591
706,867;  735,109;   -0,175;    1,955
707,440;  837,116;   -1,720;   -0,409
708,012;  918,033;    0,462;    0,591
708,584;  814,404;    2,462;    0,227
709,157;  579,048;    1,825;   -0,591
709,729;  832,237;    2,280;    2,045
710,301;  683,972;    0,734;    0,045
710,874;  703,616;   -1,447;   -0,227
711,446;  570,987;    0,371;    0,864
712,018;  651,904;    0,098;    0,500
712,590;  593,275;   -1,993;    1,682
713,162;  898,010;    0,825;    1,318
713,734;  663,381;    1,825;   -2,045
714,306;  572,116;   -1,902;   -0,409
714,878;  635,760;    0,825;    0,864
715,450;  593,403;    0,643;    0,864
716,022;  605,684;    1,552;    1,318
716,593;  591,873;    0,189;    0,591
717,165;  650,972;   -3,175;   -1,227
717,737;  922,888;    0,280;    0,409
718,309;  684,805;    0,280;   -0,045
718,880;  610,903;   -0,539;   -1,409
719,452;  680,456;   -0,175;   -1,591
720,024;  785,191;    0,734;   -0,591
720,595;  668,199;   -2,902;    0,955
721,167;  653,024;    0,370;   -2,045
721,738;  787,486;   -0,812;   -1,045
722,309;  942,767;   -0,993;   -1,227
722,881;  654,138;   -1,357;    0,773
723,452;  743,873;   -2,630;    2,864
724,023;  773,880;   -0,721;    2,682
724,595;  838,069;    0,007;    0,682
725,166;  683,895;    0,007;   -0,409
725,737;  908,539;    1,734;    0,227
726,308;  676,728;   -0,266;    0,318
726,879;  576,827;   -1,630;    1,227
727,450;  777,289;    0,552;   -0,045
728,021;  691,842;    3,097;    0,682
728,592;  872,668;    0,734;    0,500
729,163;  968,221;    0,643;   -0,136
729,734;  949,955;    0,188;   -0,227
730,305;  786,599;    1,734;    0,136
730,876;  743,880;    0,188;    2,955
731,447; 1089,251;    2,188;    2,682
732,017;  979,258;    1,097;    1,864
732,588;  764,811;    0,734;    1,227
733,159; 1051,637;    0,643;   -1,045
733,729;  759,372;    0,006;    0,409
734,300;  921,379;    0,915;    0,864
734,870;  731,114;    3,461;    0,591
735,441;  706,667;    0,370;   -0,591
736,011;  696,038;    0,643;   -1,591
736,582;  712,591;   -0,812;    0,045
737,152;  848,053;   -1,721;   -2,045
737,722;  813,515;   -0,267;   -0,682
738,293;  649,887;   -1,358;    1,318
738,863;  844,349;    2,461;    2,318
739,433; 1135,174;    5,279;    0,318
740,003;  822,091;   -0,994;   -0,682
740,573;  963,099;    2,097;   -1,591
741,143;  819,470;   -1,085;    0,318
741,713;  709,477;    1,188;   -0,500
742,283;  788,121;    0,915;    1,591
742,853;  714,856;    1,915;    1,591
743,423;  527,773;    1,733;    0,045
743,993;  655,326;   -0,358;    1,500
744,563;  707,424;    0,097;   -0,864
745,133;  742,068;   -0,812;   -0,864
745,702;  616,166;   -0,267;    1,773
746,272;  848,174;   -0,176;    0,591
746,842;  873,636;   -1,358;   -0,591
747,411;  644,007;   -0,267;   -0,318
747,981;  528,469;    0,097;    0,500
748,551;  530,749;    2,278;   -1,045
749,120;  747,666;    0,642;   -0,227
749,690;  685,037;   -0,631;    2,409
750,259;  801,408;    1,369;    2,955
750,828;  862,416;    1,551;   -1,955
751,398;  618,424;    1,278;   -0,045
751,967; 1131,795;    2,187;    0,409
752,536;  748,439;   -0,813;   -0,227
753,105;  863,810;    0,096;    0,227
753,675;  698,181;    0,096;    1,773
754,244;  706,825;   -0,904;    3,591
754,813;  744,469;    0,551;    1,227
755,382;  702,931;    0,460;    0,955
755,951;  843,666;    1,551;    3,682
756,520;  955,219;   -0,085;    1,864
757,089; 1071,408;    0,278;    0,500
757,658;  793,688;    1,733;    1,227
758,227;  620,332;    1,096;    0,318
758,795;  676,158;    1,187;    1,136
759,364;  685,256;   -0,086;   -0,591
759,933;  613,264;   -1,176;   -0,045
760,501;  546,362;    0,733;   -1,318
761,070;  716,370;   -2,813;   -1,409
761,639;  679,559;   -1,904;    1,318
762,207;  811,021;    1,551;   -0,955
762,776;  857,847;    0,369;    0,864
763,344;  701,491;   -0,995;    0,591
763,913;  492,226;   -0,722;    1,409
764,481; 1063,597;    1,005;   -0,136
765,049; 1056,786;   -1,358;    1,409
765,618;  962,521;   -0,086;    0,318
766,186;  763,892;    0,278;    0,136
766,754;  815,536;    0,005;    1,864
767,322;  682,089;   -1,995;    0,409
767,890;  633,097;   -0,722;   -1,773
768,459;  639,468;   -2,177;   -0,318
769,027;  873,203;    1,641;    3,409
769,595;  683,301;    3,278;    2,591
770,163;  772,127;    3,823;    2,955
770,730;  761,043;    0,732;   -0,136
771,298;  734,960;    0,187;   -1,409
771,866;  653,513;   -1,541;    4,955
772,434;  690,430;   -0,631;   -1,864
773,002;  914,619;    0,005;    0,682
773,569;  772,172;    0,914;    1,682
774,137;  905,543;   -0,268;   -0,045
774,705;  676,914;    0,278;   -0,136
775,272;  641,467;    0,641;    0,682
775,840;  672,202;   -0,177;    2,682
776,407;  796,119;    0,277;    1,955
776,975;  667,217;   -0,632;    0,318
777,542;  603,588;   -1,086;   -0,045
778,110;  638,869;   -1,268;   -0,045
778,677;  502,331;   -2,359;   -0,864
779,244;  586,611;    2,186;    1,045
779,812;  761,346;    1,823;    0,864
780,379;  855,535;    0,005;    1,136
780,946;  710,270;    1,005;   -0,773
781,513;  610,641;   -1,450;    0,318
782,080;  581,012;   -0,086;    2,864
782,647;  606,292;   -0,268;    3,045
783,214;  584,391;   -0,177;    3,864
783,781;  813,671;   -0,723;   -0,682
784,348;  746,497;   -0,632;    1,500
784,915;  512,141;   -3,177;    0,318
785,482;  763,603;    1,368;    2,591
786,049;  685,065;    0,186;   -0,591
786,615;  558,618;    0,277;   -0,955
787,182;  511,898;    0,186;   -0,682
787,749;  488,451;   -2,814;    1,409
788,315;  736,550;   -1,632;   -0,409
788,882;  602,921;    1,550;   -1,227
789,448;  924,019;    1,732;   -0,955
790,015;  676,390;    1,095;    3,227
790,581;  868,671;    1,459;    0,227
791,148;  672,587;    0,641;    1,045
791,714;  550,049;   -0,541;    3,136
792,280;  562,330;    0,186;    1,591
792,847;  506,064;    0,550;    2,500
793,413;  592,345;   -0,269;   -0,318
793,979;  820,443;    3,459;   -1,318
794,545; 1122,360;    4,459;    2,682
795,111;  999,458;    2,186;    1,318
795,678;  831,920;    0,731;   -1,682
796,244; 1006,928;    3,368;    0,136
796,810;  843,844;    1,731;    0,773
797,375;  842,216;    0,549;   -2,136
797,941;  493,859;   -0,541;    0,591
798,507;  504,049;   -0,451;   -0,955
799,073;  540,329;   -0,360;    0,591
799,639;  537,518;   -2,632;    3,136
800,205;  490,344;    0,095;    2,682
800,770;  533,170;    0,640;    1,773
801,336;  550,814;    1,368;   -0,955
801,901; 1179,912;    4,549;    3,136
802,467;  802,102;   -0,542;    2,045
803,033;  574,200;   -0,087;    0,864
803,598;  575,389;    1,913;   -1,045
804,163;  581,579;    1,095;   -0,318
804,729;  690,314;   -0,178;    1,136
805,294;  573,503;    0,822;    2,227
805,859;  508,510;    0,731;   -0,409
806,425;  929,972;    1,186;    2,682
806,990;  913,253;    2,186;    4,318
807,555;  643,169;   -1,451;    2,591
808,120;  805,268;    0,822;   -0,409
808,685;  581,821;    0,185;   -2,500
809,250;  481,192;    0,004;   -0,500
809,815;  471,472;    1,913;    0,682
810,380;  614,389;   -0,269;    1,591
810,945;  801,215;   -1,087;    2,045
811,510;  622,858;    2,094;    1,591
812,075;  689,775;   -0,633;   -1,409
812,640;  941,328;    2,003;    1,409
813,204;  671,608;    0,822;   -0,227
813,769;  818,252;    2,094;   -0,045
814,334;  815,351;    0,458;    0,864
814,898;  514,085;    0,367;    0,591
815,463;  641,184;    1,276;   -0,773
816,027;  582,373;   -0,724;   -2,318
816,592;  492,199;    0,640;   -2,045
817,156;  687,207;    2,094;    1,136
817,721;  812,487;    4,276;    2,318
818,285;  514,585;    2,912;    1,500
818,849;  584,502;   -1,451;    1,682
819,414;  509,964;   -0,269;    2,955
819,978;  454,426;   -1,269;    1,773
820,542;  776,615;    2,003;    0,500
821,106;  592,987;   -0,815;    0,682
821,670;  813,812;   -0,815;    2,591
822,234;  571,274;   -0,270;    1,409
822,798;  465,464;    0,003;    0,500
823,362;  719,471;   -0,633;    4,227
823,926;  557,842;    0,094;    1,136
824,490;  764,304;   -0,997;   -0,682
825,054;  621,039;   -0,088;   -1,136
825,618;  509,683;   -1,542;   -1,500
826,181;  575,691;    0,458;   -1,318
826,745;  693,698;    1,367;   -1,045
827,309;  909,706;    1,185;    1,318
827,872;  777,531;    1,367;    0,955
828,436;  644,448;    1,185;   -0,773
828,999;  532,637;   -0,997;    1,227
829,563;  516,918;   -0,179;    1,136
830,126;  491,925;   -0,179;   -0,591
830,690;  610,115;   -1,997;    2,864
831,253;  524,031;   -0,543;    2,227
831,816;  577,948;   -1,906;    0,500
832,380;  532,410;    0,185;    0,864
832,943;  501,781;   -1,361;   -0,500
833,506;  517,061;    2,639;   -1,227
834,069;  669,433;    3,912;   -0,955
834,632;  504,622;    1,730;    1,318
835,195;  557,811;    1,003;    0,955
835,758;  490,182;   -0,997;    1,955
836,321;  513,826;    0,730;   -1,045
836,884;  473,470;   -0,725;   -0,955
837,447;  417,387;   -2,816;    1,773
838,010;  611,758;    0,366;    3,227
838,573;  614,675;   -1,179;    0,773
839,135;  459,137;   -1,361;   -0,955
839,698;  544,872;    1,275;    0,409
840,261;  485,515;    1,003;   -0,227
840,823;  434,159;   -0,543;    0,864
841,386;  419,440;   -0,452;   -2,409
841,948;  751,265;   -1,361;    1,773
842,511;  519,818;    0,912;    1,682
843,073;  731,735;    1,912;    0,227
843,636;  474,561;   -0,361;   -0,227
844,198;  702,023;    0,911;    0,591
844,760;  655,030;    1,093;    1,955
845,322;  446,856;    0,548;    1,136
845,885;  596,409;    0,730;    0,591
846,447;  524,598;   -1,998;    0,227
847,009;  878,515;    1,911;   -0,682
847,571;  572,886;    0,820;   -2,045
848,133;  517,712;   -1,089;   -1,864
848,695;  369,083;   -0,543;    1,409
849,257;  463,909;   -1,089;   -1,682
849,819;  618,643;   -0,998;   -0,409
850,381;  473,924;   -0,725;   -0,864
850,942;  553,386;    1,093;   -0,591
851,504;  636,757;    1,184;    0,227
852,066;  473,946;    1,275;   -1,591
852,628;  518,136;   -0,180;    1,955
853,189;  403,780;    1,638;    2,682
853,751;  416,242;   -0,907;    1,409
854,312;  590,704;   -0,453;   -1,682
854,874;  733,893;   -2,089;   -0,773
855,435;  523,628;   -0,907;   -1,682
855,997;  572,999;   -1,816;   -0,136
856,558;  701,916;    0,366;    1,773
857,119;  593,196;    0,820;    2,864
857,681;  424,203;    0,002;    0,318
858,242;  714,120;    1,911;   -2,136
858,803;  670,582;    0,456;   -0,773
859,364;  525,499;    0,184;   -4,773
859,925;  619,870;   -2,453;   -0,955
860,486;  486,878;   -0,453;   -0,955
861,047;  423,794;   -0,544;   -1,227
861,608;  483,802;   -1,089;   -0,773
862,169;  332,082;    0,638;   -0,045
862,730;  477,271;    0,456;    1,409
863,291;  517,370;   -0,635;   -0,500
863,852;  489,468;   -0,635;    1,955
864,412;  496,567;   -0,271;   -0,864
864,973;  743,938;   -0,089;    0,500
865,534;  856,309;   -1,726;    0,227
866,094;  618,498;    1,820;    0,227
866,655;  767,597;    1,274;    3,318
867,215;  570,150;    0,274;    0,136
867,776;  409,794;    0,547;   -0,136
868,336;  510,165;   -1,453;    0,136
868,897;  915,354;    2,638;    1,682
869,457;  684,998;    1,365;    0,318
870,017;  455,642;    0,547;   -1,227
870,578;  449,740;   -0,817;    0,773
871,138;  548,021;   -2,089;   -0,955
871,698;  459,028;   -0,817;   -1,318
872,258;  591,399;   -0,453;   -2,864
872,818;  749,952;    2,729;    0,045
873,378;  548,142;    0,638;    1,045
873,938;  522,331;    0,547;    0,500
874,498;  420,430;    0,274;   -1,955
875,058;  538,073;    2,183;    1,773
875,618;  534,626;    1,910;   -2,682
876,177;  577,361;    1,274;    0,136
876,737;  401,369;   -0,090;    1,955
877,297;  772,740;    0,183;    1,955
877,856;  710,293;   -0,362;    0,318
878,416;  462,846;    1,183;   -0,136
878,976;  420,399;   -1,817;    0,409
879,535;  455,952;    0,092;    3,136
880,095;  445,141;   -0,544;    0,045
880,654;  395,603;   -1,090;    1,318
881,213;  719,884;    2,456;    1,500
881,773;  548,346;    2,637;    2,682
882,332; 1053,444;    3,365;    5,136
882,891;  518,906;    3,092;    2,136
883,451;  510,914;   -1,272;    1,682
884,010;  471,012;   -2,908;   -0,409
884,569;  407,929;   -0,999;   -0,045
885,128;  598,027;    2,819;   -1,864
885,687;  850,944;    4,455;    0,682
886,246; 1026,497;    1,455;    2,136
886,805;  819,868;    2,455;    2,045
887,364;  459,785;   -0,999;   -0,500
887,922;  382,156;   -1,181;    0,045
888,481;  597,072;   -1,545;    0,591
889,040;  667,716;    1,183;    2,136
889,599;  534,087;    2,455;    1,409
890,157;  535,913;    1,455;    2,409
890,716;  473,284;   -0,090;    0,227
891,274;  595,746;    0,092;   -1,136
891,833;  656,845;    1,546;    0,864
892,391;  543,216;   -0,454;    0,500
892,950;  639,769;    1,819;   -0,773
893,508;  431,686;    0,455;   -0,409
894,067;  356,875;    0,637;    0,136
894,625;  461,701;   -0,636;   -1,500
895,183;  421,799;   -0,363;   -0,682
895,741;  700,079;    1,728;   -1,773
896,299;  497,814;   -0,545;   -2,409
896,858;  436,731;    0,819;   -1,591
897,416;  583,738;    2,728;   -1,318
897,974;  499,291;    1,819;    0,318
898,532;  944,299;    6,091;    2,682
899,089;  654,306;    2,091;   -0,682
899,647;  547,496;   -1,454;    1,318
900,205;  552,685;    1,182;    1,045
900,763;  529,147;   -0,454;    0,227
901,321;  479,064;    2,364;   -1,409
901,878;  305,617;   -1,000;   -0,773
902,436;  402,624;   -1,363;    1,318
902,994; 1105,268;    4,728;    3,682
903,551;  668,730;    0,728;    0,409
904,109;  524,102;    0,182;   -1,409
904,666;  480,927;    2,455;    1,045
905,224;  364,480;    0,182;   -0,409
905,781;  541,760;    0,727;   -0,318
906,338;  473,495;   -1,363;    1,045
906,895;  367,503;    0,637;    2,045
907,453;  634,510;    1,727;    1,136
908,010;  491,154;   -0,909;    0,409
908,567;  485,344;    1,273;    0,591
909,124;  328,715;    0,364;   -1,500
909,681;  392,268;   -2,909;    0,682
910,238;  425,730;    0,636;   -1,318
910,795;  322,101;   -0,273;   -1,136
911,352;  346,283;   -2,909;   -2,682
911,909;  401,010;   -1,364;   -0,864
912,466;  394,374;   -3,182;    1,500
913,022;  505,465;   -1,636;    0,500
913,579;  577,646;   -0,909;    2,045
914,136;  456,646;    1,636;    0,955
914,692;  459,010;    0,091;   -1,227
915,249;  484,101;    1,455;    0,409
915,806;  556,919;    0,182;    1,955
916,362;  459,010;    1,909;    1,864
916,918;  436,828;    2,000;    1,045
917,475;  560,646;   -1,182;    0,955
918,031;  405,101;    3,364;   -0,045
918,587;  477,101;   -0,909;   -0,318
919,144;  379,919;   -2,273;    0,227
919,700;  306,646;    1,727;    0,773
920,256;  316,828;    0,727;    0,045
920,812;  386,101;   -0,727;   -1,045
921,368;  339,283;   -1,727;   -1,045
921,924;  368,192;    0,182;   -0,136
922,480;  462,192;   -0,545;    1,227
923,036;  465,374;    1,273;    1,955
923,592;  364,283;    0,455;    0,318
924,148;  384,101;    0,455;   -0,955
924,704;  521,646;   -1,364;   -0,409
925,259;  343,374;   -0,273;    0,591
925,815;  341,374;    1,455;    0,500
926,371;  321,828;    2,909;    1,409
926,926;  474,828;    2,091;    0,591
927,482;  448,919;   -1,364;    0,773
928,037;  383,556;    0,909;    2,045
928,593;  553,192;    1,636;    1,045
929,148;  335,646;   -1,818;   -1,500
929,704;  413,374;   -1,455;   -0,500
930,259;  341,283;    0,091;   -0,136
930,814;  519,646;   -0,818;    1,955
931,369;  457,646;    1,091;   -0,773
931,925;  293,737;   -0,091;    0,136
932,480;  392,192;   -2,818;   -2,591
933,035;  701,465;    0,545;   -0,318
933,590;  609,828;    0,364;   -1,773
934,145;  299,374;   -1,364;   -0,318
934,700;  212,465;    0,455;   -0,591
935,255;  268,646;   -0,091;    0,045
935,809;  569,465;    3,182;    0,864
936,364;  276,283;   -0,455;   -0,136
936,919;  270,828;    0,455;   -1,773
937,474;  201,192;    1,455;    0,136
938,028;  214,283;   -1,636;    1,136
938,583;  570,556;    1,818;    4,682
939,138;  284,919;    2,091;    2,136
939,692;  183,192;    1,636;   -1,136
940,247;  231,646;   -0,727;   -1,045
940,801;  261,828;   -0,636;    0,227
941,355;  191,828;   -0,364;    2,591
941,910;  134,283;   -0,273;   -2,136
942,464;  163,646;   -0,818;   -0,318
943,018;  350,828;    1,000;   -0,227
943,572;  226,828;    2,545;   -0,682
944,126;  292,192;    0,091;   -0,409
944,681;  199,646;    3,091;    0,227
945,235;  146,283;    1,000;   -0,591
945,789;  129,828;    0,364;   -1,864
946,342;  326,374;    0,455;   -0,591
946,896;  165,465;   -2,273;    0,955
947,450;  146,010;    1,545;   -0,227
948,004;  319,374;    1,727;   -0,045
948,558;  190,192;    0,273;   -0,864
949,111;  192,556;   -0,273;   -0,318
949,665;  322,101;    1,636;   -0,682
950,219;  300,374;   -0,091;   -1,045
950,772;  237,646;   -1,909;    1,864
951,326;  224,828;    0,545;   -0,955
951,879;  185,192;    0,727;   -2,318
952,433;  280,283;    0,000;    2,227
952,986;  165,283;    2,909;    0,682
953,539;  143,283;   -0,273;    0,591
954,093;  111,828;    0,545;   -1,318
954,646;  197,010;    0,909;    1,318
955,199;  138,737;    0,000;   -0,500
955,752;  313,283;   -0,455;    1,773
956,305;  194,919;   -0,091;    2,955
956,858;  228,828;    0,818;   -0,318
957,411;  261,828;   -0,545;    2,136
957,964;  215,828;    1,364;    2,136
958,517;  153,646;   -1,545;    3,136
959,070;  116,101;   -0,455;    1,955
959,623;  311,919;    1,091;    1,500
960,176;  283,737;    1,727;    2,045
960,728;  240,283;   -2,727;    0,773
961,281;  194,919;    0,545;    0,500
961,834;  148,828;   -0,909;    0,864
962,386;  162,283;    1,727;    1,045
962,939;  141,101;    0,364;   -0,318
963,491;  171,646;    0,455;    1,136
964,043;  128,101;    1,182;    2,409
964,596;  245,192;   -1,000;    2,227
965,148;  177,101;   -1,000;    1,773
965,700;  127,192;    1,091;   -0,227
966,253;  240,828;   -0,636;    0,318
966,805;  204,919;   -2,273;    0,773
967,357;  160,010;    1,091;   -1,500
967,909;  236,283;    0,455;   -1,227
968,461;  162,646;    0,545;    3,136
969,013;  129,919;   -0,182;   -0,864
969,565;  243,465;   -0,455;   -1,136
970,117;  404,646;   -0,364;    1,045
970,669;  245,828;    0,182;   -0,136
971,220;  102,737;   -0,455;   -1,500
971,772;  169,010;   -0,636;   -0,318
972,324;  230,919;    0,091;   -0,500
972,876;  155,192;    0,818;   -0,045
973,427;  234,828;    1,909;   -1,045
973,979;  289,283;   -0,727;   -2,500
974,530;  160,556;    1,818;    1,318
975,082;  209,737;   -0,545;    1,682
975,633;  166,101;    1,091;    1,682
976,184;  191,101;    0,909;    0,773
976,736;  189,465;    0,091;    0,227
977,287;  208,919;   -0,909;   -0,500
977,838;  175,919;    0,909;   -0,318
978,389;  173,556;   -1,000;   -0,500
978,940;   97,101;    0,545;   -0,409
979,491;   94,737;    0,091;   -0,500
980,042;  161,828;    0,182;    3,045
980,593;  174,646;   -2,545;    0,227
981,144;  227,828;    2,545;   -0,500
981,695;  237,101;    1,455;    1,500
982,246;  203,192;   -0,273;    1,045
982,797;  120,374;   -1,727;    0,682
983,347;  212,374;    0,364;    0,591
983,898;  358,283;    3,091;    0,409
984,449;  342,192;    2,182;    0,773
984,999;  226,919;    1,455;   -1,136
985,550;  193,101;    0,182;   -0,318
986,100;  113,646;   -0,455;   -0,318
986,651;  108,828;   -0,818;    0,045
987,201;  123,828;   -1,000;   -0,591
987,751;  132,010;    0,818;    2,864
988,302;  156,101;    2,636;    1,500
988,852;  198,192;    0,455;   -1,136
989,402;  229,556;    0,091;    0,682
989,952;  253,010;   -2,182;    0,864
990,502;  143,737;   -0,091;    0,682
991,052;   84,556;   -0,727;    0,045
991,602;  120,192;   -2,909;    1,318
992,152;  146,737;    0,455;    0,682
992,702;  176,646;    1,364;   -0,045
993,252;  136,192;   -3,000;   -0,500
993,802;  198,919;   -0,273;    1,318
994,352;  162,192;   -1,545;    1,136
994,901;  104,283;   -0,182;    3,227
995,451;   97,010;   -0,182;    0,318
996,000;  117,646;    1,636;    0,318
996,550;  132,828;    2,273;    0,227
997,100;  158,556;    1,273;   -0,045
997,649;  242,465;    2,182;    0,955
998,198;  132,374;    1,727;   -1,500
998,748;  195,646;    1,091;   -2,318
999,297;  160,646;   -0,818;   -0,409
999,846;  239,828;    1,000;   -0,773
1000,395;  176,556;   -0,818;    0,500
1000,945;  258,010;    1,818;   -0,773
1001,494;  255,465;    2,364;    0,682
1002,043;  254,101;    4,636;    0,864
1002,592;  138,465;   -1,091;    1,955
1003,141;  124,101;   -0,455;   -0,682
1003,690;  239,737;    1,727;    0,500
1004,238;  156,010;    1,455;   -0,045
1004,787;  105,919;    1,364;    1,227
1005,336;  213,919;    0,364;    0,682
1005,885;  172,192;    1,364;   -2,773
1006,433;  169,646;    0,545;    0,955
1006,982;  281,646;    0,455;    1,682
1007,531;  193,646;   -1,818;   -0,227
1008,079;  166,556;   -2,273;    0,500
1008,627;  128,646;   -1,455;    0,409
1009,176;  155,465;    0,000;   -1,955
1009,724;  115,283;    1,091;    0,864
1010,273;  215,283;    1,273;    0,500
1010,821;  131,010;    0,091;    1,409
1011,369;  109,192;   -1,364;    1,318
1011,917;  116,192;   -1,364;   -0,591
1012,465;  167,828;    1,273;   -1,591
1013,013;  159,919;    2,091;   -1,682
1013,561;  235,919;    0,455;   -0,773
1014,109;  296,010;   -1,909;    1,682
1014,657;  205,283;    0,364;    0,591
1015,205;  141,646;    1,636;   -0,955
1015,753;  111,465;   -0,545;   -1,409
1016,301;  154,646;   -2,636;    3,045
1016,848;  210,283;   -1,273;    0,409
1017,396;  199,283;    2,545;    0,045
1017,944;  190,374;    1,182;    1,864
1018,491;  143,192;    0,273;    1,409
1019,039;  340,737;    0,455;    0,591
1019,586;  183,192;   -1,364;    1,682
1020,134;  171,465;    0,455;    1,500
1020,681;  225,101;    0,182;   -1,136
1021,228;  169,556;    2,909;   -2,227
1021,776;  151,010;    1,182;   -1,136
1022,323;  299,919;    0,455;    0,773
1022,870;  232,010;   -1,000;   -0,045
1023,417;  261,374;    2,636;    1,864
1023,964;  160,101;    2,636;    1,227
1024,511;  141,374;    1,000;    0,773
1025,058;  177,646;    3,182;   -0,045
1025,605;  141,556;   -2,273;    3,136
1026,152;  281,737;    1,727;   -0,591
1026,699;  179,919;    1,818;    1,318
1027,245;  167,465;   -0,091;    0,318
1027,792;  120,465;   -1,000;    1,409
1028,339;  285,556;    2,364;   -0,045
1028,885;  183,283;    1,000;   -0,227
1029,432;  150,192;   -0,091;    0,227
1029,978;  214,919;   -1,000;   -1,591
1030,525;  224,646;    1,000;    0,409
1031,071;  136,010;   -1,364;    1,136
1031,618;  321,556;    0,364;    1,682
1032,164;  211,192;   -0,091;    3,045
1032,710;  240,465;    1,636;   -1,500
1033,256;  215,556;   -0,636;   -0,136
1033,803;  122,101;   -0,545;    1,500
1034,349;   43,919;   -1,364;    0,136
1034,895;   70,101;    0,000;   -0,318
1035,441;  121,283;   -0,818;    0,318
1035,987;  150,828;   -2,364;   -0,682
1036,533;  195,374;   -1,455;   -0,955
1037,078;  335,101;    1,455;    1,682
1037,624;  227,737;    2,455;   -0,955
1038,170;  138,919;    0,455;   -0,318
1038,716;  194,465;    1,636;   -0,409
1039,261;  120,010;   -2,273;   -0,773
1039,807;  128,737;   -0,091;    3,409
1040,352;  140,465;   -1,909;   -0,318
1040,898;  132,828;   -1,545;   -0,682
1041,443;   99,737;   -1,455;   -2,591
1041,989;  305,828;    1,091;    1,591
1042,534;  169,101;   -0,364;    2,591
1043,079;   89,010;    2,909;    0,955
1043,625;  156,556;    1,818;    0,500
1044,170;  164,828;   -1,364;    1,045
1044,715;  297,646;    2,455;    0,955
1045,260;  232,283;    2,182;   -0,955
1045,805;  130,919;    1,182;   -0,591
1046,350;  114,828;    1,364;   -0,409
1046,895;  236,192;    2,909;    1,591
1047,440;  216,283;    5,364;    0,409
1047,985;  137,556;    2,818;   -0,955
1048,530;  123,919;    1,545;    1,227
1049,074;  153,556;    0,000;    0,318
1049,619;  120,101;   -1,364;    1,955
1050,164;  120,374;    0,455;    0,227
1050,708;  181,646;   -0,455;    0,045
1051,253;  334,737;    1,273;   -2,227
1051,797;  193,828;    0,818;   -1,318
1052,342;   91,192;   -1,182;    1,045
1052,886;  153,192;    0,364;   -1,409
1053,430;   91,828;   -1,364;    0,136
1053,975;  154,646;   -0,818;   -0,318
1054,519;  149,010;   -0,727;    3,227
1055,063;  188,192;    0,909;    1,318
1055,607;  180,737;   -0,182;    0,227
1056,151;  178,283;    2,909;    1,682
1056,695;  128,283;    2,273;   -1,136
1057,239;  121,465;   -1,727;   -0,682
1057,783;  153,465;    0,818;   -1,500
1058,327;  202,192;    0,000;    1,409
1058,871;  299,737;   -0,545;    1,318
1059,415;  218,828;   -0,818;   -0,045
1059,958;  305,101;    1,455;    2,591
1060,502;  137,283;   -1,000;   -0,773
1061,046;   88,101;    0,364;   -0,955
1061,589;   83,374;   -3,000;   -1,136
1062,133;   68,737;   -1,273;    1,864
1062,676;   99,283;    1,182;    0,864
1063,220;  116,101;    1,091;    0,500
1063,763;  134,919;    0,909;    1,136
1064,306;  150,374;   -0,909;    1,864
1064,849;  154,556;   -0,909;    0,591
1065,393;  139,101;    2,000;   -1,500
1065,936;  137,556;    0,182;   -0,409
1066,479;   93,192;   -1,455;    1,318
1067,022;  102,465;   -0,273;   -0,227
1067,565;   87,010;   -0,091;   -1,318
1068,108;   75,556;    0,727;   -0,591
1068,651;   69,010;   -0,636;    1,409
1069,194;   71,283;   -0,455;   -1,682
1069,736;   78,828;   -1,273;    0,955
1070,279;   69,646;   -1,364;   -0,500
1070,822;  122,192;   -2,000;   -0,318
1071,364;  199,283;   -0,364;    1,318
1071,907;  110,374;   -0,727;    3,227
1072,450;   35,374;    0,000;   -0,045
1072,992;   75,010;   -0,273;    3,136
1073,535;  112,828;    2,091;    2,136
1074,077;   76,010;   -0,727;    2,045
1074,619;   62,646;   -1,364;    0,591
1075,161;   86,101;   -1,091;    1,500
1075,704;  165,828;    1,545;    1,227
1076,246;   89,192;   -0,182;    0,682
1076,788;   50,828;   -0,364;    1,773
1077,330;   52,828;    1,273;    2,136
1077,872;   76,465;    0,909;    0,955
1078,414;  172,828;    2,727;    0,773
1078,956;   89,737;    1,273;   -0,227
1079,498;  166,374;    1,636;    0,318
1080,040;   92,465;    1,909;   -1,318
1080,581;   71,192;    1,636;   -0,318
1081,123;   37,192;    0,091;   -0,773
1081,665;   47,465;   -1,182;   -0,955
1082,206;  156,556;    1,364;   -0,500
1082,748;   97,465;    0,727;    2,045
1083,289;   51,374;   -2,000;    1,318
1083,831;   47,737;   -0,545;    0,227
1084,372;   75,556;    0,000;    0,591
1084,913;   71,828;    1,091;    0,864
1085,455;   47,192;   -1,909;   -2,045
1085,996;   38,374;   -2,273;    0,136
1086,537;   49,828;   -0,091;    0,864
1087,078;   62,737;   -0,909;   -2,136
1087,619;   99,283;   -1,273;    0,227
1088,160;   78,465;    0,000;    1,318
1088,701;   66,646;   -1,091;    0,682
1089,242;   52,646;    1,364;   -2,227
1089,783;   80,646;   -0,273;    1,409
1090,324;   65,919;    0,455;    0,682
1090,865;   48,374;    2,727;   -0,409
1091,405;   33,283;    0,727;    2,227
1091,946;   57,828;    0,182;   -0,955
1092,487;   32,465;    0,818;   -1,409
1093,027;   94,283;   -1,364;   -1,500
1093,568;   56,646;   -0,364;    1,227
1094,108;   69,283;    0,273;    1,773
1094,649;   53,919;   -1,182;    0,136
1095,189;   40,192;   -0,636;   -0,682
1095,729;   39,646;   -0,091;    0,955
1096,269;   33,828;    0,727;   -0,955
1096,810;  110,465;   -1,364;    0,500
1097,350;   76,556;    1,364;   -0,773
1097,890;   57,828;    0,364;    1,227
1098,430;  159,737;    2,364;    2,864
1098,970;  115,646;    2,182;    1,682
1099,510;   49,556;    0,545;   -2,318
1100,050;   44,283;    1,000;   -1,591
1100,589;   50,101;   -0,727;   -0,318
1101,129;   69,828;    0,818;   -0,955
1101,669;  119,465;    1,727;    2,136
1102,209;   76,737;   -0,091;    2,227
1102,748;   55,919;    0,000;    0,955
1103,288;   59,919;    1,273;   -1,227
1103,827;   55,919;    3,091;   -2,227
1104,367;   36,465;   -0,091;   -2,409
1104,906;   36,646;    1,364;   -1,136
1105,445;   61,374;    0,636;   -1,136
1105,985;   48,010;   -0,727;    1,500
1106,524;   55,192;   -1,727;   -0,682
1107,063;   48,283;   -2,727;    1,409
1107,602;   35,828;   -1,909;   -1,500
1108,141;   29,828;   -1,909;    1,500
1108,680;   60,919;   -3,455;   -0,591
1109,219;   47,646;   -0,909;   -0,500
1109,758;   42,919;    0,455;    0,682
1110,297;   37,828;    1,000;   -0,682
1110,836;   23,283;   -0,727;    0,955
1111,375;   32,283;   -2,545;    0,409
1111,913;   65,010;   -1,000;    0,773
1112,452;   50,465;   -0,273;    0,136
1112,991;   31,374;    1,091;    1,955
1113,529;   31,192;   -0,818;   -0,045
1114,068;   40,737;   -0,273;    2,955
1114,606;   22,101;   -0,364;   -0,955
1115,144;   54,919;   -1,273;    1,045
1115,683;   40,101;   -0,727;    0,318
1116,221;   55,374;   -0,455;   -0,864
1116,759;   32,101;    0,636;   -0,864
1117,297;   69,556;    0,000;    1,864
1117,836;   34,192;   -2,182;   -1,227
1118,374;   33,374;    0,182;   -0,682
1118,912;   40,737;    0,909;    2,682
1119,450;   38,010;    1,000;    0,864
1119,988;   36,010;    1,545;    2,136
1120,525;  196,374;    5,091;    3,318
1121,063;   88,374;    1,182;    1,864
1121,601;   36,828;   -0,909;   -1,227
1122,139;   27,101;   -0,727;   -2,045
1122,676;   83,556;   -0,727;    2,773
1123,214;   69,010;   -1,182;    4,409
1123,751;   27,646;    1,727;    2,227
1124,289;   44,828;   -0,091;   -0,409
1124,826;   28,828;    1,727;    0,227
1125,364;   11,101;    1,727;   -0,955
1125,901;   71,646;    1,182;    1,227
1126,438;   64,737;    0,818;    0,955
1126,975;   18,374;   -0,727;   -0,773
1127,513;   24,192;    0,273;    2,136
1128,050;   13,465;    1,636;   -0,682
1128,587;   31,374;    2,000;   -0,227
1129,124;   42,828;    0,091;    1,318
1129,661;   21,283;    0,273;    0,227
1130,198;   59,010;    1,636;    0,773
1130,734;   37,556;    0,182;    1,409
1131,271;   14,283;   -0,909;    0,864
1131,808;   45,374;    2,909;    3,045
1132,345;   25,737;    1,545;    0,318
1132,881;    5,556;   -1,545;   -1,864
1133,418;   24,192;    0,727;   -1,136
1133,954;   17,010;    2,455;   -2,682
1134,491;   31,192;    1,364;   -0,773
1135,027;   20,283;    2,364;    0,864
1135,564;   32,192;    0,273;    2,955
1136,100;   27,646;    0,364;    2,136
1136,636;   14,283;   -1,273;   -1,045
1137,172;   21,101;    0,000;   -1,045
1137,708;   12,737;   -1,364;   -1,045
1138,245;   13,556;    1,273;   -1,227
1138,781;   11,192;    1,091;   -3,318
1139,317;   16,737;    1,273;   -1,409
1139,852;   23,646;    3,091;    0,136
1140,388;   32,646;   -1,182;   -0,409
1140,924;   17,828;   -1,091;   -2,227
1141,460;    8,283;   -1,636;    0,136
1141,996;    6,101;   -1,364;    2,682
1142,531;    9,101;    1,364;    3,318
1143,067;   45,283;    1,182;    1,045
1143,602;   59,828;   -0,091;   -0,318
1144,138;   24,919;   -2,636;    1,045
1144,673;   11,919;   -1,455;    1,409
1145,209;   14,646;   -1,909;   -0,318
1145,744;    4,828;   -0,727;    0,864
1146,279;   25,101;    1,818;   -0,136
1146,815;   15,192;    1,545;   -2,682
1147,350;   20,556;   -1,364;    0,045
1147,885;    7,465;   -0,818;   -1,318
1148,420;   10,646;   -2,273;    0,773
1148,955;   10,919;   -1,727;    1,864
1149,490;   10,374;   -0,909;   -1,591
1150,025;    7,192;    0,455;   -1,773
1150,560;   22,374;    1,091;   -0,955
1151,094;   18,646;    1,455;   -0,591
1151,629;   14,646;    1,636;    0,864
1152,164;    9,556;    1,364;    1,318
1152,698;    6,010;   -0,182;   -0,136
1153,233;    2,374;    0,091;   -0,682
1153,767;    5,737;   -3,000;   -2,318
1154,302;   12,192;   -1,455;    1,773
1154,836;   11,646;   -0,455;   -2,136
1155,371;   13,283;   -1,364;    3,682
1155,905;    7,737;   -0,636;    1,682
1156,439;   10,737;   -0,636;   -0,500
1156,973;   13,101;    0,364;    0,318
1157,507;    5,192;   -0,364;    0,682
1158,042;    6,374;   -0,727;    1,045
1158,576;   11,465;    0,182;    1,773
1159,110;   12,283;   -0,818;    2,409
1159,643;    9,101;    0,636;   -0,045
1160,177;    5,283;   -1,545;    1,500

