
Integration time [ms]:   0,040
Averaging Nr. [scans]: 11
Smoothing Nr. [pixels]: 0
Data measured with spectrometer [name]: 7318044SP
Wave   ;Sample   ;Dark     ;Reference
[nm]   ;[counts] ;[counts] ;[counts] 

186,757;   36,283;   31,551;    1,318
187,357;   40,226;   22,551;    0,955
187,958;   29,259;   15,460;   -1,591
188,558;   45,992;    8,915;   -1,227
189,159;   29,162;    6,733;   -4,500
189,759;   15,423;    7,278;   -3,591
190,360;   14,217;    2,824;   -2,136
190,960;   29,633;    2,915;   -4,136
191,560;   34,760;    3,189;   -6,591
192,161;  152,758;    4,372;   -3,500
192,761;   82,133;    4,010;   -3,227
193,361;   54,875;    1,556;   -3,773
193,962;   75,043;    2,010;   -2,682
194,562;   31,607;    1,189;   -3,955
195,162;   33,742;   -2,448;   -2,227
195,762;  104,727;   -3,176;   -0,045
196,362;   77,380;    1,370;   -2,500
196,963;   24,171;    2,006;   -0,864
197,563;   52,546;    1,551;   -0,955
198,163;   21,135;    0,096;   -0,682
198,763;   30,350;    1,733;   -0,500
199,363;   68,192;    3,096;   -0,500
199,963;   47,750;    0,369;    0,409
200,563;   39,960;    2,823;   -1,409
201,163;   29,288;    3,277;   -0,227
201,763;   55,880;    3,732;    0,318
202,363;   32,594;    1,459;    1,500
202,963;   62,015;    1,459;    1,045
203,563;  111,829;    0,277;    0,500
204,162;   57,774;    2,096;   -1,864
204,762;   51,522;    0,550;    0,591
205,362;   34,549;    3,004;    1,955
205,962;   64,006;    3,096;    1,955
206,562;   61,653;    1,823;    2,318
207,161;   47,799;   -0,087;    0,318
207,761;  128,929;    1,277;    2,409
208,361;   66,337;   -0,268;    1,409
208,960;   92,251;    0,459;    1,500
209,560;   93,276;    1,277;    1,591
210,160;  107,878;    0,550;    1,864
210,759;   88,610;    4,186;    1,227
211,359;   71,410;    1,459;    1,045
211,958;  205,087;    1,277;    2,045
212,558;  223,033;    1,732;    1,864
213,157;  138,695;    1,822;    1,500
213,757;  342,827;    3,822;   -0,227
214,356;  184,596;    1,277;   -0,409
214,956;  331,061;    3,095;    0,409
215,555;  156,599;    2,095;    2,136
216,154;  122,420;   -2,723;   -0,591
216,754;  124,039;    0,277;    0,773
217,353;  163,212;   -0,268;   -1,045
217,952;   73,420;   -0,178;    0,318
218,552;  206,520;    1,368;   -0,773
219,151;  139,176;    0,277;    0,955
219,750;  126,352;    0,004;   -0,227
220,349;  110,926;   -0,451;    1,045
220,948;  227,687;   -1,360;    1,136
221,548;  149,012;    0,913;    1,227
222,147;  201,334;   -0,087;   -0,409
222,746;  353,842;   -0,451;   -0,955
223,345;  239,341;    0,731;    0,500
223,944;  256,623;   -0,451;    0,773
224,543;  283,143;    1,004;   -1,409
225,142;  304,790;    0,094;    0,136
225,741;  279,137;   -0,814;    1,045
226,340;  260,912;   -0,451;   -0,955
226,939;  428,680;   -0,996;   -0,136
227,538;  273,386;   -0,360;   -0,773
228,137;  435,423;   -0,814;    0,864
228,735;  380,051;   -0,541;    1,227
229,334;  242,397;   -0,905;   -0,227
229,933;  475,148;    0,459;    0,591
230,532;  517,495;    1,186;   -0,409
231,131;  596,699;    1,732;    0,318
231,729;  465,739;   -2,450;   -2,318
232,328;  383,801;   -0,723;   -1,500
232,927;  396,824;    1,004;   -0,500
233,525;  372,657;    3,640;    0,045
234,124;  451,219;    2,368;   -1,591
234,723;  346,200;    0,913;   -1,045
235,321;  356,522;    2,277;    0,136
235,920;  425,567;    1,186;   -1,227
236,518;  626,979;    3,459;    0,318
237,117;  434,200;    0,004;   -0,227
237,715;  446,584;    0,640;   -0,500
238,314;  529,885;   -0,087;   -2,318
238,912;  710,070;   -0,723;   -1,409
239,510;  553,944;    0,459;   -1,227
240,109;  718,210;    0,004;    3,773
240,707;  657,616;   -0,996;    1,227
241,305;  486,409;    0,550;    0,136
241,904;  643,227;   -0,178;   -2,045
242,502;  757,799;   -0,632;   -0,227
243,100;  625,203;   -0,087;   -0,955
243,698;  569,497;    0,732;    1,682
244,297;  609,496;   -0,632;    0,682
244,895;  618,504;   -0,269;   -2,318
245,493;  850,318;    2,186;   -0,591
246,091;  828,188;    1,368;   -1,318
246,689;  767,543;    1,004;    0,591
247,287;  709,349;    0,822;   -1,136
247,885;  671,891;   -1,451;    1,227
248,483;  635,973;    1,822;   -0,500
249,081;  725,240;    0,185;    1,591
249,679;  789,662;   -0,178;    1,682
250,277;  638,192;   -1,723;    0,864
250,875;  816,303;   -1,087;   -1,045
251,473;  693,484;   -1,178;    0,500
252,071;  810,701;    1,459;    1,045
252,669;  726,078;   -1,814;    0,318
253,267;  654,745;   -0,087;    0,773
253,864;  687,985;   -0,360;    0,682
254,462;  901,955;    1,640;    1,591
255,060;  630,638;   -0,269;    1,318
255,658;  616,987;    0,822;   -0,136
256,255;  763,976;    0,186;   -2,045
256,853;  804,346;   -0,269;    1,409
257,451;  768,845;    0,822;    1,864
258,048; 1294,073;    1,822;    1,864
258,646;  903,310;    1,731;   -1,045
259,243; 1032,982;   -0,087;    2,227
259,841;  902,629;   -0,814;    0,318
260,438;  713,443;   -0,087;    0,864
261,036;  885,508;   -1,905;    1,409
261,633;  772,550;   -0,087;    2,227
262,231;  713,781;    2,731;   -0,045
262,828;  742,355;   -0,905;    1,136
263,425;  798,873;    0,913;   -0,591
264,023;  802,820;    0,186;    0,045
264,620;  964,656;   -0,360;   -0,318
265,217; 1115,359;   -2,087;    3,136
265,815;  794,858;   -1,905;    2,136
266,412;  945,195;    0,731;    0,136
267,009;  979,200;   -1,451;    0,773
267,606; 1105,310;    0,822;   -0,955
268,203;  830,729;   -0,269;   -0,591
268,801;  918,890;    1,731;    0,591
269,398;  816,103;   -0,360;    2,500
269,995; 1000,537;    0,277;    1,591
270,592;  880,218;   -0,632;   -0,500
271,189;  810,924;    0,186;    0,409
271,786;  800,976;   -0,632;    1,227
272,383; 1096,708;   -1,087;    0,227
272,980;  910,851;    0,277;    0,318
273,577;  888,656;    0,004;    1,227
274,174;  793,331;    0,822;    2,591
274,771;  943,078;   -0,814;   -0,773
275,367; 1423,192;    2,277;    1,409
275,964; 1215,942;    0,731;   -0,500
276,561;  976,559;    1,549;   -1,045
277,158;  890,571;    0,095;   -1,773
277,755; 1185,058;    2,185;    0,409
278,351;  980,210;   -0,451;   -1,500
278,948; 1084,501;   -0,815;    0,045
279,545;  979,851;   -1,360;    2,318
280,141; 1307,900;   -1,723;   -2,045
280,738; 1164,605;   -0,451;   -0,136
281,334;  941,830;   -1,633;    0,591
281,931;  953,577;   -0,087;   -1,318
282,528; 1068,444;    0,822;   -0,500
283,124; 1221,592;   -1,087;   -0,500
283,721; 1187,359;   -0,451;    1,409
284,317;  997,137;    0,185;    2,500
284,913; 1270,010;   -1,360;    0,591
285,510; 1604,010;    0,640;   -0,318
286,106; 1376,346;   -2,269;   -0,955
286,703; 1015,744;   -0,360;    1,955
287,299;  989,265;   -1,451;   -0,591
287,895; 1008,295;    0,822;   -1,045
288,491; 1036,466;    0,186;    2,136
289,088; 1155,999;   -2,360;    2,409
289,684; 1198,805;   -1,723;    1,500
290,280; 1369,055;    0,368;    0,682
290,876; 1335,371;    1,822;    5,500
291,472; 1199,119;    1,276;    2,227
292,068; 1221,909;    1,367;    0,227
292,665; 1041,447;    2,095;    0,773
293,261;  902,851;    0,276;    2,136
293,857; 1134,583;    2,913;    2,136
294,453; 1051,139;    3,550;    0,955
295,049; 1282,562;   -0,268;    1,955
295,644; 1077,355;    0,095;    0,136
296,240;  931,109;   -0,905;   -0,136
296,836; 1108,458;   -0,995;    0,318
297,432; 1280,755;    1,096;   -0,500
298,028; 1359,033;    0,732;    0,773
298,624; 1178,758;    1,459;    1,864
299,220; 1156,401;    2,368;    0,591
299,815; 1109,605;    1,005;   -0,409
300,411; 1226,926;    0,914;    1,773
301,007; 1379,825;    1,368;    0,227
301,602; 1176,564;   -0,541;   -2,318
302,198; 1306,281;    0,732;   -0,773
302,794; 1141,735;    1,187;   -0,500
303,389; 1128,307;   -1,177;    1,045
303,985; 1203,059;    0,550;    1,409
304,580; 1302,726;    1,459;    1,591
305,176; 1180,014;   -3,086;    0,136
305,771; 1054,643;   -1,268;   -1,227
306,367; 1506,884;    4,095;    0,136
306,962; 1266,382;    0,641;    1,500
307,558; 1241,376;   -0,450;    0,136
308,153; 1351,023;    1,095;   -1,136
308,748; 1133,875;   -0,814;    1,682
309,344; 1564,978;   -0,632;   -1,318
309,939; 1599,082;   -1,905;   -1,318
310,534; 1255,667;   -0,086;   -1,682
311,130; 1178,981;    0,459;   -2,500
311,725; 1081,053;    1,004;   -0,500
312,320; 1194,942;    2,459;    0,045
312,915; 1351,312;    1,459;   -1,045
313,510; 1583,974;    1,550;   -0,500
314,105; 1343,224;    1,096;    1,409
314,700; 1087,841;   -3,086;   -1,045
315,295; 1162,454;   -0,904;    0,045
315,890; 1050,910;    1,277;    0,864
316,485; 1187,070;   -0,359;   -0,318
317,080; 1129,763;   -3,086;    1,591
317,675; 1502,315;    2,005;   -0,682
318,270; 1675,053;    5,550;    3,318
318,865; 1585,407;    3,278;    3,045
319,460; 1357,924;   -0,904;    0,591
320,055; 1223,869;   -0,541;   -1,227
320,650; 1178,367;   -1,995;   -0,591
321,244; 1195,550;   -0,177;   -1,409
321,839; 1352,777;   -1,541;   -0,227
322,434; 1393,488;   -1,086;   -1,591
323,029; 1242,373;    1,732;    1,591
323,623; 1180,603;    1,550;    0,773
324,218; 1326,401;    2,368;    1,409
324,812; 1255,926;    1,096;    1,591
325,407; 1266,379;   -0,814;    2,045
326,002; 1357,485;    0,277;   -0,409
326,596; 1312,996;    0,914;    1,318
327,191; 1176,258;    0,823;   -1,045
327,785; 1096,360;   -0,813;   -0,227
328,379; 1205,898;    1,368;    0,136
328,974; 1202,355;    0,914;   -3,955
329,568; 1255,756;    0,186;   -2,409
330,163; 1316,121;    2,096;    1,045
330,757; 1195,003;    2,459;    1,591
331,351; 1099,090;    0,459;    0,682
331,945; 1115,454;    0,914;    1,409
332,540; 1260,190;   -1,723;   -0,591
333,134; 1228,836;   -1,086;    0,773
333,728; 1205,369;    0,005;    0,318
334,322; 1152,610;   -1,177;   -0,864
334,916; 1052,114;    0,277;    0,955
335,510; 1277,348;   -0,450;   -0,136
336,105; 1307,258;   -1,086;    1,591
336,699; 1143,671;   -1,086;    0,591
337,293; 1171,002;   -1,723;    0,318
337,887; 1092,036;   -2,723;    1,955
338,481; 1280,366;    0,459;    0,591
339,074; 1438,196;   -0,359;    2,682
339,668; 1387,057;   -1,632;    1,227
340,262; 2061,303;    1,732;    3,227
340,856; 1564,109;    1,822;   -0,682
341,450; 1120,459;    1,004;    1,864
342,044; 1247,002;    1,459;    0,136
342,637; 1410,301;    0,913;   -2,136
343,231; 1444,033;   -2,360;    0,682
343,825; 1207,571;   -1,086;   -0,591
344,419; 1202,325;   -1,995;    0,500
345,012; 1817,248;    2,459;    4,045
345,606; 1599,282;    4,641;    1,591
346,199; 1225,533;   -1,813;   -0,227
346,793; 1369,303;    1,914;    2,045
347,386; 1158,550;   -0,813;   -1,136
347,980; 1003,926;   -0,268;   -0,045
348,573; 1144,417;    2,278;    0,409
349,167; 1434,889;    5,278;    4,773
349,760; 1388,728;    2,914;    2,682
350,354; 1293,856;   -0,813;    1,136
350,947; 1347,138;    1,096;    1,682
351,540; 1106,578;   -0,358;   -1,409
352,134;  942,186;    1,096;    1,136
352,727; 1010,063;   -0,086;    1,136
353,320; 1054,415;    0,005;    0,591
353,913;  937,744;   -1,995;    1,864
354,507; 1195,062;    0,823;   -1,227
355,100; 1074,645;    0,460;    0,864
355,693; 1506,314;    2,005;    2,409
356,286; 1215,358;    0,823;    2,773
356,879; 1060,837;   -0,722;    1,227
357,472;  994,685;   -0,904;    1,500
358,065; 1075,448;   -0,722;    2,500
358,658;  930,828;   -0,540;    2,318
359,251;  846,937;   -1,631;   -0,591
359,844; 1055,512;   -1,904;   -1,136
360,437; 1179,841;   -2,995;    0,045
361,030; 1022,025;    1,369;   -0,682
361,623;  973,150;    2,824;    0,318
362,215; 1243,879;   -0,086;    2,045
362,808; 1053,478;   -2,358;   -1,682
363,401;  985,439;   -2,449;    0,136
363,994; 1254,083;   -0,631;   -1,500
364,586;  980,918;    0,824;   -1,500
365,179;  915,305;   -0,449;   -1,136
365,772;  718,092;   -1,995;    2,045
366,364;  897,125;    1,915;   -3,227
366,957; 1036,077;    2,279;   -0,045
367,549;  933,700;    2,188;   -0,864
368,142;  931,204;    1,825;   -1,500
368,734;  894,851;    0,734;   -2,136
369,327;  800,863;    1,643;   -0,500
369,919;  852,929;   -1,538;    0,409
370,512;  905,048;   -1,083;   -0,500
371,104; 1177,822;   -0,901;    1,591
371,696; 1241,095;    1,191;   -0,955
372,289; 1078,893;    0,373;    1,136
372,881; 1010,607;   -2,080;    1,318
373,473;  855,594;   -2,170;    1,136
374,066;  988,584;   -0,169;    0,500
374,658;  947,637;    0,378;    1,136
375,250;  887,425;    0,653;   -1,409
375,842;  945,954;    0,473;   -0,045
376,434;  894,853;   -0,435;   -0,409
377,026;  940,385;    0,204;   -2,500
377,618;  963,109;   -0,158;   -0,682
378,210;  879,910;   -0,338;   -1,955
378,802;  808,031;    0,754;   -0,591
379,394; 1330,682;    1,846;    0,682
379,986; 1068,712;    1,393;   -0,955
380,578;  966,549;   -0,153;    0,773
381,170; 1232,510;   -0,972;    0,045
381,762; 1081,209;    0,755;    1,409
382,354; 1034,835;   -0,065;   -1,318
382,945;  925,128;   -2,976;    0,318
383,537;  869,324;   -2,705;   -1,955
384,129;  886,590;   -2,160;   -1,136
384,721; 1036,279;   -0,252;    0,955
385,312;  909,903;   -0,161;   -0,955
385,904; 1067,904;   -2,706;    1,591
386,496;  895,601;   -0,979;    1,045
387,087; 1085,055;    1,022;    2,500
387,679; 1016,433;   -1,160;    0,045
388,270; 1034,954;    2,840;    2,045
388,862;  979,100;    1,295;   -0,318
389,453;  894,193;   -0,887;    1,045
390,045;  960,462;   -0,705;   -2,682
390,636;  857,945;    0,204;   -0,591
391,227;  902,249;   -0,523;   -0,045
391,819;  919,492;    0,204;    0,773
392,410; 1220,340;    1,022;    0,045
393,001;  994,432;   -0,979;   -1,591
393,593; 1099,206;    1,930;   -0,045
394,184; 1155,541;    1,385;   -0,409
394,775;  936,644;    1,839;    2,136
395,366;  919,955;    1,385;    0,773
395,957; 1157,543;    0,113;    0,136
396,548; 1021,411;   -0,342;    2,682
397,139; 1220,145;   -2,433;    0,591
397,730; 1079,662;   -1,888;    0,955
398,321; 1069,513;   -1,252;    0,955
398,912;  997,587;   -0,615;    0,136
399,503; 1039,027;   -3,524;   -1,409
400,094; 1032,718;    0,294;    1,682
400,685; 1036,389;   -0,433;    0,045
401,276;  918,408;    0,930;   -0,955
401,867;  942,487;   -0,888;    0,773
402,458;  919,478;   -2,251;   -2,318
403,048; 1113,095;    1,112;    0,591
403,639;  972,091;    0,840;    0,864
404,230; 1207,480;    2,476;    0,318
404,821; 1253,572;   -0,615;    0,045
405,411; 1121,827;    1,203;   -2,591
406,002;  966,025;   -1,252;   -1,136
406,592; 1290,249;    2,294;    0,045
407,183; 1109,910;    0,566;   -1,500
407,774; 1040,791;    3,475;   -0,136
408,364; 1011,526;    0,930;    0,409
408,954; 1157,803;    0,384;    1,227
409,545; 1164,867;    1,021;    1,045
410,135; 1046,117;    1,293;    0,500
410,726; 1015,840;    1,838;    0,318
411,316; 1280,152;    0,111;    0,773
411,906; 1021,169;   -0,253;   -0,409
412,497;  999,205;   -1,070;   -0,045
413,087;  974,502;   -1,980;   -0,227
413,677;  939,025;   -0,707;    3,864
414,267;  907,441;    0,656;    1,409
414,857;  875,403;   -2,980;    4,227
415,448;  904,731;    0,839;    0,500
416,038;  916,324;    0,020;   -0,591
416,628;  970,543;   -0,889;    0,409
417,218; 1066,302;    0,565;    3,318
417,808; 1272,810;    0,202;   -0,409
418,398; 1096,367;    0,020;    2,682
418,988;  936,682;    2,020;    0,591
419,578; 1052,530;   -0,707;    1,409
420,168; 1080,369;   -1,343;   -0,955
420,757; 1240,825;   -1,343;   -1,500
421,347; 1054,151;    0,111;   -0,227
421,937; 1025,855;    2,292;    1,409
422,527; 1187,880;    0,838;   -0,773
423,116; 1353,271;   -0,253;   -0,045
423,706; 1014,747;   -1,889;    0,318
424,296;  902,184;    1,384;    0,682
424,885; 1179,820;   -0,071;   -3,045
425,475; 1138,591;    1,474;   -2,864
426,065;  967,576;   -0,980;   -0,318
426,654;  921,948;   -0,435;   -0,318
427,244; 1343,630;    0,020;    1,409
427,833; 1269,113;    1,383;   -0,500
428,423; 1091,302;   -0,526;    1,136
429,012; 1169,907;   -0,344;   -1,136
429,601; 1272,580;   -1,344;    0,136
430,191; 1112,624;    1,292;    4,318
430,780;  930,407;   -0,344;   -0,409
431,369; 1276,589;    0,746;   -0,045
431,959; 1207,000;   -1,254;    0,500
432,548; 1046,667;   -1,163;   -0,045
433,137;  950,501;   -1,254;   -1,318
433,726; 1131,966;    0,292;    0,500
434,315; 1098,316;   -0,526;    2,409
434,905; 1256,586;   -1,254;    1,409
435,494; 1321,046;    0,746;    0,955
436,083; 1119,826;   -0,981;   -0,955
436,672; 1178,842;    0,110;    0,500
437,261; 1128,036;    0,292;   -1,955
437,850; 1527,762;    1,383;    0,682
438,439; 1566,999;    3,291;    1,955
439,027; 1679,797;    3,655;    1,773
439,616; 1635,797;    2,927;    1,227
440,205; 1286,806;    0,200;   -2,136
440,794; 1167,024;    2,109;   -0,045
441,383; 1078,426;   -1,346;   -0,591
441,971;  967,572;   -2,436;    0,591
442,560;  995,244;    0,563;   -1,773
443,149;  864,040;    0,379;   -1,318
443,737;  990,472;   -0,074;   -2,318
444,326; 1024,544;    0,018;    0,318
444,915; 1094,866;   -1,982;    0,864
445,503; 1122,586;   -2,891;   -0,318
446,092; 1454,293;    0,382;    2,136
446,680; 1409,155;    0,382;    0,318
447,269; 1318,687;   -0,346;   -0,318
447,857; 1226,411;    0,018;   -1,773
448,445; 1162,477;    0,563;    1,318
449,034; 1126,244;   -1,528;   -1,136
449,622; 1099,071;   -1,073;    3,500
450,210; 1580,001;    2,017;    2,227
450,799; 1475,882;    0,290;   -0,591
451,387; 1322,593;    1,381;   -0,591
451,975; 1308,040;    2,654;    0,864
452,563; 1475,876;    3,472;    2,318
453,151; 1136,499;   -0,528;   -1,227
453,739; 1217,226;   -1,347;    0,136
454,328; 1437,561;    2,381;   -2,136
454,916; 1281,071;    2,562;   -0,136
455,504; 1277,303;    1,017;    1,227
456,092; 1147,917;    0,017;   -1,591
456,679; 1045,668;    1,472;    0,682
457,267; 1754,029;    4,017;    1,045
457,855; 1230,861;    1,017;    1,409
458,443;  941,257;   -0,165;    1,682
459,031; 1346,941;    0,108;    2,409
459,619; 1263,549;   -1,801;    2,864
460,206; 1072,996;    0,835;    2,045
460,794; 1106,215;   -2,983;   -0,227
461,382; 1214,032;   -0,529;   -0,864
461,970; 1125,753;    1,198;    1,864
462,557; 1046,920;   -0,711;   -0,682
463,145; 1311,364;   -3,165;   -1,682
463,732; 1660,377;    2,016;   -1,045
464,320; 1278,322;   -0,075;   -3,045
464,907; 1495,875;    2,743;   -0,773
465,495; 1350,028;    0,743;   -1,227
466,082; 1209,844;   -1,984;   -0,045
466,670; 1187,243;   -2,529;    1,227
467,257; 1074,242;   -1,711;    2,045
467,844; 1270,325;   -0,075;    0,045
468,432; 1255,727;    0,834;    3,500
469,019; 1128,157;    0,925;   -1,773
469,606; 1243,556;    0,470;    3,682
470,193; 1316,602;   -1,439;    0,227
470,780; 1274,613;   -2,075;    0,864
471,368; 1158,231;   -1,257;   -0,773
471,955; 1310,605;    1,379;   -0,682
472,542; 1209,931;    0,652;   -1,136
473,129; 1015,929;   -0,166;    0,136
473,716; 1001,408;    1,470;    0,591
474,303; 1076,063;    0,652;   -0,864
474,890; 1113,577;   -1,439;   -0,500
475,477; 1276,326;   -1,621;    0,409
476,064; 1106,040;    1,106;   -1,591
476,650; 1266,808;    0,288;    0,318
477,237; 1154,989;   -0,258;    0,955
477,824; 1120,501;   -1,076;    0,864
478,411;  953,919;   -1,894;   -0,318
478,997;  965,852;    0,560;   -0,773
479,584;  873,936;    1,196;   -0,409
480,171; 1288,192;   -0,440;   -0,773
480,757; 1409,345;    2,651;    0,773
481,344; 1197,934;    0,469;    0,409
481,931;  957,564;    1,105;    1,045
482,517; 1315,988;   -1,258;    0,318
483,104; 1482,023;    1,106;    2,864
483,690; 1341,596;   -1,804;    0,045
484,276; 1316,886;   -0,895;    0,227
484,863; 1682,406;    2,469;    1,136
485,449; 1430,411;   -0,077;    0,318
486,035; 1329,995;   -1,986;   -0,136
486,622; 1551,080;   -0,895;    0,045
487,208; 1410,020;    1,378;    1,500
487,794; 1270,011;    0,741;    0,318
488,380; 1289,992;    0,105;   -1,409
488,967; 1275,159;   -1,168;   -0,409
489,553; 1306,655;   -1,895;   -1,409
490,139; 1469,761;    1,559;    0,773
490,725; 1270,715;    0,741;   -0,227
491,311; 1287,121;    3,287;    3,045
491,897; 1119,512;   -0,986;    1,500
492,483; 1137,041;    0,105;    1,227
493,069; 1940,454;    3,923;    0,864
493,655; 1396,263;    1,650;    0,682
494,241; 1201,397;    1,377;   -0,955
494,826; 1302,646;    0,287;   -1,045
495,412; 1350,831;    2,559;   -0,682
495,998; 1212,105;   -0,805;   -0,318
496,584; 1286,355;    0,377;    1,045
497,169; 1224,905;    1,014;   -0,682
497,755; 1091,860;    0,650;    1,227
498,341; 1506,714;    0,559;    0,318
498,926; 1676,491;    1,832;    1,955
499,512; 1257,563;    1,286;    2,955
500,097; 1188,623;    0,195;   -0,318
500,683; 1213,243;   -0,350;    2,136
501,268; 1171,537;   -0,169;   -0,955
501,854; 1226,550;   -0,169;    1,227
502,439; 1131,346;   -0,624;   -1,773
503,024; 1264,437;    0,195;    0,500
503,610; 1327,322;   -0,078;   -0,682
504,195; 1114,696;    0,558;    1,955
504,780; 1294,027;    2,922;    1,227
505,366; 1479,974;    3,013;    2,864
505,951; 1301,566;    0,740;    1,045
506,536; 1218,516;   -3,260;   -3,682
507,121; 1262,411;    0,285;   -0,318
507,706; 1231,802;    2,376;    1,045
508,291; 1141,303;    2,649;    1,136
508,876; 1109,070;   -0,988;    2,591
509,461; 1169,791;   -0,169;   -0,773
510,046; 1281,849;    0,194;    0,318
510,631; 1238,879;   -0,351;   -0,773
511,216; 1123,820;    2,467;   -0,500
511,801; 1270,358;   -0,442;    2,591
512,386; 1285,584;    0,740;    0,500
512,971; 1329,471;   -2,988;    0,955
513,555; 1380,480;   -0,897;   -1,500
514,140; 1387,364;   -0,442;   -3,136
514,725; 1489,737;   -0,715;   -1,136
515,309; 1360,411;   -0,533;    0,318
515,894; 1221,308;   -0,624;   -2,227
516,479; 1258,489;   -0,624;   -0,955
517,063; 1235,772;    0,376;    1,227
517,648; 1210,717;    1,012;   -1,136
518,232; 1127,521;   -0,261;   -1,409
518,817; 1262,354;   -0,079;    1,682
519,401; 1464,116;    2,194;    0,591
519,985; 1271,226;    1,103;    1,136
520,570; 1120,117;    0,830;   -1,955
521,154; 1319,694;    2,102;    0,591
521,738; 1598,944;   -2,352;    2,409
522,323; 1447,277;   -0,170;    1,682
522,907; 1345,642;    0,466;   -0,136
523,491; 1230,669;    0,557;    0,955
524,075; 1171,865;    2,284;    0,591
524,659; 1393,898;    1,466;    0,591
525,243; 1278,119;    1,739;    0,409
525,827; 1209,326;    0,648;   -0,045
526,411; 1273,534;   -1,989;   -0,136
526,995; 1464,257;   -0,352;    1,409
527,579; 1483,042;   -0,443;   -1,045
528,163; 1412,370;    0,375;   -1,500
528,747; 1606,144;    2,466;   -0,773
529,331; 1544,011;   -0,080;   -1,409
529,915; 1293,664;    1,738;    0,955
530,499; 1407,115;   -0,807;    1,227
531,082; 1533,934;   -0,534;    1,591
531,666; 1587,697;    1,374;    0,773
532,250; 1509,341;    1,284;    2,682
532,833; 1678,740;    0,920;    2,773
533,417; 1443,852;   -1,807;    0,864
534,001; 1565,933;    1,647;   -0,318
534,584; 1500,033;    0,374;    0,500
535,168; 1311,288;    0,465;    1,409
535,751; 1745,345;    0,647;    0,045
536,334; 1353,153;   -0,898;   -0,409
536,918; 1327,856;    0,011;    1,591
537,501; 1307,436;   -0,899;    1,318
538,085; 1362,680;   -0,444;    1,045
538,668; 1386,513;    0,829;    2,409
539,251; 1794,619;    1,829;    3,773
539,834; 1522,674;    0,101;    0,773
540,418; 1627,836;   -1,990;    4,318
541,001; 1811,580;   -0,990;    1,773
541,584; 1529,361;    2,101;    2,227
542,167; 1609,693;    1,374;    2,955
542,750; 1479,322;    1,919;   -0,773
543,333; 1242,978;    0,555;    2,136
543,916; 1593,057;    0,192;    2,500
544,499; 1461,325;   -1,354;    0,227
545,082; 1568,076;    1,374;    3,591
545,665; 1466,190;    1,919;    1,500
546,248; 1623,978;    1,010;   -0,318
546,830; 1587,385;   -0,445;    1,955
547,413; 1613,405;    1,010;   -0,773
547,996; 1685,791;    0,555;    0,500
548,579; 1485,577;    0,919;    0,955
549,161; 1752,419;    1,828;    2,682
549,744; 1624,750;   -0,809;    0,409
550,326; 1575,767;   -0,809;   -1,136
550,909; 2051,708;    2,737;    0,591
551,492; 1741,987;   -0,263;    0,227
552,074; 1804,691;   -0,173;   -1,318
552,657; 1864,697;    2,373;    0,045
553,239; 1688,924;   -0,173;   -0,773
553,821; 1603,018;   -1,082;    1,045
554,404; 1802,504;    1,282;    1,136
554,986; 1938,338;    0,464;    1,045
555,568; 1831,565;    1,191;   -0,955
556,151; 2013,943;    1,191;   -0,227
556,733; 1691,384;   -0,264;   -0,864
557,315; 1701,943;    0,100;    0,500
557,897; 1494,722;    0,554;   -0,500
558,479; 1523,743;   -1,991;    1,318
559,061; 1667,648;   -0,719;   -0,864
559,643; 1788,065;   -0,264;    0,045
560,225; 1826,861;    1,645;    2,864
560,807; 1701,974;    0,918;    0,318
561,389; 1605,843;    0,554;    2,318
561,971; 1691,183;    0,463;    2,136
562,553; 1698,387;   -1,628;    1,591
563,135; 1799,818;   -0,537;    1,136
563,717; 2126,533;    3,372;    1,136
564,298; 2010,535;    3,645;   -0,045
564,880; 1734,370;    0,645;   -1,409
565,462; 1632,552;    0,645;    1,318
566,043; 1986,351;   -0,446;    2,318
566,625; 2107,342;    1,918;    1,227
567,207; 1875,412;    1,099;    1,682
567,788; 1887,366;   -1,264;    1,500
568,370; 2031,950;    1,917;   -0,500
568,951; 1886,698;    0,190;    0,227
569,533; 2088,621;   -0,628;   -0,500
570,114; 2216,435;   -0,446;    0,682
570,695; 2270,056;   -0,174;   -1,318
571,277; 2223,981;   -0,265;   -1,682
571,858; 2454,259;    2,008;   -1,136
572,439; 2499,958;    1,554;   -1,045
573,021; 2467,707;    2,099;   -2,773
573,602; 2598,500;   -1,265;    0,318
574,183; 2649,613;   -2,083;    2,227
574,764; 2664,674;   -1,629;    0,409
575,345; 2771,318;    0,917;   -0,136
575,926; 2767,822;   -0,356;    0,136
576,507; 2854,127;    1,099;   -0,227
577,088; 2976,943;    3,099;    1,682
577,669; 3097,564;    0,735;    1,955
578,250; 3346,522;    0,644;   -1,045
578,831; 3201,732;   -1,356;   -2,227
579,412; 3068,306;   -0,810;    0,955
579,993; 3385,421;    1,008;    0,227
580,573; 3402,615;   -0,629;   -0,955
581,154; 3057,121;    0,735;   -0,591
581,735; 3278,188;    0,644;    0,773
582,315; 3131,370;   -0,629;    2,136
582,896; 3318,947;   -0,174;    1,227
583,477; 3112,071;    0,189;    1,227
584,057; 3223,509;    0,553;    0,955
584,638; 3282,421;    2,553;    2,318
585,218; 3461,491;   -0,538;    2,682
585,799; 3381,059;    0,281;   -0,227
586,379; 3292,033;    0,372;    1,591
586,959; 3113,255;    0,735;    0,318
587,540; 2948,969;   -0,629;    2,227
588,120; 2850,950;    1,007;   -0,045
588,700; 2720,111;    2,553;    2,136
589,281; 2965,427;    0,462;   -0,955
589,861; 2874,938;    0,099;   -1,682
590,441; 2787,354;    2,371;   -2,682
591,021; 2584,321;   -0,265;   -2,591
591,601; 2686,519;   -0,537;    0,500
592,181; 2796,941;   -0,719;   -0,773
592,761; 2472,082;    0,007;    1,409
593,341; 2626,607;   -0,901;    0,045
593,921; 2583,667;   -0,265;    1,591
594,501; 2469,440;   -0,538;    1,318
595,081; 2431,834;    0,917;   -0,318
595,661; 2676,929;   -1,447;    0,955
596,240; 2743,431;   -0,537;    0,136
596,820; 2870,719;    0,372;    1,955
597,400; 2590,360;    2,008;    0,773
597,980; 2630,999;    2,008;    1,045
598,559; 2626,060;    2,735;   -0,227
599,139; 2582,659;   -0,174;   -1,227
599,718; 2547,932;   -0,174;   -0,409
600,298; 2648,881;    0,735;    0,682
600,877; 2989,208;    2,917;    1,409
601,457; 2900,132;    2,281;    1,136
602,036; 2759,874;    0,190;    2,045
602,616; 2721,172;    0,644;    1,682
603,195; 2876,759;   -0,355;    3,500
603,774; 2783,265;   -0,901;    2,045
604,354; 2706,825;    0,826;   -0,500
604,933; 2601,492;    0,463;    1,864
605,512; 2807,849;    3,554;    0,591
606,091; 2799,967;   -0,537;    3,773
606,671; 2851,229;    0,281;    0,773
607,250; 2838,792;    1,644;    3,136
607,829; 2856,223;    2,372;    3,227
608,408; 2750,218;    1,190;    2,591
608,987; 2670,396;    1,281;    3,409
609,566; 2535,938;   -1,265;   -2,500
610,145; 2650,883;   -1,082;    0,682
610,723; 2794,376;    4,372;    6,864
611,302; 2542,588;   -0,446;    1,682
611,881; 2646,660;    5,008;   11,227
612,460; 2562,047;    1,645;    3,955
613,039; 2637,871;   -0,082;    2,045
613,617; 2339,353;    1,736;    4,773
614,196; 2382,959;    1,099;    1,227
614,775; 2541,032;    1,009;    2,409
615,353; 2535,113;    0,736;    0,864
615,932; 2481,318;    0,100;    2,409
616,510; 2616,478;    0,554;    0,591
617,089; 2973,888;    7,100;   17,591
617,667; 2657,509;    2,372;    6,136
618,246; 2318,223;   -1,537;    1,318
618,824; 2430,801;   -3,355;   -0,955
619,402; 2381,538;   -2,900;   -1,773
619,981; 2527,330;   -0,173;   -1,045
620,559; 2511,793;    0,009;    1,682
621,137; 2500,116;   -0,718;    1,864
621,715; 2177,973;   -1,173;   -0,682
622,293; 2222,559;   -0,537;   -0,773
622,871; 2528,579;   -0,718;    0,500
623,450; 2348,828;    0,373;   -0,864
624,028; 2464,514;    0,191;   -0,955
624,606; 2391,964;   -1,718;    1,682
625,183; 2290,018;   -1,536;   -1,136
625,761; 2288,372;    1,009;    1,136
626,339; 2686,187;    1,373;    2,591
626,917; 2441,094;   -0,172;   -0,045
627,495; 2447,124;   -0,354;    1,318
628,073; 2374,356;   -0,263;    2,864
628,650; 2333,931;    0,100;    2,136
629,228; 2434,432;    0,373;    4,409
629,806; 2138,131;    2,282;    1,136
630,383; 2252,340;    1,464;   -0,318
630,961; 2238,316;    2,555;   -0,955
631,539; 2170,592;    2,464;    0,227
632,116; 2814,316;   11,373;   15,409
632,694; 2498,085;    2,555;    6,500
633,271; 2306,347;    0,828;    2,682
633,848; 2417,200;    1,828;    2,045
634,426; 2235,437;   -1,081;    1,773
635,003; 2078,930;    1,101;   -0,409
635,580; 2417,985;    1,192;    3,682
636,158; 2262,778;    3,737;    1,227
636,735; 2122,441;    0,555;   -0,500
637,312; 2138,969;   -0,809;   -0,682
637,889; 2164,480;   -4,354;   -0,682
638,466; 2116,295;   -3,990;   -0,409
639,043; 2107,039;    2,101;   -1,136
639,620; 2113,936;   -2,262;   -0,955
640,197; 2278,610;    1,100;    1,682
640,774; 2263,905;   -0,172;    1,136
641,351; 2334,655;    0,737;    1,136
641,928; 2357,768;   -0,627;    1,409
642,505; 2474,245;    0,828;   -0,500
643,082; 2381,631;   -1,718;    1,227
643,658; 2035,471;   -0,718;    1,500
644,235; 2143,857;    1,191;    2,500
644,812; 2295,879;    1,918;    0,773
645,388; 2242,175;   -0,991;    1,409
645,965; 2044,015;   -0,809;    1,682
646,542; 2066,674;   -1,445;   -0,227
647,118; 2511,241;    1,009;   -0,955
647,695; 2347,173;   -0,263;    1,136
648,271; 2156,377;   -0,536;    0,500
648,848; 2286,945;    0,736;    2,227
649,424; 2393,149;    0,827;    1,318
650,000; 2111,989;   -0,354;   -1,045
650,577; 2180,739;   -0,627;   -0,955
651,153; 2309,489;   -1,809;    0,955
651,729; 2317,966;    1,191;    0,864
652,305; 2585,170;    0,645;    2,773
652,881; 3070,465;   -0,082;    1,136
653,458; 4038,669;    1,100;    0,227
654,034; 4636,873;    0,282;    1,591
654,610; 4680,623;    0,554;    0,773
655,186; 5077,099;    0,645;    3,045
655,762; 4758,304;   -0,991;    0,409
656,338; 4720,417;    0,100;    0,136
656,913; 5031,985;   -0,082;    0,409
657,489; 4769,916;    0,827;   -0,318
658,065; 4865,393;   -0,173;   -1,591
658,641; 5099,961;   -0,900;   -0,864
659,217; 4830,256;   -0,991;    0,409
659,792; 4596,914;    0,645;   -0,409
660,368; 4710,391;   -2,173;   -0,682
660,944; 4909,686;   -2,082;    1,227
661,519; 4155,890;   -0,628;    0,409
662,095; 3244,095;   -1,719;    0,591
662,670; 2547,390;    1,281;   -0,136
663,246; 2511,594;    1,009;   -0,409
663,821; 2537,343;    0,281;    1,682
664,396; 2265,002;    0,009;    1,864
664,972; 2303,661;    0,009;   -0,500
665,547; 2473,229;    1,372;    0,136
666,122; 2408,887;   -1,082;    0,318
666,698; 2561,455;   -0,173;    0,318
667,273; 2219,841;   -0,173;    0,136
667,848; 2419,500;    2,372;    1,500
668,423; 2487,886;    2,190;    2,318
668,998; 2438,999;    2,827;   -0,682
669,573; 2495,567;   -3,264;   -1,500
670,148; 2630,407;   -1,446;   -0,682
670,723; 2354,248;   -1,810;    0,318
671,298; 2702,270;    2,372;    1,045
671,873; 2566,020;   -0,082;   -0,136
672,448; 2575,042;    0,645;    0,136
673,023; 2619,428;   -1,992;   -0,227
673,597; 2771,177;    0,827;    2,318
674,172; 2727,927;   -0,355;    0,318
674,747; 2610,949;    0,372;   -1,045
675,321; 2384,790;   -0,628;    3,318
675,896; 2252,085;    0,645;    1,045
676,471; 2512,289;    2,645;    1,591
677,045; 2417,857;   -1,264;    0,682
677,620; 2444,697;    0,190;    1,136
678,194; 2479,901;   -2,628;    1,136
678,769; 2445,651;   -1,083;   -0,318
679,343; 2551,128;   -0,628;    1,773
679,917; 2590,605;   -1,446;    1,955
680,492; 2439,173;    0,826;    3,227
681,066; 2498,468;    3,372;    0,409
681,640; 2500,126;    1,463;   -0,318
682,214; 2631,330;    0,735;    0,500
682,788; 2541,898;   -1,356;   -0,773
683,363; 2576,375;   -1,810;    1,682
683,937; 2423,397;   -1,719;   -0,318
684,511; 2659,147;    0,463;   -0,591
685,085; 2595,078;   -1,356;    0,318
685,659; 2448,646;   -2,538;    0,864
686,232; 2695,759;   -0,356;   -0,318
686,806; 2574,327;   -0,901;    0,409
687,380; 2645,804;   -0,174;    0,591
687,954; 2680,554;   -1,174;    1,136
688,528; 2753,576;   -0,719;    1,955
689,101; 2863,235;   -3,992;    1,045
689,675; 2628,075;   -0,356;   -0,136
690,249; 2676,370;   -0,719;    0,409
690,822; 2751,574;    0,280;    0,318
691,396; 2632,142;   -0,265;    1,227
691,969; 2507,164;    1,280;    0,136
692,543; 2608,550;   -0,447;   -1,955
693,116; 2407,118;   -0,265;   -1,409
693,690; 2469,959;    0,099;    0,500
694,263; 2606,617;   -1,083;    2,955
694,836; 2835,821;    1,371;    3,591
695,410; 2556,844;   -0,265;    1,773
695,983; 2573,775;    0,189;    0,591
696,556; 2469,161;   -0,447;   -1,045
697,129; 2533,456;   -0,356;    1,409
697,703; 2505,751;   -1,629;    1,955
698,276; 2516,592;    1,462;   -0,773
698,849; 2570,341;    1,280;    1,409
699,422; 2443,818;   -1,083;    0,591
699,995; 2333,841;    0,007;    0,136
700,568; 2524,863;   -0,629;    3,045
701,140; 2540,703;   -2,811;    1,682
701,713; 2650,089;   -0,174;    2,409
702,286; 2539,203;   -0,538;    0,864
702,859; 2523,134;   -0,902;   -0,591
703,432; 2456,974;    0,825;    0,682
704,004; 2441,633;    0,462;    0,318
704,577; 2278,383;   -0,629;    0,136
705,150; 2388,405;    0,189;    2,500
705,722; 2473,609;   -0,356;   -3,227
706,295; 2497,359;   -0,175;   -0,591
706,867; 2321,018;   -0,175;    1,955
707,440; 2532,313;   -1,720;   -0,409
708,012; 2618,244;    0,462;    0,591
708,584; 2468,448;    2,462;    0,227
709,157; 2461,198;    1,825;   -0,591
709,729; 2563,493;    2,280;    2,045
710,301; 2699,697;    0,734;    0,045
710,874; 2659,083;   -1,447;   -0,227
711,446; 2276,469;    0,371;    0,864
712,018; 2378,582;    0,098;    0,500
712,590; 2283,604;   -1,993;    1,682
713,162; 2601,263;    0,825;    1,318
713,734; 2487,649;    1,825;   -2,045
714,306; 2438,762;   -1,902;   -0,409
714,878; 2257,330;    0,825;    0,864
715,450; 2405,716;    0,643;    0,864
716,022; 2453,102;    1,552;    1,318
716,593; 2464,033;    0,189;    0,591
717,165; 2520,237;   -3,175;   -1,227
717,737; 2636,987;    0,280;    0,409
718,309; 2466,737;    0,280;   -0,045
718,880; 2378,577;   -0,539;   -1,409
719,452; 2507,327;   -0,175;   -1,591
720,024; 2482,440;    0,734;   -0,591
720,595; 2492,190;   -2,902;    0,955
721,167; 2399,303;    0,370;   -2,045
721,738; 2348,416;   -0,812;   -1,045
722,309; 2410,893;   -0,993;   -1,227
722,881; 2256,643;   -1,357;    0,773
723,452; 2455,847;   -2,630;    2,864
724,023; 2521,505;   -0,721;    2,682
724,595; 2539,073;    0,007;    0,682
725,166; 2334,186;    0,007;   -0,409
725,737; 2483,663;    1,734;    0,227
726,308; 2400,958;   -0,266;    0,318
726,879; 2319,981;   -1,630;    1,227
727,450; 2444,730;    0,552;   -0,045
728,021; 2321,571;    3,097;    0,682
728,592; 2480,048;    0,734;    0,500
729,163; 2627,888;    0,643;   -0,136
729,734; 2613,092;    0,188;   -0,227
730,305; 2482,478;    1,734;    0,136
730,876; 2477,500;    0,188;    2,955
731,447; 2774,977;    2,188;    2,682
732,017; 2663,909;    1,097;    1,864
732,588; 2537,204;    0,734;    1,227
733,159; 2676,953;    0,643;   -1,045
733,729; 2429,248;    0,006;    0,409
734,300; 2462,089;    0,915;    0,864
734,870; 2403,929;    3,461;    0,591
735,441; 2464,043;    0,370;   -0,591
736,011; 2353,520;    0,643;   -1,591
736,582; 2375,542;   -0,812;    0,045
737,152; 2336,110;   -1,721;   -2,045
737,722; 2413,950;   -0,267;   -0,682
738,293; 2253,700;   -1,358;    1,318
738,863; 2424,813;    2,461;    2,318
739,433; 2650,017;    5,279;    0,318
740,003; 2564,130;   -0,994;   -0,682
740,573; 2565,153;    2,097;   -1,591
741,143; 2520,720;   -1,085;    0,318
741,713; 2491,652;    1,188;   -0,500
742,283; 2459,856;    0,915;    1,591
742,853; 2367,787;    1,915;    1,591
743,423; 2198,537;    1,733;    0,045
743,993; 2283,105;   -0,358;    1,500
744,563; 2145,582;    0,097;   -0,864
745,133; 2181,877;   -0,812;   -0,864
745,702; 2293,445;   -0,267;    1,773
746,272; 2313,376;   -0,176;    0,591
746,842; 2328,216;   -1,358;   -0,591
747,411; 2256,693;   -0,267;   -0,318
747,981; 2166,897;    0,097;    0,500
748,551; 2219,556;    2,278;   -1,045
749,120; 2297,578;    0,642;   -0,227
749,690; 2318,601;   -0,631;    2,409
750,259; 2458,987;    1,369;    2,955
750,828; 2474,827;    1,551;   -1,955
751,398; 2358,759;    1,278;   -0,045
751,967; 2658,508;    2,187;    0,409
752,536; 2423,258;   -0,813;   -0,227
753,105; 2578,007;    0,096;    0,227
753,675; 2374,757;    0,096;    1,773
754,244; 2365,779;   -0,904;    3,591
754,813; 2392,074;    0,551;    1,227
755,382; 2286,915;    0,460;    0,955
755,951; 2454,937;    1,551;    3,682
756,520; 2492,141;   -0,085;    1,864
757,089; 2742,709;    0,278;    0,500
757,658; 2446,822;    1,733;    1,227
758,227; 2334,208;    1,096;    0,318
758,795; 2436,594;    1,187;    1,136
759,364; 2559,617;   -0,086;   -0,591
759,933; 2262,457;   -1,176;   -0,045
760,501; 2212,479;    0,733;   -1,318
761,070; 2356,684;   -2,813;   -1,409
761,639; 2602,070;   -1,904;    1,318
762,207; 2408,092;    1,551;   -0,955
762,776; 2488,569;    0,369;    0,864
763,344; 2361,591;   -0,995;    0,591
763,913; 1994,159;   -0,722;    1,409
764,481; 2623,817;    1,005;   -0,136
765,049; 2555,658;   -1,358;    1,409
765,618; 2456,771;   -0,086;    0,318
766,186; 2371,884;    0,278;    0,136
766,754; 2402,725;    0,005;    1,864
767,322; 2093,020;   -1,995;    0,409
767,890; 2062,406;   -0,722;   -1,773
768,459; 2260,792;   -2,177;   -0,318
769,027; 2454,451;    1,641;    3,409
769,595; 2170,746;    3,278;    2,591
770,163; 2228,677;    3,823;    2,955
770,730; 2221,972;    0,732;   -0,136
771,298; 2199,358;    0,187;   -1,409
771,866; 2189,471;   -1,541;    4,955
772,434; 2232,948;   -0,631;   -1,864
773,002; 2481,334;    0,005;    0,682
773,569; 2343,902;    0,914;    1,682
774,137; 2404,197;   -0,268;   -0,045
774,705; 2392,401;    0,278;   -0,136
775,272; 2209,878;    0,641;    0,682
775,840; 2321,991;   -0,177;    2,682
776,407; 2277,195;    0,277;    1,955
776,975; 2043,127;   -0,632;    0,318
777,542; 2206,058;   -1,086;   -0,045
778,110; 2211,626;   -1,268;   -0,045
778,677; 2062,194;   -2,359;   -0,864
779,244; 2102,580;    2,186;    1,045
779,812; 2262,693;    1,823;    0,864
780,379; 2293,806;    0,005;    1,136
780,946; 2196,283;    1,005;   -0,773
781,513; 2230,214;   -1,450;    0,318
782,080; 2067,237;   -0,086;    2,864
782,647; 2187,259;   -0,268;    3,045
783,214; 2101,736;   -0,177;    3,864
783,781; 2223,213;   -0,723;   -0,682
784,348; 2197,144;   -0,632;    1,500
784,915; 2076,076;   -3,177;    0,318
785,482; 2240,189;    1,368;    2,591
786,049; 2303,211;    0,186;   -0,591
786,615; 2221,779;    0,277;   -0,955
787,182; 2126,892;    0,186;   -0,682
787,749; 2102,096;   -2,814;    1,409
788,315; 2108,028;   -1,632;   -0,409
788,882; 2142,050;    1,550;   -1,227
789,448; 2437,527;    1,732;   -0,955
790,015; 2243,004;    1,095;    3,227
790,581; 2333,390;    1,459;    0,227
791,148; 2142,412;    0,641;    1,045
791,714; 2144,253;   -0,541;    3,136
792,280; 2088,548;    0,186;    1,591
792,847; 2016,661;    0,550;    2,500
793,413; 2112,774;   -0,269;   -0,318
793,979; 2165,160;    3,459;   -1,318
794,545; 2512,546;    4,459;    2,682
795,111; 2301,477;    2,186;    1,318
795,678; 2174,500;    0,731;   -1,682
796,244; 2347,158;    3,368;    0,136
796,810; 2303,363;    1,731;    0,773
797,375; 2269,294;    0,549;   -2,136
797,941; 1904,044;   -0,541;    0,591
798,507; 1889,157;   -0,451;   -0,955
799,073; 1908,270;   -0,360;    0,591
799,639; 1985,565;   -2,632;    3,136
800,205; 1909,678;    0,095;    2,682
800,770; 1855,519;    0,640;    1,773
801,336; 1827,905;    1,368;   -0,955
801,901; 2429,836;    4,549;    3,136
802,467; 2188,768;   -0,542;    2,045
803,033; 1851,244;   -0,087;    0,864
803,598; 1851,176;    1,913;   -1,045
804,163; 1914,380;    1,095;   -0,318
804,729; 2006,766;   -0,178;    1,136
805,294; 1948,334;    0,822;    2,227
805,859; 1820,811;    0,731;   -0,409
806,425; 2197,742;    1,186;    2,682
806,990; 2155,764;    2,186;    4,318
807,555; 1964,696;   -1,451;    2,591
808,120; 2130,082;    0,822;   -0,409
808,685; 1872,468;    0,185;   -2,500
809,250; 1720,490;    0,004;   -0,500
809,815; 1796,876;    1,913;    0,682
810,380; 1999,807;   -0,269;    1,591
810,945; 2145,375;   -1,087;    2,045
811,510; 1984,670;    2,094;    1,591
812,075; 1909,965;   -0,633;   -1,409
812,640; 2182,351;    2,003;    1,409
813,204; 1991,283;    0,822;   -0,227
813,769; 2200,032;    2,094;   -0,045
814,334; 2130,145;    0,458;    0,864
814,898; 1907,986;    0,367;    0,591
815,463; 1916,463;    1,276;   -0,773
816,027; 1842,303;   -0,724;   -2,318
816,592; 1880,689;    0,640;   -2,045
817,156; 1891,257;    2,094;    1,136
817,721; 1959,370;    4,276;    2,318
818,285; 1763,938;    2,912;    1,500
818,849; 1894,142;   -1,451;    1,682
819,414; 1786,619;   -0,269;    2,955
819,978; 1719,641;   -1,269;    1,773
820,542; 2136,664;    2,003;    0,500
821,106; 1959,686;   -0,815;    0,682
821,670; 2106,799;   -0,815;    2,591
822,234; 1872,913;   -0,270;    1,409
822,798; 1708,480;    0,003;    0,500
823,362; 2031,321;   -0,633;    4,227
823,926; 1754,616;    0,094;    1,136
824,490; 1955,002;   -0,997;   -0,682
825,054; 1862,479;   -0,088;   -1,136
825,618; 1716,774;   -1,542;   -1,500
826,181; 1732,160;    0,458;   -1,318
826,745; 1801,273;    1,367;   -1,045
827,309; 2089,477;    1,185;    1,318
827,872; 1935,499;    1,367;    0,955
828,436; 1914,431;    1,185;   -0,773
828,999; 1872,180;   -0,997;    1,227
829,563; 1786,657;   -0,179;    1,136
830,126; 1717,770;   -0,179;   -0,591
830,690; 1730,702;   -1,997;    2,864
831,253; 1613,724;   -0,543;    2,227
831,816; 1684,747;   -1,906;    0,500
832,380; 1603,678;    0,185;    0,864
832,943; 1637,064;   -1,361;   -0,500
833,506; 1644,177;    2,639;   -1,227
834,069; 1883,472;    3,912;   -0,955
834,632; 1772,404;    1,730;    1,318
835,195; 1781,335;    1,003;    0,955
835,758; 1664,994;   -0,997;    1,955
836,321; 1601,380;    0,730;   -1,045
836,884; 1620,584;   -0,725;   -0,955
837,447; 1610,152;   -2,816;    1,773
838,010; 1742,992;    0,366;    3,227
838,573; 1820,196;   -1,179;    0,773
839,135; 1740,037;   -1,361;   -0,955
839,698; 1652,786;    1,275;    0,409
840,261; 1580,718;    1,003;   -0,227
840,823; 1546,831;   -0,543;    0,864
841,386; 1553,853;   -0,452;   -2,409
841,948; 1893,967;   -1,361;    1,773
842,511; 1596,625;    0,912;    1,682
843,073; 1855,102;    1,912;    0,227
843,636; 1600,033;   -0,361;   -0,227
844,198; 1813,601;    0,911;    0,591
844,760; 1795,533;    1,093;    1,955
845,322; 1537,919;    0,548;    1,136
845,885; 1692,941;    0,730;    0,591
846,447; 1666,327;   -1,998;    0,227
847,009; 1995,804;    1,911;   -0,682
847,571; 1687,190;    0,820;   -2,045
848,133; 1654,939;   -1,089;   -1,864
848,695; 1519,416;   -0,543;    1,409
849,257; 1575,529;   -1,089;   -1,682
849,819; 1756,097;   -0,998;   -0,409
850,381; 1596,392;   -0,725;   -0,864
850,942; 1683,596;    1,093;   -0,591
851,504; 1709,619;    1,184;    0,227
852,066; 1619,914;    1,275;   -1,591
852,628; 1638,118;   -0,180;    1,955
853,189; 1448,322;    1,638;    2,682
853,751; 1520,072;   -0,907;    1,409
854,312; 1693,821;   -0,453;   -1,682
854,874; 1850,116;   -2,089;   -0,773
855,435; 1667,957;   -0,907;   -1,682
855,997; 1794,070;   -1,816;   -0,136
856,558; 1788,001;    0,366;    1,773
857,119; 1637,933;    0,820;    2,864
857,681; 1490,501;    0,002;    0,318
858,242; 1724,977;    1,911;   -2,136
858,803; 1805,727;    0,456;   -0,773
859,364; 1747,749;    0,184;   -4,773
859,925; 1761,863;   -2,453;   -0,955
860,486; 1653,340;   -0,453;   -0,955
861,047; 1517,725;   -0,544;   -1,227
861,608; 1552,566;   -1,089;   -0,773
862,169; 1496,225;    0,638;   -0,045
862,730; 1542,883;    0,456;    1,409
863,291; 1602,360;   -0,635;   -0,500
863,852; 1604,837;   -0,635;    1,955
864,412; 1535,859;   -0,271;   -0,864
864,973; 1677,154;   -0,089;    0,500
865,534; 1850,359;   -1,726;    0,227
866,094; 1692,563;    1,820;    0,227
866,655; 1760,040;    1,274;    3,318
867,215; 1640,516;    0,274;    0,136
867,776; 1518,630;    0,547;   -0,136
868,336; 1570,470;   -1,453;    0,136
868,897; 1954,583;    2,638;    1,682
869,457; 1732,242;    1,365;    0,318
870,017; 1573,446;    0,547;   -1,227
870,578; 1588,650;   -0,817;    0,773
871,138; 1533,764;   -2,089;   -0,955
871,698; 1422,059;   -0,817;   -1,318
872,258; 1543,717;   -0,453;   -2,864
872,818; 1786,649;    2,729;    0,045
873,378; 1590,217;    0,638;    1,045
873,938; 1505,421;    0,547;    0,500
874,498; 1430,898;    0,274;   -1,955
875,058; 1479,465;    2,183;    1,773
875,618; 1481,669;    1,910;   -2,682
876,177; 1530,510;    1,274;    0,136
876,737; 1303,532;   -0,090;    1,955
877,297; 1748,009;    0,183;    1,955
877,856; 1658,759;   -0,362;    0,318
878,416; 1403,781;    1,183;   -0,136
878,976; 1397,712;   -1,817;    0,409
879,535; 1464,826;    0,092;    3,136
880,095; 1436,939;   -0,544;    0,045
880,654; 1329,416;   -1,090;    1,318
881,213; 1676,802;    2,456;    1,500
881,773; 1479,551;    2,637;    2,682
882,332; 2103,210;    3,365;    5,136
882,891; 1511,141;    3,092;    2,136
883,451; 1526,164;   -1,272;    1,682
884,010; 1402,277;   -2,908;   -0,409
884,569; 1372,390;   -0,999;   -0,045
885,128; 1606,140;    2,819;   -1,864
885,687; 1929,708;    4,455;    0,682
886,246; 2089,094;    1,455;    2,136
886,805; 1759,752;    2,455;    2,045
887,364; 1432,047;   -0,999;   -0,500
887,922; 1363,797;   -1,181;    0,045
888,481; 1500,456;   -1,545;    0,591
889,040; 1666,114;    1,183;    2,136
889,599; 1547,137;    2,455;    1,409
890,157; 1554,250;    1,455;    2,409
890,716; 1457,363;   -0,090;    0,227
891,274; 1553,113;    0,092;   -1,136
891,833; 1658,044;    1,546;    0,864
892,391; 1453,612;   -0,454;    0,500
892,950; 1658,180;    1,819;   -0,773
893,508; 1470,747;    0,455;   -0,409
894,067; 1303,224;    0,637;    0,136
894,625; 1417,338;   -0,636;   -1,500
895,183; 1390,178;   -0,363;   -0,682
895,741; 1714,291;    1,728;   -1,773
896,299; 1482,859;   -0,545;   -2,409
896,858; 1382,972;    0,819;   -1,591
897,416; 1518,085;    2,728;   -1,318
897,974; 1455,835;    1,819;    0,318
898,532; 1958,585;    6,091;    2,682
899,089; 1583,152;    2,091;   -0,682
899,647; 1470,811;   -1,454;    1,318
900,205; 1523,743;    1,182;    1,045
900,763; 1535,856;   -0,454;    0,227
901,321; 1483,878;    2,364;   -1,409
901,878; 1270,173;   -1,000;   -0,773
902,436; 1338,286;   -1,363;    1,318
902,994; 2188,127;    4,728;    3,682
903,551; 1640,058;    0,728;    0,409
904,109; 1523,899;    0,182;   -1,409
904,666; 1460,739;    2,455;    1,045
905,224; 1330,125;    0,182;   -0,409
905,781; 1486,420;    0,727;   -0,318
906,338; 1395,079;   -1,363;    1,045
906,895; 1272,556;    0,637;    2,045
907,453; 1574,124;    1,727;    1,136
908,010; 1413,873;   -0,909;    0,409
908,567; 1348,077;    1,273;    0,591
909,124; 1135,372;    0,364;   -1,500
909,681; 1200,122;   -2,909;    0,682
910,238; 1301,144;    0,636;   -1,318
910,795; 1296,803;   -0,273;   -1,136
911,352; 1270,076;   -2,909;   -2,682
911,909; 1254,894;   -1,364;   -0,864
912,466; 1321,258;   -3,182;    1,500
913,022; 1313,803;   -1,636;    0,500
913,579; 1447,621;   -0,909;    2,045
914,136; 1304,712;    1,636;    0,955
914,692; 1374,712;    0,091;   -1,227
915,249; 1305,894;    1,455;    0,409
915,806; 1386,258;    0,182;    1,955
916,362; 1291,439;    1,909;    1,864
916,918; 1183,167;    2,000;    1,045
917,475; 1413,985;   -1,182;    0,955
918,031; 1210,985;    3,364;   -0,045
918,587; 1277,894;   -0,909;   -0,318
919,144; 1204,439;   -2,273;    0,227
919,700; 1164,167;    1,727;    0,773
920,256; 1117,712;    0,727;    0,045
920,812; 1148,167;   -0,727;   -1,045
921,368; 1114,167;   -1,727;   -1,045
921,924; 1076,985;    0,182;   -0,136
922,480; 1189,712;   -0,545;    1,227
923,036; 1225,348;    1,273;    1,955
923,592; 1121,167;    0,455;    0,318
924,148; 1148,712;    0,455;   -0,955
924,704; 1294,530;   -1,364;   -0,409
925,259; 1138,348;   -0,273;    0,591
925,815; 1080,712;    1,455;    0,500
926,371; 1033,985;    2,909;    1,409
926,926; 1194,621;    2,091;    0,591
927,482; 1151,530;   -1,364;    0,773
928,037; 1076,894;    0,909;    2,045
928,593; 1308,258;    1,636;    1,045
929,148; 1044,076;   -1,818;   -1,500
929,704; 1103,985;   -1,455;   -0,500
930,259;  978,167;    0,091;   -0,136
930,814; 1188,894;   -0,818;    1,955
931,369; 1108,712;    1,091;   -0,773
931,925;  870,621;   -0,091;    0,136
932,480;  992,530;   -2,818;   -2,591
933,035; 1401,803;    0,545;   -0,318
933,590; 1269,258;    0,364;   -1,773
934,145;  833,167;   -1,364;   -0,318
934,700;  750,530;    0,455;   -0,591
935,255;  820,530;   -0,091;    0,045
935,809; 1163,803;    3,182;    0,864
936,364;  743,530;   -0,455;   -0,136
936,919;  757,439;    0,455;   -1,773
937,474;  665,258;    1,455;    0,136
938,028;  696,348;   -1,636;    1,136
938,583; 1109,985;    1,818;    4,682
939,138;  740,439;    2,091;    2,136
939,692;  587,712;    1,636;   -1,136
940,247;  633,712;   -0,727;   -1,045
940,801;  700,530;   -0,636;    0,227
941,355;  602,076;   -0,364;    2,591
941,910;  473,530;   -0,273;   -2,136
942,464;  518,530;   -0,818;   -0,318
943,018;  806,530;    1,000;   -0,227
943,572;  612,803;    2,545;   -0,682
944,126;  662,258;    0,091;   -0,409
944,681;  526,530;    3,091;    0,227
945,235;  473,348;    1,000;   -0,591
945,789;  424,258;    0,364;   -1,864
946,342;  756,258;    0,455;   -0,591
946,896;  477,621;   -2,273;    0,955
947,450;  452,258;    1,545;   -0,227
948,004;  719,530;    1,727;   -0,045
948,558;  514,167;    0,273;   -0,864
949,111;  510,712;   -0,273;   -0,318
949,665;  731,076;    1,636;   -0,682
950,219;  682,803;   -0,091;   -1,045
950,772;  594,712;   -1,909;    1,864
951,326;  591,985;    0,545;   -0,955
951,879;  502,076;    0,727;   -2,318
952,433;  649,530;    0,000;    2,227
952,986;  460,348;    2,909;    0,682
953,539;  414,712;   -0,273;    0,591
954,093;  360,348;    0,545;   -1,318
954,646;  523,530;    0,909;    1,318
955,199;  433,894;    0,000;   -0,500
955,752;  654,621;   -0,455;    1,773
956,305;  492,621;   -0,091;    2,955
956,858;  549,076;    0,818;   -0,318
957,411;  616,076;   -0,545;    2,136
957,964;  503,712;    1,364;    2,136
958,517;  411,712;   -1,545;    3,136
959,070;  366,167;   -0,455;    1,955
959,623;  674,803;    1,091;    1,500
960,176;  611,167;    1,727;    2,045
960,728;  575,712;   -2,727;    0,773
961,281;  525,803;    0,545;    0,500
961,834;  433,167;   -0,909;    0,864
962,386;  436,530;    1,727;    1,045
962,939;  397,439;    0,364;   -0,318
963,491;  449,894;    0,455;    1,136
964,043;  382,621;    1,182;    2,409
964,596;  578,530;   -1,000;    2,227
965,148;  475,439;   -1,000;    1,773
965,700;  378,167;    1,091;   -0,227
966,253;  560,894;   -0,636;    0,318
966,805;  515,258;   -2,273;    0,773
967,357;  434,712;    1,091;   -1,500
967,909;  556,167;    0,455;   -1,227
968,461;  431,712;    0,545;    3,136
969,013;  378,348;   -0,182;   -0,864
969,565;  548,076;   -0,455;   -1,136
970,117;  809,985;   -0,364;    1,045
970,669;  549,167;    0,182;   -0,136
971,220;  324,439;   -0,455;   -1,500
971,772;  419,258;   -0,636;   -0,318
972,324;  529,803;    0,091;   -0,500
972,876;  432,712;    0,818;   -0,045
973,427;  566,258;    1,909;   -1,045
973,979;  631,258;   -0,727;   -2,500
974,530;  410,803;    1,818;    1,318
975,082;  483,712;   -0,545;    1,682
975,633;  427,258;    1,091;    1,682
976,184;  497,076;    0,909;    0,773
976,736;  482,167;    0,091;    0,227
977,287;  492,712;   -0,909;   -0,500
977,838;  457,712;    0,909;   -0,318
978,389;  465,439;   -1,000;   -0,500
978,940;  314,258;    0,545;   -0,409
979,491;  313,712;    0,091;   -0,500
980,042;  425,985;    0,182;    3,045
980,593;  424,258;   -2,545;    0,227
981,144;  535,894;    2,545;   -0,500
981,695;  580,530;    1,455;    1,500
982,246;  518,621;   -0,273;    1,045
982,797;  380,258;   -1,727;    0,682
983,347;  538,167;    0,364;    0,591
983,898;  752,985;    3,091;    0,409
984,449;  706,621;    2,182;    0,773
984,999;  517,167;    1,455;   -1,136
985,550;  477,985;    0,182;   -0,318
986,100;  324,076;   -0,455;   -0,318
986,651;  319,439;   -0,818;    0,045
987,201;  355,258;   -1,000;   -0,591
987,751;  372,167;    0,818;    2,864
988,302;  429,894;    2,636;    1,500
988,852;  475,439;    0,455;   -1,136
989,402;  541,167;    0,091;    0,682
989,952;  563,167;   -2,182;    0,864
990,502;  400,985;   -0,091;    0,682
991,052;  298,076;   -0,727;    0,045
991,602;  344,894;   -2,909;    1,318
992,152;  403,348;    0,455;    0,682
992,702;  438,530;    1,364;   -0,045
993,252;  383,530;   -3,000;   -0,500
993,802;  484,985;   -0,273;    1,318
994,352;  441,621;   -1,545;    1,136
994,901;  340,439;   -0,182;    3,227
995,451;  330,348;   -0,182;    0,318
996,000;  367,985;    1,636;    0,318
996,550;  375,076;    2,273;    0,227
997,100;  421,530;    1,273;   -0,045
997,649;  569,894;    2,182;    0,955
998,198;  373,803;    1,727;   -1,500
998,748;  502,803;    1,091;   -2,318
999,297;  422,258;   -0,818;   -0,409
999,846;  568,258;    1,000;   -0,773
1000,395;  467,894;   -0,818;    0,500
1000,945;  591,258;    1,818;   -0,773
1001,494;  594,258;    2,364;    0,682
1002,043;  570,167;    4,636;    0,864
1002,592;  362,894;   -1,091;    1,955
1003,141;  368,439;   -0,455;   -0,682
1003,690;  537,167;    1,727;    0,500
1004,238;  408,894;    1,455;   -0,045
1004,787;  321,258;    1,364;    1,227
1005,336;  516,530;    0,364;    0,682
1005,885;  459,167;    1,364;   -2,773
1006,433;  450,712;    0,545;    0,955
1006,982;  659,439;    0,455;    1,682
1007,531;  491,803;   -1,818;   -0,227
1008,079;  435,621;   -2,273;    0,500
1008,627;  371,348;   -1,455;    0,409
1009,176;  394,985;    0,000;   -1,955
1009,724;  352,167;    1,091;    0,864
1010,273;  509,621;    1,273;    0,500
1010,821;  378,258;    0,091;    1,409
1011,369;  338,803;   -1,364;    1,318
1011,917;  370,348;   -1,364;   -0,591
1012,465;  458,621;    1,273;   -1,591
1013,013;  439,530;    2,091;   -1,682
1013,561;  548,167;    0,455;   -0,773
1014,109;  652,439;   -1,909;    1,682
1014,657;  514,621;    0,364;    0,591
1015,205;  398,076;    1,636;   -0,955
1015,753;  343,439;   -0,545;   -1,409
1016,301;  423,530;   -2,636;    3,045
1016,848;  510,530;   -1,273;    0,409
1017,396;  507,712;    2,545;    0,045
1017,944;  504,258;    1,182;    1,864
1018,491;  403,167;    0,273;    1,409
1019,039;  736,348;    0,455;    0,591
1019,586;  471,258;   -1,364;    1,682
1020,134;  457,530;    0,455;    1,500
1020,681;  538,439;    0,182;   -1,136
1021,228;  438,803;    2,909;   -2,227
1021,776;  415,985;    1,182;   -1,136
1022,323;  654,076;    0,455;    0,773
1022,870;  566,712;   -1,000;   -0,045
1023,417;  626,803;    2,636;    1,864
1023,964;  430,530;    2,636;    1,227
1024,511;  413,258;    1,000;    0,773
1025,058;  437,439;    3,182;   -0,045
1025,605;  394,258;   -2,273;    3,136
1026,152;  623,621;    1,727;   -0,591
1026,699;  468,621;    1,818;    1,318
1027,245;  450,530;   -0,091;    0,318
1027,792;  384,348;   -1,000;    1,409
1028,339;  622,439;    2,364;   -0,045
1028,885;  467,621;    1,000;   -0,227
1029,432;  413,258;   -0,091;    0,227
1029,978;  537,894;   -1,000;   -1,591
1030,525;  513,985;    1,000;    0,409
1031,071;  377,076;   -1,364;    1,136
1031,618;  698,621;    0,364;    1,682
1032,164;  516,258;   -0,091;    3,045
1032,710;  553,530;    1,636;   -1,500
1033,256;  518,530;   -0,636;   -0,136
1033,803;  364,258;   -0,545;    1,500
1034,349;  224,167;   -1,364;    0,136
1034,895;  272,167;    0,000;   -0,318
1035,441;  347,348;   -0,818;    0,318
1035,987;  406,348;   -2,364;   -0,682
1036,533;  485,803;   -1,455;   -0,955
1037,078;  681,530;    1,455;    1,682
1037,624;  525,621;    2,455;   -0,955
1038,170;  392,621;    0,455;   -0,318
1038,716;  477,985;    1,636;   -0,409
1039,261;  344,712;   -2,273;   -0,773
1039,807;  366,348;   -0,091;    3,409
1040,352;  403,076;   -1,909;   -0,318
1040,898;  394,803;   -1,545;   -0,682
1041,443;  309,076;   -1,455;   -2,591
1041,989;  629,348;    1,091;    1,591
1042,534;  408,439;   -0,364;    2,591
1043,079;  296,167;    2,909;    0,955
1043,625;  413,621;    1,818;    0,500
1044,170;  430,258;   -1,364;    1,045
1044,715;  640,530;    2,455;    0,955
1045,260;  530,621;    2,182;   -0,955
1045,805;  371,894;    1,182;   -0,591
1046,350;  329,621;    1,364;   -0,409
1046,895;  529,076;    2,909;    1,591
1047,440;  521,621;    5,364;    0,409
1047,985;  383,258;    2,818;   -0,955
1048,530;  345,076;    1,545;    1,227
1049,074;  411,894;    0,000;    0,318
1049,619;  342,803;   -1,364;    1,955
1050,164;  338,258;    0,455;    0,227
1050,708;  427,803;   -0,455;    0,045
1051,253;  680,167;    1,273;   -2,227
1051,797;  477,621;    0,818;   -1,318
1052,342;  295,348;   -1,182;    1,045
1052,886;  399,348;    0,364;   -1,409
1053,430;  271,258;   -1,364;    0,136
1053,975;  376,439;   -0,818;   -0,318
1054,519;  390,985;   -0,727;    3,227
1055,063;  456,439;    0,909;    1,318
1055,607;  441,439;   -0,182;    0,227
1056,151;  437,985;    2,909;    1,682
1056,695;  339,803;    2,273;   -1,136
1057,239;  329,985;   -1,727;   -0,682
1057,783;  382,621;    0,818;   -1,500
1058,327;  460,348;    0,000;    1,409
1058,871;  601,803;   -0,545;    1,318
1059,415;  470,712;   -0,818;   -0,045
1059,958;  628,348;    1,455;    2,591
1060,502;  387,348;   -1,000;   -0,773
1061,046;  284,258;    0,364;   -0,955
1061,589;  264,712;   -3,000;   -1,136
1062,133;  229,894;   -1,273;    1,864
1062,676;  277,348;    1,182;    0,864
1063,220;  318,894;    1,091;    0,500
1063,763;  349,348;    0,909;    1,136
1064,306;  374,439;   -0,909;    1,864
1064,849;  370,439;   -0,909;    0,591
1065,393;  348,985;    2,000;   -1,500
1065,936;  360,621;    0,182;   -0,409
1066,479;  267,712;   -1,455;    1,318
1067,022;  293,348;   -0,273;   -0,227
1067,565;  263,894;   -0,091;   -1,318
1068,108;  239,076;    0,727;   -0,591
1068,651;  209,621;   -0,636;    1,409
1069,194;  214,985;   -0,455;   -1,682
1069,736;  245,621;   -1,273;    0,955
1070,279;  215,621;   -1,364;   -0,500
1070,822;  308,985;   -2,000;   -0,318
1071,364;  443,167;   -0,364;    1,318
1071,907;  290,258;   -0,727;    3,227
1072,450;  142,712;    0,000;   -0,045
1072,992;  223,439;   -0,273;    3,136
1073,535;  304,712;    2,091;    2,136
1074,077;  213,621;   -0,727;    2,045
1074,619;  209,985;   -1,364;    0,591
1075,161;  243,530;   -1,091;    1,500
1075,704;  372,712;    1,545;    1,227
1076,246;  229,439;   -0,182;    0,682
1076,788;  162,621;   -0,364;    1,773
1077,330;  168,258;    1,273;    2,136
1077,872;  213,258;    0,909;    0,955
1078,414;  394,894;    2,727;    0,773
1078,956;  238,076;    1,273;   -0,227
1079,498;  387,076;    1,636;    0,318
1080,040;  244,258;    1,909;   -1,318
1080,581;  199,348;    1,636;   -0,318
1081,123;  135,076;    0,091;   -0,773
1081,665;  150,712;   -1,182;   -0,955
1082,206;  352,803;    1,364;   -0,500
1082,748;  270,621;    0,727;    2,045
1083,289;  171,803;   -2,000;    1,318
1083,831;  159,985;   -0,545;    0,227
1084,372;  207,985;    0,000;    0,591
1084,913;  207,258;    1,091;    0,864
1085,455;  154,803;   -1,909;   -2,045
1085,996;  151,803;   -2,273;    0,136
1086,537;  195,894;   -0,091;    0,864
1087,078;  198,894;   -0,909;   -2,136
1087,619;  250,167;   -1,273;    0,227
1088,160;  203,894;    0,000;    1,318
1088,701;  182,894;   -1,091;    0,682
1089,242;  165,076;    1,364;   -2,227
1089,783;  221,167;   -0,273;    1,409
1090,324;  198,348;    0,455;    0,682
1090,865;  140,076;    2,727;   -0,409
1091,405;  107,621;    0,727;    2,227
1091,946;  160,439;    0,182;   -0,955
1092,487;  105,712;    0,818;   -1,409
1093,027;  223,258;   -1,364;   -1,500
1093,568;  147,985;   -0,364;    1,227
1094,108;  193,076;    0,273;    1,773
1094,649;  163,348;   -1,182;    0,136
1095,189;  128,348;   -0,636;   -0,682
1095,729;  122,985;   -0,091;    0,955
1096,269;  112,985;    0,727;   -0,955
1096,810;  277,803;   -1,364;    0,500
1097,350;  213,621;    1,364;   -0,773
1097,890;  158,439;    0,364;    1,227
1098,430;  329,621;    2,364;    2,864
1098,970;  257,803;    2,182;    1,682
1099,510;  142,076;    0,545;   -2,318
1100,050;  118,530;    1,000;   -1,591
1100,589;  134,985;   -0,727;   -0,318
1101,129;  188,076;    0,818;   -0,955
1101,669;  271,712;    1,727;    2,136
1102,209;  190,076;   -0,091;    2,227
1102,748;  155,803;    0,000;    0,955
1103,288;  163,439;    1,273;   -1,227
1103,827;  156,621;    3,091;   -2,227
1104,367;  112,530;   -0,091;   -2,409
1104,906;  114,712;    1,364;   -1,136
1105,445;  159,439;    0,636;   -1,136
1105,985;  138,621;   -0,727;    1,500
1106,524;  153,712;   -1,727;   -0,682
1107,063;  139,712;   -2,727;    1,409
1107,602;  108,167;   -1,909;   -1,500
1108,141;   90,894;   -1,909;    1,500
1108,680;  166,894;   -3,455;   -0,591
1109,219;  135,258;   -0,909;   -0,500
1109,758;  118,348;    0,455;    0,682
1110,297;  113,803;    1,000;   -0,682
1110,836;   84,985;   -0,727;    0,955
1111,375;  125,803;   -2,545;    0,409
1111,913;  160,894;   -1,000;    0,773
1112,452;  133,439;   -0,273;    0,136
1112,991;   86,076;    1,091;    1,955
1113,529;   85,985;   -0,818;   -0,045
1114,068;  114,712;   -0,273;    2,955
1114,606;   78,894;   -0,364;   -0,955
1115,144;  153,803;   -1,273;    1,045
1115,683;  120,076;   -0,727;    0,318
1116,221;  148,985;   -0,455;   -0,864
1116,759;  100,530;    0,636;   -0,864
1117,297;  186,712;    0,000;    1,864
1117,836;  110,076;   -2,182;   -1,227
1118,374;  107,712;    0,182;   -0,682
1118,912;  108,803;    0,909;    2,682
1119,450;  101,167;    1,000;    0,864
1119,988;  101,894;    1,545;    2,136
1120,525;  371,985;    5,091;    3,318
1121,063;  197,803;    1,182;    1,864
1121,601;  102,712;   -0,909;   -1,227
1122,139;   85,076;   -0,727;   -2,045
1122,676;  190,167;   -0,727;    2,773
1123,214;  163,076;   -1,182;    4,409
1123,751;   81,076;    1,727;    2,227
1124,289;  119,803;   -0,091;   -0,409
1124,826;   85,712;    1,727;    0,227
1125,364;   47,439;    1,727;   -0,955
1125,901;  153,712;    1,182;    1,227
1126,438;  165,076;    0,818;    0,955
1126,975;   52,803;   -0,727;   -0,773
1127,513;   77,348;    0,273;    2,136
1128,050;   51,530;    1,636;   -0,682
1128,587;   89,894;    2,000;   -0,227
1129,124;  116,348;    0,091;    1,318
1129,661;   61,712;    0,273;    0,227
1130,198;  140,167;    1,636;    0,773
1130,734;  104,167;    0,182;    1,409
1131,271;   47,985;   -0,909;    0,864
1131,808;  119,348;    2,909;    3,045
1132,345;   70,621;    1,545;    0,318
1132,881;   24,258;   -1,545;   -1,864
1133,418;   83,439;    0,727;   -1,136
1133,954;   56,530;    2,455;   -2,682
1134,491;   86,167;    1,364;   -0,773
1135,027;   53,258;    2,364;    0,864
1135,564;   82,621;    0,273;    2,955
1136,100;   75,439;    0,364;    2,136
1136,636;   39,530;   -1,273;   -1,045
1137,172;   63,803;    0,000;   -1,045
1137,708;   46,894;   -1,364;   -1,045
1138,245;   42,621;    1,273;   -1,227
1138,781;   28,712;    1,091;   -3,318
1139,317;   50,076;    1,273;   -1,409
1139,852;   61,348;    3,091;    0,136
1140,388;   89,621;   -1,182;   -0,409
1140,924;   48,985;   -1,091;   -2,227
1141,460;   28,712;   -1,636;    0,136
1141,996;   18,348;   -1,364;    2,682
1142,531;   26,712;    1,364;    3,318
1143,067;  111,076;    1,182;    1,045
1143,602;  142,530;   -0,091;   -0,318
1144,138;   75,985;   -2,636;    1,045
1144,673;   32,348;   -1,455;    1,409
1145,209;   50,803;   -1,909;   -0,318
1145,744;   22,803;   -0,727;    0,864
1146,279;   68,076;    1,818;   -0,136
1146,815;   40,439;    1,545;   -2,682
1147,350;   60,530;   -1,364;    0,045
1147,885;   31,439;   -0,818;   -1,318
1148,420;   30,530;   -2,273;    0,773
1148,955;   26,348;   -1,727;    1,864
1149,490;   32,439;   -0,909;   -1,591
1150,025;   24,803;    0,455;   -1,773
1150,560;   66,894;    1,091;   -0,955
1151,094;   53,530;    1,455;   -0,591
1151,629;   50,712;    1,636;    0,864
1152,164;   33,530;    1,364;    1,318
1152,698;   21,712;   -0,182;   -0,136
1153,233;    8,348;    0,091;   -0,682
1153,767;   25,258;   -3,000;   -2,318
1154,302;   37,167;   -1,455;    1,773
1154,836;   37,076;   -0,455;   -2,136
1155,371;   48,167;   -1,364;    3,682
1155,905;   29,530;   -0,636;    1,682
1156,439;   33,530;   -0,636;   -0,500
1156,973;   39,894;    0,364;    0,318
1157,507;   18,621;   -0,364;    0,682
1158,042;   27,621;   -0,727;    1,045
1158,576;   41,803;    0,182;    1,773
1159,110;   39,894;   -0,818;    2,409
1159,643;   32,712;    0,636;   -0,045
1160,177;   17,076;   -1,545;    1,500

