
Integration time [ms]:   0,040
Averaging Nr. [scans]: 11
Smoothing Nr. [pixels]: 0
Data measured with spectrometer [name]: 7318044SP
Wave   ;Sample   ;Dark     ;Reference
[nm]   ;[counts] ;[counts] ;[counts] 

186,757;   38,980;   31,551;    1,318
187,357;   43,927;   22,551;    0,955
187,958;   27,686;   15,460;   -1,591
188,558;   41,235;    8,915;   -1,227
189,159;   26,135;    6,733;   -4,500
189,759;   16,396;    7,278;   -3,591
190,360;   17,377;    2,824;   -2,136
190,960;   22,708;    2,915;   -4,136
191,560;   28,937;    3,189;   -6,591
192,161;  144,051;    4,372;   -3,500
192,761;   79,448;    4,010;   -3,227
193,361;   53,829;    1,556;   -3,773
193,962;   70,166;    2,010;   -2,682
194,562;   31,881;    1,189;   -3,955
195,162;   27,455;   -2,448;   -2,227
195,762;   85,978;   -3,176;   -0,045
196,362;   59,357;    1,370;   -2,500
196,963;   18,964;    2,006;   -0,864
197,563;   40,880;    1,551;   -0,955
198,163;   16,374;    0,096;   -0,682
198,763;   23,227;    1,733;   -0,500
199,363;   46,705;    3,096;   -0,500
199,963;   34,260;    0,369;    0,409
200,563;   27,195;    2,823;   -1,409
201,163;   20,067;    3,277;   -0,227
201,763;   39,386;    3,732;    0,318
202,363;   22,008;    1,459;    1,500
202,963;   39,428;    1,459;    1,045
203,563;   78,970;    0,277;    0,500
204,162;   36,096;    2,096;   -1,864
204,762;   28,294;    0,550;    0,591
205,362;   18,686;    3,004;    1,955
205,962;   42,603;    3,096;    1,955
206,562;   38,701;    1,823;    2,318
207,161;   30,479;   -0,087;    0,318
207,761;   89,885;    1,277;    2,409
208,361;   39,750;   -0,268;    1,409
208,960;   62,117;    0,459;    1,500
209,560;   56,684;    1,277;    1,591
210,160;   71,560;    0,550;    1,864
210,759;   56,748;    4,186;    1,227
211,359;   37,361;    1,459;    1,045
211,958;  147,132;    1,277;    2,045
212,558;  155,443;    1,732;    1,864
213,157;   89,103;    1,822;    1,500
213,757;  243,142;    3,822;   -0,227
214,356;  125,458;    1,277;   -0,409
214,956;  242,472;    3,095;    0,409
215,555;  103,913;    2,095;    2,136
216,154;   66,916;   -2,723;   -0,591
216,754;   72,171;    0,277;    0,773
217,353;   98,710;   -0,268;   -1,045
217,952;   37,368;   -0,178;    0,318
218,552;  133,559;    1,368;   -0,773
219,151;   84,213;    0,277;    0,955
219,750;   72,750;    0,004;   -0,227
220,349;   57,418;   -0,451;    1,045
220,948;  154,723;   -1,360;    1,136
221,548;   87,324;    0,913;    1,227
222,147;  117,283;   -0,087;   -0,409
222,746;  228,151;   -0,451;   -0,955
223,345;  149,559;    0,731;    0,500
223,944;  156,752;   -0,451;    0,773
224,543;  171,456;    1,004;   -1,409
225,142;  175,642;    0,094;    0,136
225,741;  169,356;   -0,814;    1,045
226,340;  156,222;   -0,451;   -0,955
226,939;  268,811;   -0,996;   -0,136
227,538;  147,969;   -0,360;   -0,773
228,137;  273,919;   -0,814;    0,864
228,735;  227,546;   -0,541;    1,227
229,334;  119,074;   -0,905;   -0,227
229,933;  291,825;    0,459;    0,591
230,532;  303,174;    1,186;   -0,409
231,131;  378,561;    1,732;    0,318
231,729;  262,690;   -2,450;   -2,318
232,328;  196,752;   -0,723;   -1,500
232,927;  213,141;    1,004;   -0,500
233,525;  194,151;    3,640;    0,045
234,124;  236,171;    2,368;   -1,591
234,723;  167,878;    0,913;   -1,045
235,321;  165,016;    2,277;    0,136
235,920;  208,335;    1,186;   -1,227
236,518;  362,564;    3,459;    0,318
237,117;  207,693;    0,004;   -0,227
237,715;  221,535;    0,640;   -0,500
238,314;  280,291;   -0,087;   -2,318
238,912;  414,476;   -0,723;   -1,409
239,510;  308,168;    0,459;   -1,227
240,109;  427,164;    0,004;    3,773
240,707;  387,751;   -0,996;    1,227
241,305;  245,634;    0,550;    0,136
241,904;  354,816;   -0,178;   -2,045
242,502;  471,933;   -0,632;   -0,227
243,100;  369,790;   -0,087;   -0,955
243,698;  309,904;    0,732;    1,682
244,297;  352,356;   -0,632;    0,682
244,895;  355,725;   -0,269;   -2,318
245,493;  553,720;    2,186;   -0,591
246,091;  559,863;    1,368;   -1,318
246,689;  493,218;    1,004;    0,591
247,287;  455,479;    0,822;   -1,136
247,885;  421,201;   -1,451;    1,227
248,483;  386,740;    1,822;   -0,500
249,081;  488,911;    0,185;    1,591
249,679;  547,061;   -0,178;    1,682
250,277;  403,594;   -1,723;    0,864
250,875;  563,071;   -1,087;   -1,045
251,473;  449,069;   -1,178;    0,500
252,071;  568,286;    1,459;    1,045
252,669;  483,661;   -1,814;    0,318
253,267;  419,870;   -0,087;    0,773
253,864;  473,206;   -0,360;    0,682
254,462;  662,084;    1,640;    1,591
255,060;  422,312;   -0,269;    1,318
255,658;  420,661;    0,822;   -0,136
256,255;  525,834;    0,186;   -2,045
256,853;  565,383;   -0,269;    1,409
257,451;  546,793;    0,822;    1,864
258,048; 1021,022;    1,822;    1,864
258,646;  681,984;    1,731;   -1,045
259,243;  800,746;   -0,087;    2,227
259,841;  672,485;   -0,814;    0,318
260,438;  500,571;   -0,087;    0,864
261,036;  645,640;   -1,905;    1,409
261,633;  533,224;   -0,087;    2,227
262,231;  478,820;    2,731;   -0,045
262,828;  499,124;   -0,905;    1,136
263,425;  566,731;    0,913;   -0,591
264,023;  571,767;    0,186;    0,045
264,620;  744,966;   -0,360;   -0,318
265,217;  887,125;   -2,087;    3,136
265,815;  579,348;   -1,905;    2,136
266,412;  731,506;    0,731;    0,136
267,009;  765,784;   -1,451;    0,773
267,606;  867,257;    0,822;   -0,955
268,203;  626,042;   -0,269;   -0,591
268,801;  681,564;    1,731;    0,591
269,398;  585,503;   -0,360;    2,500
269,995;  766,306;    0,277;    1,591
270,592;  670,986;   -0,632;   -0,500
271,189;  587,870;    0,186;    0,409
271,786;  562,107;   -0,632;    1,227
272,383;  863,840;   -1,087;    0,227
272,980;  681,254;    0,277;    0,318
273,577;  635,608;    0,004;    1,227
274,174;  571,737;    0,822;    2,591
274,771;  735,025;   -0,814;   -0,773
275,367; 1181,963;    2,277;    1,409
275,964;  976,438;    0,731;   -0,500
276,561;  735,142;    1,549;   -1,045
277,158;  636,061;    0,095;   -1,773
277,755;  923,184;    2,185;    0,409
278,351;  757,611;   -0,451;   -1,500
278,948;  856,627;   -0,815;    0,045
279,545;  763,160;   -1,360;    2,318
280,141; 1029,303;   -1,723;   -2,045
280,738;  939,553;   -0,451;   -0,136
281,334;  716,230;   -1,633;    0,591
281,931;  743,700;   -0,087;   -1,318
282,528;  865,023;    0,822;   -0,500
283,124;  982,175;   -1,087;   -0,500
283,721;  968,301;   -0,451;    1,409
284,317;  783,988;    0,185;    2,500
284,913; 1033,407;   -1,360;    0,591
285,510; 1342,043;    0,640;   -0,318
286,106; 1115,380;   -2,269;   -0,955
286,703;  816,324;   -0,360;    1,955
287,299;  772,122;   -1,451;   -0,591
287,895;  772,969;    0,822;   -1,045
288,491;  785,412;    0,186;    2,136
289,088;  931,125;   -2,360;    2,409
289,684;  974,025;   -1,723;    1,500
290,280; 1150,640;    0,368;    0,682
290,876; 1125,773;    1,822;    5,500
291,472;  990,336;    1,276;    2,227
292,068; 1008,216;    1,367;    0,227
292,665;  839,576;    2,095;    0,773
293,261;  717,524;    0,276;    2,136
293,857;  957,168;    2,913;    2,136
294,453;  858,998;    3,550;    0,955
295,049; 1108,337;   -0,268;    1,955
295,644;  911,581;    0,095;    0,136
296,240;  761,792;   -0,905;   -0,136
296,836;  944,871;   -0,995;    0,318
297,432; 1108,715;    1,096;   -0,500
298,028; 1174,539;    0,732;    0,773
298,624;  990,261;    1,459;    1,864
299,220;  964,178;    2,368;    0,591
299,815;  937,472;    1,005;   -0,409
300,411; 1065,792;    0,914;    1,773
301,007; 1216,149;    1,368;    0,227
301,602; 1012,703;   -0,541;   -2,318
302,198; 1151,242;    0,732;   -0,773
302,794;  985,240;    1,187;   -0,500
303,389;  954,994;   -1,177;    1,045
303,985; 1039,290;    0,550;    1,409
304,580; 1150,140;    1,459;    1,591
305,176; 1018,970;   -3,086;    0,136
305,771;  893,598;   -1,268;   -1,227
306,367; 1339,293;    4,095;    0,136
306,962; 1096,158;    0,641;    1,500
307,558; 1083,879;   -0,450;    0,136
308,153; 1205,161;    1,095;   -1,136
308,748;  980,196;   -0,814;    1,682
309,344; 1412,660;   -0,632;   -1,318
309,939; 1441,402;   -1,905;   -1,318
310,534; 1077,076;   -0,086;   -1,682
311,130;  996,847;    0,459;   -2,500
311,725;  914,100;    1,004;   -0,500
312,320; 1018,809;    2,459;    0,045
312,915; 1173,449;    1,459;   -1,045
313,510; 1403,293;    1,550;   -0,500
314,105; 1141,093;    1,096;    1,409
314,700;  892,255;   -3,086;   -1,045
315,295;  983,413;   -0,904;    0,045
315,890;  871,868;    1,277;    0,864
316,485; 1009,845;   -0,359;   -0,318
317,080;  938,812;   -3,086;    1,591
317,675; 1297,636;    2,005;   -0,682
318,270; 1495,196;    5,550;    3,318
318,865; 1393,369;    3,278;    3,045
319,460; 1174,064;   -0,904;    0,591
320,055; 1029,377;   -0,541;   -1,227
320,650;  997,148;   -1,995;   -0,591
321,244; 1010,512;   -0,177;   -1,409
321,839; 1117,645;   -1,541;   -0,227
322,434; 1164,445;   -1,086;   -1,591
323,029; 1034,515;    1,732;    1,591
323,623;  976,742;    1,550;    0,773
324,218; 1140,181;    2,368;    1,409
324,812; 1075,067;    1,096;    1,591
325,407; 1090,064;   -0,814;    2,045
326,002; 1193,079;    0,277;   -0,409
326,596; 1137,137;    0,914;    1,318
327,191;  983,580;    0,823;   -1,045
327,785;  925,774;   -0,813;   -0,227
328,379; 1010,947;    1,368;    0,136
328,974; 1035,768;    0,914;   -3,955
329,568; 1081,624;    0,186;   -2,409
330,163; 1154,354;    2,096;    1,045
330,757; 1001,959;    2,459;    1,591
331,351;  926,865;    0,459;    0,682
331,945;  935,231;    0,914;    1,409
332,540; 1103,237;   -1,723;   -0,591
333,134; 1067,792;   -1,086;    0,773
333,728; 1053,689;    0,005;    0,318
334,322;  971,568;   -1,177;   -0,864
334,916;  902,431;    0,277;    0,955
335,510; 1125,759;   -0,450;   -0,136
336,105; 1154,217;   -1,086;    1,591
336,699;  997,537;   -1,086;    0,591
337,293; 1028,502;   -1,723;    0,318
337,887;  966,267;   -2,723;    1,955
338,481; 1152,595;    0,459;    0,591
339,074; 1295,423;   -0,359;    2,682
339,668; 1249,648;   -1,632;    1,227
340,262; 1930,985;    1,732;    3,227
340,856; 1448,062;    1,822;   -0,682
341,450; 1014,048;    1,004;    1,864
342,044; 1125,229;    1,459;    0,136
342,637; 1295,983;    0,913;   -2,136
343,231; 1325,890;   -2,360;    0,682
343,825; 1104,891;   -1,086;   -0,591
344,419; 1092,375;   -1,995;    0,500
345,012; 1722,026;    2,459;    4,045
345,606; 1505,152;    4,641;    1,591
346,199; 1126,676;   -1,813;   -0,227
346,793; 1277,266;    1,914;    2,045
347,386; 1058,419;   -0,813;   -1,136
347,980;  905,345;   -0,268;   -0,045
348,573; 1042,837;    2,278;    0,409
349,167; 1336,312;    5,278;    4,773
349,760; 1271,605;    2,914;    2,682
350,354; 1198,648;   -0,813;    1,136
350,947; 1250,382;    1,096;    1,682
351,540; 1034,003;   -0,358;   -1,409
352,134;  861,062;    1,096;    1,136
352,727;  926,937;   -0,086;    1,136
353,320;  969,655;    0,005;    0,591
353,913;  851,438;   -1,995;    1,864
354,507; 1118,028;    0,823;   -1,227
355,100;  996,066;    0,460;    0,864
355,693; 1435,376;    2,005;    2,409
356,286; 1139,508;    0,823;    2,773
356,879;  968,623;   -0,722;    1,227
357,472;  918,925;   -0,904;    1,500
358,065; 1012,690;   -0,722;    2,500
358,658;  840,159;   -0,540;    2,318
359,251;  761,995;   -1,631;   -0,591
359,844;  985,663;   -1,904;   -1,136
360,437; 1104,353;   -2,995;    0,045
361,030;  928,628;    1,369;   -0,682
361,623;  893,848;    2,824;    0,318
362,215; 1159,121;   -0,086;    2,045
362,808;  982,446;   -2,358;   -1,682
363,401;  908,774;   -2,449;    0,136
363,994; 1175,510;   -0,631;   -1,500
364,586;  906,621;    0,824;   -1,500
365,179;  848,556;   -0,449;   -1,136
365,772;  654,335;   -1,995;    2,045
366,364;  831,375;    1,915;   -3,227
366,957;  958,060;    2,279;   -0,045
367,549;  854,502;    2,188;   -0,864
368,142;  853,100;    1,825;   -1,500
368,734;  812,571;    0,734;   -2,136
369,327;  714,040;    1,643;   -0,500
369,919;  777,292;   -1,538;    0,409
370,512;  810,235;   -1,083;   -0,500
371,104; 1104,201;   -0,901;    1,591
371,696; 1161,486;    1,191;   -0,955
372,289;  990,837;    0,373;    1,136
372,881;  930,201;   -2,080;    1,318
373,473;  774,290;   -2,170;    1,136
374,066;  908,574;   -0,169;    0,500
374,658;  864,291;    0,378;    1,136
375,250;  792,923;    0,653;   -1,409
375,842;  859,662;    0,473;   -0,045
376,434;  802,585;   -0,435;   -0,409
377,026;  842,330;    0,204;   -2,500
377,618;  875,267;   -0,158;   -0,682
378,210;  776,004;   -0,338;   -1,955
378,802;  714,963;    0,754;   -0,591
379,394; 1235,629;    1,846;    0,682
379,986;  977,852;    1,393;   -0,955
380,578;  870,239;   -0,153;    0,773
381,170; 1135,370;   -0,972;    0,045
381,762;  996,507;    0,755;    1,409
382,354;  951,112;   -0,065;   -1,318
382,945;  843,565;   -2,976;    0,318
383,537;  773,463;   -2,705;   -1,955
384,129;  791,892;   -2,160;   -1,136
384,721;  937,392;   -0,252;    0,955
385,312;  820,829;   -0,161;   -0,955
385,904;  976,107;   -2,706;    1,591
386,496;  809,989;   -0,979;    1,045
387,087;  995,906;    1,022;    2,500
387,679;  930,287;   -1,160;    0,045
388,270;  940,538;    2,840;    2,045
388,862;  887,682;    1,295;   -0,318
389,453;  813,049;   -0,887;    1,045
390,045;  862,682;   -0,705;   -2,682
390,636;  758,078;    0,204;   -0,591
391,227;  797,377;   -0,523;   -0,045
391,819;  819,800;    0,204;    0,773
392,410; 1120,554;    1,022;    0,045
393,001;  897,456;   -0,979;   -1,591
393,593; 1003,227;    1,930;   -0,045
394,184; 1059,383;    1,385;   -0,409
394,775;  854,394;    1,839;    2,136
395,366;  815,256;    1,385;    0,773
395,957; 1058,120;    0,113;    0,136
396,548;  923,168;   -0,342;    2,682
397,139; 1108,451;   -2,433;    0,591
397,730;  970,144;   -1,888;    0,955
398,321;  969,992;   -1,252;    0,955
398,912;  889,611;   -0,615;    0,136
399,503;  925,051;   -3,524;   -1,409
400,094;  936,286;    0,294;    1,682
400,685;  933,687;   -0,433;    0,045
401,276;  823,162;    0,930;   -0,955
401,867;  830,966;   -0,888;    0,773
402,458;  793,232;   -2,251;   -2,318
403,048; 1003,119;    1,112;    0,591
403,639;  872,027;    0,840;    0,864
404,230; 1099,685;    2,476;    0,318
404,821; 1157,233;   -0,615;    0,045
405,411; 1011,485;    1,203;   -2,591
406,002;  866,321;   -1,252;   -1,136
406,592; 1177,178;    2,294;    0,045
407,183;  989,290;    0,566;   -1,500
407,774;  925,354;    3,475;   -0,136
408,364;  900,363;    0,930;    0,409
408,954; 1056,366;    0,384;    1,227
409,545; 1057,067;    1,021;    1,045
410,135;  948,768;    1,293;    0,500
410,726;  904,848;    1,838;    0,318
411,316; 1156,164;    0,111;    0,773
411,906;  901,816;   -0,253;   -0,409
412,497;  896,674;   -1,070;   -0,045
413,087;  847,243;   -1,980;   -0,227
413,677;  800,942;   -0,707;    3,864
414,267;  777,995;    0,656;    1,409
414,857;  736,230;   -2,980;    4,227
415,448;  758,836;    0,839;    0,500
416,038;  771,519;    0,020;   -0,591
416,628;  835,370;   -0,889;    0,409
417,218;  931,400;    0,565;    3,318
417,808; 1138,089;    0,202;   -0,409
418,398;  943,647;    0,020;    2,682
418,988;  787,597;    2,020;    0,591
419,578;  909,447;   -0,707;    1,409
420,168;  893,379;   -1,343;   -0,955
420,757; 1075,293;   -1,343;   -1,500
421,347;  904,791;    0,111;   -0,227
421,937;  857,495;    2,292;    1,409
422,527; 1025,155;    0,838;   -0,773
423,116; 1193,004;   -0,253;   -0,045
423,706;  828,480;   -1,889;    0,318
424,296;  736,371;    1,384;    0,682
424,885;  983,280;   -0,071;   -3,045
425,475;  932,958;    1,474;   -2,864
426,065;  758,489;   -0,980;   -0,318
426,654;  731,856;   -0,435;   -0,318
427,244; 1133,360;    0,020;    1,409
427,833; 1082,116;    1,383;   -0,500
428,423;  892,665;   -0,526;    1,136
429,012;  919,267;   -0,344;   -1,136
429,601; 1059,666;   -1,344;    0,136
430,191;  896,258;    1,292;    4,318
430,780;  723,316;   -0,344;   -0,409
431,369; 1046,584;    0,746;   -0,045
431,959;  926,813;   -1,254;    0,500
432,548;  790,115;   -1,163;   -0,045
433,137;  681,039;   -1,254;   -1,318
433,726;  848,505;    0,292;    0,500
434,315;  836,581;   -0,526;    2,409
434,905;  982,664;   -1,254;    1,409
435,494; 1032,945;    0,746;    0,955
436,083;  819,273;   -0,981;   -0,955
436,672;  893,925;    0,110;    0,500
437,261;  833,116;    0,292;   -1,955
437,850; 1216,752;    1,383;    0,682
438,439; 1255,257;    3,291;    1,955
439,027; 1378,873;    3,655;    1,773
439,616; 1320,871;    2,927;    1,227
440,205;  980,973;    0,200;   -2,136
440,794;  857,369;    2,109;   -0,045
441,383;  748,859;   -1,346;   -0,591
441,971;  648,006;   -2,436;    0,591
442,560;  676,766;    0,563;   -1,773
443,149;  540,074;    0,379;   -1,318
443,737;  644,985;   -0,074;   -2,318
444,326;  665,247;    0,018;    0,318
444,915;  749,024;   -1,982;    0,864
445,503;  753,382;   -2,891;   -0,318
446,092; 1100,725;    0,382;    2,136
446,680; 1019,312;    0,382;    0,318
447,269;  908,479;   -0,346;   -0,318
447,857;  856,746;    0,018;   -1,773
448,445;  772,720;    0,563;    1,318
449,034;  693,943;   -1,528;   -1,136
449,622;  670,133;   -1,073;    3,500
450,210; 1139,149;    2,017;    2,227
450,799; 1018,847;    0,290;   -0,591
451,387;  894,921;    1,381;   -0,591
451,975;  873,551;    2,654;    0,864
452,563; 1011,389;    3,472;    2,318
453,151;  683,827;   -0,528;   -1,227
453,739;  778,094;   -1,347;    0,136
454,328;  970,522;    2,381;   -2,136
454,916;  830,394;    2,562;   -0,136
455,504;  834,992;    1,017;    1,227
456,092;  666,971;    0,017;   -1,591
456,679;  578,631;    1,472;    0,682
457,267; 1228,171;    4,017;    1,045
457,855;  720,819;    1,017;    1,409
458,443;  471,031;   -0,165;    1,682
459,031;  813,898;    0,108;    2,409
459,619;  732,417;   -1,801;    2,864
460,206;  556,136;    0,835;    2,045
460,794;  548,262;   -2,983;   -0,227
461,382;  641,711;   -0,529;   -0,864
461,970;  603,978;    1,198;    1,864
462,557;  492,145;   -0,711;   -0,682
463,145;  723,136;   -3,165;   -1,682
463,732; 1061,873;    2,016;   -1,045
464,320;  705,088;   -0,075;   -3,045
464,907;  935,278;    2,743;   -0,773
465,495;  792,517;    0,743;   -1,227
466,082;  659,973;   -1,984;   -0,045
466,670;  672,645;   -2,529;    1,227
467,257;  491,097;   -1,711;    2,045
467,844;  678,361;   -0,075;    0,045
468,432;  649,581;    0,834;    3,500
469,019;  550,007;    0,925;   -1,773
469,606;  664,590;    0,470;    3,682
470,193;  722,268;   -1,439;    0,227
470,780;  667,373;   -2,075;    0,864
471,368;  536,353;   -1,257;   -0,773
471,955;  703,546;    1,379;   -0,682
472,542;  619,688;    0,652;   -1,136
473,129;  416,233;   -0,166;    0,136
473,716;  432,350;    1,470;    0,591
474,303;  486,458;    0,652;   -0,864
474,890;  502,330;   -1,439;   -0,500
475,477;  642,442;   -1,621;    0,409
476,064;  479,789;    1,106;   -1,591
476,650;  644,650;    0,288;    0,318
477,237;  525,923;   -0,258;    0,955
477,824;  478,070;   -1,076;    0,864
478,411;  320,853;   -1,894;   -0,318
478,997;  325,692;    0,560;   -0,773
479,584;  228,135;    1,196;   -0,409
480,171;  531,302;   -0,440;   -0,773
480,757;  622,907;    2,651;    0,773
481,344;  428,589;    0,469;    0,409
481,931;  273,392;    1,105;    1,045
482,517;  505,728;   -1,258;    0,318
483,104;  632,132;    1,106;    2,864
483,690;  436,886;   -1,804;    0,045
484,276;  391,265;   -0,895;    0,227
484,863;  728,786;    2,469;    1,136
485,449;  470,605;   -0,077;    0,318
486,035;  397,462;   -1,986;   -0,136
486,622;  564,731;   -0,895;    0,045
487,208;  423,488;    1,378;    1,500
487,794;  284,022;    0,741;    0,318
488,380;  280,638;    0,105;   -1,409
488,967;  301,073;   -1,168;   -0,409
489,553;  323,480;   -1,895;   -1,409
490,139;  453,858;    1,559;    0,773
490,725;  303,721;    0,741;   -0,227
491,311;  395,037;    3,287;    3,045
491,897;  336,337;   -0,986;    1,500
492,483;  333,410;    0,105;    1,227
493,069;  974,551;    3,923;    0,864
493,655;  561,539;    1,650;    0,682
494,241;  381,038;    1,377;   -0,955
494,826;  424,562;    0,287;   -1,045
495,412;  544,020;    2,559;   -0,682
495,998;  386,833;   -0,805;   -0,318
496,584;  506,358;    0,377;    1,045
497,169;  517,997;    1,014;   -0,682
497,755;  411,494;    0,650;    1,227
498,341;  700,988;    0,559;    0,318
498,926;  888,036;    1,832;    1,955
499,512;  495,917;    1,286;    2,955
500,097;  512,435;    0,195;   -0,318
500,683;  559,057;   -0,350;    2,136
501,268;  475,350;   -0,169;   -0,955
501,854;  527,271;   -0,169;    1,227
502,439;  499,064;   -0,624;   -1,773
503,024;  644,430;    0,195;    0,500
503,610;  716,679;   -0,078;   -0,682
504,195;  570,233;    0,558;    1,955
504,780;  759,022;    2,922;    1,227
505,366;  949,696;    3,013;    2,864
505,951;  826,645;    0,740;    1,045
506,536;  721,231;   -3,260;   -3,682
507,121;  829,310;    0,285;   -0,318
507,706;  764,518;    2,376;    1,045
508,291;  704,290;    2,649;    1,136
508,876;  724,414;   -0,988;    2,591
509,461;  841,593;   -0,169;   -0,773
510,046;  937,015;    0,194;    0,318
510,631;  926,774;   -0,351;   -0,773
511,216;  832,076;    2,467;   -0,500
511,801;  987,346;   -0,442;    2,591
512,386; 1034,933;    0,740;    0,500
512,971; 1070,270;   -2,988;    0,955
513,555; 1157,282;   -0,897;   -1,500
514,140; 1150,165;   -0,442;   -3,136
514,725; 1289,353;   -0,715;   -1,136
515,309; 1170,482;   -0,533;    0,318
515,894; 1036,561;   -0,624;   -2,227
516,479; 1091,558;   -0,624;   -0,955
517,063; 1092,388;    0,376;    1,227
517,648; 1075,696;    1,012;   -1,136
518,232; 1000,495;   -0,261;   -1,409
518,817; 1128,418;   -0,079;    1,682
519,401; 1348,453;    2,194;    0,591
519,985; 1180,292;    1,103;    1,136
520,570; 1028,272;    0,830;   -1,955
521,154; 1233,483;    2,102;    0,591
521,738; 1524,094;   -2,352;    2,409
522,323; 1356,249;   -0,170;    1,682
522,907; 1283,246;    0,466;   -0,136
523,491; 1171,818;    0,557;    0,955
524,075; 1105,924;    2,284;    0,591
524,659; 1349,868;    1,466;    0,591
525,243; 1226,179;    1,739;    0,409
525,827; 1156,839;    0,648;   -0,045
526,411; 1222,686;   -1,989;   -0,136
526,995; 1410,317;   -0,352;    1,409
527,579; 1435,643;   -0,443;   -1,045
528,163; 1370,241;    0,375;   -1,500
528,747; 1563,106;    2,466;   -0,773
529,331; 1500,520;   -0,080;   -1,409
529,915; 1254,444;    1,738;    0,955
530,499; 1369,350;   -0,807;    1,227
531,082; 1505,625;   -0,534;    1,591
531,666; 1548,565;    1,374;    0,773
532,250; 1485,030;    1,284;    2,682
532,833; 1651,063;    0,920;    2,773
533,417; 1417,811;   -1,807;    0,864
534,001; 1534,527;    1,647;   -0,318
534,584; 1475,442;    0,374;    0,500
535,168; 1281,970;    0,465;    1,409
535,751; 1715,940;    0,647;    0,045
536,334; 1320,565;   -0,898;   -0,409
536,918; 1291,723;    0,011;    1,591
537,501; 1273,210;   -0,899;    1,318
538,085; 1333,454;   -0,444;    1,045
538,668; 1364,196;    0,829;    2,409
539,251; 1764,301;    1,829;    3,773
539,834; 1497,630;    0,101;    0,773
540,418; 1604,152;   -1,990;    4,318
541,001; 1785,806;   -0,990;    1,773
541,584; 1511,945;    2,101;    2,227
542,167; 1589,554;    1,374;    2,955
542,750; 1456,545;    1,919;   -0,773
543,333; 1220,834;    0,555;    2,136
543,916; 1566,279;    0,192;    2,500
544,499; 1431,000;   -1,354;    0,227
545,082; 1549,115;    1,374;    3,591
545,665; 1448,047;    1,919;    1,500
546,248; 1606,106;    1,010;   -0,318
546,830; 1570,968;   -0,445;    1,955
547,413; 1595,168;    1,010;   -0,773
547,996; 1665,280;    0,555;    0,500
548,579; 1464,790;    0,919;    0,955
549,161; 1722,359;    1,828;    2,682
549,744; 1600,961;   -0,809;    0,409
550,326; 1549,070;   -0,809;   -1,136
550,909; 2035,281;    2,737;    0,591
551,492; 1718,471;   -0,263;    0,227
552,074; 1777,900;   -0,173;   -1,318
552,657; 1837,451;    2,373;    0,045
553,239; 1646,586;   -0,173;   -0,773
553,821; 1581,410;   -1,082;    1,045
554,404; 1783,167;    1,282;    1,136
554,986; 1909,727;    0,464;    1,045
555,568; 1797,317;    1,191;   -0,955
556,151; 1991,513;    1,191;   -0,227
556,733; 1676,683;   -0,264;   -0,864
557,315; 1674,147;    0,100;    0,500
557,897; 1468,927;    0,554;   -0,500
558,479; 1493,584;   -1,991;    1,318
559,061; 1640,485;   -0,719;   -0,864
559,643; 1751,449;   -0,264;    0,045
560,225; 1789,613;    1,645;    2,864
560,807; 1668,268;    0,918;    0,318
561,389; 1586,954;    0,554;    2,318
561,971; 1651,107;    0,463;    2,136
562,553; 1671,587;   -1,628;    1,591
563,135; 1762,473;   -0,537;    1,136
563,717; 2105,098;    3,372;    1,136
564,298; 1992,371;    3,645;   -0,045
564,880; 1715,201;    0,645;   -1,409
565,462; 1589,474;    0,645;    1,318
566,043; 1939,004;   -0,446;    2,318
566,625; 2089,359;    1,918;    1,227
567,207; 1851,791;    1,099;    1,682
567,788; 1850,107;   -1,264;    1,500
568,370; 1996,143;    1,917;   -0,500
568,951; 1860,257;    0,190;    0,227
569,533; 2062,994;   -0,628;   -0,500
570,114; 2184,450;   -0,446;    0,682
570,695; 2228,067;   -0,174;   -1,318
571,277; 2177,445;   -0,265;   -1,682
571,858; 2419,633;    2,008;   -1,136
572,439; 2449,606;    1,554;   -1,045
573,021; 2443,076;    2,099;   -2,773
573,602; 2568,780;   -1,265;    0,318
574,183; 2622,346;   -2,083;    2,227
574,764; 2631,135;   -1,629;    0,409
575,345; 2719,687;    0,917;   -0,136
575,926; 2736,921;   -0,356;    0,136
576,507; 2806,226;    1,099;   -0,227
577,088; 2929,586;    3,099;    1,682
577,669; 3057,660;    0,735;    1,955
578,250; 3313,164;    0,644;   -1,045
578,831; 3178,552;   -1,356;   -2,227
579,412; 3045,857;   -0,810;    0,955
579,993; 3343,244;    1,008;    0,227
580,573; 3347,710;   -0,629;   -0,955
581,154; 3019,126;    0,735;   -0,591
581,735; 3226,376;    0,644;    0,773
582,315; 3087,648;   -0,629;    2,136
582,896; 3264,681;   -0,174;    1,227
583,477; 3074,983;    0,189;    1,227
584,057; 3173,605;    0,553;    0,955
584,638; 3259,244;    2,553;    2,318
585,218; 3440,587;   -0,538;    2,682
585,799; 3341,156;    0,281;   -0,227
586,379; 3246,041;    0,372;    1,591
586,959; 3087,170;    0,735;    0,318
587,540; 2919,972;   -0,629;    2,227
588,120; 2818,949;    1,007;   -0,045
588,700; 2677,476;    2,553;    2,136
589,281; 2931,341;    0,462;   -0,955
589,861; 2818,669;    0,099;   -1,682
590,441; 2736,449;    2,371;   -2,682
591,021; 2534,417;   -0,265;   -2,591
591,601; 2654,982;   -0,537;    0,500
592,181; 2764,950;   -0,719;   -0,773
592,761; 2428,992;    0,007;    1,409
593,341; 2593,340;   -0,901;    0,045
593,921; 2535,584;   -0,265;    1,591
594,501; 2430,355;   -0,538;    1,318
595,081; 2397,569;    0,917;   -0,318
595,661; 2639,117;   -1,447;    0,955
596,240; 2684,076;   -0,537;    0,136
596,820; 2820,548;    0,372;    1,955
597,400; 2554,276;    2,008;    0,773
597,980; 2601,372;    2,008;    1,045
598,559; 2584,431;    2,735;   -0,227
599,139; 2542,484;   -0,174;   -1,227
599,718; 2508,575;   -0,174;   -0,409
600,298; 2606,434;    0,735;    0,682
600,877; 2946,580;    2,917;    1,409
601,457; 2854,688;    2,281;    1,136
602,036; 2723,973;    0,190;    2,045
602,616; 2679,727;    0,644;    1,682
603,195; 2840,316;   -0,355;    3,500
603,774; 2749,002;   -0,901;    2,045
604,354; 2653,472;    0,826;   -0,500
604,933; 2554,501;    0,463;    1,864
605,512; 2756,222;    3,554;    0,591
606,091; 2776,615;   -0,537;    3,773
606,671; 2830,785;    0,281;    0,773
607,250; 2799,621;    1,644;    3,136
607,829; 2814,418;    2,372;    3,227
608,408; 2691,594;    1,190;    2,591
608,987; 2627,412;    1,281;    3,409
609,566; 2501,399;   -1,265;   -2,500
610,145; 2598,172;   -1,082;    0,682
610,723; 2754,392;    4,372;    6,864
611,302; 2503,787;   -0,446;    1,682
611,881; 2610,130;    5,008;   11,227
612,460; 2525,518;    1,645;    3,955
613,039; 2603,617;   -0,082;    2,045
613,617; 2316,275;    1,736;    4,773
614,196; 2340,066;    1,099;    1,227
614,775; 2497,778;    1,009;    2,409
615,353; 2503,405;    0,736;    0,864
615,932; 2437,429;    0,100;    2,409
616,510; 2586,406;    0,554;    0,591
617,089; 2937,452;    7,100;   17,591
617,667; 2634,165;    2,372;    6,136
618,246; 2274,699;   -1,537;    1,318
618,824; 2394,822;   -3,355;   -0,955
619,402; 2332,740;   -2,900;   -1,773
619,981; 2505,989;   -0,173;   -1,045
620,559; 2476,997;    0,009;    1,682
621,137; 2473,956;   -0,718;    1,864
621,715; 2159,176;   -1,173;   -0,682
622,293; 2200,854;   -0,537;   -0,773
622,871; 2474,511;   -0,718;    0,500
623,450; 2303,671;    0,373;   -0,864
624,028; 2438,446;    0,191;   -0,955
624,606; 2341,625;   -1,718;    1,682
625,183; 2250,953;   -1,536;   -1,136
625,761; 2267,308;    1,009;    1,136
626,339; 2658,211;    1,373;    2,591
626,917; 2382,395;   -0,172;   -0,045
627,495; 2390,970;   -0,354;    1,318
628,073; 2356,568;   -0,263;    2,864
628,650; 2310,140;    0,100;    2,136
629,228; 2393,548;    0,373;    4,409
629,806; 2120,612;    2,282;    1,136
630,383; 2205,187;    1,464;   -0,318
630,961; 2200,524;    2,555;   -0,955
631,539; 2138,348;    2,464;    0,227
632,116; 2789,888;   11,373;   15,409
632,694; 2465,932;    2,555;    6,500
633,271; 2278,925;    0,828;    2,682
633,848; 2403,776;    1,828;    2,045
634,426; 2221,289;   -1,081;    1,773
635,003; 2050,786;    1,101;   -0,409
635,580; 2396,297;    1,192;    3,682
636,158; 2247,904;    3,737;    1,227
636,735; 2107,565;    0,555;   -0,500
637,312; 2103,363;   -0,809;   -0,682
637,889; 2126,696;   -4,354;   -0,682
638,466; 2107,516;   -3,990;   -0,409
639,043; 2079,991;    2,101;   -1,136
639,620; 2090,252;   -2,262;   -0,955
640,197; 2232,914;    1,100;    1,682
640,774; 2216,936;   -0,172;    1,136
641,351; 2299,049;    0,737;    1,136
641,928; 2335,526;   -0,627;    1,409
642,505; 2446,639;    0,828;   -0,500
643,082; 2356,297;   -1,718;    1,227
643,658; 2009,410;   -0,718;    1,500
644,235; 2128,796;    1,191;    2,500
644,812; 2266,272;    1,918;    0,773
645,388; 2208,112;   -0,991;    1,409
645,965; 2005,225;   -0,809;    1,682
646,542; 2033,975;   -1,445;   -0,227
647,118; 2487,633;    1,009;   -0,955
647,695; 2313,110;   -0,263;    1,136
648,271; 2125,132;   -0,536;    0,500
648,848; 2252,426;    0,736;    2,227
649,424; 2371,267;    0,827;    1,318
650,000; 2083,198;   -0,354;   -1,045
650,577; 2145,947;   -0,627;   -0,955
651,153; 2281,333;   -1,809;    0,955
651,729; 2282,536;    1,191;    0,864
652,305; 2542,649;    0,645;    2,773
652,881; 3032,853;   -0,082;    1,136
653,458; 3991,966;    1,100;    0,227
654,034; 4559,261;    0,282;    1,591
654,610; 4614,192;    0,554;    0,773
655,186; 5022,487;    0,645;    3,045
655,762; 4698,327;   -0,991;    0,409
656,338; 4668,076;    0,100;    0,136
656,913; 4985,553;   -0,082;    0,409
657,489; 4714,120;    0,827;   -0,318
658,065; 4800,324;   -0,173;   -1,591
658,641; 5050,892;   -0,900;   -0,864
659,217; 4785,823;   -0,991;    0,409
659,792; 4526,481;    0,645;   -0,409
660,368; 4640,776;   -2,173;   -0,682
660,944; 4835,889;   -2,082;    1,227
661,519; 4117,093;   -0,628;    0,409
662,095; 3209,478;   -1,719;    0,591
662,670; 2504,046;    1,281;   -0,136
663,246; 2462,886;    1,009;   -0,409
663,821; 2504,363;    0,281;    1,682
664,396; 2221,112;    0,009;    1,864
664,972; 2272,407;    0,009;   -0,500
665,547; 2444,429;    1,372;    0,136
666,122; 2369,633;   -1,082;    0,318
666,698; 2536,655;   -0,173;    0,318
667,273; 2191,040;   -0,173;    0,136
667,848; 2382,789;    2,372;    1,500
668,423; 2446,084;    2,190;    2,318
668,998; 2389,106;    2,827;   -0,682
669,573; 2452,765;   -3,264;   -1,500
670,148; 2595,968;   -1,446;   -0,682
670,723; 2318,627;   -1,810;    0,318
671,298; 2668,922;    2,372;    1,045
671,873; 2525,125;   -0,082;   -0,136
672,448; 2531,966;    0,645;    0,136
673,023; 2570,624;   -1,992;   -0,227
673,597; 2740,828;    0,827;    2,318
674,172; 2707,123;   -0,355;    0,318
674,747; 2564,326;    0,372;   -1,045
675,321; 2351,894;   -0,628;    3,318
675,896; 2225,189;    0,645;    1,045
676,471; 2483,574;    2,645;    1,591
677,045; 2362,233;   -1,264;    0,682
677,620; 2390,164;    0,190;    1,136
678,194; 2420,095;   -2,628;    1,136
678,769; 2401,662;   -1,083;   -0,318
679,343; 2517,503;   -0,628;    1,773
679,917; 2559,707;   -1,446;    1,955
680,492; 2418,910;    0,826;    3,227
681,066; 2459,478;    3,372;    0,409
681,640; 2462,409;    1,463;   -0,318
682,214; 2585,613;    0,735;    0,500
682,788; 2516,908;   -1,356;   -0,773
683,363; 2531,202;   -1,810;    1,682
683,937; 2380,133;   -1,719;   -0,318
684,511; 2623,155;    0,463;   -0,591
685,085; 2559,177;   -1,356;    0,318
685,659; 2409,563;   -2,538;    0,864
686,232; 2660,221;   -0,356;   -0,318
686,806; 2554,153;   -0,901;    0,409
687,380; 2607,811;   -0,174;    0,591
687,954; 2624,742;   -1,174;    1,136
688,528; 2723,764;   -0,719;    1,955
689,101; 2810,604;   -3,992;    1,045
689,675; 2594,899;   -0,356;   -0,136
690,249; 2646,648;   -0,719;    0,409
690,822; 2721,489;    0,280;    0,318
691,396; 2598,511;   -0,265;    1,227
691,969; 2472,987;    1,280;    0,136
692,543; 2572,918;   -0,447;   -1,955
693,116; 2385,759;   -0,265;   -1,409
693,690; 2441,326;    0,099;    0,500
694,263; 2576,075;   -1,083;    2,955
694,836; 2815,734;    1,371;    3,591
695,410; 2515,119;   -0,265;    1,773
695,983; 2541,414;    0,189;    0,591
696,556; 2424,072;   -0,447;   -1,045
697,129; 2504,458;   -0,356;    1,409
697,703; 2469,844;   -1,629;    1,955
698,276; 2481,320;    1,462;   -0,773
698,849; 2514,615;    1,280;    1,409
699,422; 2393,728;   -1,083;    0,591
699,995; 2288,023;    0,007;    0,136
700,568; 2470,772;   -0,629;    3,045
701,140; 2494,976;   -2,811;    1,682
701,713; 2599,543;   -0,174;    2,409
702,286; 2509,293;   -0,538;    0,864
702,859; 2483,678;   -0,902;   -0,591
703,432; 2412,155;    0,825;    0,682
704,004; 2402,359;    0,462;    0,318
704,577; 2249,654;   -0,629;    0,136
705,150; 2369,039;    0,189;    2,500
705,722; 2442,607;   -0,356;   -3,227
706,295; 2465,538;   -0,175;   -0,591
706,867; 2287,196;   -0,175;    1,955
707,440; 2509,218;   -1,720;   -0,409
708,012; 2576,877;    0,462;    0,591
708,584; 2431,080;    2,462;    0,227
709,157; 2400,557;    1,825;   -0,591
709,729; 2536,852;    2,280;    2,045
710,301; 2668,146;    0,734;    0,045
710,874; 2620,714;   -1,447;   -0,227
711,446; 2238,372;    0,371;    0,864
712,018; 2331,849;    0,098;    0,500
712,590; 2248,144;   -1,993;    1,682
713,162; 2562,984;    0,825;    1,318
713,734; 2438,006;    1,825;   -2,045
714,306; 2401,482;   -1,902;   -0,409
714,878; 2225,959;    0,825;    0,864
715,450; 2374,436;    0,643;    0,864
716,022; 2401,549;    1,552;    1,318
716,593; 2429,025;    0,189;    0,591
717,165; 2482,683;   -3,175;   -1,227
717,737; 2591,433;    0,280;    0,409
718,309; 2422,273;    0,280;   -0,045
718,880; 2341,750;   -0,539;   -1,409
719,452; 2460,135;   -0,175;   -1,591
720,024; 2428,339;    0,734;   -0,591
720,595; 2458,270;   -2,902;    0,955
721,167; 2349,019;    0,370;   -2,045
721,738; 2302,223;   -0,812;   -1,045
722,309; 2375,700;   -0,993;   -1,227
722,881; 2216,995;   -1,357;    0,773
723,452; 2409,289;   -2,630;    2,864
724,023; 2476,039;   -0,721;    2,682
724,595; 2501,515;    0,007;    0,682
725,166; 2287,265;    0,007;   -0,409
725,737; 2450,105;    1,734;    0,227
726,308; 2376,399;   -0,266;    0,318
726,879; 2292,785;   -1,630;    1,227
727,450; 2413,353;    0,552;   -0,045
728,021; 2304,920;    3,097;    0,682
728,592; 2447,578;    0,734;    0,500
729,163; 2587,600;    0,643;   -0,136
729,734; 2599,350;    0,188;   -0,227
730,305; 2455,554;    1,734;    0,136
730,876; 2447,485;    0,188;    2,955
731,447; 2748,325;    2,188;    2,682
732,017; 2638,438;    1,097;    1,864
732,588; 2504,914;    0,734;    1,227
733,159; 2652,573;    0,643;   -1,045
733,729; 2388,049;    0,006;    0,409
734,300; 2428,435;    0,915;    0,864
734,870; 2394,821;    3,461;    0,591
735,441; 2430,206;    0,370;   -0,591
736,011; 2311,592;    0,643;   -1,591
736,582; 2346,796;   -0,812;    0,045
737,152; 2293,182;   -1,721;   -2,045
737,722; 2392,204;   -0,267;   -0,682
738,293; 2237,407;   -1,358;    1,318
738,863; 2392,066;    2,461;    2,318
739,433; 2631,088;    5,279;    0,318
740,003; 2528,473;   -0,994;   -0,682
740,573; 2535,950;    2,097;   -1,591
741,143; 2480,518;   -1,085;    0,318
741,713; 2461,812;    1,188;   -0,500
742,283; 2420,107;    0,915;    1,591
742,853; 2341,493;    1,915;    1,591
743,423; 2166,878;    1,733;    0,045
743,993; 2247,719;   -0,358;    1,500
744,563; 2112,377;    0,097;   -0,864
745,133; 2165,490;   -0,812;   -0,864
745,702; 2274,330;   -0,267;    1,773
746,272; 2292,716;   -0,176;    0,591
746,842; 2304,010;   -1,358;   -0,591
747,411; 2224,487;   -0,267;   -0,318
747,981; 2147,873;    0,097;    0,500
748,551; 2186,258;    2,278;   -1,045
749,120; 2277,280;    0,642;   -0,227
749,690; 2292,939;   -0,631;    2,409
750,259; 2422,324;    1,369;    2,955
750,828; 2427,074;    1,551;   -1,955
751,398; 2297,096;    1,278;   -0,045
751,967; 2609,391;    2,187;    0,409
752,536; 2389,231;   -0,813;   -0,227
753,105; 2535,525;    0,096;    0,227
753,675; 2333,366;    0,096;    1,773
754,244; 2332,206;   -0,904;    3,591
754,813; 2357,410;    0,551;    1,227
755,382; 2259,614;    0,460;    0,955
755,951; 2415,545;    1,551;    3,682
756,520; 2450,930;   -0,085;    1,864
757,089; 2693,316;    0,278;    0,500
757,658; 2417,702;    1,733;    1,227
758,227; 2291,542;    1,096;    0,318
758,795; 2380,837;    1,187;    1,136
759,364; 2531,677;   -0,086;   -0,591
759,933; 2228,790;   -1,176;   -0,045
760,501; 2176,175;    0,733;   -1,318
761,070; 2320,197;   -2,813;   -1,409
761,639; 2553,947;   -1,904;    1,318
762,207; 2377,787;    1,551;   -0,955
762,776; 2439,082;    0,369;    0,864
763,344; 2320,649;   -0,995;    0,591
763,913; 1972,398;   -0,722;    1,409
764,481; 2603,875;    1,005;   -0,136
765,049; 2546,170;   -1,358;    1,409
765,618; 2430,919;   -0,086;    0,318
766,186; 2356,759;    0,278;    0,136
766,754; 2376,872;    0,005;    1,864
767,322; 2059,894;   -1,995;    0,409
767,890; 2029,734;   -0,722;   -1,773
768,459; 2215,120;   -2,177;   -0,318
769,027; 2422,597;    1,641;    3,409
769,595; 2148,891;    3,278;    2,591
770,163; 2198,277;    3,823;    2,955
770,730; 2185,754;    0,732;   -0,136
771,298; 2153,230;    0,187;   -1,409
771,866; 2151,889;   -1,541;    4,955
772,434; 2190,183;   -0,631;   -1,864
773,002; 2450,296;    0,005;    0,682
773,569; 2322,136;    0,914;    1,682
774,137; 2384,431;   -0,268;   -0,045
774,705; 2375,090;    0,278;   -0,136
775,272; 2186,021;    0,641;    0,682
775,840; 2295,861;   -0,177;    2,682
776,407; 2258,701;    0,277;    1,955
776,975; 2006,905;   -0,632;    0,318
777,542; 2158,018;   -1,086;   -0,045
778,110; 2188,767;   -1,268;   -0,045
778,677; 2046,153;   -2,359;   -0,864
779,244; 2080,811;    2,186;    1,045
779,812; 2218,651;    1,823;    0,864
780,379; 2259,673;    0,005;    1,136
780,946; 2142,423;    1,005;   -0,773
781,513; 2169,808;   -1,450;    0,318
782,080; 2029,285;   -0,086;    2,864
782,647; 2139,580;   -0,268;    3,045
783,214; 2070,056;   -0,177;    3,864
783,781; 2195,351;   -0,723;   -0,682
784,348; 2166,373;   -0,632;    1,500
784,915; 2032,941;   -3,177;    0,318
785,482; 2185,872;    1,368;    2,591
786,049; 2267,894;    0,186;   -0,591
786,615; 2193,461;    0,277;   -0,955
787,182; 2113,392;    0,186;   -0,682
787,749; 2057,596;   -2,814;    1,409
788,315; 2065,255;   -1,632;   -0,409
788,882; 2105,367;    1,550;   -1,227
789,448; 2399,026;    1,732;   -0,955
790,015; 2211,866;    1,095;    3,227
790,581; 2297,706;    1,459;    0,227
791,148; 2106,910;    0,641;    1,045
791,714; 2096,659;   -0,541;    3,136
792,280; 2067,318;    0,186;    1,591
792,847; 1980,794;    0,550;    2,500
793,413; 2070,362;   -0,269;   -0,318
793,979; 2142,657;    3,459;   -1,318
794,545; 2494,406;    4,459;    2,682
795,111; 2282,337;    2,186;    1,318
795,678; 2132,995;    0,731;   -1,682
796,244; 2311,745;    3,368;    0,136
796,810; 2282,949;    1,731;    0,773
797,375; 2250,607;    0,549;   -2,136
797,941; 1877,538;   -0,541;    0,591
798,507; 1857,924;   -0,451;   -0,955
799,073; 1869,491;   -0,360;    0,591
799,639; 1937,059;   -2,632;    3,136
800,205; 1882,353;    0,095;    2,682
800,770; 1827,375;    0,640;    1,773
801,336; 1794,397;    1,368;   -0,955
801,901; 2408,510;    4,549;    3,136
802,467; 2167,441;   -0,542;    2,045
803,033; 1823,282;   -0,087;    0,864
803,598; 1828,667;    1,913;   -1,045
804,163; 1884,689;    1,095;   -0,318
804,729; 1987,620;   -0,178;    1,136
805,294; 1914,733;    0,822;    2,227
805,859; 1778,301;    0,731;   -0,409
806,425; 2166,777;    1,186;    2,682
806,990; 2126,709;    2,186;    4,318
807,555; 1939,276;   -1,451;    2,591
808,120; 2097,844;    0,822;   -0,409
808,685; 1842,320;    0,185;   -2,500
809,250; 1670,069;    0,004;   -0,500
809,815; 1768,910;    1,913;    0,682
810,380; 1974,841;   -0,269;    1,591
810,945; 2115,408;   -1,087;    2,045
811,510; 1967,794;    2,094;    1,591
812,075; 1878,998;   -0,633;   -1,409
812,640; 2156,474;    2,003;    1,409
813,204; 1963,405;    0,822;   -0,227
813,769; 2172,973;    2,094;   -0,045
814,334; 2100,086;    0,458;    0,864
814,898; 1877,653;    0,367;    0,591
815,463; 1883,039;    1,276;   -0,773
816,027; 1821,970;   -0,724;   -2,318
816,592; 1845,992;    0,640;   -2,045
817,156; 1866,469;    2,094;    1,136
817,721; 1942,218;    4,276;    2,318
818,285; 1746,331;    2,912;    1,500
818,849; 1861,353;   -1,451;    1,682
819,414; 1747,193;   -0,269;    2,955
819,978; 1684,942;   -1,269;    1,773
820,542; 2101,783;    2,003;    0,500
821,106; 1923,896;   -0,815;    0,682
821,670; 2089,463;   -0,815;    2,591
822,234; 1843,303;   -0,270;    1,409
822,798; 1692,871;    0,003;    0,500
823,362; 2000,529;   -0,633;    4,227
823,926; 1716,006;    0,094;    1,136
824,490; 1927,755;   -0,997;   -0,682
825,054; 1843,050;   -0,088;   -1,136
825,618; 1684,708;   -1,542;   -1,500
826,181; 1711,366;    0,458;   -1,318
826,745; 1774,934;    1,367;   -1,045
827,309; 2069,865;    1,185;    1,318
827,872; 1895,887;    1,367;    0,955
828,436; 1879,636;    1,185;   -0,773
828,999; 1846,931;   -0,997;    1,227
829,563; 1753,953;   -0,179;    1,136
830,126; 1689,339;   -0,179;   -0,591
830,690; 1701,906;   -1,997;    2,864
831,253; 1584,474;   -0,543;    2,227
831,816; 1670,223;   -1,906;    0,500
832,380; 1577,791;    0,185;    0,864
832,943; 1606,722;   -1,361;   -0,500
833,506; 1615,562;    2,639;   -1,227
834,069; 1842,038;    3,912;   -0,955
834,632; 1749,151;    1,730;    1,318
835,195; 1749,082;    1,003;    0,955
835,758; 1627,559;   -0,997;    1,955
836,321; 1567,763;    0,730;   -1,045
836,884; 1584,330;   -0,725;   -0,955
837,447; 1590,989;   -2,816;    1,773
838,010; 1717,738;    0,366;    3,227
838,573; 1785,305;   -1,179;    0,773
839,135; 1707,237;   -1,361;   -0,955
839,698; 1635,440;    1,275;    0,409
840,261; 1568,735;    1,003;   -0,227
840,823; 1535,212;   -0,543;    0,864
841,386; 1521,597;   -0,452;   -2,409
841,948; 1862,256;   -1,361;    1,773
842,511; 1566,187;    0,912;    1,682
843,073; 1836,118;    1,912;    0,227
843,636; 1581,413;   -0,361;   -0,227
844,198; 1791,889;    0,911;    0,591
844,760; 1756,093;    1,093;    1,955
845,322; 1494,115;    0,548;    1,136
845,885; 1670,228;    0,730;    0,591
846,447; 1656,705;   -1,998;    0,227
847,009; 1981,545;    1,911;   -0,682
847,571; 1661,658;    0,820;   -2,045
848,133; 1626,680;   -1,089;   -1,864
848,695; 1492,793;   -0,543;    1,409
849,257; 1549,815;   -1,089;   -1,682
849,819; 1718,200;   -0,998;   -0,409
850,381; 1583,495;   -0,725;   -0,864
850,942; 1663,517;    1,093;   -0,591
851,504; 1686,721;    1,184;    0,227
852,066; 1605,925;    1,275;   -1,591
852,628; 1603,583;   -0,180;    1,955
853,189; 1413,696;    1,638;    2,682
853,751; 1503,809;   -0,907;    1,409
854,312; 1677,740;   -0,453;   -1,682
854,874; 1830,762;   -2,089;   -0,773
855,435; 1643,603;   -0,907;   -1,682
855,997; 1757,806;   -1,816;   -0,136
856,558; 1758,192;    0,366;    1,773
857,119; 1610,578;    0,820;    2,864
857,681; 1467,054;    0,002;    0,318
858,242; 1690,167;    1,911;   -2,136
858,803; 1774,553;    0,456;   -0,773
859,364; 1713,120;    0,184;   -4,773
859,925; 1743,506;   -2,453;   -0,955
860,486; 1622,255;   -0,453;   -0,955
861,047; 1494,550;   -0,544;   -1,227
861,608; 1532,845;   -1,089;   -0,773
862,169; 1475,140;    0,638;   -0,045
862,730; 1518,071;    0,456;    1,409
863,291; 1581,911;   -0,635;   -0,500
863,852; 1573,387;   -0,635;    1,955
864,412; 1503,500;   -0,271;   -0,864
864,973; 1662,068;   -0,089;    0,500
865,534; 1829,181;   -1,726;    0,227
866,094; 1664,748;    1,820;    0,227
866,655; 1743,588;    1,274;    3,318
867,215; 1620,338;    0,274;    0,136
867,776; 1499,451;    0,547;   -0,136
868,336; 1557,564;   -1,453;    0,136
868,897; 1933,858;    2,638;    1,682
869,457; 1701,608;    1,365;    0,318
870,017; 1543,084;    0,547;   -1,227
870,578; 1569,561;   -0,817;    0,773
871,138; 1515,037;   -2,089;   -0,955
871,698; 1391,514;   -0,817;   -1,318
872,258; 1528,263;   -0,453;   -2,864
872,818; 1763,194;    2,729;    0,045
873,378; 1564,489;    0,638;    1,045
873,938; 1492,966;    0,547;    0,500
874,498; 1404,351;    0,274;   -1,955
875,058; 1458,373;    2,183;    1,773
875,618; 1455,941;    1,910;   -2,682
876,177; 1507,054;    1,274;    0,136
876,737; 1282,349;   -0,090;    1,955
877,297; 1728,825;    0,183;    1,955
877,856; 1649,847;   -0,362;    0,318
878,416; 1381,142;    1,183;   -0,136
878,976; 1369,255;   -1,817;    0,409
879,535; 1439,731;    0,092;    3,136
880,095; 1420,208;   -0,544;    0,045
880,654; 1307,775;   -1,090;    1,318
881,213; 1669,979;    2,456;    1,500
881,773; 1466,910;    2,637;    2,682
882,332; 2099,205;    3,365;    5,136
882,891; 1498,863;    3,092;    2,136
883,451; 1520,795;   -1,272;    1,682
884,010; 1392,726;   -2,908;   -0,409
884,569; 1360,930;   -0,999;   -0,045
885,128; 1594,042;    2,819;   -1,864
885,687; 1899,065;    4,455;    0,682
886,246; 2065,632;    1,455;    2,136
886,805; 1750,563;    2,455;    2,045
887,364; 1412,858;   -0,999;   -0,500
887,922; 1342,516;   -1,181;    0,045
888,481; 1482,447;   -1,545;    0,591
889,040; 1655,197;    1,183;    2,136
889,599; 1534,582;    2,455;    1,409
890,157; 1527,968;    1,455;    2,409
890,716; 1430,263;   -0,090;    0,227
891,274; 1525,285;    0,092;   -1,136
891,833; 1638,943;    1,546;    0,864
892,391; 1431,783;   -0,454;    0,500
892,950; 1626,169;    1,819;   -0,773
893,508; 1446,282;    0,455;   -0,409
894,067; 1287,122;    0,637;    0,136
894,625; 1389,599;   -0,636;   -1,500
895,183; 1367,439;   -0,363;   -0,682
895,741; 1696,734;    1,728;   -1,773
896,299; 1462,756;   -0,545;   -2,409
896,858; 1365,778;    0,819;   -1,591
897,416; 1501,982;    2,728;   -1,318
897,974; 1432,004;    1,819;    0,318
898,532; 1945,571;    6,091;    2,682
899,089; 1570,048;    2,091;   -0,682
899,647; 1452,251;   -1,454;    1,318
900,205; 1501,728;    1,182;    1,045
900,763; 1513,932;   -0,454;    0,227
901,321; 1473,681;    2,364;   -1,409
901,878; 1257,612;   -1,000;   -0,773
902,436; 1313,725;   -1,363;    1,318
902,994; 2163,293;    4,728;    3,682
903,551; 1627,224;    0,728;    0,409
904,109; 1515,337;    0,182;   -1,409
904,666; 1438,813;    2,455;    1,045
905,224; 1316,381;    0,182;   -0,409
905,781; 1466,312;    0,727;   -0,318
906,338; 1381,788;   -1,363;    1,045
906,895; 1252,174;    0,637;    2,045
907,453; 1561,923;    1,727;    1,136
908,010; 1406,127;   -0,909;    0,409
908,567; 1330,331;    1,273;    0,591
909,124; 1126,535;    0,364;   -1,500
909,681; 1189,830;   -2,909;    0,682
910,238; 1281,215;    0,636;   -1,318
910,795; 1265,328;   -0,273;   -1,136
911,352; 1254,783;   -2,909;   -2,682
911,909; 1243,601;   -1,364;   -0,864
912,466; 1297,783;   -3,182;    1,500
913,022; 1301,328;   -1,636;    0,500
913,579; 1429,965;   -0,909;    2,045
914,136; 1290,237;    1,636;    0,955
914,692; 1358,510;    0,091;   -1,227
915,249; 1287,237;    1,455;    0,409
915,806; 1384,056;    0,182;    1,955
916,362; 1289,692;    1,909;    1,864
916,918; 1167,056;    2,000;    1,045
917,475; 1402,237;   -1,182;    0,955
918,031; 1192,419;    3,364;   -0,045
918,587; 1269,237;   -0,909;   -0,318
919,144; 1181,601;   -2,273;    0,227
919,700; 1147,965;    1,727;    0,773
920,256; 1104,510;    0,727;    0,045
920,812; 1134,510;   -0,727;   -1,045
921,368; 1097,510;   -1,727;   -1,045
921,924; 1055,601;    0,182;   -0,136
922,480; 1176,237;   -0,545;    1,227
923,036; 1210,965;    1,273;    1,955
923,592; 1113,510;    0,455;    0,318
924,148; 1147,328;    0,455;   -0,955
924,704; 1285,874;   -1,364;   -0,409
925,259; 1116,874;   -0,273;    0,591
925,815; 1066,601;    1,455;    0,500
926,371; 1019,965;    2,909;    1,409
926,926; 1188,419;    2,091;    0,591
927,482; 1141,056;   -1,364;    0,773
928,037; 1075,328;    0,909;    2,045
928,593; 1302,601;    1,636;    1,045
929,148; 1035,146;   -1,818;   -1,500
929,704; 1089,146;   -1,455;   -0,500
930,259;  957,601;    0,091;   -0,136
930,814; 1174,965;   -0,818;    1,955
931,369; 1091,601;    1,091;   -0,773
931,925;  869,510;   -0,091;    0,136
932,480;  973,146;   -2,818;   -2,591
933,035; 1397,056;    0,545;   -0,318
933,590; 1253,328;    0,364;   -1,773
934,145;  814,874;   -1,364;   -0,318
934,700;  726,692;    0,455;   -0,591
935,255;  809,965;   -0,091;    0,045
935,809; 1158,874;    3,182;    0,864
936,364;  740,965;   -0,455;   -0,136
936,919;  751,056;    0,455;   -1,773
937,474;  649,419;    1,455;    0,136
938,028;  682,874;   -1,636;    1,136
938,583; 1108,056;    1,818;    4,682
939,138;  735,510;    2,091;    2,136
939,692;  588,419;    1,636;   -1,136
940,247;  631,783;   -0,727;   -1,045
940,801;  700,146;   -0,636;    0,227
941,355;  587,692;   -0,364;    2,591
941,910;  462,874;   -0,273;   -2,136
942,464;  513,783;   -0,818;   -0,318
943,018;  797,237;    1,000;   -0,227
943,572;  608,510;    2,545;   -0,682
944,126;  661,056;    0,091;   -0,409
944,681;  520,692;    3,091;    0,227
945,235;  456,874;    1,000;   -0,591
945,789;  403,783;    0,364;   -1,864
946,342;  740,783;    0,455;   -0,591
946,896;  470,874;   -2,273;    0,955
947,450;  439,965;    1,545;   -0,227
948,004;  718,783;    1,727;   -0,045
948,558;  512,783;    0,273;   -0,864
949,111;  507,328;   -0,273;   -0,318
949,665;  727,692;    1,636;   -0,682
950,219;  672,056;   -0,091;   -1,045
950,772;  590,692;   -1,909;    1,864
951,326;  588,146;    0,545;   -0,955
951,879;  497,056;    0,727;   -2,318
952,433;  641,146;    0,000;    2,227
952,986;  457,328;    2,909;    0,682
953,539;  414,056;   -0,273;    0,591
954,093;  355,783;    0,545;   -1,318
954,646;  519,056;    0,909;    1,318
955,199;  425,146;    0,000;   -0,500
955,752;  652,783;   -0,455;    1,773
956,305;  487,419;   -0,091;    2,955
956,858;  546,692;    0,818;   -0,318
957,411;  611,510;   -0,545;    2,136
957,964;  501,783;    1,364;    2,136
958,517;  421,510;   -1,545;    3,136
959,070;  369,328;   -0,455;    1,955
959,623;  678,328;    1,091;    1,500
960,176;  619,056;    1,727;    2,045
960,728;  579,783;   -2,727;    0,773
961,281;  516,601;    0,545;    0,500
961,834;  422,692;   -0,909;    0,864
962,386;  435,965;    1,727;    1,045
962,939;  386,510;    0,364;   -0,318
963,491;  446,419;    0,455;    1,136
964,043;  371,692;    1,182;    2,409
964,596;  572,146;   -1,000;    2,227
965,148;  466,056;   -1,000;    1,773
965,700;  368,419;    1,091;   -0,227
966,253;  546,692;   -0,636;    0,318
966,805;  507,601;   -2,273;    0,773
967,357;  426,237;    1,091;   -1,500
967,909;  555,601;    0,455;   -1,227
968,461;  427,965;    0,545;    3,136
969,013;  375,692;   -0,182;   -0,864
969,565;  534,419;   -0,455;   -1,136
970,117;  795,237;   -0,364;    1,045
970,669;  539,692;    0,182;   -0,136
971,220;  321,874;   -0,455;   -1,500
971,772;  417,510;   -0,636;   -0,318
972,324;  523,692;    0,091;   -0,500
972,876;  429,056;    0,818;   -0,045
973,427;  560,692;    1,909;   -1,045
973,979;  622,601;   -0,727;   -2,500
974,530;  402,965;    1,818;    1,318
975,082;  476,783;   -0,545;    1,682
975,633;  422,328;    1,091;    1,682
976,184;  492,146;    0,909;    0,773
976,736;  478,874;    0,091;    0,227
977,287;  494,146;   -0,909;   -0,500
977,838;  452,056;    0,909;   -0,318
978,389;  463,601;   -1,000;   -0,500
978,940;  319,056;    0,545;   -0,409
979,491;  307,601;    0,091;   -0,500
980,042;  415,419;    0,182;    3,045
980,593;  427,328;   -2,545;    0,227
981,144;  531,419;    2,545;   -0,500
981,695;  578,601;    1,455;    1,500
982,246;  514,510;   -0,273;    1,045
982,797;  372,419;   -1,727;    0,682
983,347;  536,874;    0,364;    0,591
983,898;  748,510;    3,091;    0,409
984,449;  695,146;    2,182;    0,773
984,999;  514,146;    1,455;   -1,136
985,550;  474,510;    0,182;   -0,318
986,100;  312,328;   -0,455;   -0,318
986,651;  314,237;   -0,818;    0,045
987,201;  350,510;   -1,000;   -0,591
987,751;  372,146;    0,818;    2,864
988,302;  421,783;    2,636;    1,500
988,852;  465,692;    0,455;   -1,136
989,402;  546,510;    0,091;    0,682
989,952;  566,056;   -2,182;    0,864
990,502;  394,783;   -0,091;    0,682
991,052;  288,056;   -0,727;    0,045
991,602;  338,510;   -2,909;    1,318
992,152;  403,237;    0,455;    0,682
992,702;  442,328;    1,364;   -0,045
993,252;  381,056;   -3,000;   -0,500
993,802;  478,419;   -0,273;    1,318
994,352;  427,510;   -1,545;    1,136
994,901;  327,419;   -0,182;    3,227
995,451;  318,874;   -0,182;    0,318
996,000;  360,601;    1,636;    0,318
996,550;  369,874;    2,273;    0,227
997,100;  412,237;    1,273;   -0,045
997,649;  563,692;    2,182;    0,955
998,198;  367,783;    1,727;   -1,500
998,748;  492,419;    1,091;   -2,318
999,297;  423,328;   -0,818;   -0,409
999,846;  568,965;    1,000;   -0,773
1000,395;  468,419;   -0,818;    0,500
1000,945;  590,510;    1,818;   -0,773
1001,494;  586,783;    2,364;    0,682
1002,043;  563,692;    4,636;    0,864
1002,592;  370,692;   -1,091;    1,955
1003,141;  365,692;   -0,455;   -0,682
1003,690;  536,419;    1,727;    0,500
1004,238;  404,601;    1,455;   -0,045
1004,787;  321,783;    1,364;    1,227
1005,336;  511,510;    0,364;    0,682
1005,885;  454,692;    1,364;   -2,773
1006,433;  449,146;    0,545;    0,955
1006,982;  668,146;    0,455;    1,682
1007,531;  489,237;   -1,818;   -0,227
1008,079;  430,783;   -2,273;    0,500
1008,627;  365,146;   -1,455;    0,409
1009,176;  386,692;    0,000;   -1,955
1009,724;  336,328;    1,091;    0,864
1010,273;  504,874;    1,273;    0,500
1010,821;  373,510;    0,091;    1,409
1011,369;  333,692;   -1,364;    1,318
1011,917;  360,237;   -1,364;   -0,591
1012,465;  445,328;    1,273;   -1,591
1013,013;  430,965;    2,091;   -1,682
1013,561;  547,510;    0,455;   -0,773
1014,109;  643,874;   -1,909;    1,682
1014,657;  506,692;    0,364;    0,591
1015,205;  391,692;    1,636;   -0,955
1015,753;  337,965;   -0,545;   -1,409
1016,301;  427,328;   -2,636;    3,045
1016,848;  498,510;   -1,273;    0,409
1017,396;  502,601;    2,545;    0,045
1017,944;  497,874;    1,182;    1,864
1018,491;  399,419;    0,273;    1,409
1019,039;  730,783;    0,455;    0,591
1019,586;  466,146;   -1,364;    1,682
1020,134;  454,056;    0,455;    1,500
1020,681;  536,056;    0,182;   -1,136
1021,228;  431,783;    2,909;   -2,227
1021,776;  415,874;    1,182;   -1,136
1022,323;  658,965;    0,455;    0,773
1022,870;  564,874;   -1,000;   -0,045
1023,417;  615,783;    2,636;    1,864
1023,964;  425,146;    2,636;    1,227
1024,511;  404,874;    1,000;    0,773
1025,058;  434,965;    3,182;   -0,045
1025,605;  391,328;   -2,273;    3,136
1026,152;  623,510;    1,727;   -0,591
1026,699;  469,874;    1,818;    1,318
1027,245;  442,692;   -0,091;    0,318
1027,792;  371,692;   -1,000;    1,409
1028,339;  612,510;    2,364;   -0,045
1028,885;  466,965;    1,000;   -0,227
1029,432;  414,419;   -0,091;    0,227
1029,978;  532,510;   -1,000;   -1,591
1030,525;  514,874;    1,000;    0,409
1031,071;  375,692;   -1,364;    1,136
1031,618;  695,056;    0,364;    1,682
1032,164;  499,692;   -0,091;    3,045
1032,710;  554,874;    1,636;   -1,500
1033,256;  511,783;   -0,636;   -0,136
1033,803;  357,783;   -0,545;    1,500
1034,349;  219,056;   -1,364;    0,136
1034,895;  266,146;    0,000;   -0,318
1035,441;  346,692;   -0,818;    0,318
1035,987;  403,783;   -2,364;   -0,682
1036,533;  482,146;   -1,455;   -0,955
1037,078;  682,146;    1,455;    1,682
1037,624;  533,965;    2,455;   -0,955
1038,170;  393,419;    0,455;   -0,318
1038,716;  476,237;    1,636;   -0,409
1039,261;  344,874;   -2,273;   -0,773
1039,807;  365,874;   -0,091;    3,409
1040,352;  400,328;   -1,909;   -0,318
1040,898;  397,783;   -1,545;   -0,682
1041,443;  307,692;   -1,455;   -2,591
1041,989;  624,692;    1,091;    1,591
1042,534;  411,510;   -0,364;    2,591
1043,079;  295,783;    2,909;    0,955
1043,625;  419,056;    1,818;    0,500
1044,170;  437,601;   -1,364;    1,045
1044,715;  639,328;    2,455;    0,955
1045,260;  528,965;    2,182;   -0,955
1045,805;  367,237;    1,182;   -0,591
1046,350;  331,419;    1,364;   -0,409
1046,895;  526,056;    2,909;    1,591
1047,440;  512,056;    5,364;    0,409
1047,985;  377,328;    2,818;   -0,955
1048,530;  347,601;    1,545;    1,227
1049,074;  414,601;    0,000;    0,318
1049,619;  338,692;   -1,364;    1,955
1050,164;  331,146;    0,455;    0,227
1050,708;  416,783;   -0,455;    0,045
1051,253;  681,419;    1,273;   -2,227
1051,797;  467,146;    0,818;   -1,318
1052,342;  290,601;   -1,182;    1,045
1052,886;  396,237;    0,364;   -1,409
1053,430;  273,874;   -1,364;    0,136
1053,975;  367,146;   -0,818;   -0,318
1054,519;  380,237;   -0,727;    3,227
1055,063;  451,874;    0,909;    1,318
1055,607;  439,237;   -0,182;    0,227
1056,151;  430,601;    2,909;    1,682
1056,695;  331,601;    2,273;   -1,136
1057,239;  329,146;   -1,727;   -0,682
1057,783;  392,056;    0,818;   -1,500
1058,327;  454,874;    0,000;    1,409
1058,871;  599,783;   -0,545;    1,318
1059,415;  462,601;   -0,818;   -0,045
1059,958;  636,965;    1,455;    2,591
1060,502;  390,692;   -1,000;   -0,773
1061,046;  276,783;    0,364;   -0,955
1061,589;  258,419;   -3,000;   -1,136
1062,133;  225,601;   -1,273;    1,864
1062,676;  274,874;    1,182;    0,864
1063,220;  316,692;    1,091;    0,500
1063,763;  344,874;    0,909;    1,136
1064,306;  377,965;   -0,909;    1,864
1064,849;  365,237;   -0,909;    0,591
1065,393;  343,419;    2,000;   -1,500
1065,936;  349,692;    0,182;   -0,409
1066,479;  267,874;   -1,455;    1,318
1067,022;  288,874;   -0,273;   -0,227
1067,565;  261,419;   -0,091;   -1,318
1068,108;  233,601;    0,727;   -0,591
1068,651;  206,056;   -0,636;    1,409
1069,194;  218,510;   -0,455;   -1,682
1069,736;  244,510;   -1,273;    0,955
1070,279;  212,419;   -1,364;   -0,500
1070,822;  307,874;   -2,000;   -0,318
1071,364;  437,510;   -0,364;    1,318
1071,907;  288,510;   -0,727;    3,227
1072,450;  140,419;    0,000;   -0,045
1072,992;  221,056;   -0,273;    3,136
1073,535;  299,510;    2,091;    2,136
1074,077;  213,965;   -0,727;    2,045
1074,619;  209,601;   -1,364;    0,591
1075,161;  240,510;   -1,091;    1,500
1075,704;  365,965;    1,545;    1,227
1076,246;  221,874;   -0,182;    0,682
1076,788;  156,146;   -0,364;    1,773
1077,330;  164,601;    1,273;    2,136
1077,872;  208,510;    0,909;    0,955
1078,414;  388,328;    2,727;    0,773
1078,956;  241,237;    1,273;   -0,227
1079,498;  383,419;    1,636;    0,318
1080,040;  241,783;    1,909;   -1,318
1080,581;  191,510;    1,636;   -0,318
1081,123;  127,965;    0,091;   -0,773
1081,665;  146,601;   -1,182;   -0,955
1082,206;  353,056;    1,364;   -0,500
1082,748;  257,874;    0,727;    2,045
1083,289;  166,601;   -2,000;    1,318
1083,831;  159,328;   -0,545;    0,227
1084,372;  209,419;    0,000;    0,591
1084,913;  203,601;    1,091;    0,864
1085,455;  155,419;   -1,909;   -2,045
1085,996;  156,237;   -2,273;    0,136
1086,537;  188,056;   -0,091;    0,864
1087,078;  191,056;   -0,909;   -2,136
1087,619;  244,419;   -1,273;    0,227
1088,160;  203,328;    0,000;    1,318
1088,701;  186,601;   -1,091;    0,682
1089,242;  163,874;    1,364;   -2,227
1089,783;  212,692;   -0,273;    1,409
1090,324;  196,237;    0,455;    0,682
1090,865;  139,419;    2,727;   -0,409
1091,405;  106,874;    0,727;    2,227
1091,946;  160,237;    0,182;   -0,955
1092,487;  106,601;    0,818;   -1,409
1093,027;  221,328;   -1,364;   -1,500
1093,568;  153,237;   -0,364;    1,227
1094,108;  193,237;    0,273;    1,773
1094,649;  155,328;   -1,182;    0,136
1095,189;  131,056;   -0,636;   -0,682
1095,729;  121,874;   -0,091;    0,955
1096,269;  111,874;    0,727;   -0,955
1096,810;  278,328;   -1,364;    0,500
1097,350;  211,237;    1,364;   -0,773
1097,890;  156,783;    0,364;    1,227
1098,430;  321,692;    2,364;    2,864
1098,970;  259,874;    2,182;    1,682
1099,510;  142,237;    0,545;   -2,318
1100,050;  122,965;    1,000;   -1,591
1100,589;  133,056;   -0,727;   -0,318
1101,129;  184,237;    0,818;   -0,955
1101,669;  275,056;    1,727;    2,136
1102,209;  187,601;   -0,091;    2,227
1102,748;  153,510;    0,000;    0,955
1103,288;  164,237;    1,273;   -1,227
1103,827;  157,146;    3,091;   -2,227
1104,367;  111,601;   -0,091;   -2,409
1104,906;  110,510;    1,364;   -1,136
1105,445;  160,510;    0,636;   -1,136
1105,985;  137,237;   -0,727;    1,500
1106,524;  149,510;   -1,727;   -0,682
1107,063;  139,965;   -2,727;    1,409
1107,602;  106,692;   -1,909;   -1,500
1108,141;   91,146;   -1,909;    1,500
1108,680;  154,328;   -3,455;   -0,591
1109,219;  123,237;   -0,909;   -0,500
1109,758;  115,965;    0,455;    0,682
1110,297;  113,874;    1,000;   -0,682
1110,836;   85,601;   -0,727;    0,955
1111,375;  127,510;   -2,545;    0,409
1111,913;  161,601;   -1,000;    0,773
1112,452;  135,783;   -0,273;    0,136
1112,991;   86,056;    1,091;    1,955
1113,529;   85,874;   -0,818;   -0,045
1114,068;  113,783;   -0,273;    2,955
1114,606;   76,783;   -0,364;   -0,955
1115,144;  148,328;   -1,273;    1,045
1115,683;  116,510;   -0,727;    0,318
1116,221;  147,874;   -0,455;   -0,864
1116,759;   95,510;    0,636;   -0,864
1117,297;  176,692;    0,000;    1,864
1117,836;  102,419;   -2,182;   -1,227
1118,374;  101,783;    0,182;   -0,682
1118,912;  107,146;    0,909;    2,682
1119,450;  102,601;    1,000;    0,864
1119,988;  101,783;    1,545;    2,136
1120,525;  369,056;    5,091;    3,318
1121,063;  197,601;    1,182;    1,864
1121,601;  103,237;   -0,909;   -1,227
1122,139;   85,146;   -0,727;   -2,045
1122,676;  190,328;   -0,727;    2,773
1123,214;  160,328;   -1,182;    4,409
1123,751;   74,692;    1,727;    2,227
1124,289;  117,965;   -0,091;   -0,409
1124,826;   81,965;    1,727;    0,227
1125,364;   43,237;    1,727;   -0,955
1125,901;  150,965;    1,182;    1,227
1126,438;  162,874;    0,818;    0,955
1126,975;   51,601;   -0,727;   -0,773
1127,513;   74,419;    0,273;    2,136
1128,050;   52,056;    1,636;   -0,682
1128,587;   83,965;    2,000;   -0,227
1129,124;  113,056;    0,091;    1,318
1129,661;   61,328;    0,273;    0,227
1130,198;  135,965;    1,636;    0,773
1130,734;   99,510;    0,182;    1,409
1131,271;   49,328;   -0,909;    0,864
1131,808;  119,237;    2,909;    3,045
1132,345;   71,965;    1,545;    0,318
1132,881;   25,783;   -1,545;   -1,864
1133,418;   80,056;    0,727;   -1,136
1133,954;   52,692;    2,455;   -2,682
1134,491;   88,419;    1,364;   -0,773
1135,027;   53,874;    2,364;    0,864
1135,564;   84,146;    0,273;    2,955
1136,100;   77,146;    0,364;    2,136
1136,636;   39,965;   -1,273;   -1,045
1137,172;   61,056;    0,000;   -1,045
1137,708;   47,237;   -1,364;   -1,045
1138,245;   41,056;    1,273;   -1,227
1138,781;   25,692;    1,091;   -3,318
1139,317;   48,328;    1,273;   -1,409
1139,852;   62,510;    3,091;    0,136
1140,388;   87,965;   -1,182;   -0,409
1140,924;   49,419;   -1,091;   -2,227
1141,460;   28,601;   -1,636;    0,136
1141,996;   15,056;   -1,364;    2,682
1142,531;   27,328;    1,364;    3,318
1143,067;  111,419;    1,182;    1,045
1143,602;  140,510;   -0,091;   -0,318
1144,138;   70,328;   -2,636;    1,045
1144,673;   30,056;   -1,455;    1,409
1145,209;   45,419;   -1,909;   -0,318
1145,744;   24,146;   -0,727;    0,864
1146,279;   64,692;    1,818;   -0,136
1146,815;   42,237;    1,545;   -2,682
1147,350;   61,056;   -1,364;    0,045
1147,885;   30,965;   -0,818;   -1,318
1148,420;   31,601;   -2,273;    0,773
1148,955;   25,146;   -1,727;    1,864
1149,490;   28,056;   -0,909;   -1,591
1150,025;   18,965;    0,455;   -1,773
1150,560;   64,419;    1,091;   -0,955
1151,094;   52,783;    1,455;   -0,591
1151,629;   52,874;    1,636;    0,864
1152,164;   30,510;    1,364;    1,318
1152,698;   24,328;   -0,182;   -0,136
1153,233;    7,146;    0,091;   -0,682
1153,767;   21,601;   -3,000;   -2,318
1154,302;   38,601;   -1,455;    1,773
1154,836;   36,328;   -0,455;   -2,136
1155,371;   45,056;   -1,364;    3,682
1155,905;   30,237;   -0,636;    1,682
1156,439;   32,601;   -0,636;   -0,500
1156,973;   42,419;    0,364;    0,318
1157,507;   21,783;   -0,364;    0,682
1158,042;   25,692;   -0,727;    1,045
1158,576;   37,601;    0,182;    1,773
1159,110;   39,874;   -0,818;    2,409
1159,643;   26,874;    0,636;   -0,045
1160,177;   13,510;   -1,545;    1,500

