
Integration time [ms]:   0,040
Averaging Nr. [scans]: 11
Smoothing Nr. [pixels]: 0
Data measured with spectrometer [name]: 7318044SP
Wave   ;Sample   ;Dark     ;Reference
[nm]   ;[counts] ;[counts] ;[counts] 

186,757;   30,570;   31,551;    1,318
187,357;   22,660;   22,551;    0,955
187,958;   18,024;   15,460;   -1,591
188,558;   13,388;    8,915;   -1,227
189,159;    5,751;    6,733;   -4,500
189,759;    4,660;    7,278;   -3,591
190,360;    2,660;    2,824;   -2,136
190,960;    5,295;    2,915;   -4,136
191,560;    2,930;    3,189;   -6,591
192,161;    5,563;    4,372;   -3,500
192,761;    4,015;    4,010;   -3,227
193,361;   -1,076;    1,556;   -3,773
193,962;    1,744;    2,010;   -2,682
194,562;   -0,980;    1,189;   -3,955
195,162;   -0,796;   -2,448;   -2,227
195,762;    1,478;   -3,176;   -0,045
196,362;    0,387;    1,370;   -2,500
196,963;    1,478;    2,006;   -0,864
197,563;    2,297;    1,551;   -0,955
198,163;    1,661;    0,096;   -0,682
198,763;    4,479;    1,733;   -0,500
199,363;    3,388;    3,096;   -0,500
199,963;    1,934;    0,369;    0,409
200,563;    2,298;    2,823;   -1,409
201,163;    3,389;    3,277;   -0,227
201,763;    2,844;    3,732;    0,318
202,363;    1,935;    1,459;    1,500
202,963;    1,390;    1,459;    1,045
203,563;    2,662;    0,277;    0,500
204,162;    3,935;    2,096;   -1,864
204,762;    1,936;    0,550;    0,591
205,362;    2,026;    3,004;    1,955
205,962;    3,480;    3,096;    1,955
206,562;    3,026;    1,823;    2,318
207,161;    3,845;   -0,087;    0,318
207,761;    3,935;    1,277;    2,409
208,361;    3,208;   -0,268;    1,409
208,960;    2,390;    0,459;    1,500
209,560;    0,572;    1,277;    1,591
210,160;    2,299;    0,550;    1,864
210,759;    1,208;    4,186;    1,227
211,359;    3,027;    1,459;    1,045
211,958;    3,936;    1,277;    2,045
212,558;    1,299;    1,732;    1,864
213,157;   -0,428;    1,822;    1,500
213,757;    2,845;    3,822;   -0,227
214,356;    0,391;    1,277;   -0,409
214,956;    3,935;    3,095;    0,409
215,555;    1,027;    2,095;    2,136
216,154;    2,300;   -2,723;   -0,591
216,754;    0,118;    0,277;    0,773
217,353;    0,027;   -0,268;   -1,045
217,952;   -2,154;   -0,178;    0,318
218,552;    0,937;    1,368;   -0,773
219,151;    0,028;    0,277;    0,955
219,750;   -0,063;    0,004;   -0,227
220,349;   -1,245;   -0,451;    1,045
220,948;    0,391;   -1,360;    1,136
221,548;    0,937;    0,913;    1,227
222,147;    3,573;   -0,087;   -0,409
222,746;    1,482;   -0,451;   -0,955
223,345;   -1,245;    0,731;    0,500
223,944;    0,391;   -0,451;    0,773
224,543;    0,118;    1,004;   -1,409
225,142;    2,119;    0,094;    0,136
225,741;    1,028;   -0,814;    1,045
226,340;    1,300;   -0,451;   -0,955
226,939;    3,846;   -0,996;   -0,136
227,538;    1,119;   -0,360;   -0,773
228,137;    1,118;   -0,814;    0,864
228,735;    0,573;   -0,541;    1,227
229,334;    1,027;   -0,905;   -0,227
229,933;    1,300;    0,459;    0,591
230,532;    2,482;    1,186;   -0,409
231,131;    2,663;    1,732;    0,318
231,729;    1,209;   -2,450;   -2,318
232,328;    1,573;   -0,723;   -1,500
232,927;   -0,428;    1,004;   -0,500
233,525;   -2,245;    3,640;    0,045
234,124;    1,027;    2,368;   -1,591
234,723;   -0,427;    0,913;   -1,045
235,321;    2,118;    2,277;    0,136
235,920;    0,845;    1,186;   -1,227
236,518;    2,209;    3,459;    0,318
237,117;    3,027;    0,004;   -0,227
237,715;    0,664;    0,640;   -0,500
238,314;    3,118;   -0,087;   -2,318
238,912;    3,482;   -0,723;   -1,409
239,510;    2,300;    0,459;   -1,227
240,109;    3,572;    0,004;    3,773
240,707;    3,390;   -0,996;    1,227
241,305;    0,390;    0,550;    0,136
241,904;    0,572;   -0,178;   -2,045
242,502;    1,027;   -0,632;   -0,227
243,100;    1,573;   -0,087;   -0,955
243,698;    2,390;    0,732;    1,682
244,297;    4,027;   -0,632;    0,682
244,895;   -1,882;   -0,269;   -2,318
245,493;    0,846;    2,186;   -0,591
246,091;    2,755;    1,368;   -1,318
246,689;    2,846;    1,004;    0,591
247,287;    0,664;    0,822;   -1,136
247,885;    1,300;   -1,451;    1,227
248,483;    0,755;    1,822;   -0,500
249,081;    2,028;    0,185;    1,591
249,679;    0,210;   -0,178;    1,682
250,277;    0,300;   -1,723;    0,864
250,875;    1,482;   -1,087;   -1,045
251,473;    1,937;   -1,178;    0,500
252,071;    2,391;    1,459;    1,045
252,669;    0,118;   -1,814;    0,318
253,267;   -0,245;   -0,087;    0,773
253,864;   -0,245;   -0,360;    0,682
254,462;    1,028;    1,640;    1,591
255,060;   -0,609;   -0,269;    1,318
255,658;    1,755;    0,822;   -0,136
256,255;    2,391;    0,186;   -2,045
256,853;    2,755;   -0,269;    1,409
257,451;    3,027;    0,822;    1,864
258,048;    4,027;    1,822;    1,864
258,646;    1,391;    1,731;   -1,045
259,243;   -0,881;   -0,087;    2,227
259,841;   -0,154;   -0,814;    0,318
260,438;    0,937;   -0,087;    0,864
261,036;    0,845;   -1,905;    1,409
261,633;    1,119;   -0,087;    2,227
262,231;   -0,336;    2,731;   -0,045
262,828;    2,027;   -0,905;    1,136
263,425;    3,391;    0,913;   -0,591
264,023;    2,119;    0,186;    0,045
264,620;    2,755;   -0,360;   -0,318
265,217;    5,846;   -2,087;    3,136
265,815;    2,392;   -1,905;    2,136
266,412;    1,755;    0,731;    0,136
267,009;    1,937;   -1,451;    0,773
267,606;    0,573;    0,822;   -0,955
268,203;    1,118;   -0,269;   -0,591
268,801;    1,573;    1,731;    0,591
269,398;    0,846;   -0,360;    2,500
269,995;    0,663;    0,277;    1,591
270,592;    3,573;   -0,632;   -0,500
271,189;   -0,518;    0,186;    0,409
271,786;    1,846;   -0,632;    1,227
272,383;    0,391;   -1,087;    0,227
272,980;    1,937;    0,277;    0,318
273,577;    1,754;    0,004;    1,227
274,174;   -0,882;    0,822;    2,591
274,771;   -1,609;   -0,814;   -0,773
275,367;    5,391;    2,277;    1,409
275,964;    3,209;    0,731;   -0,500
276,561;    0,846;    1,549;   -1,045
277,158;   -0,608;    0,095;   -1,773
277,755;    4,664;    2,185;    0,409
278,351;    3,209;   -0,451;   -1,500
278,948;    1,119;   -0,815;    0,045
279,545;   -0,609;   -1,360;    2,318
280,141;    1,573;   -1,723;   -2,045
280,738;    0,391;   -0,451;   -0,136
281,334;    0,937;   -1,633;    0,591
281,931;    1,028;   -0,087;   -1,318
282,528;    1,665;    0,822;   -0,500
283,124;    2,300;   -1,087;   -0,500
283,721;    3,937;   -0,451;    1,409
284,317;    1,756;    0,185;    2,500
284,913;    3,483;   -1,360;    0,591
285,510;    0,665;    0,640;   -0,318
286,106;    1,937;   -2,269;   -0,955
286,703;    3,301;   -0,360;    1,955
287,299;    1,300;   -1,451;   -0,591
287,895;    0,119;    0,822;   -1,045
288,491;    2,664;    0,186;    2,136
289,088;   -0,699;   -2,360;    2,409
289,684;   -0,700;   -1,723;    1,500
290,280;    1,300;    0,368;    0,682
290,876;    3,391;    1,822;    5,500
291,472;    0,483;    1,276;    2,227
292,068;   -0,245;    1,367;    0,227
292,665;   -0,791;    2,095;    0,773
293,261;   -1,881;    0,276;    2,136
293,857;    2,573;    2,913;    2,136
294,453;    3,209;    3,550;    0,955
295,049;    4,572;   -0,268;    1,955
295,644;    3,299;    0,095;    0,136
296,240;    0,936;   -0,905;   -0,136
296,836;    1,117;   -0,995;    0,318
297,432;    1,117;    1,096;   -0,500
298,028;    1,299;    0,732;    0,773
298,624;    0,299;    1,459;    1,864
299,220;    1,753;    2,368;    0,591
299,815;    1,390;    1,005;   -0,409
300,411;    0,390;    0,914;    1,773
301,007;   -0,429;    1,368;    0,227
301,602;    2,117;   -0,541;   -2,318
302,198;    3,935;    0,732;   -0,773
302,794;    3,299;    1,187;   -0,500
303,389;    2,208;   -1,177;    1,045
303,985;   -0,247;    0,550;    1,409
304,580;    1,844;    1,459;    1,591
305,176;    2,481;   -3,086;    0,136
305,771;    0,299;   -1,268;   -1,227
306,367;    6,845;    4,095;    0,136
306,962;    2,935;    0,641;    1,500
307,558;    4,208;   -0,450;    0,136
308,153;    0,572;    1,095;   -1,136
308,748;   -2,519;   -0,814;    1,682
309,344;    0,936;   -0,632;   -1,318
309,939;    1,845;   -1,905;   -1,318
310,534;    1,845;   -0,086;   -1,682
311,130;    1,208;    0,459;   -2,500
311,725;    0,481;    1,004;   -0,500
312,320;   -0,065;    2,459;    0,045
312,915;    2,936;    1,459;   -1,045
313,510;    3,117;    1,550;   -0,500
314,105;    2,571;    1,096;    1,409
314,700;   -0,792;   -3,086;   -1,045
315,295;    0,844;   -0,904;    0,045
315,890;    0,390;    1,277;    0,864
316,485;    1,754;   -0,359;   -0,318
317,080;   -2,883;   -3,086;    1,591
317,675;    5,117;    2,005;   -0,682
318,270;    9,117;    5,550;    3,318
318,865;    4,571;    3,278;    3,045
319,460;    0,026;   -0,904;    0,591
320,055;    0,116;   -0,541;   -1,227
320,650;    1,571;   -1,995;   -0,591
321,244;    2,207;   -0,177;   -1,409
321,839;    1,844;   -1,541;   -0,227
322,434;    0,299;   -1,086;   -1,591
323,029;    0,571;    1,732;    1,591
323,623;    0,663;    1,550;    0,773
324,218;    2,662;    2,368;    1,409
324,812;    2,844;    1,096;    1,591
325,407;    2,390;   -0,814;    2,045
326,002;    6,390;    0,277;   -0,409
326,596;    2,390;    0,914;    1,318
327,191;    0,753;    0,823;   -1,045
327,785;    0,844;   -0,813;   -0,227
328,379;    0,299;    1,368;    0,136
328,974;    1,753;    0,914;   -3,955
329,568;    2,662;    0,186;   -2,409
330,163;    2,571;    2,096;    1,045
330,757;   -0,337;    2,459;    1,591
331,351;    0,935;    0,459;    0,682
331,945;    0,571;    0,914;    1,409
332,540;    2,754;   -1,723;   -0,591
333,134;    1,208;   -1,086;    0,773
333,728;    2,299;    0,005;    0,318
334,322;    0,299;   -1,177;   -0,864
334,916;    0,299;    0,277;    0,955
335,510;    0,935;   -0,450;   -0,136
336,105;    2,299;   -1,086;    1,591
336,699;   -0,155;   -1,086;    0,591
337,293;    1,481;   -1,723;    0,318
337,887;    1,390;   -2,723;    1,955
338,481;    1,663;    0,459;    0,591
339,074;    5,299;   -0,359;    2,682
339,668;    2,754;   -1,632;    1,227
340,262;   14,390;    1,732;    3,227
340,856;    5,118;    1,822;   -0,682
341,450;    2,845;    1,004;    1,864
342,044;    2,118;    1,459;    0,136
342,637;    0,208;    0,913;   -2,136
343,231;    1,300;   -2,360;    0,682
343,825;    1,026;   -1,086;   -0,591
344,419;    0,935;   -1,995;    0,500
345,012;    7,753;    2,459;    4,045
345,606;    3,389;    4,641;    1,591
346,199;   -0,883;   -1,813;   -0,227
346,793;    4,480;    1,914;    2,045
347,386;   -2,065;   -0,813;   -1,136
347,980;    0,389;   -0,268;   -0,045
348,573;    0,116;    2,278;    0,409
349,167;    9,752;    5,278;    4,773
349,760;    3,661;    2,914;    2,682
350,354;    0,479;   -0,813;    1,136
350,947;    0,934;    1,096;    1,682
351,540;    1,843;   -0,358;   -1,409
352,134;    1,934;    1,096;    1,136
352,727;    2,934;   -0,086;    1,136
353,320;    0,934;    0,005;    0,591
353,913;   -1,975;   -1,995;    1,864
354,507;    2,025;    0,823;   -1,227
355,100;    2,480;    0,460;    0,864
355,693;   10,479;    2,005;    2,409
356,286;    5,934;    0,823;    2,773
356,879;    0,388;   -0,722;    1,227
357,472;    0,116;   -0,904;    1,500
358,065;    0,934;   -0,722;    2,500
358,658;   -0,702;   -0,540;    2,318
359,251;    0,116;   -1,631;   -0,591
359,844;    4,297;   -1,904;   -1,136
360,437;    2,480;   -2,995;    0,045
361,030;    0,661;    1,369;   -0,682
361,623;    2,479;    2,824;    0,318
362,215;    5,934;   -0,086;    2,045
362,808;    0,752;   -2,358;   -1,682
363,401;    3,297;   -2,449;    0,136
363,994;    5,570;   -0,631;   -1,500
364,586;    1,842;    0,824;   -1,500
365,179;    1,205;   -0,449;   -1,136
365,772;    1,025;   -1,995;    2,045
366,364;    1,569;    1,915;   -3,227
366,957;    2,932;    2,279;   -0,045
367,549;   -1,977;    2,188;   -0,864
368,142;   -0,523;    1,825;   -1,500
368,734;    0,749;    0,734;   -2,136
369,327;   -0,161;    1,643;   -0,500
369,919;    3,293;   -1,538;    0,409
370,512;    2,202;   -1,083;   -0,500
371,104;    6,291;   -0,901;    1,591
371,696;    2,108;    1,191;   -0,955
372,289;    4,925;    0,373;    1,136
372,881;    1,741;   -2,080;    1,318
373,473;    0,922;   -2,170;    1,136
374,066;    2,828;   -0,169;    0,500
374,658;    2,643;    0,378;    1,136
375,250;    0,730;    0,653;   -1,409
375,842;    2,999;    0,473;   -0,045
376,434;   -1,277;   -0,435;   -0,409
377,026;    0,264;    0,204;   -2,500
377,618;   -0,740;   -0,158;   -0,682
378,210;   -1,198;   -0,338;   -1,955
378,802;    0,527;    0,754;   -0,591
379,394;    4,161;    1,846;    0,682
379,986;    2,341;    1,393;   -0,955
380,578;    0,250;   -0,153;    0,773
381,170;    3,342;   -0,972;    0,045
381,762;    0,072;    0,755;    1,409
382,354;   -0,744;   -0,065;   -1,318
382,945;    1,896;   -2,976;    0,318
383,537;   -2,647;   -2,705;   -1,955
384,129;   -1,644;   -2,160;   -1,136
384,721;    1,993;   -0,252;    0,955
385,312;    2,358;   -0,161;   -0,955
385,904;    1,539;   -2,706;    1,591
386,496;    0,538;   -0,979;    1,045
387,087;    5,083;    1,022;    2,500
387,679;    3,082;   -1,160;    0,045
388,270;    0,628;    2,840;    2,045
388,862;    2,446;    1,295;   -0,318
389,453;    0,900;   -0,887;    1,045
390,045;   -0,554;   -0,705;   -2,682
390,636;    0,991;    0,204;   -0,591
391,227;    0,810;   -0,523;   -0,045
391,819;    3,083;    0,204;    0,773
392,410;    3,719;    1,022;    0,045
393,001;    5,629;   -0,979;   -1,591
393,593;    2,266;    1,930;   -0,045
394,184;    1,811;    1,385;   -0,409
394,775;    2,084;    1,839;    2,136
395,366;    2,265;    1,385;    0,773
395,957;    2,447;    0,113;    0,136
396,548;   -1,553;   -0,342;    2,682
397,139;   -0,099;   -2,433;    0,591
397,730;    0,629;   -1,888;    0,955
398,321;    1,084;   -1,252;    0,955
398,912;    1,357;   -0,615;    0,136
399,503;    1,266;   -3,524;   -1,409
400,094;    1,902;    0,294;    1,682
400,685;   -1,371;   -0,433;    0,045
401,276;    0,993;    0,930;   -0,955
401,867;   -0,371;   -0,888;    0,773
402,458;   -1,098;   -2,251;   -2,318
403,048;    0,720;    1,112;    0,591
403,639;    0,084;    0,840;    0,864
404,230;    2,448;    2,476;    0,318
404,821;   -0,007;   -0,615;    0,045
405,411;    1,812;    1,203;   -2,591
406,002;    0,902;   -1,252;   -1,136
406,592;    4,539;    2,294;    0,045
407,183;    3,994;    0,566;   -1,500
407,774;   -0,006;    3,475;   -0,136
408,364;   -0,370;    0,930;    0,409
408,954;    3,539;    0,384;    1,227
409,545;    3,267;    1,021;    1,045
410,135;    1,813;    1,293;    0,500
410,726;    2,632;    1,838;    0,318
411,316;    2,267;    0,111;    0,773
411,906;    0,359;   -0,253;   -0,409
412,497;    0,722;   -1,070;   -0,045
413,087;    5,176;   -1,980;   -0,227
413,677;    2,086;   -0,707;    3,864
414,267;   -1,369;    0,656;    1,409
414,857;   -0,278;   -2,980;    4,227
415,448;    0,176;    0,839;    0,500
416,038;   -0,824;    0,020;   -0,591
416,628;   -0,459;   -0,889;    0,409
417,218;    0,995;    0,565;    3,318
417,808;    2,086;    0,202;   -0,409
418,398;    0,905;    0,020;    2,682
418,988;    1,541;    2,020;    0,591
419,578;    3,995;   -0,707;    1,409
420,168;   -0,278;   -1,343;   -0,955
420,757;    1,904;   -1,343;   -1,500
421,347;    2,723;    0,111;   -0,227
421,937;    3,996;    2,292;    1,409
422,527;    4,814;    0,838;   -0,773
423,116;    4,814;   -0,253;   -0,045
423,706;    0,996;   -1,889;    0,318
424,296;    0,268;    1,384;    0,682
424,885;    1,723;   -0,071;   -3,045
425,475;    1,541;    1,474;   -2,864
426,065;    0,723;   -0,980;   -0,318
426,654;   -0,731;   -0,435;   -0,318
427,244;    5,360;    0,020;    1,409
427,833;    2,087;    1,383;   -0,500
428,423;    1,905;   -0,526;    1,136
429,012;   -0,640;   -0,344;   -1,136
429,601;    0,815;   -1,344;    0,136
430,191;    1,633;    1,292;    4,318
430,780;    1,360;   -0,344;   -0,409
431,369;    4,270;    0,746;   -0,045
431,959;    2,088;   -1,254;    0,500
432,548;    1,452;   -1,163;   -0,045
433,137;    1,725;   -1,254;   -1,318
433,726;    0,179;    0,292;    0,500
434,315;   -0,730;   -0,526;    2,409
434,905;    1,725;   -1,254;    1,409
435,494;    2,725;    0,746;    0,955
436,083;    1,179;   -0,981;   -0,955
436,672;    1,452;    0,110;    0,500
437,261;    2,271;    0,292;   -1,955
437,850;    3,361;    1,383;    0,682
438,439;    5,362;    3,291;    1,955
439,027;   10,544;    3,655;    1,773
439,616;    3,362;    2,927;    1,227
440,205;    1,089;    0,200;   -2,136
440,794;    2,544;    2,109;   -0,045
441,383;    2,454;   -1,346;   -0,591
441,971;   -0,455;   -2,436;    0,591
442,560;    0,272;    0,563;   -1,773
443,149;    1,186;    0,379;   -1,318
443,737;   -0,363;   -0,074;   -2,318
444,326;    2,000;    0,018;    0,318
444,915;   -0,182;   -1,982;    0,864
445,503;    2,908;   -2,891;   -0,318
446,092;   13,999;    0,382;    2,136
446,680;    4,727;    0,382;    0,318
447,269;    0,182;   -0,346;   -0,318
447,857;    3,727;    0,018;   -1,773
448,445;    1,182;    0,563;    1,318
449,034;    2,455;   -1,528;   -1,136
449,622;    4,364;   -1,073;    3,500
450,210;    5,455;    2,017;    2,227
450,799;    3,637;    0,290;   -0,591
451,387;    2,001;    1,381;   -0,591
451,975;    2,637;    2,654;    0,864
452,563;    5,819;    3,472;    2,318
453,151;    3,274;   -0,528;   -1,227
453,739;    4,729;   -1,347;    0,136
454,328;    1,365;    2,381;   -2,136
454,916;    1,274;    2,562;   -0,136
455,504;    1,456;    1,017;    1,227
456,092;    2,456;    0,017;   -1,591
456,679;    2,092;    1,472;    0,682
457,267;   12,547;    4,017;    1,045
457,855;    3,638;    1,017;    1,409
458,443;    2,002;   -0,165;    1,682
459,031;    3,457;    0,108;    2,409
459,619;    0,093;   -1,801;    2,864
460,206;   -0,271;    0,835;    2,045
460,794;   -0,452;   -2,983;   -0,227
461,382;   -0,179;   -0,529;   -0,864
461,970;    0,730;    1,198;    1,864
462,557;   -1,088;   -0,711;   -0,682
463,145;    0,548;   -3,165;   -1,682
463,732;    6,185;    2,016;   -1,045
464,320;    1,276;   -0,075;   -3,045
464,907;    1,549;    2,743;   -0,773
465,495;    0,549;    0,743;   -1,227
466,082;   -1,542;   -1,984;   -0,045
466,670;    1,185;   -2,529;    1,227
467,257;    0,367;   -1,711;    2,045
467,844;    0,095;   -0,075;    0,045
468,432;    1,822;    0,834;    3,500
469,019;    0,186;    0,925;   -1,773
469,606;    5,004;    0,470;    3,682
470,193;    4,732;   -1,439;    0,227
470,780;    4,277;   -2,075;    0,864
471,368;    0,732;   -1,257;   -0,773
471,955;    0,641;    1,379;   -0,682
472,542;    1,095;    0,652;   -1,136
473,129;    2,095;   -0,166;    0,136
473,716;    1,095;    1,470;    0,591
474,303;    1,186;    0,652;   -0,864
474,890;   -0,086;   -1,439;   -0,500
475,477;    4,096;   -1,621;    0,409
476,064;    2,278;    1,106;   -1,591
476,650;    6,005;    0,288;    0,318
477,237;    1,005;   -0,258;    0,955
477,824;    0,914;   -1,076;    0,864
478,411;    2,642;   -1,894;   -0,318
478,997;    0,096;    0,560;   -0,773
479,584;    1,824;    1,196;   -0,409
480,171;    1,824;   -0,440;   -0,773
480,757;    1,643;    2,651;    0,773
481,344;    0,551;    0,469;    0,409
481,931;    3,462;    1,105;    1,045
482,517;    1,734;   -1,258;    0,318
483,104;    4,551;    1,106;    2,864
483,690;    1,733;   -1,804;    0,045
484,276;    0,006;   -0,895;    0,227
484,863;    6,734;    2,469;    1,136
485,449;    2,916;   -0,077;    0,318
486,035;    1,370;   -1,986;   -0,136
486,622;    2,552;   -0,895;    0,045
487,208;    4,098;    1,378;    1,500
487,794;    1,734;    0,741;    0,318
488,380;    1,825;    0,105;   -1,409
488,967;    0,462;   -1,168;   -0,409
489,553;    1,189;   -1,895;   -1,409
490,139;    0,280;    1,559;    0,773
490,725;    2,826;    0,741;   -0,227
491,311;    0,371;    3,287;    3,045
491,897;    0,553;   -0,986;    1,500
492,483;   -0,356;    0,105;    1,227
493,069;   12,917;    3,923;    0,864
493,655;    4,553;    1,650;    0,682
494,241;   -0,083;    1,377;   -0,955
494,826;    1,735;    0,287;   -1,045
495,412;    1,280;    2,559;   -0,682
495,998;   -0,901;   -0,805;   -0,318
496,584;    2,826;    0,377;    1,045
497,169;    1,736;    1,014;   -0,682
497,755;    3,645;    0,650;    1,227
498,341;    4,281;    0,559;    0,318
498,926;    4,190;    1,832;    1,955
499,512;    1,010;    1,286;    2,955
500,097;    1,827;    0,195;   -0,318
500,683;    1,464;   -0,350;    2,136
501,268;    0,282;   -0,169;   -0,955
501,854;    1,009;   -0,169;    1,227
502,439;    0,192;   -0,624;   -1,773
503,024;   -0,627;    0,195;    0,500
503,610;    0,191;   -0,078;   -0,682
504,195;   -1,081;    0,558;    1,955
504,780;    2,645;    2,922;    1,227
505,366;    9,373;    3,013;    2,864
505,951;   -0,354;    0,740;    1,045
506,536;   -0,354;   -3,260;   -3,682
507,121;   -0,536;    0,285;   -0,318
507,706;   -0,081;    2,376;    1,045
508,291;    1,919;    2,649;    1,136
508,876;    0,193;   -0,988;    2,591
509,461;   -0,080;   -0,169;   -0,773
510,046;    1,374;    0,194;    0,318
510,631;    0,465;   -0,351;   -0,773
511,216;    1,374;    2,467;   -0,500
511,801;    1,828;   -0,442;    2,591
512,386;    3,283;    0,740;    0,500
512,971;    1,920;   -2,988;    0,955
513,555;    0,101;   -0,897;   -1,500
514,140;    1,374;   -0,442;   -3,136
514,725;    3,829;   -0,715;   -1,136
515,309;    1,557;   -0,533;    0,318
515,894;    3,284;   -0,624;   -2,227
516,479;    0,739;   -0,624;   -0,955
517,063;    0,375;    0,376;    1,227
517,648;   -0,352;    1,012;   -1,136
518,232;   -1,806;   -0,261;   -1,409
518,817;    0,921;   -0,079;    1,682
519,401;    2,285;    2,194;    0,591
519,985;    1,012;    1,103;    1,136
520,570;   -0,442;    0,830;   -1,955
521,154;    0,740;    2,102;    0,591
521,738;    3,195;   -2,352;    2,409
522,323;    3,103;   -0,170;    1,682
522,907;    1,013;    0,466;   -0,136
523,491;   -1,169;    0,557;    0,955
524,075;    2,285;    2,284;    0,591
524,659;    3,194;    1,466;    0,591
525,243;    2,922;    1,739;    0,409
525,827;    0,831;    0,648;   -0,045
526,411;   -0,260;   -1,989;   -0,136
526,995;    3,013;   -0,352;    1,409
527,579;    3,650;   -0,443;   -1,045
528,163;   -0,350;    0,375;   -1,500
528,747;    0,286;    2,466;   -0,773
529,331;    2,286;   -0,080;   -1,409
529,915;    1,741;    1,738;    0,955
530,499;    2,741;   -0,807;    1,227
531,082;    3,740;   -0,534;    1,591
531,666;    4,105;    1,374;    0,773
532,250;    2,468;    1,284;    2,682
532,833;    6,377;    0,920;    2,773
533,417;    2,377;   -1,807;    0,864
534,001;    2,741;    1,647;   -0,318
534,584;    5,560;    0,374;    0,500
535,168;    0,651;    0,465;    1,409
535,751;    8,468;    0,647;    0,045
536,334;    3,105;   -0,898;   -0,409
536,918;   -2,168;    0,011;    1,591
537,501;   -0,986;   -0,899;    1,318
538,085;    0,469;   -0,444;    1,045
538,668;    1,833;    0,829;    2,409
539,251;    4,378;    1,829;    3,773
539,834;    3,196;    0,101;    0,773
540,418;    2,106;   -1,990;    4,318
541,001;    5,651;   -0,990;    1,773
541,584;    2,470;    2,101;    2,227
542,167;    3,469;    1,374;    2,955
542,750;   -0,440;    1,919;   -0,773
543,333;   -0,348;    0,555;    2,136
543,916;    1,924;    0,192;    2,500
544,499;    1,197;   -1,354;    0,227
545,082;    1,106;    1,374;    3,591
545,665;    0,288;    1,919;    1,500
546,248;    4,470;    1,010;   -0,318
546,830;    3,652;   -0,445;    1,955
547,413;    1,107;    1,010;   -0,773
547,996;    1,561;    0,555;    0,500
548,579;    0,380;    0,919;    0,955
549,161;    5,471;    1,828;    2,682
549,744;    2,471;   -0,809;    0,409
550,326;    0,744;   -0,809;   -1,136
550,909;    4,562;    2,737;    0,591
551,492;    1,471;   -0,263;    0,227
552,074;    4,199;   -0,173;   -1,318
552,657;    4,381;    2,373;    0,045
553,239;    4,290;   -0,173;   -0,773
553,821;    0,653;   -1,082;    1,045
554,404;    7,835;    1,282;    1,136
554,986;    4,472;    0,464;    1,045
555,568;    1,290;    1,191;   -0,955
556,151;    7,563;    1,191;   -0,227
556,733;    3,199;   -0,264;   -0,864
557,315;    5,836;    0,100;    0,500
557,897;    1,472;    0,554;   -0,500
558,479;    1,745;   -1,991;    1,318
559,061;    0,563;   -0,719;   -0,864
559,643;    2,291;   -0,264;    0,045
560,225;    0,017;    1,645;    2,864
560,807;    1,291;    0,918;    0,318
561,389;    2,109;    0,554;    2,318
561,971;   -0,982;    0,463;    2,136
562,553;    0,109;   -1,628;    1,591
563,135;    0,563;   -0,537;    1,136
563,717;   12,200;    3,372;    1,136
564,298;   10,927;    3,645;   -0,045
564,880;    3,292;    0,645;   -1,409
565,462;    2,564;    0,645;    1,318
566,043;    1,746;   -0,446;    2,318
566,625;   12,927;    1,918;    1,227
567,207;    4,382;    1,099;    1,682
567,788;    0,746;   -1,264;    1,500
568,370;    1,110;    1,917;   -0,500
568,951;   -0,890;    0,190;    0,227
569,533;    1,565;   -0,628;   -0,500
570,114;    0,109;   -0,446;    0,682
570,695;   -1,526;   -0,174;   -1,318
571,277;    2,383;   -0,265;   -1,682
571,858;    4,292;    2,008;   -1,136
572,439;    1,746;    1,554;   -1,045
573,021;    0,474;    2,099;   -2,773
573,602;    2,929;   -1,265;    0,318
574,183;    2,838;   -2,083;    2,227
574,764;    0,383;   -1,629;    0,409
575,345;    0,111;    0,917;   -0,136
575,926;    0,292;   -0,356;    0,136
576,507;    1,020;    1,099;   -0,227
577,088;   -0,799;    3,099;    1,682
577,669;    2,838;    0,735;    1,955
578,250;    5,838;    0,644;   -1,045
578,831;    4,657;   -1,356;   -2,227
579,412;    2,838;   -0,810;    0,955
579,993;    1,020;    1,008;    0,227
580,573;    1,020;   -0,629;   -0,955
581,154;    3,202;    0,735;   -0,591
581,735;    3,202;    0,644;    0,773
582,315;    6,111;   -0,629;    2,136
582,896;    1,020;   -0,174;    1,227
583,477;    0,929;    0,189;    1,227
584,057;    1,474;    0,553;    0,955
584,638;    3,747;    2,553;    2,318
585,218;    3,474;   -0,538;    2,682
585,799;    5,747;    0,281;   -0,227
586,379;    4,292;    0,372;    1,591
586,959;    2,020;    0,735;    0,318
587,540;    0,384;   -0,629;    2,227
588,120;    0,566;    1,007;   -0,045
588,700;    1,111;    2,553;    2,136
589,281;    2,384;    0,462;   -0,955
589,861;    3,020;    0,099;   -1,682
590,441;    1,202;    2,371;   -2,682
591,021;    1,020;   -0,265;   -2,591
591,601;    1,019;   -0,537;    0,500
592,181;    0,747;   -0,719;   -0,773
592,761;    1,111;    0,007;    1,409
593,341;    1,202;   -0,901;    0,045
593,921;    1,292;   -0,265;    1,591
594,501;    1,565;   -0,538;    1,318
595,081;    2,474;    0,917;   -0,318
595,661;    2,474;   -1,447;    0,955
596,240;    0,292;   -0,537;    0,136
596,820;   10,110;    0,372;    1,955
597,400;    4,201;    2,008;    0,773
597,980;    0,747;    2,008;    1,045
598,559;    3,020;    2,735;   -0,227
599,139;    2,020;   -0,174;   -1,227
599,718;    2,020;   -0,174;   -0,409
600,298;    2,565;    0,735;    0,682
600,877;   14,292;    2,917;    1,409
601,457;    3,474;    2,281;    1,136
602,036;    0,565;    0,190;    2,045
602,616;    0,656;    0,644;    1,682
603,195;    2,474;   -0,355;    3,500
603,774;    7,110;   -0,901;    2,045
604,354;    5,201;    0,826;   -0,500
604,933;    3,928;    0,463;    1,864
605,512;    2,292;    3,554;    0,591
606,091;    5,292;   -0,537;    3,773
606,671;    3,474;    0,281;    0,773
607,250;    8,383;    1,644;    3,136
607,829;    6,564;    2,372;    3,227
608,408;    3,292;    1,190;    2,591
608,987;    4,018;    1,281;    3,409
609,566;    3,474;   -1,265;   -2,500
610,145;    3,291;   -1,082;    0,682
610,723;    9,655;    4,372;    6,864
611,302;    3,200;   -0,446;    1,682
611,881;   12,291;    5,008;   11,227
612,460;    3,837;    1,645;    3,955
613,039;    1,564;   -0,082;    2,045
613,617;   -1,254;    1,736;    4,773
614,196;    3,382;    1,099;    1,227
614,775;    4,836;    1,009;    2,409
615,353;    3,382;    0,736;    0,864
615,932;    4,654;    0,100;    2,409
616,510;    3,473;    0,554;    0,591
617,089;   24,473;    7,100;   17,591
617,667;    9,018;    2,372;    6,136
618,246;    0,745;   -1,537;    1,318
618,824;    0,836;   -3,355;   -0,955
619,402;    3,563;   -2,900;   -1,773
619,981;    3,472;   -0,173;   -1,045
620,559;    0,290;    0,009;    1,682
621,137;    3,199;   -0,718;    1,864
621,715;    0,836;   -1,173;   -0,682
622,293;    2,745;   -0,537;   -0,773
622,871;    2,745;   -0,718;    0,500
623,450;    0,108;    0,373;   -0,864
624,028;    3,017;    0,191;   -0,955
624,606;    4,381;   -1,718;    1,682
625,183;    4,199;   -1,536;   -1,136
625,761;    7,199;    1,009;    1,136
626,339;    8,654;    1,373;    2,591
626,917;    3,380;   -0,172;   -0,045
627,495;    0,926;   -0,354;    1,318
628,073;    1,562;   -0,263;    2,864
628,650;    4,381;    0,100;    2,136
629,228;    3,290;    0,373;    4,409
629,806;    1,199;    2,282;    1,136
630,383;    1,835;    1,464;   -0,318
630,961;    1,744;    2,555;   -0,955
631,539;    2,926;    2,464;    0,227
632,116;   41,835;   11,373;   15,409
632,694;   14,380;    2,555;    6,500
633,271;    7,925;    0,828;    2,682
633,848;   11,016;    1,828;    2,045
634,426;    4,471;   -1,081;    1,773
635,003;    1,197;    1,101;   -0,409
635,580;    9,470;    1,192;    3,682
636,158;    6,016;    3,737;    1,227
636,735;    3,107;    0,555;   -0,500
637,312;    5,380;   -0,809;   -0,682
637,889;    1,198;   -4,354;   -0,682
638,466;    0,106;   -3,990;   -0,409
639,043;    1,015;    2,101;   -1,136
639,620;   -0,803;   -2,262;   -0,955
640,197;    5,289;    1,100;    1,682
640,774;   -0,347;   -0,172;    1,136
641,351;    1,653;    0,737;    1,136
641,928;    9,016;   -0,627;    1,409
642,505;    8,380;    0,828;   -0,500
643,082;    2,926;   -1,718;    1,227
643,658;    1,198;   -0,718;    1,500
644,235;    1,653;    1,191;    2,500
644,812;    2,926;    1,918;    0,773
645,388;    2,562;   -0,991;    1,409
645,965;    1,835;   -0,809;    1,682
646,542;    0,290;   -1,445;   -0,227
647,118;    6,653;    1,009;   -0,955
647,695;    4,471;   -0,263;    1,136
648,271;    0,744;   -0,536;    0,500
648,848;    1,562;    0,736;    2,227
649,424;    8,290;    0,827;    1,318
650,000;    3,472;   -0,354;   -1,045
650,577;    0,835;   -0,627;   -0,955
651,153;    1,381;   -1,809;    0,955
651,729;   -1,437;    1,191;    0,864
652,305;   13,835;    0,645;    2,773
652,881;    7,017;   -0,082;    1,136
653,458;    4,108;    1,100;    0,227
654,034;    3,017;    0,282;    1,591
654,610;    2,836;    0,554;    0,773
655,186;   15,290;    0,645;    3,045
655,762;    4,108;   -0,991;    0,409
656,338;    4,199;    0,100;    0,136
656,913;    4,199;   -0,082;    0,409
657,489;    3,290;    0,827;   -0,318
658,065;    2,654;   -0,173;   -1,591
658,641;    0,381;   -0,900;   -0,864
659,217;    2,745;   -0,991;    0,409
659,792;    4,018;    0,645;   -0,409
660,368;    3,018;   -2,173;   -0,682
660,944;    1,745;   -2,082;    1,227
661,519;    3,200;   -0,628;    0,409
662,095;   -0,437;   -1,719;    0,591
662,670;    1,654;    1,281;   -0,136
663,246;    2,654;    1,009;   -0,409
663,821;    3,018;    0,281;    1,682
664,396;    2,836;    0,009;    1,864
664,972;    2,109;    0,009;   -0,500
665,547;    2,745;    1,372;    0,136
666,122;    2,018;   -1,082;    0,318
666,698;    5,109;   -0,173;    0,318
667,273;    2,564;   -0,173;    0,136
667,848;    0,291;    2,372;    1,500
668,423;    4,655;    2,190;    2,318
668,998;    2,837;    2,827;   -0,682
669,573;    0,655;   -3,264;   -1,500
670,148;    2,109;   -1,446;   -0,682
670,723;    0,473;   -1,810;    0,318
671,298;    7,928;    2,372;    1,045
671,873;    3,019;   -0,082;   -0,136
672,448;    3,655;    0,645;    0,136
673,023;    3,473;   -1,992;   -0,227
673,597;    5,928;    0,827;    2,318
674,172;    3,564;   -0,355;    0,318
674,747;    2,746;    0,372;   -1,045
675,321;    0,564;   -0,628;    3,318
675,896;    1,473;    0,645;    1,045
676,471;    4,655;    2,645;    1,591
677,045;    3,201;   -1,264;    0,682
677,620;    0,837;    0,190;    1,136
678,194;    0,928;   -2,628;    1,136
678,769;    2,292;   -1,083;   -0,318
679,343;    3,201;   -0,628;    1,773
679,917;    2,201;   -1,446;    1,955
680,492;    2,201;    0,826;    3,227
681,066;    1,292;    3,372;    0,409
681,640;    2,565;    1,463;   -0,318
682,214;   -0,253;    0,735;    0,500
682,788;    0,474;   -1,356;   -0,773
683,363;    4,201;   -1,810;    1,682
683,937;    1,747;   -1,719;   -0,318
684,511;    2,929;    0,463;   -0,591
685,085;    3,019;   -1,356;    0,318
685,659;    4,019;   -2,538;    0,864
686,232;    3,929;   -0,356;   -0,318
686,806;    1,383;   -0,901;    0,409
687,380;    2,020;   -0,174;    0,591
687,954;    3,565;   -1,174;    1,136
688,528;    6,474;   -0,719;    1,955
689,101;    1,020;   -3,992;    1,045
689,675;   -0,798;   -0,356;   -0,136
690,249;    2,202;   -0,719;    0,409
690,822;    4,474;    0,280;    0,318
691,396;    3,838;   -0,265;    1,227
691,969;    3,111;    1,280;    0,136
692,543;    1,656;   -0,447;   -1,955
693,116;    2,929;   -0,265;   -1,409
693,690;    1,293;    0,099;    0,500
694,263;    0,838;   -1,083;    2,955
694,836;    7,293;    1,371;    3,591
695,410;    7,020;   -0,265;    1,773
695,983;    5,929;    0,189;    0,591
696,556;    2,384;   -0,447;   -1,045
697,129;    0,838;   -0,356;    1,409
697,703;    4,020;   -1,629;    1,955
698,276;    1,566;    1,462;   -0,773
698,849;    6,111;    1,280;    1,409
699,422;    1,748;   -1,083;    0,591
699,995;    1,566;    0,007;    0,136
700,568;    1,657;   -0,629;    3,045
701,140;    5,021;   -2,811;    1,682
701,713;    1,475;   -0,174;    2,409
702,286;    3,930;   -0,538;    0,864
702,859;    3,657;   -0,902;   -0,591
703,432;    7,475;    0,825;    0,682
704,004;    4,566;    0,462;    0,318
704,577;    3,566;   -0,629;    0,136
705,150;    2,112;    0,189;    2,500
705,722;    1,566;   -0,356;   -3,227
706,295;    4,112;   -0,175;   -0,591
706,867;    2,385;   -0,175;    1,955
707,440;    2,203;   -1,720;   -0,409
708,012;    3,748;    0,462;    0,591
708,584;    8,203;    2,462;    0,227
709,157;    4,112;    1,825;   -0,591
709,729;    2,930;    2,280;    2,045
710,301;    2,748;    0,734;    0,045
710,874;    1,749;   -1,447;   -0,227
711,446;    1,112;    0,371;    0,864
712,018;    0,476;    0,098;    0,500
712,590;    1,476;   -1,993;    1,682
713,162;    3,203;    0,825;    1,318
713,734;    0,931;    1,825;   -2,045
714,306;   -1,069;   -1,902;   -0,409
714,878;    1,294;    0,825;    0,864
715,450;    0,203;    0,643;    0,864
716,022;   -0,433;    1,552;    1,318
716,593;    1,294;    0,189;    0,591
717,165;    3,022;   -3,175;   -1,227
717,737;    6,385;    0,280;    0,409
718,309;    2,840;    0,280;   -0,045
718,880;    2,476;   -0,539;   -1,409
719,452;    3,749;   -0,175;   -1,591
720,024;    4,749;    0,734;   -0,591
720,595;    0,658;   -2,902;    0,955
721,167;    1,931;    0,370;   -2,045
721,738;    5,567;   -0,812;   -1,045
722,309;    7,749;   -0,993;   -1,227
722,881;    4,113;   -1,357;    0,773
723,452;    3,386;   -2,630;    2,864
724,023;    3,568;   -0,721;    2,682
724,595;    2,477;    0,007;    0,682
725,166;    2,295;    0,007;   -0,409
725,737;    6,113;    1,734;    0,227
726,308;    1,931;   -0,266;    0,318
726,879;    3,931;   -1,630;    1,227
727,450;    1,568;    0,552;   -0,045
728,021;   -1,432;    3,097;    0,682
728,592;    6,386;    0,734;    0,500
729,163;    5,659;    0,643;   -0,136
729,734;    4,568;    0,188;   -0,227
730,305;    4,659;    1,734;    0,136
730,876;    3,295;    0,188;    2,955
731,447;   11,023;    2,188;    2,682
732,017;    8,932;    1,097;    1,864
732,588;    2,114;    0,734;    1,227
733,159;   13,932;    0,643;   -1,045
733,729;    4,205;    0,006;    0,409
734,300;    6,750;    0,915;    0,864
734,870;    4,205;    3,461;    0,591
735,441;    1,841;    0,370;   -0,591
736,011;    2,023;    0,643;   -1,591
736,582;    1,478;   -0,812;    0,045
737,152;    4,932;   -1,721;   -2,045
737,722;    5,114;   -0,267;   -0,682
738,293;    3,841;   -1,358;    1,318
738,863;    4,387;    2,461;    2,318
739,433;   12,660;    5,279;    0,318
740,003;    7,023;   -0,994;   -0,682
740,573;    7,478;    2,097;   -1,591
741,143;    5,387;   -1,085;    0,318
741,713;    4,023;    1,188;   -0,500
742,283;    2,933;    0,915;    1,591
742,853;    2,387;    1,915;    1,591
743,423;    1,024;    1,733;    0,045
743,993;    1,660;   -0,358;    1,500
744,563;    2,842;    0,097;   -0,864
745,133;    3,751;   -0,812;   -0,864
745,702;    1,115;   -0,267;    1,773
746,272;    3,206;   -0,176;    0,591
746,842;    5,660;   -1,358;   -0,591
747,411;    2,751;   -0,267;   -0,318
747,981;    2,115;    0,097;    0,500
748,551;    3,660;    2,278;   -1,045
749,120;    4,388;    0,642;   -0,227
749,690;    0,297;   -0,631;    2,409
750,259;    3,479;    1,369;    2,955
750,828;    3,751;    1,551;   -1,955
751,398;    2,479;    1,278;   -0,045
751,967;   10,751;    2,187;    0,409
752,536;    6,388;   -0,813;   -0,227
753,105;    4,115;    0,096;    0,227
753,675;    2,661;    0,096;    1,773
754,244;    2,206;   -0,904;    3,591
754,813;    3,570;    0,551;    1,227
755,382;    1,297;    0,460;    0,955
755,951;    1,479;    1,551;    3,682
756,520;    8,843;   -0,085;    1,864
757,089;    7,297;    0,278;    0,500
757,658;    5,297;    1,733;    1,227
758,227;    1,661;    1,096;    0,318
758,795;   -0,157;    1,187;    1,136
759,364;    4,025;   -0,086;   -0,591
759,933;    2,025;   -1,176;   -0,045
760,501;    2,570;    0,733;   -1,318
761,070;    2,207;   -2,813;   -1,409
761,639;    2,752;   -1,904;    1,318
762,207;    1,116;    1,551;   -0,955
762,776;    2,479;    0,369;    0,864
763,344;    1,570;   -0,995;    0,591
763,913;    1,934;   -0,722;    1,409
764,481;   11,389;    1,005;   -0,136
765,049;    9,389;   -1,358;    1,409
765,618;    8,843;   -0,086;    0,318
766,186;    3,661;    0,278;    0,136
766,754;    3,752;    0,005;    1,864
767,322;    2,389;   -1,995;    0,409
767,890;    1,571;   -0,722;   -1,773
768,459;    0,843;   -2,177;   -0,318
769,027;    5,116;    1,641;    3,409
769,595;    3,389;    3,278;    2,591
770,163;   15,025;    3,823;    2,955
770,730;    4,935;    0,732;   -0,136
771,298;    1,662;    0,187;   -1,409
771,866;    1,026;   -1,541;    4,955
772,434;    2,207;   -0,631;   -1,864
773,002;    9,480;    0,005;    0,682
773,569;    6,571;    0,914;    1,682
774,137;    4,935;   -0,268;   -0,045
774,705;    0,389;    0,278;   -0,136
775,272;    0,389;    0,641;    0,682
775,840;    3,935;   -0,177;    2,682
776,407;    4,299;    0,277;    1,955
776,975;    1,299;   -0,632;    0,318
777,542;    1,662;   -1,086;   -0,045
778,110;    2,753;   -1,268;   -0,045
778,677;    1,662;   -2,359;   -0,864
779,244;    0,390;    2,186;    1,045
779,812;    2,390;    1,823;    0,864
780,379;    3,026;    0,005;    1,136
780,946;    4,481;    1,005;   -0,773
781,513;    3,481;   -1,450;    0,318
782,080;    2,208;   -0,086;    2,864
782,647;    2,844;   -0,268;    3,045
783,214;    1,754;   -0,177;    3,864
783,781;    2,117;   -0,723;   -0,682
784,348;    2,663;   -0,632;    1,500
784,915;   -0,155;   -3,177;    0,318
785,482;   11,936;    1,368;    2,591
786,049;    5,845;    0,186;   -0,591
786,615;    0,572;    0,277;   -0,955
787,182;   -0,155;    0,186;   -0,682
787,749;   -0,064;   -2,814;    1,409
788,315;    3,299;   -1,632;   -0,409
788,882;    2,390;    1,550;   -1,227
789,448;   11,754;    1,732;   -0,955
790,015;    5,754;    1,095;    3,227
790,581;    1,390;    1,459;    0,227
791,148;    0,845;    0,641;    1,045
791,714;    0,209;   -0,541;    3,136
792,280;    1,209;    0,186;    1,591
792,847;    1,209;    0,550;    2,500
793,413;    2,572;   -0,269;   -0,318
793,979;    4,209;    3,459;   -1,318
794,545;   19,118;    4,459;    2,682
795,111;   10,573;    2,186;    1,318
795,678;    6,573;    0,731;   -1,682
796,244;    9,845;    3,368;    0,136
796,810;    4,391;    1,731;    0,773
797,375;    1,664;    0,549;   -2,136
797,941;    0,209;   -0,541;    0,591
798,507;    3,300;   -0,451;   -0,955
799,073;    3,482;   -0,360;    0,591
799,639;    0,300;   -2,632;    3,136
800,205;    0,028;    0,095;    2,682
800,770;    0,573;    0,640;    1,773
801,336;    0,846;    1,368;   -0,955
801,901;   20,846;    4,549;    3,136
802,467;    8,028;   -0,542;    2,045
803,033;    2,119;   -0,087;    0,864
803,598;    2,119;    1,913;   -1,045
804,163;    2,210;    1,095;   -0,318
804,729;    2,755;   -0,178;    1,136
805,294;    2,664;    0,822;    2,227
805,859;    1,392;    0,731;   -0,409
806,425;   15,482;    1,186;    2,682
806,990;    8,846;    2,186;    4,318
807,555;    0,755;   -1,451;    2,591
808,120;    3,574;    0,822;   -0,409
808,685;    2,028;    0,185;   -2,500
809,250;    1,301;    0,004;   -0,500
809,815;    1,392;    1,913;    0,682
810,380;    1,301;   -0,269;    1,591
810,945;    4,574;   -1,087;    2,045
811,510;    3,574;    2,094;    1,591
812,075;    2,937;   -0,633;   -1,409
812,640;    8,392;    2,003;    1,409
813,204;    1,665;    0,822;   -0,227
813,769;    2,483;    2,094;   -0,045
814,334;    3,665;    0,458;    0,864
814,898;    0,847;    0,367;    0,591
815,463;    4,392;    1,276;   -0,773
816,027;    3,210;   -0,724;   -2,318
816,592;    0,029;    0,640;   -2,045
817,156;    3,211;    2,094;    1,136
817,721;    6,301;    4,276;    2,318
818,285;    3,120;    2,912;    1,500
818,849;    1,938;   -1,451;    1,682
819,414;    3,665;   -0,269;    2,955
819,978;    0,302;   -1,269;    1,773
820,542;    4,847;    2,003;    0,500
821,106;    4,393;   -0,815;    0,682
821,670;    6,574;   -0,815;    2,591
822,234;    1,665;   -0,270;    1,409
822,798;    0,393;    0,003;    0,500
823,362;    3,665;   -0,633;    4,227
823,926;    1,938;    0,094;    1,136
824,490;    3,393;   -0,997;   -0,682
825,054;    0,666;   -0,088;   -1,136
825,618;    1,029;   -1,542;   -1,500
826,181;    0,938;    0,458;   -1,318
826,745;    3,666;    1,367;   -1,045
827,309;   12,939;    1,185;    1,318
827,872;    7,757;    1,367;    0,955
828,436;    4,484;    1,185;   -0,773
828,999;    0,120;   -0,997;    1,227
829,563;   -0,061;   -0,179;    1,136
830,126;    0,575;   -0,179;   -0,591
830,690;    4,302;   -1,997;    2,864
831,253;    2,939;   -0,543;    2,227
831,816;   -0,516;   -1,906;    0,500
832,380;   -0,788;    0,185;    0,864
832,943;    1,303;   -1,361;   -0,500
833,506;   -1,697;    2,639;   -1,227
834,069;    1,939;    3,912;   -0,955
834,632;    1,757;    1,730;    1,318
835,195;    2,939;    1,003;    0,955
835,758;    2,303;   -0,997;    1,955
836,321;    3,303;    0,730;   -1,045
836,884;    2,848;   -0,725;   -0,955
837,447;    2,848;   -2,816;    1,773
838,010;    5,485;    0,366;    3,227
838,573;    3,667;   -1,179;    0,773
839,135;    1,939;   -1,361;   -0,955
839,698;    1,939;    1,275;    0,409
840,261;   -0,333;    1,003;   -0,227
840,823;    1,303;   -0,543;    0,864
841,386;    2,212;   -0,452;   -2,409
841,948;    6,212;   -1,361;    1,773
842,511;    2,940;    0,912;    1,682
843,073;    3,576;    1,912;    0,227
843,636;    1,485;   -0,361;   -0,227
844,198;    0,576;    0,911;    0,591
844,760;    0,031;    1,093;    1,955
845,322;   -0,333;    0,548;    1,136
845,885;    1,940;    0,730;    0,591
846,447;    0,576;   -1,998;    0,227
847,009;    8,940;    1,911;   -0,682
847,571;    2,576;    0,820;   -2,045
848,133;    1,849;   -1,089;   -1,864
848,695;    1,758;   -0,543;    1,409
849,257;    2,031;   -1,089;   -1,682
849,819;    5,213;   -0,998;   -0,409
850,381;    2,122;   -0,725;   -0,864
850,942;    2,031;    1,093;   -0,591
851,504;    3,304;    1,184;    0,227
852,066;   -0,332;    1,275;   -1,591
852,628;    2,031;   -0,180;    1,955
853,189;    2,395;    1,638;    2,682
853,751;    2,395;   -0,907;    1,409
854,312;    3,668;   -0,453;   -1,682
854,874;    1,940;   -2,089;   -0,773
855,435;    1,304;   -0,907;   -1,682
855,997;    2,577;   -1,816;   -0,136
856,558;    6,668;    0,366;    1,773
857,119;    2,213;    0,820;    2,864
857,681;    3,577;    0,002;    0,318
858,242;    5,213;    1,911;   -2,136
858,803;    2,304;    0,456;   -0,773
859,364;    1,486;    0,184;   -4,773
859,925;    4,214;   -2,453;   -0,955
860,486;    1,395;   -0,453;   -0,955
861,047;    0,214;   -0,544;   -1,227
861,608;   -0,605;   -1,089;   -0,773
862,169;   -0,604;    0,638;   -0,045
862,730;    0,305;    0,456;    1,409
863,291;    2,487;   -0,635;   -0,500
863,852;    2,123;   -0,635;    1,955
864,412;    1,759;   -0,271;   -0,864
864,973;    6,396;   -0,089;    0,500
865,534;    5,487;   -1,726;    0,227
866,094;    4,487;    1,820;    0,227
866,655;    8,032;    1,274;    3,318
867,215;    2,850;    0,274;    0,136
867,776;    0,305;    0,547;   -0,136
868,336;    1,578;   -1,453;    0,136
868,897;   10,578;    2,638;    1,682
869,457;    4,941;    1,365;    0,318
870,017;    1,578;    0,547;   -1,227
870,578;    0,305;   -0,817;    0,773
871,138;    1,396;   -2,089;   -0,955
871,698;    0,033;   -0,817;   -1,318
872,258;    3,396;   -0,453;   -2,864
872,818;    2,124;    2,729;    0,045
873,378;    1,760;    0,638;    1,045
873,938;    0,669;    0,547;    0,500
874,498;    1,305;    0,274;   -1,955
875,058;    3,306;    2,183;    1,773
875,618;   -0,331;    1,910;   -2,682
876,177;   -0,058;    1,274;    0,136
876,737;    1,124;   -0,090;    1,955
877,297;    8,578;    0,183;    1,955
877,856;    3,215;   -0,362;    0,318
878,416;    1,851;    1,183;   -0,136
878,976;    2,306;   -1,817;    0,409
879,535;    1,397;    0,092;    3,136
880,095;    1,397;   -0,544;    0,045
880,654;    0,851;   -1,090;    1,318
881,213;    9,942;    2,456;    1,500
881,773;    3,851;    2,637;    2,682
882,332;   15,670;    3,365;    5,136
882,891;    2,488;    3,092;    2,136
883,451;    3,397;   -1,272;    1,682
884,010;    2,124;   -2,908;   -0,409
884,569;   -1,148;   -0,999;   -0,045
885,128;    1,215;    2,819;   -1,864
885,687;    9,943;    4,455;    0,682
886,246;   12,488;    1,455;    2,136
886,805;    8,761;    2,455;    2,045
887,364;    2,125;   -0,999;   -0,500
887,922;    0,125;   -1,181;    0,045
888,481;    3,670;   -1,545;    0,591
889,040;    3,852;    1,183;    2,136
889,599;    1,034;    2,455;    1,409
890,157;    1,307;    1,455;    2,409
890,716;    1,488;   -0,090;    0,227
891,274;    1,216;    0,092;   -1,136
891,833;    4,307;    1,546;    0,864
892,391;    1,943;   -0,454;    0,500
892,950;   -0,420;    1,819;   -0,773
893,508;   -0,420;    0,455;   -0,409
894,067;    2,125;    0,637;    0,136
894,625;    0,671;   -0,636;   -1,500
895,183;    0,852;   -0,363;   -0,682
895,741;    6,580;    1,728;   -1,773
896,299;    5,125;   -0,545;   -2,409
896,858;   -0,329;    0,819;   -1,591
897,416;    3,671;    2,728;   -1,318
897,974;    2,853;    1,819;    0,318
898,532;   19,671;    6,091;    2,682
899,089;    7,853;    2,091;   -0,682
899,647;    3,398;   -1,454;    1,318
900,205;    2,035;    1,182;    1,045
900,763;    2,580;   -0,454;    0,227
901,321;    1,944;    2,364;   -1,409
901,878;    2,217;   -1,000;   -0,773
902,436;    1,217;   -1,363;    1,318
902,994;   23,580;    4,728;    3,682
903,551;    9,217;    0,728;    0,409
904,109;    2,217;    0,182;   -1,409
904,666;    1,308;    2,455;    1,045
905,224;    2,308;    0,182;   -0,409
905,781;    1,217;    0,727;   -0,318
906,338;    0,035;   -1,363;    1,045
906,895;    2,762;    0,637;    2,045
907,453;    4,762;    1,727;    1,136
908,010;    2,672;   -0,909;    0,409
908,567;    3,762;    1,273;    0,591
909,124;   -0,237;    0,364;   -1,500
909,681;    1,126;   -2,909;    0,682
910,238;    1,672;    0,636;   -1,318
910,795;   -0,874;   -0,273;   -1,136
911,352;   -0,328;   -2,909;   -2,682
911,909;    1,035;   -1,364;   -0,864
912,466;    2,490;   -3,182;    1,500
913,022;    2,035;   -1,636;    0,500
913,579;    3,944;   -0,909;    2,045
914,136;    2,581;    1,636;    0,955
914,692;    1,581;    0,091;   -1,227
915,249;    1,581;    1,455;    0,409
915,806;    3,763;    0,182;    1,955
916,362;    1,399;    1,909;    1,864
916,918;    0,672;    2,000;    1,045
917,475;    3,035;   -1,182;    0,955
918,031;    0,035;    3,364;   -0,045
918,587;   -0,874;   -0,909;   -0,318
919,144;    1,308;   -2,273;    0,227
919,700;    0,399;    1,727;    0,773
920,256;    2,581;    0,727;    0,045
920,812;    1,944;   -0,727;   -1,045
921,368;    1,399;   -1,727;   -1,045
921,924;   -0,692;    0,182;   -0,136
922,480;    2,399;   -0,545;    1,227
923,036;    1,763;    1,273;    1,955
923,592;    3,399;    0,455;    0,318
924,148;   -0,328;    0,455;   -0,955
924,704;    1,126;   -1,364;   -0,409
925,259;    0,217;   -0,273;    0,591
925,815;    1,399;    1,455;    0,500
926,371;   -2,146;    2,909;    1,409
926,926;    0,035;    2,091;    0,591
927,482;    0,763;   -1,364;    0,773
928,037;    2,672;    0,909;    2,045
928,593;    2,490;    1,636;    1,045
929,148;    2,217;   -1,818;   -1,500
929,704;    2,672;   -1,455;   -0,500
930,259;    1,763;    0,091;   -0,136
930,814;    2,035;   -0,818;    1,955
931,369;    2,581;    1,091;   -0,773
931,925;    0,035;   -0,091;    0,136
932,480;    2,763;   -2,818;   -2,591
933,035;    6,672;    0,545;   -0,318
933,590;    4,944;    0,364;   -1,773
934,145;   -0,783;   -1,364;   -0,318
934,700;    0,126;    0,455;   -0,591
935,255;    1,854;   -0,091;    0,045
935,809;   11,126;    3,182;    0,864
936,364;    3,217;   -0,455;   -0,136
936,919;    4,672;    0,455;   -1,773
937,474;    2,581;    1,455;    0,136
938,028;    0,854;   -1,636;    1,136
938,583;    7,581;    1,818;    4,682
939,138;    4,581;    2,091;    2,136
939,692;   -0,237;    1,636;   -1,136
940,247;   -0,237;   -0,727;   -1,045
940,801;   -0,237;   -0,636;    0,227
941,355;    2,944;   -0,364;    2,591
941,910;    0,490;   -0,273;   -2,136
942,464;    0,126;   -0,818;   -0,318
943,018;    3,854;    1,000;   -0,227
943,572;   -0,601;    2,545;   -0,682
944,126;    0,581;    0,091;   -0,409
944,681;    1,035;    3,091;    0,227
945,235;    0,581;    1,000;   -0,591
945,789;    1,581;    0,364;   -1,864
946,342;    3,763;    0,455;   -0,591
946,896;    2,490;   -2,273;    0,955
947,450;    0,490;    1,545;   -0,227
948,004;    3,217;    1,727;   -0,045
948,558;   -1,419;    0,273;   -0,864
949,111;    1,581;   -0,273;   -0,318
949,665;    1,308;    1,636;   -0,682
950,219;    1,581;   -0,091;   -1,045
950,772;    3,035;   -1,909;    1,864
951,326;    0,399;    0,545;   -0,955
951,879;    1,581;    0,727;   -2,318
952,433;    2,490;    0,000;    2,227
952,986;    2,126;    2,909;    0,682
953,539;    1,399;   -0,273;    0,591
954,093;    2,126;    0,545;   -1,318
954,646;    2,035;    0,909;    1,318
955,199;    0,672;    0,000;   -0,500
955,752;    5,490;   -0,455;    1,773
956,305;    3,126;   -0,091;    2,955
956,858;    2,672;    0,818;   -0,318
957,411;    0,399;   -0,545;    2,136
957,964;    4,035;    1,364;    2,136
958,517;    1,944;   -1,545;    3,136
959,070;    2,035;   -0,455;    1,955
959,623;    5,490;    1,091;    1,500
960,176;    2,035;    1,727;    2,045
960,728;    0,944;   -2,727;    0,773
961,281;    1,581;    0,545;    0,500
961,834;    2,581;   -0,909;    0,864
962,386;    0,035;    1,727;    1,045
962,939;   -0,783;    0,364;   -0,318
963,491;    0,854;    0,455;    1,136
964,043;    1,581;    1,182;    2,409
964,596;    1,308;   -1,000;    2,227
965,148;    0,763;   -1,000;    1,773
965,700;    1,763;    1,091;   -0,227
966,253;    4,490;   -0,636;    0,318
966,805;    1,581;   -2,273;    0,773
967,357;    1,217;    1,091;   -1,500
967,909;    3,126;    0,455;   -1,227
968,461;    1,672;    0,545;    3,136
969,013;    0,217;   -0,182;   -0,864
969,565;    4,126;   -0,455;   -1,136
970,117;    4,308;   -0,364;    1,045
970,669;    2,672;    0,182;   -0,136
971,220;    2,126;   -0,455;   -1,500
971,772;    0,854;   -0,636;   -0,318
972,324;    2,035;    0,091;   -0,500
972,876;    1,308;    0,818;   -0,045
973,427;   -1,965;    1,909;   -1,045
973,979;    0,217;   -0,727;   -2,500
974,530;   -0,601;    1,818;    1,318
975,082;    3,126;   -0,545;    1,682
975,633;    2,490;    1,091;    1,682
976,184;    3,763;    0,909;    0,773
976,736;    1,490;    0,091;    0,227
977,287;    1,126;   -0,909;   -0,500
977,838;    0,126;    0,909;   -0,318
978,389;   -1,965;   -1,000;   -0,500
978,940;    2,581;    0,545;   -0,409
979,491;   -1,146;    0,091;   -0,500
980,042;    1,581;    0,182;    3,045
980,593;    2,035;   -2,545;    0,227
981,144;    1,672;    2,545;   -0,500
981,695;    2,490;    1,455;    1,500
982,246;    0,399;   -0,273;    1,045
982,797;    0,399;   -1,727;    0,682
983,347;    0,399;    0,364;    0,591
983,898;    4,126;    3,091;    0,409
984,449;    3,399;    2,182;    0,773
984,999;    2,854;    1,455;   -1,136
985,550;    0,399;    0,182;   -0,318
986,100;    2,672;   -0,455;   -0,318
986,651;   -0,237;   -0,818;    0,045
987,201;    1,672;   -1,000;   -0,591
987,751;    0,944;    0,818;    2,864
988,302;    1,944;    2,636;    1,500
988,852;    3,672;    0,455;   -1,136
989,402;    3,217;    0,091;    0,682
989,952;    4,035;   -2,182;    0,864
990,502;   -0,965;   -0,091;    0,682
991,052;    1,399;   -0,727;    0,045
991,602;   -0,692;   -2,909;    1,318
992,152;    0,490;    0,455;    0,682
992,702;   -1,601;    1,364;   -0,045
993,252;   -0,419;   -3,000;   -0,500
993,802;   -0,328;   -0,273;    1,318
994,352;   -1,783;   -1,545;    1,136
994,901;   -0,692;   -0,182;    3,227
995,451;    0,126;   -0,182;    0,318
996,000;   -0,965;    1,636;    0,318
996,550;    0,944;    2,273;    0,227
997,100;    0,763;    1,273;   -0,045
997,649;    0,672;    2,182;    0,955
998,198;    2,035;    1,727;   -1,500
998,748;    1,944;    1,091;   -2,318
999,297;   -0,056;   -0,818;   -0,409
999,846;    0,490;    1,000;   -0,773
1000,395;   -0,510;   -0,818;    0,500
1000,945;    0,126;    1,818;   -0,773
1001,494;    2,035;    2,364;    0,682
1002,043;    3,035;    4,636;    0,864
1002,592;    3,035;   -1,091;    1,955
1003,141;    0,581;   -0,455;   -0,682
1003,690;    2,217;    1,727;    0,500
1004,238;    0,035;    1,455;   -0,045
1004,787;   -0,601;    1,364;    1,227
1005,336;    2,035;    0,364;    0,682
1005,885;    2,126;    1,364;   -2,773
1006,433;    4,217;    0,545;    0,955
1006,982;    2,308;    0,455;    1,682
1007,531;   -1,419;   -1,818;   -0,227
1008,079;    1,035;   -2,273;    0,500
1008,627;   -0,056;   -1,455;    0,409
1009,176;    2,217;    0,000;   -1,955
1009,724;   -2,056;    1,091;    0,864
1010,273;    0,944;    1,273;    0,500
1010,821;    2,763;    0,091;    1,409
1011,369;    1,763;   -1,364;    1,318
1011,917;    1,672;   -1,364;   -0,591
1012,465;    2,035;    1,273;   -1,591
1013,013;    2,308;    2,091;   -1,682
1013,561;    4,490;    0,455;   -0,773
1014,109;    2,854;   -1,909;    1,682
1014,657;    1,399;    0,364;    0,591
1015,205;    0,854;    1,636;   -0,955
1015,753;    1,490;   -0,545;   -1,409
1016,301;   -1,965;   -2,636;    3,045
1016,848;    3,217;   -1,273;    0,409
1017,396;   -2,510;    2,545;    0,045
1017,944;    0,944;    1,182;    1,864
1018,491;    1,490;    0,273;    1,409
1019,039;    3,763;    0,455;    0,591
1019,586;    0,944;   -1,364;    1,682
1020,134;    1,126;    0,455;    1,500
1020,681;    3,672;    0,182;   -1,136
1021,228;   -1,056;    2,909;   -2,227
1021,776;    2,217;    1,182;   -1,136
1022,323;    2,854;    0,455;    0,773
1022,870;    4,308;   -1,000;   -0,045
1023,417;    3,490;    2,636;    1,864
1023,964;    1,217;    2,636;    1,227
1024,511;    3,035;    1,000;    0,773
1025,058;    2,763;    3,182;   -0,045
1025,605;    2,217;   -2,273;    3,136
1026,152;    0,217;    1,727;   -0,591
1026,699;   -0,146;    1,818;    1,318
1027,245;    0,217;   -0,091;    0,318
1027,792;    1,126;   -1,000;    1,409
1028,339;    3,763;    2,364;   -0,045
1028,885;    2,763;    1,000;   -0,227
1029,432;    1,399;   -0,091;    0,227
1029,978;   -0,237;   -1,000;   -1,591
1030,525;    1,854;    1,000;    0,409
1031,071;    0,672;   -1,364;    1,136
1031,618;    2,217;    0,364;    1,682
1032,164;    0,581;   -0,091;    3,045
1032,710;    1,126;    1,636;   -1,500
1033,256;   -0,419;   -0,636;   -0,136
1033,803;   -0,146;   -0,545;    1,500
1034,349;    1,854;   -1,364;    0,136
1034,895;    0,581;    0,000;   -0,318
1035,441;    0,763;   -0,818;    0,318
1035,987;    1,672;   -2,364;   -0,682
1036,533;   -0,328;   -1,455;   -0,955
1037,078;    8,126;    1,455;    1,682
1037,624;    3,854;    2,455;   -0,955
1038,170;    0,035;    0,455;   -0,318
1038,716;    2,308;    1,636;   -0,409
1039,261;    1,126;   -2,273;   -0,773
1039,807;   -1,965;   -0,091;    3,409
1040,352;    0,035;   -1,909;   -0,318
1040,898;   -0,056;   -1,545;   -0,682
1041,443;    2,035;   -1,455;   -2,591
1041,989;    4,944;    1,091;    1,591
1042,534;    0,399;   -0,364;    2,591
1043,079;    1,126;    2,909;    0,955
1043,625;    0,944;    1,818;    0,500
1044,170;    0,126;   -1,364;    1,045
1044,715;    4,126;    2,455;    0,955
1045,260;    2,126;    2,182;   -0,955
1045,805;    3,308;    1,182;   -0,591
1046,350;   -0,237;    1,364;   -0,409
1046,895;    2,854;    2,909;    1,591
1047,440;    1,217;    5,364;    0,409
1047,985;    1,399;    2,818;   -0,955
1048,530;   -1,419;    1,545;    1,227
1049,074;   -0,146;    0,000;    0,318
1049,619;    0,217;   -1,364;    1,955
1050,164;   -0,601;    0,455;    0,227
1050,708;   -0,874;   -0,455;    0,045
1051,253;    2,308;    1,273;   -2,227
1051,797;   -1,601;    0,818;   -1,318
1052,342;   -1,146;   -1,182;    1,045
1052,886;    2,126;    0,364;   -1,409
1053,430;    3,672;   -1,364;    0,136
1053,975;    0,854;   -0,818;   -0,318
1054,519;    1,763;   -0,727;    3,227
1055,063;    2,308;    0,909;    1,318
1055,607;    0,763;   -0,182;    0,227
1056,151;    0,126;    2,909;    1,682
1056,695;    0,217;    2,273;   -1,136
1057,239;    3,490;   -1,727;   -0,682
1057,783;    1,399;    0,818;   -1,500
1058,327;    3,217;    0,000;    1,409
1058,871;    1,035;   -0,545;    1,318
1059,415;    1,581;   -0,818;   -0,045
1059,958;    0,399;    1,455;    2,591
1060,502;   -1,510;   -1,000;   -0,773
1061,046;    0,763;    0,364;   -0,955
1061,589;   -1,328;   -3,000;   -1,136
1062,133;    1,217;   -1,273;    1,864
1062,676;    2,035;    1,182;    0,864
1063,220;    1,399;    1,091;    0,500
1063,763;   -0,601;    0,909;    1,136
1064,306;    0,217;   -0,909;    1,864
1064,849;    1,672;   -0,909;    0,591
1065,393;    2,944;    2,000;   -1,500
1065,936;    1,217;    0,182;   -0,409
1066,479;   -0,146;   -1,455;    1,318
1067,022;   -1,601;   -0,273;   -0,227
1067,565;   -1,237;   -0,091;   -1,318
1068,108;    0,490;    0,727;   -0,591
1068,651;   -1,965;   -0,636;    1,409
1069,194;   -1,419;   -0,455;   -1,682
1069,736;    0,763;   -1,273;    0,955
1070,279;    0,763;   -1,364;   -0,500
1070,822;   -0,237;   -2,000;   -0,318
1071,364;    1,217;   -0,364;    1,318
1071,907;    0,672;   -0,727;    3,227
1072,450;   -2,328;    0,000;   -0,045
1072,992;    2,399;   -0,273;    3,136
1073,535;    1,490;    2,091;    2,136
1074,077;   -0,419;   -0,727;    2,045
1074,619;    1,399;   -1,364;    0,591
1075,161;   -0,692;   -1,091;    1,500
1075,704;    0,944;    1,545;    1,227
1076,246;   -1,056;   -0,182;    0,682
1076,788;   -0,601;   -0,364;    1,773
1077,330;   -0,510;    1,273;    2,136
1077,872;    0,399;    0,909;    0,955
1078,414;    2,854;    2,727;    0,773
1078,956;    1,399;    1,273;   -0,227
1079,498;    1,035;    1,636;    0,318
1080,040;   -0,692;    1,909;   -1,318
1080,581;   -0,783;    1,636;   -0,318
1081,123;   -0,601;    0,091;   -0,773
1081,665;   -0,328;   -1,182;   -0,955
1082,206;    3,581;    1,364;   -0,500
1082,748;    1,854;    0,727;    2,045
1083,289;    1,763;   -2,000;    1,318
1083,831;   -0,601;   -0,545;    0,227
1084,372;   -0,419;    0,000;    0,591
1084,913;   -0,328;    1,091;    0,864
1085,455;   -0,692;   -1,909;   -2,045
1085,996;    0,217;   -2,273;    0,136
1086,537;    1,581;   -0,091;    0,864
1087,078;   -0,328;   -0,909;   -2,136
1087,619;   -0,328;   -1,273;    0,227
1088,160;   -0,601;    0,000;    1,318
1088,701;    1,126;   -1,091;    0,682
1089,242;   -0,692;    1,364;   -2,227
1089,783;    3,035;   -0,273;    1,409
1090,324;    1,126;    0,455;    0,682
1090,865;   -2,601;    2,727;   -0,409
1091,405;    0,308;    0,727;    2,227
1091,946;   -0,056;    0,182;   -0,955
1092,487;    0,672;    0,818;   -1,409
1093,027;    1,490;   -1,364;   -1,500
1093,568;    3,217;   -0,364;    1,227
1094,108;    2,126;    0,273;    1,773
1094,649;    1,217;   -1,182;    0,136
1095,189;    1,399;   -0,636;   -0,682
1095,729;    3,399;   -0,091;    0,955
1096,269;    3,490;    0,727;   -0,955
1096,810;    4,308;   -1,364;    0,500
1097,350;    1,672;    1,364;   -0,773
1097,890;    0,399;    0,364;    1,227
1098,430;    2,854;    2,364;    2,864
1098,970;    3,581;    2,182;    1,682
1099,510;    0,490;    0,545;   -2,318
1100,050;   -0,510;    1,000;   -1,591
1100,589;   -1,056;   -0,727;   -0,318
1101,129;    1,490;    0,818;   -0,955
1101,669;    1,399;    1,727;    2,136
1102,209;    3,399;   -0,091;    2,227
1102,748;    2,217;    0,000;    0,955
1103,288;   -1,510;    1,273;   -1,227
1103,827;    1,399;    3,091;   -2,227
1104,367;   -0,510;   -0,091;   -2,409
1104,906;   -2,056;    1,364;   -1,136
1105,445;   -1,601;    0,636;   -1,136
1105,985;   -0,237;   -0,727;    1,500
1106,524;    0,126;   -1,727;   -0,682
1107,063;    2,490;   -2,727;    1,409
1107,602;    1,217;   -1,909;   -1,500
1108,141;    0,672;   -1,909;    1,500
1108,680;   -0,965;   -3,455;   -0,591
1109,219;    4,217;   -0,909;   -0,500
1109,758;    2,035;    0,455;    0,682
1110,297;    0,308;    1,000;   -0,682
1110,836;    1,944;   -0,727;    0,955
1111,375;    2,672;   -2,545;    0,409
1111,913;    2,854;   -1,000;    0,773
1112,452;    1,581;   -0,273;    0,136
1112,991;    2,399;    1,091;    1,955
1113,529;   -1,328;   -0,818;   -0,045
1114,068;   -0,692;   -0,273;    2,955
1114,606;    1,126;   -0,364;   -0,955
1115,144;    1,672;   -1,273;    1,045
1115,683;   -0,328;   -0,727;    0,318
1116,221;   -1,419;   -0,455;   -0,864
1116,759;   -2,056;    0,636;   -0,864
1117,297;    0,763;    0,000;    1,864
1117,836;   -1,056;   -2,182;   -1,227
1118,374;    2,126;    0,182;   -0,682
1118,912;   -0,146;    0,909;    2,682
1119,450;    1,490;    1,000;    0,864
1119,988;    0,490;    1,545;    2,136
1120,525;    3,490;    5,091;    3,318
1121,063;    1,763;    1,182;    1,864
1121,601;    1,126;   -0,909;   -1,227
1122,139;    1,126;   -0,727;   -2,045
1122,676;    4,308;   -0,727;    2,773
1123,214;    1,399;   -1,182;    4,409
1123,751;    0,854;    1,727;    2,227
1124,289;    1,217;   -0,091;   -0,409
1124,826;    1,308;    1,727;    0,227
1125,364;   -1,601;    1,727;   -0,955
1125,901;    3,490;    1,182;    1,227
1126,438;   -0,237;    0,818;    0,955
1126,975;    1,399;   -0,727;   -0,773
1127,513;    1,035;    0,273;    2,136
1128,050;    2,854;    1,636;   -0,682
1128,587;    2,490;    2,000;   -0,227
1129,124;    2,490;    0,091;    1,318
1129,661;    0,944;    0,273;    0,227
1130,198;    0,126;    1,636;    0,773
1130,734;    2,490;    0,182;    1,409
1131,271;    1,126;   -0,909;    0,864
1131,808;    0,126;    2,909;    3,045
1132,345;   -1,328;    1,545;    0,318
1132,881;    1,581;   -1,545;   -1,864
1133,418;   -0,783;    0,727;   -1,136
1133,954;    0,308;    2,455;   -2,682
1134,491;    1,217;    1,364;   -0,773
1135,027;   -0,056;    2,364;    0,864
1135,564;    0,126;    0,273;    2,955
1136,100;    2,581;    0,364;    2,136
1136,636;    0,217;   -1,273;   -1,045
1137,172;    1,035;    0,000;   -1,045
1137,708;    0,490;   -1,364;   -1,045
1138,245;    0,490;    1,273;   -1,227
1138,781;   -1,965;    1,091;   -3,318
1139,317;    1,035;    1,273;   -1,409
1139,852;    2,126;    3,091;    0,136
1140,388;    0,035;   -1,182;   -0,409
1140,924;    0,308;   -1,091;   -2,227
1141,460;   -3,056;   -1,636;    0,136
1141,996;    0,399;   -1,364;    2,682
1142,531;    0,308;    1,364;    3,318
1143,067;    1,944;    1,182;    1,045
1143,602;    4,854;   -0,091;   -0,318
1144,138;    0,763;   -2,636;    1,045
1144,673;   -1,056;   -1,455;    1,409
1145,209;    1,854;   -1,909;   -0,318
1145,744;    2,308;   -0,727;    0,864
1146,279;    0,581;    1,818;   -0,136
1146,815;   -0,874;    1,545;   -2,682
1147,350;    0,854;   -1,364;    0,045
1147,885;   -2,874;   -0,818;   -1,318
1148,420;    0,035;   -2,273;    0,773
1148,955;   -0,146;   -1,727;    1,864
1149,490;   -0,419;   -0,909;   -1,591
1150,025;   -0,692;    0,455;   -1,773
1150,560;   -0,601;    1,091;   -0,955
1151,094;    2,308;    1,455;   -0,591
1151,629;   -0,056;    1,636;    0,864
1152,164;    1,399;    1,364;    1,318
1152,698;    1,126;   -0,182;   -0,136
1153,233;    0,035;    0,091;   -0,682
1153,767;    0,581;   -3,000;   -2,318
1154,302;   -0,874;   -1,455;    1,773
1154,836;    0,126;   -0,455;   -2,136
1155,371;    0,217;   -1,364;    3,682
1155,905;    2,399;   -0,636;    1,682
1156,439;    0,308;   -0,636;   -0,500
1156,973;    2,035;    0,364;    0,318
1157,507;   -0,692;   -0,364;    0,682
1158,042;   -1,146;   -0,727;    1,045
1158,576;    0,035;    0,182;    1,773
1159,110;    3,126;   -0,818;    2,409
1159,643;    0,672;    0,636;   -0,045
1160,177;    0,035;   -1,545;    1,500

