
Integration time [ms]:   0,040
Averaging Nr. [scans]: 11
Smoothing Nr. [pixels]: 0
Data measured with spectrometer [name]: 7318044SP
Wave   ;Sample   ;Dark     ;Reference
[nm]   ;[counts] ;[counts] ;[counts] 

186,757;   36,793;   31,551;    1,318
187,357;   34,922;   22,551;    0,955
187,958;   26,408;   15,460;   -1,591
188,558;   33,412;    8,915;   -1,227
189,159;   21,221;    6,733;   -4,500
189,759;    8,482;    7,278;   -3,591
190,360;    8,281;    2,824;   -2,136
190,960;   22,157;    2,915;   -4,136
191,560;   27,114;    3,189;   -6,591
192,161;  130,318;    4,372;   -3,500
192,761;   73,443;    4,010;   -3,227
193,361;   43,733;    1,556;   -3,773
193,962;   63,434;    2,010;   -2,682
194,562;   22,694;    1,189;   -3,955
195,162;   18,268;   -2,448;   -2,227
195,762;   69,519;   -3,176;   -0,045
196,362;   45,261;    1,370;   -2,500
196,963;   14,959;    2,006;   -0,864
197,563;   34,330;    1,551;   -0,955
198,163;   10,096;    0,096;   -0,682
198,763;   15,312;    1,733;   -0,500
199,363;   37,245;    3,096;   -0,500
199,963;   26,255;    0,369;    0,409
200,563;   21,372;    2,823;   -1,409
201,163;   14,425;    3,277;   -0,227
201,763;   22,108;    3,732;    0,318
202,363;    8,003;    1,459;    1,500
202,963;   22,786;    1,459;    1,045
203,563;   47,874;    0,277;    0,500
204,162;   19,182;    2,096;   -1,864
204,762;   14,652;    0,550;    0,591
205,362;    8,136;    3,004;    1,955
205,962;   17,144;    3,096;    1,955
206,562;   12,241;    1,823;    2,318
207,161;    7,928;   -0,087;    0,318
207,761;   45,244;    1,277;    2,409
208,361;   14,563;   -0,268;    1,409
208,960;   21,203;    0,459;    1,500
209,560;   13,315;    1,277;    1,591
210,160;   25,737;    0,550;    1,864
210,759;   14,743;    4,186;    1,227
211,359;    8,084;    1,459;    1,045
211,958;   59,763;    1,277;    2,045
212,558;   60,529;    1,732;    1,864
213,157;   23,007;    1,822;    1,500
213,757;   94,046;    3,822;   -0,227
214,356;   41,180;    1,277;   -0,409
214,956;   85,740;    3,095;    0,409
215,555;   30,090;    2,095;    2,136
216,154;   12,184;   -2,723;   -0,591
216,754;   13,439;    0,277;    0,773
217,353;   21,705;   -0,268;   -1,045
217,952;    5,363;   -0,178;    0,318
218,552;   34,463;    1,368;   -0,773
219,151;   12,662;    0,277;    0,955
219,750;    9,018;    0,004;   -0,227
220,349;    2,777;   -0,451;    1,045
220,948;   39,264;   -1,360;    1,136
221,548;   15,955;    0,913;    1,227
222,147;   13,823;   -0,087;   -0,409
222,746;   55,146;   -0,451;   -0,955
223,345;   24,554;    0,731;    0,500
223,944;   21,747;   -0,451;    0,773
224,543;   28,360;    1,004;   -1,409
225,142;   16,818;    0,094;    0,136
225,741;   22,442;   -0,814;    1,045
226,340;   20,580;   -0,451;   -0,955
226,939;   46,624;   -0,996;   -0,136
227,538;   15,691;   -0,360;   -0,773
228,137;   53,459;   -0,814;    0,864
228,735;   35,450;   -0,541;    1,227
229,334;    8,433;   -0,905;   -0,227
229,933;   50,184;    0,459;    0,591
230,532;   45,260;    1,186;   -0,409
231,131;   70,010;    1,732;    0,318
231,729;   37,412;   -2,450;   -2,318
232,328;   18,746;   -0,723;   -1,500
232,927;   24,136;    1,004;   -0,500
233,525;   17,509;    3,640;    0,045
234,124;   27,166;    2,368;   -1,591
234,723;   14,600;    0,913;   -1,045
235,321;   10,465;    2,277;    0,136
235,920;   10,603;    1,186;   -1,227
236,518;   49,377;    3,459;    0,318
237,117;   16,870;    0,004;   -0,227
237,715;   24,075;    0,640;   -0,500
238,314;   28,377;   -0,087;   -2,318
238,912;   51,289;   -0,723;   -1,409
239,510;   34,254;    0,459;   -1,227
240,109;   58,705;    0,004;    3,773
240,707;   50,564;   -0,996;    1,227
241,305;   16,811;    0,550;    0,136
241,904;   31,356;   -0,178;   -2,045
242,502;   77,110;   -0,632;   -0,227
243,100;   46,694;   -0,087;   -0,955
243,698;   24,081;    0,732;    1,682
244,297;   34,442;   -0,632;    0,682
244,895;   34,720;   -0,269;   -2,318
245,493;   86,624;    2,186;   -0,591
246,091;  103,495;    1,368;   -1,318
246,689;   65,304;    1,004;    0,591
247,287;   68,565;    0,822;   -1,136
247,885;   52,651;   -1,451;    1,227
248,483;   43,281;    1,822;   -0,500
249,081;   84,815;    0,185;    1,591
249,679;   97,237;   -0,178;    1,682
250,277;   50,043;   -1,723;    0,864
250,875;  111,703;   -1,087;   -1,045
251,473;   68,246;   -1,178;    0,500
252,071;  129,190;    1,459;    1,045
252,669;   84,565;   -1,814;    0,318
253,267;   64,320;   -0,087;    0,773
253,864;   92,838;   -0,360;    0,682
254,462;  171,170;    1,640;    1,591
255,060;   73,580;   -0,269;    1,318
255,658;   76,020;    0,822;   -0,136
256,255;  106,920;    0,186;   -2,045
256,853;  141,105;   -0,269;    1,409
257,451;  114,424;    0,822;    1,864
258,048;  372,289;    1,822;    1,864
258,646;  210,797;    1,731;   -1,045
259,243;  274,105;   -0,087;    2,227
259,841;  199,935;   -0,814;    0,318
260,438;  109,111;   -0,087;    0,864
261,036;  186,635;   -1,905;    1,409
261,633;  118,219;   -0,087;    2,227
262,231;   91,815;    2,731;   -0,045
262,828;   94,664;   -0,905;    1,136
263,425;  134,817;    0,913;   -0,591
264,023;  138,398;    0,186;    0,045
264,620;  246,598;   -0,360;   -0,318
265,217;  342,938;   -2,087;    3,136
265,815;  162,798;   -1,905;    2,136
266,412;  245,046;    0,731;    0,136
267,009;  258,234;   -1,451;    0,773
267,606;  325,888;    0,822;   -0,955
268,203;  194,764;   -0,269;   -0,591
268,801;  217,378;    1,731;    0,591
269,398;  155,225;   -0,360;    2,500
269,995;  266,755;    0,277;    1,591
270,592;  225,618;   -0,632;   -0,500
271,189;  152,410;    0,186;    0,409
271,786;  138,011;   -0,632;    1,227
272,383;  319,198;   -1,087;    0,227
272,980;  214,885;    0,277;    0,318
273,577;  176,239;    0,004;    1,227
274,174;  156,550;    0,822;    2,591
274,771;  267,111;   -0,814;   -0,773
275,367;  567,321;    2,277;    1,409
275,964;  392,615;    0,731;   -0,500
276,561;  229,137;    1,549;   -1,045
277,158;  152,692;    0,095;   -1,773
277,755;  350,906;    2,185;    0,409
278,351;  271,606;   -0,451;   -1,500
278,948;  323,803;   -0,815;    0,045
279,545;  278,064;   -1,360;    2,318
280,141;  407,844;   -1,723;   -2,045
280,738;  394,002;   -0,451;   -0,136
281,334;  228,134;   -1,633;    0,591
281,931;  237,423;   -0,087;   -1,318
282,528;  332,745;    0,822;   -0,500
283,124;  391,170;   -1,087;   -0,500
283,721;  384,569;   -0,451;    1,409
284,317;  270,255;    0,185;    2,500
284,913;  416,675;   -1,360;    0,591
285,510;  610,766;    0,640;   -0,318
286,106;  459,557;   -2,269;   -0,955
286,703;  311,774;   -0,360;    1,955
287,299;  269,753;   -1,451;   -0,591
287,895;  257,691;    0,822;   -1,045
288,491;  232,771;    0,186;    2,136
289,088;  348,575;   -2,360;    2,409
289,684;  402,202;   -1,723;    1,500
290,280;  534,545;    0,368;    0,682
290,876;  500,495;    1,822;    5,500
291,472;  423,331;    1,276;    2,227
292,068;  442,484;    1,367;    0,227
292,665;  339,208;    2,095;    0,773
293,261;  259,973;    0,276;    2,136
293,857;  447,345;    2,913;    2,136
294,453;  370,266;    3,550;    0,955
295,049;  593,423;   -0,268;    1,955
295,644;  438,849;    0,095;    0,136
296,240;  319,605;   -0,905;   -0,136
296,836;  452,502;   -0,995;    0,318
297,432;  586,437;    1,096;   -0,500
298,028;  635,443;    0,732;    0,773
298,624;  495,983;    1,459;    1,864
299,220;  481,446;    2,368;    0,591
299,815;  476,558;    1,005;   -0,409
300,411;  593,605;    0,914;    1,773
301,007;  719,598;    1,368;    0,227
301,602;  546,789;   -0,541;   -2,318
302,198;  685,783;    0,732;   -0,773
302,794;  521,598;    1,187;   -0,500
303,389;  476,170;   -1,177;    1,045
303,985;  537,103;    0,550;    1,409
304,580;  669,953;    1,459;    1,591
305,176;  576,784;   -3,086;    0,136
305,771;  457,593;   -1,268;   -1,227
306,367;  863,834;    4,095;    0,136
306,962;  610,698;    0,641;    1,500
307,558;  652,511;   -0,450;    0,136
308,153;  734,883;    1,095;   -1,136
308,748;  513,373;   -0,814;    1,682
309,344;  913,019;   -0,632;   -1,318
309,939;  924,124;   -1,905;   -1,318
310,534;  581,435;   -0,086;   -1,682
311,130;  539,933;    0,459;   -2,500
311,725;  491,276;    1,004;   -0,500
312,320;  552,986;    2,459;    0,045
312,915;  661,080;    1,459;   -1,045
313,510;  872,834;    1,550;   -0,500
314,105;  573,270;    1,096;    1,409
314,700;  410,795;   -3,086;   -1,045
315,295;  498,135;   -0,904;    0,045
315,890;  426,317;    1,277;    0,864
316,485;  542,021;   -0,359;   -0,318
317,080;  442,898;   -3,086;    1,591
317,675;  759,540;    2,005;   -0,682
318,270;  954,191;    5,550;    3,318
318,865;  841,545;    3,278;    3,045
319,460;  661,150;   -0,904;    0,591
320,055;  488,099;   -0,541;   -1,227
320,650;  489,325;   -1,995;   -0,591
321,244;  490,507;   -0,177;   -1,409
321,839;  507,003;   -1,541;   -0,227
322,434;  566,349;   -1,086;   -1,591
323,029;  475,238;    1,732;    1,591
323,623;  438,555;    1,550;    0,773
324,218;  622,994;    2,368;    1,409
324,812;  564,789;    1,096;    1,591
325,407;  561,150;   -0,814;    2,045
326,002;  685,710;    0,277;   -0,409
326,596;  623,314;    0,914;    1,318
327,191;  457,484;    0,823;   -1,045
327,785;  454,132;   -0,813;   -0,227
328,379;  479,578;    1,368;    0,136
328,974;  542,945;    0,914;   -3,955
329,568;  572,528;    0,186;   -2,409
330,163;  653,894;    2,096;    1,045
330,757;  488,318;    2,459;    1,591
331,351;  439,405;    0,459;    0,682
331,945;  440,226;    0,914;    1,409
332,540;  609,050;   -1,723;   -0,591
333,134;  600,241;   -1,086;    0,773
333,728;  598,138;    0,005;    0,318
334,322;  491,109;   -1,177;   -0,864
334,916;  481,699;    0,277;    0,955
335,510;  680,391;   -0,450;   -0,136
336,105;  690,848;   -1,086;    1,591
336,699;  578,713;   -1,086;    0,591
337,293;  627,769;   -1,723;    0,318
337,887;  567,807;   -2,723;    1,955
338,481;  750,499;    0,459;    0,591
339,074;  878,145;   -0,359;    2,682
339,668;  864,643;   -1,632;    1,227
340,262; 1497,344;    1,732;    3,227
340,856; 1063,784;    1,822;   -0,682
341,450;  682,315;    1,004;    1,864
342,044;  772,769;    1,459;    0,136
342,637;  948,978;    0,913;   -2,136
343,231;  966,067;   -2,360;    0,682
343,825;  793,341;   -1,086;   -0,591
344,419;  766,097;   -1,995;    0,500
345,012; 1383,930;    2,459;    4,045
345,606; 1175,147;    4,641;    1,591
346,199;  816,944;   -1,813;   -0,227
346,793;  977,079;    1,914;    2,045
347,386;  756,596;   -0,813;   -1,136
347,980;  622,703;   -0,268;   -0,045
348,573;  775,741;    2,278;    0,409
349,167; 1093,034;    5,278;    4,773
349,760; 1002,691;    2,914;    2,682
350,354;  934,461;   -0,813;    1,136
350,947;  996,286;    1,096;    1,682
351,540;  799,635;   -0,358;   -1,409
352,134;  636,239;    1,096;    1,136
352,727;  694,750;   -0,086;    1,136
353,320;  720,195;    0,005;    0,591
353,913;  630,433;   -1,995;    1,864
354,507;  886,295;    0,823;   -1,227
355,100;  752,879;    0,460;    0,864
355,693; 1202,189;    2,005;    2,409
356,286;  930,412;    0,823;    2,773
356,879;  751,254;   -0,722;    1,227
357,472;  724,920;   -0,904;    1,500
358,065;  800,594;   -0,722;    2,500
358,658;  620,427;   -0,540;    2,318
359,251;  560,445;   -1,631;   -0,591
359,844;  788,386;   -1,904;   -1,136
360,437;  893,893;   -2,995;    0,045
361,030;  702,442;    1,369;   -0,682
361,623;  694,479;    2,824;    0,318
362,215;  960,661;   -0,086;    2,045
362,808;  786,441;   -2,358;   -1,682
363,401;  706,224;   -2,449;    0,136
363,994;  974,687;   -0,631;   -1,500
364,586;  706,616;    0,824;   -1,500
365,179;  629,097;   -0,449;   -1,136
365,772;  457,693;   -1,995;    2,045
366,364;  640,006;    1,915;   -3,227
366,957;  739,964;    2,279;   -0,045
367,549;  651,225;    2,188;   -0,864
368,142;  653,913;    1,825;   -1,500
368,734;  606,112;    0,734;   -2,136
369,327;  505,399;    1,643;   -0,500
369,919;  570,196;   -1,538;    0,409
370,512;  601,957;   -1,083;   -0,500
371,104;  911,923;   -0,901;    1,591
371,696;  947,754;    1,191;   -0,955
372,289;  777,832;    0,373;    1,136
372,881;  717,832;   -2,080;    1,318
373,473;  566,740;   -2,170;    1,136
374,066;  684,751;   -0,169;    0,500
374,658;  653,922;    0,378;    1,136
375,250;  571,099;    0,653;   -1,409
375,842;  639,294;    0,473;   -0,045
376,434;  583,398;   -0,435;   -0,409
377,026;  593,416;    0,204;   -2,500
377,618;  643,898;   -0,158;   -0,682
378,210;  550,726;   -0,338;   -1,955
378,802;  510,230;    0,754;   -0,591
379,394; 1013,260;    1,846;    0,682
379,986;  733,029;    1,393;   -0,955
380,578;  621,234;   -0,153;    0,773
381,170;  902,728;   -0,972;    0,045
381,762;  775,048;    0,755;    1,409
382,354;  729,471;   -0,065;   -1,318
382,945;  603,469;   -2,976;    0,318
383,537;  535,004;   -2,705;   -1,955
384,129;  536,160;   -2,160;   -1,136
384,721;  683,023;   -0,252;    0,955
385,312;  580,915;   -0,161;   -0,955
385,904;  715,920;   -2,706;    1,591
386,496;  595,802;   -0,979;    1,045
387,087;  780,446;    1,022;    2,500
387,679;  702,463;   -1,160;    0,045
388,270;  696,442;    2,840;    2,045
388,862;  646,132;    1,295;   -0,318
389,453;  601,044;   -0,887;    1,045
390,045;  634,677;   -0,705;   -2,682
390,636;  509,891;    0,204;   -0,591
391,227;  578,645;   -0,523;   -0,045
391,819;  575,795;    0,204;    0,773
392,410;  880,458;    1,022;    0,045
393,001;  648,724;   -0,979;   -1,591
393,593;  741,131;    1,930;   -0,045
394,184;  807,832;    1,385;   -0,409
394,775;  624,935;    1,839;    2,136
395,366;  556,978;    1,385;    0,773
395,957;  798,933;    0,113;    0,136
396,548;  656,617;   -0,342;    2,682
397,139;  827,901;   -2,433;    0,591
397,730;  711,321;   -1,888;    0,955
398,321;  706,351;   -1,252;    0,955
398,912;  630,243;   -0,615;    0,136
399,503;  643,410;   -3,524;   -1,409
400,094;  690,099;    0,294;    1,682
400,685;  683,955;   -0,433;    0,045
401,276;  585,339;    0,930;   -0,955
401,867;  578,052;   -0,888;    0,773
402,458;  539,046;   -2,251;   -2,318
403,048;  757,386;    1,112;    0,591
403,639;  644,022;    0,840;    0,864
404,230;  820,952;    2,476;    0,318
404,821;  881,501;   -0,615;    0,045
405,411;  745,026;    1,203;   -2,591
406,002;  618,861;   -1,252;   -1,136
406,592;  915,900;    2,294;    0,045
407,183;  721,558;    0,566;   -1,500
407,774;  681,531;    3,475;   -0,136
408,364;  637,085;    0,930;    0,409
408,954;  786,997;    0,384;    1,227
409,545;  776,789;    1,021;    1,045
410,135;  699,127;    1,293;    0,500
410,726;  654,753;    1,838;    0,318
411,316;  883,796;    0,111;    0,773
411,906;  647,720;   -0,253;   -0,409
412,497;  647,760;   -1,070;   -0,045
413,087;  578,784;   -1,980;   -0,227
413,677;  495,210;   -0,707;    3,864
414,267;  474,626;    0,656;    1,409
414,857;  443,952;   -2,980;    4,227
415,448;  446,649;    0,839;    0,500
416,038;  474,787;    0,020;   -0,591
416,628;  542,365;   -0,889;    0,409
417,218;  624,122;    0,565;    3,318
417,808;  804,812;    0,202;   -0,409
418,398;  618,914;    0,020;    2,682
418,988;  466,501;    2,020;    0,591
419,578;  580,896;   -0,707;    1,409
420,168;  508,738;   -1,343;   -0,955
420,757;  699,925;   -1,343;   -1,500
421,347;  551,877;    0,111;   -0,227
421,937;  491,944;    2,292;    1,409
422,527;  656,059;    0,838;   -0,773
423,116;  818,817;   -0,253;   -0,045
423,706;  456,202;   -1,889;    0,318
424,296;  384,275;    1,384;    0,682
424,885;  568,002;   -0,071;   -3,045
425,475;  528,680;    1,474;   -2,864
426,065;  364,393;   -0,980;   -0,318
426,654;  329,396;   -0,435;   -0,318
427,244;  671,355;    0,020;    1,409
427,833;  635,566;    1,383;   -0,500
428,423;  458,115;   -0,526;    1,136
429,012;  450,807;   -0,344;   -1,136
429,601;  593,297;   -1,344;    0,136
430,191;  455,071;    1,292;    4,318
430,780;  323,493;   -0,344;   -0,409
431,369;  554,124;    0,746;   -0,045
431,959;  410,990;   -1,254;    0,500
432,548;  323,655;   -1,163;   -0,045
433,137;  239,125;   -1,254;   -1,318
433,726;  329,409;    0,292;    0,500
434,315;  350,576;   -0,526;    2,409
434,905;  470,296;   -1,254;    1,409
435,494;  465,213;    0,746;    0,955
436,083;  295,359;   -0,981;   -0,955
436,672;  390,192;    0,110;    0,500
437,261;  319,838;    0,292;   -1,955
437,850;  586,383;    1,383;    0,682
438,439;  623,797;    3,291;    1,955
439,027;  730,413;    3,655;    1,773
439,616;  636,320;    2,927;    1,227
440,205;  386,059;    0,200;   -2,136
440,794;  315,091;    2,109;   -0,045
441,383;  230,763;   -1,346;   -0,591
441,971;  191,365;   -2,436;    0,591
442,560;  198,397;    0,563;   -1,773
443,149;   72,887;    0,379;   -1,318
443,737;  127,252;   -0,074;   -2,318
444,326;  153,787;    0,018;    0,318
444,915;  199,837;   -1,982;    0,864
445,503;  204,195;   -2,891;   -0,318
446,092;  446,174;    0,382;    2,136
446,680;  366,943;    0,382;    0,318
447,269;  262,656;   -0,346;   -0,318
447,857;  239,923;    0,018;   -1,773
448,445;  192,624;    0,563;    1,318
449,034;  132,847;   -1,528;   -1,136
449,622;  134,037;   -1,073;    3,500
450,210;  357,508;    2,017;    2,227
450,799;  274,569;    0,290;   -0,591
451,387;  239,188;    1,381;   -0,591
451,975;  217,546;    2,654;    0,864
452,563;  262,475;    3,472;    2,318
453,151;  128,549;   -0,528;   -1,227
453,739;  144,726;   -1,347;    0,136
454,328;  213,790;    2,381;   -2,136
454,916;  160,116;    2,562;   -0,136
455,504;  175,805;    1,017;    1,227
456,092;   92,966;    0,017;   -1,591
456,679;   72,262;    1,472;    0,682
457,267;  348,075;    4,017;    1,045
457,855;  129,814;    1,017;    1,409
458,443;   31,662;   -0,165;    1,682
459,031;  111,075;    0,108;    2,409
459,619;   89,321;   -1,801;    2,864
460,206;   37,767;    0,835;    2,045
460,794;   35,166;   -2,983;   -0,227
461,382;   61,070;   -0,529;   -0,864
461,970;   66,155;    1,198;    1,864
462,557;   26,959;   -0,711;   -0,682
463,145;   76,768;   -3,165;   -1,682
463,732;  226,595;    2,016;   -1,045
464,320;   93,174;   -0,075;   -3,045
464,907;  158,273;    2,743;   -0,773
465,495;   95,784;    0,743;   -1,227
466,082;   60,150;   -1,984;   -0,045
466,670;   76,640;   -2,529;    1,227
467,257;   25,092;   -1,711;    2,045
467,844;   62,174;   -0,075;    0,045
468,432;   51,576;    0,834;    3,500
469,019;   35,183;    0,925;   -1,773
469,606;   84,221;    0,470;    3,682
470,193;   89,263;   -1,439;    0,227
470,780;   58,641;   -2,075;    0,864
471,368;   30,348;   -1,257;   -0,773
471,955;   73,450;    1,379;   -0,682
472,542;   55,046;    0,652;   -1,136
473,129;   16,773;   -0,166;    0,136
473,716;   20,254;    1,470;    0,591
474,303;   28,180;    0,652;   -0,864
474,890;   20,234;   -1,439;   -0,500
475,477;   68,073;   -1,621;    0,409
476,064;   28,783;    1,106;   -1,591
476,650;   85,463;    0,288;    0,318
477,237;   37,281;   -0,258;    0,955
477,824;   29,792;   -1,076;    0,864
478,411;    4,211;   -1,894;   -0,318
478,997;   -3,041;    0,560;   -0,773
479,584;   -8,779;    1,196;   -0,409
480,171;   37,661;   -0,440;   -0,773
480,757;   54,902;    2,651;    0,773
481,344;   21,312;    0,469;    0,409
481,931;   -3,341;    1,105;    1,045
482,517;   35,087;   -1,258;    0,318
483,104;   62,945;    1,106;    2,864
483,690;   17,426;   -1,804;    0,045
484,276;    8,260;   -0,895;    0,227
484,863;   93,600;    2,469;    1,136
485,449;   33,237;   -0,077;    0,318
486,035;   15,457;   -1,986;   -0,136
486,622;   46,090;   -0,895;    0,045
487,208;   17,574;    1,378;    1,500
487,794;   -5,801;    0,741;    0,318
488,380;   -2,822;    0,105;   -1,409
488,967;   -3,750;   -1,168;   -0,409
489,553;    1,839;   -1,895;   -1,409
490,139;   26,308;    1,559;    0,773
490,725;    6,625;    0,741;   -0,227
491,311;   12,760;    3,287;    3,045
491,897;   13,422;   -0,986;    1,500
492,483;   18,678;    0,105;    1,227
493,069;  202,091;    3,923;    0,864
493,655;   74,898;    1,650;    0,682
494,241;   23,305;    1,377;   -0,955
494,826;   22,739;    0,287;   -1,045
495,412;   45,742;    2,559;   -0,682
495,998;   17,010;   -0,805;   -0,318
496,584;   35,807;    0,377;    1,045
497,169;   48,992;    1,014;   -0,682
497,755;   21,852;    0,650;    1,227
498,341;   70,438;    0,559;    0,318
498,926;  132,031;    1,832;    1,955
499,512;   26,639;    1,286;    2,955
500,097;   19,339;    0,195;   -0,318
500,683;   30,870;   -0,350;    2,136
501,268;   19,709;   -0,169;   -0,955
501,854;   36,084;   -0,169;    1,227
502,439;   33,149;   -0,624;   -1,773
503,024;   36,061;    0,195;    0,500
503,610;   61,219;   -0,078;   -0,682
504,195;   43,501;    0,558;    1,955
504,780;  119,471;    2,922;    1,227
505,366;  196,146;    3,013;    2,864
505,951;  147,276;    0,740;    1,045
506,536;   98,862;   -3,260;   -3,682
507,121;  174,032;    0,285;   -0,318
507,706;  146,422;    2,376;    1,045
508,291;  110,739;    2,649;    1,136
508,876;  121,955;   -0,988;    2,591
509,461;  202,769;   -0,169;   -0,773
510,046;  274,464;    0,194;    0,318
510,631;  313,405;   -0,351;   -0,773
511,216;  235,253;    2,467;   -0,500
511,801;  339,795;   -0,442;    2,591
512,386;  406,109;    0,740;    0,500
512,971;  451,084;   -2,988;    0,955
513,555;  551,277;   -0,897;   -1,500
514,140;  523,796;   -0,442;   -3,136
514,725;  708,348;   -0,715;   -1,136
515,309;  614,477;   -0,533;    0,318
515,894;  508,556;   -0,624;   -2,227
516,479;  587,462;   -0,624;   -0,955
517,063;  629,383;    0,376;    1,227
517,648;  609,327;    1,012;   -1,136
518,232;  603,399;   -0,261;   -1,409
518,817;  745,868;   -0,079;    1,682
519,401;  974,358;    2,194;    0,591
519,985;  888,105;    1,103;    1,136
520,570;  728,630;    0,830;   -1,955
521,154;  935,569;    2,102;    0,591
521,738; 1242,452;   -2,352;    2,409
522,323; 1070,880;   -0,170;    1,682
522,907; 1031,423;    0,466;   -0,136
523,491;  922,359;    0,557;    0,955
524,075;  880,282;    2,284;    0,591
524,659; 1151,590;    1,466;    0,591
525,243; 1050,628;    1,739;    0,409
525,827;  990,561;    0,648;   -0,045
526,411; 1067,590;   -1,989;   -0,136
526,995; 1259,039;   -0,352;    1,409
527,579; 1315,092;   -0,443;   -1,045
528,163; 1248,145;    0,375;   -1,500
528,747; 1444,647;    2,466;   -0,773
529,331; 1392,060;   -0,080;   -1,409
529,915; 1144,984;    1,738;    0,955
530,499; 1280,890;   -0,807;    1,227
531,082; 1427,166;   -0,534;    1,591
531,666; 1500,105;    1,374;    0,773
532,250; 1423,662;    1,284;    2,682
532,833; 1591,967;    0,920;    2,773
533,417; 1346,533;   -1,807;    0,864
534,001; 1483,794;    1,647;   -0,318
534,584; 1427,528;    0,374;    0,500
535,168; 1235,329;    0,465;    1,409
535,751; 1675,662;    0,647;    0,045
536,334; 1301,196;   -0,898;   -0,409
536,918; 1255,445;    0,011;    1,591
537,501; 1243,114;   -0,899;    1,318
538,085; 1296,358;   -0,444;    1,045
538,668; 1331,827;    0,829;    2,409
539,251; 1734,024;    1,829;    3,773
539,834; 1463,261;    0,101;    0,773
540,418; 1583,420;   -1,990;    4,318
541,001; 1758,801;   -0,990;    1,773
541,584; 1479,758;    2,101;    2,227
542,167; 1576,185;    1,374;    2,955
542,750; 1430,450;    1,919;   -0,773
543,333; 1194,738;    0,555;    2,136
543,916; 1540,365;    0,192;    2,500
544,499; 1417,086;   -1,354;    0,227
545,082; 1529,292;    1,374;    3,591
545,665; 1436,224;    1,919;    1,500
546,248; 1595,647;    1,010;   -0,318
546,830; 1555,236;   -0,445;    1,955
547,413; 1580,981;    1,010;   -0,773
547,996; 1648,275;    0,555;    0,500
548,579; 1447,058;    0,919;    0,955
549,161; 1715,809;    1,828;    2,682
549,744; 1586,138;   -0,809;    0,409
550,326; 1542,337;   -0,809;   -1,136
550,909; 2035,367;    2,737;    0,591
551,492; 1709,648;   -0,263;    0,227
552,074; 1762,804;   -0,173;   -1,318
552,657; 1830,355;    2,373;    0,045
553,239; 1652,218;   -0,173;   -0,773
553,821; 1580,950;   -1,082;    1,045
554,404; 1768,980;    1,282;    1,136
554,986; 1891,995;    0,464;    1,045
555,568; 1786,221;    1,191;   -0,955
556,151; 1976,054;    1,191;   -0,227
556,733; 1653,678;   -0,264;   -0,864
557,315; 1659,142;    0,100;    0,500
557,897; 1465,558;    0,554;   -0,500
558,479; 1482,761;   -1,991;    1,318
559,061; 1625,207;   -0,719;   -0,864
559,643; 1751,899;   -0,264;    0,045
560,225; 1797,881;    1,645;    2,864
560,807; 1661,717;    0,918;    0,318
561,389; 1587,131;    0,554;    2,318
561,971; 1654,829;    0,463;    2,136
562,553; 1660,673;   -1,628;    1,591
563,135; 1757,377;   -0,537;    1,136
563,717; 2095,820;    3,372;    1,136
564,298; 1978,456;    3,645;   -0,045
564,880; 1706,833;    0,645;   -1,409
565,462; 1589,287;    0,645;    1,318
566,043; 1936,181;   -0,446;    2,318
566,625; 2080,354;    1,918;    1,227
567,207; 1847,876;    1,099;    1,682
567,788; 1846,284;   -1,264;    1,500
568,370; 1985,138;    1,917;   -0,500
568,951; 1855,070;    0,190;    0,227
569,533; 2043,716;   -0,628;   -0,500
570,114; 2173,991;   -0,446;    0,682
570,695; 2222,880;   -0,174;   -1,318
571,277; 2169,804;   -0,265;   -1,682
571,858; 2409,991;    2,008;   -1,136
572,439; 2461,056;    1,554;   -1,045
573,021; 2415,799;    2,099;   -2,773
573,602; 2554,593;   -1,265;    0,318
574,183; 2606,432;   -2,083;    2,227
574,764; 2624,857;   -1,629;    0,409
575,345; 2721,682;    0,917;   -0,136
575,926; 2710,461;   -0,356;    0,136
576,507; 2785,221;    1,099;   -0,227
577,088; 2914,218;    3,099;    1,682
577,669; 3048,655;    0,735;    1,955
578,250; 3286,614;    0,644;   -1,045
578,831; 3155,911;   -1,356;   -2,227
579,412; 3018,579;   -0,810;    0,955
579,993; 3317,875;    1,008;    0,227
580,573; 3338,341;   -0,629;   -0,955
581,154; 3033,030;    0,735;   -0,591
581,735; 3202,734;    0,644;    0,773
582,315; 3062,552;   -0,629;    2,136
582,896; 3241,948;   -0,174;    1,227
583,477; 3061,251;    0,189;    1,227
584,057; 3149,054;    0,553;    0,955
584,638; 3230,239;    2,553;    2,318
585,218; 3416,945;   -0,538;    2,682
585,799; 3329,969;    0,281;   -0,227
586,379; 3242,127;    0,372;    1,591
586,959; 3058,074;    0,735;    0,318
587,540; 2905,603;   -0,629;    2,227
588,120; 2798,853;    1,007;   -0,045
588,700; 2654,289;    2,553;    2,136
589,281; 2928,517;    0,462;   -0,955
589,861; 2822,482;    0,099;   -1,682
590,441; 2744,353;    2,371;   -2,682
591,021; 2528,957;   -0,265;   -2,591
591,601; 2662,977;   -0,537;    0,500
592,181; 2738,399;   -0,719;   -0,773
592,761; 2425,533;    0,007;    1,409
593,341; 2587,154;   -0,901;    0,045
593,921; 2523,033;   -0,265;    1,591
594,501; 2415,077;   -0,538;    1,318
595,081; 2395,018;    0,917;   -0,318
595,661; 2629,749;   -1,447;    0,955
596,240; 2694,253;   -0,537;    0,136
596,820; 2820,179;    0,372;    1,955
597,400; 2544,089;    2,008;    0,773
597,980; 2583,185;    2,008;    1,045
598,559; 2582,971;    2,735;   -0,227
599,139; 2526,115;   -0,174;   -1,227
599,718; 2507,024;   -0,174;   -0,409
600,298; 2590,338;    0,735;    0,682
600,877; 2942,484;    2,917;    1,409
601,457; 2868,047;    2,281;    1,136
602,036; 2737,423;    0,190;    2,045
602,616; 2656,449;    0,644;    1,682
603,195; 2814,220;   -0,355;    3,500
603,774; 2741,815;   -0,901;    2,045
604,354; 2651,285;    0,826;   -0,500
604,933; 2560,496;    0,463;    1,864
605,512; 2756,490;    3,554;    0,591
606,091; 2760,428;   -0,537;    3,773
606,671; 2804,689;    0,281;    0,773
607,250; 2794,252;    1,644;    3,136
607,829; 2799,140;    2,372;    3,227
608,408; 2677,862;    1,190;    2,591
608,987; 2620,498;    1,281;    3,409
609,566; 2501,758;   -1,265;   -2,500
610,145; 2596,076;   -1,082;    0,682
610,723; 2758,387;    4,372;    6,864
611,302; 2505,509;   -0,446;    1,682
611,881; 2606,944;    5,008;   11,227
612,460; 2517,876;    1,645;    3,955
613,039; 2590,612;   -0,082;    2,045
613,617; 2296,270;    1,736;    4,773
614,196; 2324,970;    1,099;    1,227
614,775; 2488,682;    1,009;    2,409
615,353; 2487,037;    0,736;    0,864
615,932; 2413,151;    0,100;    2,409
616,510; 2569,855;    0,554;    0,591
617,089; 2932,993;    7,100;   17,591
617,667; 2626,433;    2,372;    6,136
618,246; 2268,330;   -1,537;    1,318
618,824; 2392,726;   -3,355;   -0,955
619,402; 2336,371;   -2,900;   -1,773
619,981; 2495,802;   -0,173;   -1,045
620,559; 2480,265;    0,009;    1,682
621,137; 2469,951;   -0,718;    1,864
621,715; 2141,353;   -1,173;   -0,682
622,293; 2197,940;   -0,537;   -0,773
622,871; 2476,324;   -0,718;    0,500
623,450; 2302,212;    0,373;   -0,864
624,028; 2417,895;    0,191;   -0,955
624,606; 2317,074;   -1,718;    1,682
625,183; 2243,311;   -1,536;   -1,136
625,761; 2274,303;    1,009;    1,136
626,339; 2645,933;    1,373;    2,591
626,917; 2388,299;   -0,172;   -0,045
627,495; 2393,238;   -0,354;    1,318
628,073; 2333,745;   -0,263;    2,864
628,650; 2306,590;    0,100;    2,136
629,228; 2391,270;    0,373;    4,409
629,806; 2123,971;    2,282;    1,136
630,383; 2203,818;    1,464;   -0,318
630,961; 2195,701;    2,555;   -0,955
631,539; 2130,161;    2,464;    0,227
632,116; 2781,701;   11,373;   15,409
632,694; 2471,563;    2,555;    6,500
633,271; 2279,193;    0,828;    2,682
633,848; 2386,589;    1,828;    2,045
634,426; 2218,920;   -1,081;    1,773
635,003; 2050,872;    1,101;   -0,409
635,580; 2391,110;    1,192;    3,682
636,158; 2239,263;    3,737;    1,227
636,735; 2090,469;    0,555;   -0,500
637,312; 2098,903;   -0,809;   -0,682
637,889; 2127,237;   -4,354;   -0,682
638,466; 2101,421;   -3,990;   -0,409
639,043; 2074,259;    2,101;   -1,136
639,620; 2095,974;   -2,262;   -0,955
640,197; 2243,273;    1,100;    1,682
640,774; 2216,386;   -0,172;    1,136
641,351; 2298,953;    0,737;    1,136
641,928; 2328,884;   -0,627;    1,409
642,505; 2441,361;    0,828;   -0,500
643,082; 2337,837;   -1,718;    1,227
643,658; 1989,587;   -0,718;    1,500
644,235; 2111,700;    1,191;    2,500
644,812; 2266,994;    1,918;    0,773
645,388; 2210,744;   -0,991;    1,409
645,965; 2009,311;   -0,809;    1,682
646,542; 2035,970;   -1,445;   -0,227
647,118; 2477,537;    1,009;   -0,955
647,695; 2308,923;   -0,263;    1,136
648,271; 2100,217;   -0,536;    0,500
648,848; 2244,603;    0,736;    2,227
649,424; 2352,898;    0,827;    1,318
650,000; 2062,647;   -0,354;   -1,045
650,577; 2137,760;   -0,627;   -0,955
651,153; 2260,237;   -1,809;    0,955
651,729; 2281,259;    1,191;    0,864
652,305; 2547,281;    0,645;    2,773
652,881; 3028,121;   -0,082;    1,136
653,458; 3969,416;    1,100;    0,227
654,034; 4563,256;    0,282;    1,591
654,610; 4624,460;    0,554;    0,773
655,186; 5052,664;    0,645;    3,045
655,762; 4713,322;   -0,991;    0,409
656,338; 4669,344;    0,100;    0,136
656,913; 4968,002;   -0,082;    0,409
657,489; 4688,206;    0,827;   -0,318
658,065; 4789,137;   -0,173;   -1,591
658,641; 5046,705;   -0,900;   -0,864
659,217; 4780,636;   -0,991;    0,409
659,792; 4519,840;    0,645;   -0,409
660,368; 4647,225;   -2,173;   -0,682
660,944; 4833,338;   -2,082;    1,227
661,519; 4108,269;   -0,628;    0,409
662,095; 3191,382;   -1,719;    0,591
662,670; 2486,495;    1,281;   -0,136
663,246; 2442,699;    1,009;   -0,409
663,821; 2480,721;    0,281;    1,682
664,396; 2232,652;    0,009;    1,864
664,972; 2278,947;    0,009;   -0,500
665,547; 2451,696;    1,372;    0,136
666,122; 2373,082;   -1,082;    0,318
666,698; 2527,831;   -0,173;    0,318
667,273; 2183,944;   -0,173;    0,136
667,848; 2362,966;    2,372;    1,500
668,423; 2456,170;    2,190;    2,318
668,998; 2385,919;    2,827;   -0,682
669,573; 2459,487;   -3,264;   -1,500
670,148; 2592,963;   -1,446;   -0,682
670,723; 2306,440;   -1,810;    0,318
671,298; 2682,826;    2,372;    1,045
671,873; 2537,302;   -0,082;   -0,136
672,448; 2532,779;    0,645;    0,136
673,023; 2561,710;   -1,992;   -0,227
673,597; 2751,368;    0,827;    2,318
674,172; 2722,027;   -0,355;    0,318
674,747; 2568,231;    0,372;   -1,045
675,321; 2360,798;   -0,628;    3,318
675,896; 2210,275;    0,645;    1,045
676,471; 2451,388;    2,645;    1,591
677,045; 2357,410;   -1,264;    0,682
677,620; 2400,159;    0,190;    1,136
678,194; 2427,817;   -2,628;    1,136
678,769; 2393,112;   -1,083;   -0,318
679,343; 2499,589;   -0,628;    1,773
679,917; 2550,247;   -1,446;    1,955
680,492; 2404,723;    0,826;    3,227
681,066; 2447,655;    3,372;    0,409
681,640; 2452,586;    1,463;   -0,318
682,214; 2587,426;    0,735;    0,500
682,788; 2505,266;   -1,356;   -0,773
683,363; 2536,561;   -1,810;    1,682
683,937; 2375,856;   -1,719;   -0,318
684,511; 2609,423;    0,463;   -0,591
685,085; 2554,172;   -1,356;    0,318
685,659; 2415,922;   -2,538;    0,864
686,232; 2649,216;   -0,356;   -0,318
686,806; 2530,238;   -0,901;    0,409
687,380; 2606,988;   -0,174;    0,591
687,954; 2628,283;   -1,174;    1,136
688,528; 2719,850;   -0,719;    1,955
689,101; 2828,054;   -3,992;    1,045
689,675; 2594,621;   -0,356;   -0,136
690,249; 2646,825;   -0,719;    0,409
690,822; 2710,665;    0,280;    0,318
691,396; 2588,506;   -0,265;    1,227
691,969; 2463,164;    1,280;    0,136
692,543; 2552,459;   -0,447;   -1,955
693,116; 2376,208;   -0,265;   -1,409
693,690; 2436,139;    0,099;    0,500
694,263; 2559,616;   -1,083;    2,955
694,836; 2798,001;    1,371;    3,591
695,410; 2516,387;   -0,265;    1,773
695,983; 2527,409;    0,189;    0,591
696,556; 2433,704;   -0,447;   -1,045
697,129; 2503,180;   -0,356;    1,409
697,703; 2469,021;   -1,629;    1,955
698,276; 2488,043;    1,462;   -0,773
698,849; 2523,337;    1,280;    1,409
699,422; 2396,723;   -1,083;    0,591
699,995; 2300,654;    0,007;    0,136
700,568; 2486,131;   -0,629;    3,045
701,140; 2511,607;   -2,811;    1,682
701,713; 2597,447;   -0,174;    2,409
702,286; 2504,288;   -0,538;    0,864
702,859; 2474,582;   -0,902;   -0,591
703,432; 2400,332;    0,825;    0,682
704,004; 2391,172;    0,462;    0,318
704,577; 2225,648;   -0,629;    0,136
705,150; 2342,670;    0,189;    2,500
705,722; 2442,329;   -0,356;   -3,227
706,295; 2462,169;   -0,175;   -0,591
706,867; 2300,373;   -0,175;    1,955
707,440; 2492,122;   -1,720;   -0,409
708,012; 2566,417;    0,462;    0,591
708,584; 2420,530;    2,462;    0,227
709,157; 2412,916;    1,825;   -0,591
709,729; 2546,847;    2,280;    2,045
710,301; 2662,960;    0,734;    0,045
710,874; 2627,618;   -1,447;   -0,227
711,446; 2247,458;    0,371;    0,864
712,018; 2341,207;    0,098;    0,500
712,590; 2245,957;   -1,993;    1,682
713,162; 2560,797;    0,825;    1,318
713,734; 2445,001;    1,825;   -2,045
714,306; 2398,386;   -1,902;   -0,409
714,878; 2231,772;    0,825;    0,864
715,450; 2367,976;    0,643;    0,864
716,022; 2408,362;    1,552;    1,318
716,593; 2430,656;    0,189;    0,591
717,165; 2480,315;   -3,175;   -1,227
717,737; 2593,973;    0,280;    0,409
718,309; 2421,541;    0,280;   -0,045
718,880; 2351,290;   -0,539;   -1,409
719,452; 2460,494;   -0,175;   -1,591
720,024; 2438,243;    0,734;   -0,591
720,595; 2455,447;   -2,902;    0,955
721,167; 2338,651;    0,370;   -2,045
721,738; 2299,582;   -0,812;   -1,045
722,309; 2370,604;   -0,993;   -1,227
722,881; 2220,808;   -1,357;    0,773
723,452; 2411,648;   -2,630;    2,864
724,023; 2471,943;   -0,721;    2,682
724,595; 2497,419;    0,007;    0,682
725,166; 2286,805;    0,007;   -0,409
725,737; 2441,191;    1,734;    0,227
726,308; 2376,849;   -0,266;    0,318
726,879; 2289,962;   -1,630;    1,227
727,450; 2412,075;    0,552;   -0,045
728,021; 2290,551;    3,097;    0,682
728,592; 2433,937;    0,734;    0,500
729,163; 2579,232;    0,643;   -0,136
729,734; 2575,527;    0,188;   -0,227
730,305; 2449,730;    1,734;    0,136
730,876; 2444,843;    0,188;    2,955
731,447; 2744,865;    2,188;    2,682
732,017; 2624,706;    1,097;    1,864
732,588; 2499,637;    0,734;    1,227
733,159; 2660,295;    0,643;   -1,045
733,729; 2395,863;    0,006;    0,409
734,300; 2433,339;    0,915;    0,864
734,870; 2377,634;    3,461;    0,591
735,441; 2411,656;    0,370;   -0,591
736,011; 2305,860;    0,643;   -1,591
736,582; 2316,882;   -0,812;    0,045
737,152; 2307,086;   -1,721;   -2,045
737,722; 2391,744;   -0,267;   -0,682
738,293; 2227,039;   -1,358;    1,318
738,863; 2394,061;    2,461;    2,318
739,433; 2625,265;    5,279;    0,318
740,003; 2524,014;   -0,994;   -0,682
740,573; 2540,763;    2,097;   -1,591
741,143; 2477,876;   -1,085;    0,318
741,713; 2456,262;    1,188;   -0,500
742,283; 2430,375;    0,915;    1,591
742,853; 2327,669;    1,915;    1,591
743,423; 2154,601;    1,733;    0,045
743,993; 2241,259;   -0,358;    1,500
744,563; 2112,008;    0,097;   -0,864
745,133; 2167,758;   -0,812;   -0,864
745,702; 2272,143;   -0,267;    1,773
746,272; 2294,529;   -0,176;    0,591
746,842; 2303,642;   -1,358;   -0,591
747,411; 2213,937;   -0,267;   -0,318
747,981; 2154,322;    0,097;    0,500
748,551; 2181,435;    2,278;   -1,045
749,120; 2262,639;    0,642;   -0,227
749,690; 2298,934;   -0,631;    2,409
750,259; 2430,138;    1,369;    2,955
750,828; 2436,523;    1,551;   -1,955
751,398; 2316,636;    1,278;   -0,045
751,967; 2623,385;    2,187;    0,409
752,536; 2393,407;   -0,813;   -0,227
753,105; 2539,339;    0,096;    0,227
753,675; 2333,815;    0,096;    1,773
754,244; 2330,928;   -0,904;    3,591
754,813; 2356,314;    0,551;    1,227
755,382; 2249,154;    0,460;    0,955
755,951; 2414,631;    1,551;    3,682
756,520; 2452,471;   -0,085;    1,864
757,089; 2700,311;    0,278;    0,500
757,658; 2422,242;    1,733;    1,227
758,227; 2296,537;    1,096;    0,318
758,795; 2399,104;    1,187;    1,136
759,364; 2523,217;   -0,086;   -0,591
759,933; 2221,512;   -1,176;   -0,045
760,501; 2167,898;    0,733;   -1,318
761,070; 2325,283;   -2,813;   -1,409
761,639; 2563,669;   -1,904;    1,318
762,207; 2380,146;    1,551;   -0,955
762,776; 2453,258;    0,369;    0,864
763,344; 2311,644;   -0,995;    0,591
763,913; 1958,212;   -0,722;    1,409
764,481; 2597,597;    1,005;   -0,136
765,049; 2532,074;   -1,358;    1,409
765,618; 2426,641;   -0,086;    0,318
766,186; 2349,027;    0,278;    0,136
766,754; 2377,776;    0,005;    1,864
767,322; 2065,798;   -1,995;    0,409
767,890; 2041,820;   -0,722;   -1,773
768,459; 2224,024;   -2,177;   -0,318
769,027; 2423,137;    1,641;    3,409
769,595; 2148,159;    3,278;    2,591
770,163; 2197,363;    3,823;    2,955
770,730; 2192,930;    0,732;   -0,136
771,298; 2152,407;    0,187;   -1,409
771,866; 2170,338;   -1,541;    4,955
772,434; 2207,906;   -0,631;   -1,864
773,002; 2449,655;    0,005;    0,682
773,569; 2310,677;    0,914;    1,682
774,137; 2387,153;   -0,268;   -0,045
774,705; 2370,994;    0,278;   -0,136
775,272; 2179,197;    0,641;    0,682
775,840; 2278,129;   -0,177;    2,682
776,407; 2248,878;    0,277;    1,955
776,975; 2014,445;   -0,632;    0,318
777,542; 2171,104;   -1,086;   -0,045
778,110; 2173,489;   -1,268;   -0,045
778,677; 2039,784;   -2,359;   -0,864
779,244; 2080,624;    2,186;    1,045
779,812; 2238,556;    1,823;    0,864
780,379; 2275,214;    0,005;    1,136
780,946; 2149,872;    1,005;   -0,773
781,513; 2172,167;   -1,450;    0,318
782,080; 2014,462;   -0,086;    2,864
782,647; 2155,847;   -0,268;    3,045
783,214; 2079,142;   -0,177;    3,864
783,781; 2201,164;   -0,723;   -0,682
784,348; 2175,186;   -0,632;    1,500
784,915; 2037,208;   -3,177;    0,318
785,482; 2191,958;    1,368;    2,591
786,049; 2270,161;    0,186;   -0,591
786,615; 2197,547;    0,277;   -0,955
787,182; 2091,751;    0,186;   -0,682
787,749; 2070,046;   -2,814;    1,409
788,315; 2074,886;   -1,632;   -0,409
788,882; 2109,453;    1,550;   -1,227
789,448; 2404,930;    1,732;   -0,955
790,015; 2219,134;    1,095;    3,227
790,581; 2307,338;    1,459;    0,227
791,148; 2111,632;    0,641;    1,045
791,714; 2095,927;   -0,541;    3,136
792,280; 2071,858;    0,186;    1,591
792,847; 1980,426;    0,550;    2,500
793,413; 2074,993;   -0,269;   -0,318
793,979; 2128,015;    3,459;   -1,318
794,545; 2478,764;    4,459;    2,682
795,111; 2278,968;    2,186;    1,318
795,678; 2143,263;    0,731;   -1,682
796,244; 2314,376;    3,368;    0,136
796,810; 2271,580;    1,731;    0,773
797,375; 2238,602;    0,549;   -2,136
797,941; 1871,442;   -0,541;    0,591
798,507; 1868,646;   -0,451;   -0,955
799,073; 1876,032;   -0,360;    0,591
799,639; 1956,144;   -2,632;    3,136
800,205; 1893,803;    0,095;    2,682
800,770; 1843,279;    0,640;    1,773
801,336; 1800,392;    1,368;   -0,955
801,901; 2410,323;    4,549;    3,136
802,467; 2154,527;   -0,542;    2,045
803,033; 1813,368;   -0,087;    0,864
803,598; 1829,117;    1,913;   -1,045
804,163; 1899,321;    1,095;   -0,318
804,729; 1974,615;   -0,178;    1,136
805,294; 1917,001;    0,822;    2,227
805,859; 1788,750;    0,731;   -0,409
806,425; 2150,045;    1,186;    2,682
806,990; 2129,340;    2,186;    4,318
807,555; 1943,362;   -1,451;    2,591
808,120; 2089,384;    0,822;   -0,409
808,685; 1833,951;    0,185;   -2,500
809,250; 1676,155;    0,004;   -0,500
809,815; 1762,359;    1,913;    0,682
810,380; 1991,108;   -0,269;    1,591
810,945; 2133,767;   -1,087;    2,045
811,510; 1964,698;    2,094;    1,591
812,075; 1863,538;   -0,633;   -1,409
812,640; 2148,378;    2,003;    1,409
813,204; 1959,128;    0,822;   -0,227
813,769; 2178,150;    2,094;   -0,045
814,334; 2106,808;    0,458;    0,864
814,898; 1875,739;    0,367;    0,591
815,463; 1899,307;    1,276;   -0,773
816,027; 1818,056;   -0,724;   -2,318
816,592; 1827,896;    0,640;   -2,045
817,156; 1859,009;    2,094;    1,136
817,721; 1934,576;    4,276;    2,318
818,285; 1745,871;    2,912;    1,500
818,849; 1879,802;   -1,451;    1,682
819,414; 1754,006;   -0,269;    2,955
819,978; 1692,937;   -1,269;    1,773
820,542; 2101,596;    2,003;    0,500
821,106; 1926,709;   -0,815;    0,682
821,670; 2079,094;   -0,815;    2,591
822,234; 1827,025;   -0,270;    1,409
822,798; 1681,229;    0,003;    0,500
823,362; 2015,797;   -0,633;    4,227
823,926; 1716,182;    0,094;    1,136
824,490; 1915,386;   -0,997;   -0,682
825,054; 1843,772;   -0,088;   -1,136
825,618; 1685,430;   -1,542;   -1,500
826,181; 1708,089;    0,458;   -1,318
826,745; 1764,747;    1,367;   -1,045
827,309; 2054,224;    1,185;    1,318
827,872; 1916,791;    1,367;    0,955
828,436; 1887,995;    1,185;   -0,773
828,999; 1840,381;   -0,997;    1,227
829,563; 1743,130;   -0,179;    1,136
830,126; 1697,334;   -0,179;   -0,591
830,690; 1704,810;   -1,997;    2,864
831,253; 1605,014;   -0,543;    2,227
831,816; 1667,673;   -1,906;    0,500
832,380; 1577,785;    0,185;    0,864
832,943; 1612,989;   -1,361;   -0,500
833,506; 1617,648;    2,639;   -1,227
834,069; 1842,397;    3,912;   -0,955
834,632; 1739,601;    1,730;    1,318
835,195; 1736,714;    1,003;    0,955
835,758; 1632,736;   -0,997;    1,955
836,321; 1560,576;    0,730;   -1,045
836,884; 1583,143;   -0,725;   -0,955
837,447; 1574,529;   -2,816;    1,773
838,010; 1718,642;    0,366;    3,227
838,573; 1795,119;   -1,179;    0,773
839,135; 1715,777;   -1,361;   -0,955
839,698; 1634,344;    1,275;    0,409
840,261; 1564,730;    1,003;   -0,227
840,823; 1526,479;   -0,543;    0,864
841,386; 1521,138;   -0,452;   -2,409
841,948; 1867,705;   -1,361;    1,773
842,511; 1567,909;    0,912;    1,682
843,073; 1837,749;    1,912;    0,227
843,636; 1575,590;   -0,361;   -0,227
844,198; 1788,248;    0,911;    0,591
844,760; 1762,179;    1,093;    1,955
845,322; 1505,565;    0,548;    1,136
845,885; 1669,859;    0,730;    0,591
846,447; 1652,063;   -1,998;    0,227
847,009; 1970,722;    1,911;   -0,682
847,571; 1666,198;    0,820;   -2,045
848,133; 1634,220;   -1,089;   -1,864
848,695; 1483,879;   -0,543;    1,409
849,257; 1544,719;   -1,089;   -1,682
849,819; 1735,923;   -0,998;   -0,409
850,381; 1584,945;   -0,725;   -0,864
850,942; 1653,876;    1,093;   -0,591
851,504; 1685,898;    1,184;    0,227
852,066; 1600,647;    1,275;   -1,591
852,628; 1605,851;   -0,180;    1,955
853,189; 1405,782;    1,638;    2,682
853,751; 1489,531;   -0,907;    1,409
854,312; 1673,008;   -0,453;   -1,682
854,874; 1830,212;   -2,089;   -0,773
855,435; 1635,507;   -0,907;   -1,682
855,997; 1756,347;   -1,816;   -0,136
856,558; 1771,551;    0,366;    1,773
857,119; 1613,936;    0,820;    2,864
857,681; 1462,867;    0,002;    0,318
858,242; 1689,799;    1,911;   -2,136
858,803; 1783,457;    0,456;   -0,773
859,364; 1714,752;    0,184;   -4,773
859,925; 1733,137;   -2,453;   -0,955
860,486; 1619,432;   -0,453;   -0,955
861,047; 1497,909;   -0,544;   -1,227
861,608; 1519,022;   -1,089;   -0,773
862,169; 1464,953;    0,638;   -0,045
862,730; 1509,338;    0,456;    1,409
863,291; 1575,633;   -0,635;   -0,500
863,852; 1575,473;   -0,635;    1,955
864,412; 1503,859;   -0,271;   -0,864
864,973; 1665,426;   -0,089;    0,500
865,534; 1827,448;   -1,726;    0,227
866,094; 1666,198;    1,820;    0,227
866,655; 1750,493;    1,274;    3,318
867,215; 1612,605;    0,274;    0,136
867,776; 1498,991;    0,547;   -0,136
868,336; 1551,195;   -1,453;    0,136
868,897; 1935,035;    2,638;    1,682
869,457; 1705,148;    1,365;    0,318
870,017; 1546,261;    0,547;   -1,227
870,578; 1560,738;   -0,817;    0,773
871,138; 1514,032;   -2,089;   -0,955
871,698; 1392,418;   -0,817;   -1,318
872,258; 1529,349;   -0,453;   -2,864
872,818; 1775,189;    2,729;    0,045
873,378; 1573,393;    0,638;    1,045
873,938; 1499,870;    0,547;    0,500
874,498; 1403,164;    0,274;   -1,955
875,058; 1462,914;    2,183;    1,773
875,618; 1460,845;    1,910;   -2,682
876,177; 1506,231;    1,274;    0,136
876,737; 1275,616;   -0,090;    1,955
877,297; 1738,093;    0,183;    1,955
877,856; 1646,388;   -0,362;    0,318
878,416; 1377,500;    1,183;   -0,136
878,976; 1360,159;   -1,817;    0,409
879,535; 1435,908;    0,092;    3,136
880,095; 1420,567;   -0,544;    0,045
880,654; 1304,952;   -1,090;    1,318
881,213; 1656,883;    2,456;    1,500
881,773; 1459,814;    2,637;    2,682
882,332; 2081,018;    3,365;    5,136
882,891; 1496,404;    3,092;    2,136
883,451; 1520,971;   -1,272;    1,682
884,010; 1401,175;   -2,908;   -0,409
884,569; 1372,106;   -0,999;   -0,045
885,128; 1590,765;    2,819;   -1,864
885,687; 1901,423;    4,455;    0,682
886,246; 2074,445;    1,455;    2,136
886,805; 1750,922;    2,455;    2,045
887,364; 1429,489;   -0,999;   -0,500
887,922; 1348,966;   -1,181;    0,045
888,481; 1487,897;   -1,545;    0,591
889,040; 1659,373;    1,183;    2,136
889,599; 1533,305;    2,455;    1,409
890,157; 1529,145;    1,455;    2,409
890,716; 1428,439;   -0,090;    0,227
891,274; 1524,371;    0,092;   -1,136
891,833; 1634,211;    1,546;    0,864
892,391; 1429,778;   -0,454;    0,500
892,950; 1630,528;    1,819;   -0,773
893,508; 1444,368;    0,455;   -0,409
894,067; 1281,844;    0,637;    0,136
894,625; 1388,139;   -0,636;   -1,500
895,183; 1369,797;   -0,363;   -0,682
895,741; 1700,729;    1,728;   -1,773
896,299; 1461,932;   -0,545;   -2,409
896,858; 1373,773;    0,819;   -1,591
897,416; 1510,613;    2,728;   -1,318
897,974; 1429,271;    1,819;    0,318
898,532; 1931,111;    6,091;    2,682
899,089; 1574,952;    2,091;   -0,682
899,647; 1455,883;   -1,454;    1,318
900,205; 1500,632;    1,182;    1,045
900,763; 1515,200;   -0,454;    0,227
901,321; 1470,131;    2,364;   -1,409
901,878; 1255,789;   -1,000;   -0,773
902,436; 1318,357;   -1,363;    1,318
902,994; 2165,651;    4,728;    3,682
903,551; 1634,673;    0,728;    0,409
904,109; 1513,241;    0,182;   -1,409
904,666; 1447,263;    2,455;    1,045
905,224; 1312,830;    0,182;   -0,409
905,781; 1467,216;    0,727;   -0,318
906,338; 1380,329;   -1,363;    1,045
906,895; 1258,169;    0,637;    2,045
907,453; 1557,009;    1,727;    1,136
908,010; 1399,668;   -0,909;    0,409
908,567; 1330,326;    1,273;    0,591
909,124; 1130,894;    0,364;   -1,500
909,681; 1191,370;   -2,909;    0,682
910,238; 1287,210;    0,636;   -1,318
910,795; 1271,232;   -0,273;   -1,136
911,352; 1250,687;   -2,909;   -2,682
911,909; 1247,323;   -1,364;   -0,864
912,466; 1295,232;   -3,182;    1,500
913,022; 1300,960;   -1,636;    0,500
913,579; 1432,141;   -0,909;    2,045
914,136; 1289,687;    1,636;    0,955
914,692; 1360,414;    0,091;   -1,227
915,249; 1281,596;    1,455;    0,409
915,806; 1367,687;    0,182;    1,955
916,362; 1281,596;    1,909;    1,864
916,918; 1172,596;    2,000;    1,045
917,475; 1409,596;   -1,182;    0,955
918,031; 1198,869;    3,364;   -0,045
918,587; 1260,596;   -0,909;   -0,318
919,144; 1189,051;   -2,273;    0,227
919,700; 1142,869;    1,727;    0,773
920,256; 1107,051;    0,727;    0,045
920,812; 1130,141;   -0,727;   -1,045
921,368; 1105,505;   -1,727;   -1,045
921,924; 1065,778;    0,182;   -0,136
922,480; 1173,778;   -0,545;    1,227
923,036; 1212,141;    1,273;    1,955
923,592; 1115,414;    0,455;    0,318
924,148; 1149,960;    0,455;   -0,955
924,704; 1282,596;   -1,364;   -0,409
925,259; 1120,596;   -0,273;    0,591
925,815; 1070,051;    1,455;    0,500
926,371; 1024,323;    2,909;    1,409
926,926; 1173,687;    2,091;    0,591
927,482; 1135,687;   -1,364;    0,773
928,037; 1069,232;    0,909;    2,045
928,593; 1291,051;    1,636;    1,045
929,148; 1026,323;   -1,818;   -1,500
929,704; 1081,414;   -1,455;   -0,500
930,259;  957,141;    0,091;   -0,136
930,814; 1172,505;   -0,818;    1,955
931,369; 1088,323;    1,091;   -0,773
931,925;  860,778;   -0,091;    0,136
932,480;  979,960;   -2,818;   -2,591
933,035; 1391,141;    0,545;   -0,318
933,590; 1263,141;    0,364;   -1,773
934,145;  820,232;   -1,364;   -0,318
934,700;  725,323;    0,455;   -0,591
935,255;  811,414;   -0,091;    0,045
935,809; 1147,960;    3,182;    0,864
936,364;  732,687;   -0,455;   -0,136
936,919;  753,778;    0,455;   -1,773
937,474;  653,141;    1,455;    0,136
938,028;  691,232;   -1,636;    1,136
938,583; 1105,778;    1,818;    4,682
939,138;  737,323;    2,091;    2,136
939,692;  580,778;    1,636;   -1,136
940,247;  629,687;   -0,727;   -1,045
940,801;  706,960;   -0,636;    0,227
941,355;  589,414;   -0,364;    2,591
941,910;  469,323;   -0,273;   -2,136
942,464;  514,869;   -0,818;   -0,318
943,018;  796,323;    1,000;   -0,227
943,572;  607,414;    2,545;   -0,682
944,126;  656,687;    0,091;   -0,409
944,681;  522,505;    3,091;    0,227
945,235;  461,778;    1,000;   -0,591
945,789;  412,960;    0,364;   -1,864
946,342;  749,232;    0,455;   -0,591
946,896;  479,141;   -2,273;    0,955
947,450;  450,869;    1,545;   -0,227
948,004;  727,596;    1,727;   -0,045
948,558;  503,687;    0,273;   -0,864
949,111;  500,778;   -0,273;   -0,318
949,665;  732,414;    1,636;   -0,682
950,219;  677,232;   -0,091;   -1,045
950,772;  587,960;   -1,909;    1,864
951,326;  579,869;    0,545;   -0,955
951,879;  494,323;    0,727;   -2,318
952,433;  651,414;    0,000;    2,227
952,986;  469,323;    2,909;    0,682
953,539;  410,323;   -0,273;    0,591
954,093;  354,778;    0,545;   -1,318
954,646;  518,051;    0,909;    1,318
955,199;  433,778;    0,000;   -0,500
955,752;  647,505;   -0,455;    1,773
956,305;  487,596;   -0,091;    2,955
956,858;  545,414;    0,818;   -0,318
957,411;  611,869;   -0,545;    2,136
957,964;  495,778;    1,364;    2,136
958,517;  421,232;   -1,545;    3,136
959,070;  369,869;   -0,455;    1,955
959,623;  669,505;    1,091;    1,500
960,176;  609,232;    1,727;    2,045
960,728;  579,505;   -2,727;    0,773
961,281;  508,596;    0,545;    0,500
961,834;  424,778;   -0,909;    0,864
962,386;  432,414;    1,727;    1,045
962,939;  389,596;    0,364;   -0,318
963,491;  441,960;    0,455;    1,136
964,043;  373,960;    1,182;    2,409
964,596;  580,505;   -1,000;    2,227
965,148;  469,323;   -1,000;    1,773
965,700;  368,960;    1,091;   -0,227
966,253;  546,596;   -0,636;    0,318
966,805;  512,051;   -2,273;    0,773
967,357;  427,141;    1,091;   -1,500
967,909;  557,051;    0,455;   -1,227
968,461;  420,051;    0,545;    3,136
969,013;  375,141;   -0,182;   -0,864
969,565;  536,232;   -0,455;   -1,136
970,117;  807,414;   -0,364;    1,045
970,669;  539,051;    0,182;   -0,136
971,220;  320,414;   -0,455;   -1,500
971,772;  422,323;   -0,636;   -0,318
972,324;  528,596;    0,091;   -0,500
972,876;  422,960;    0,818;   -0,045
973,427;  560,960;    1,909;   -1,045
973,979;  628,232;   -0,727;   -2,500
974,530;  406,505;    1,818;    1,318
975,082;  474,141;   -0,545;    1,682
975,633;  409,141;    1,091;    1,682
976,184;  492,051;    0,909;    0,773
976,736;  479,960;    0,091;    0,227
977,287;  488,051;   -0,909;   -0,500
977,838;  448,687;    0,909;   -0,318
978,389;  462,141;   -1,000;   -0,500
978,940;  312,505;    0,545;   -0,409
979,491;  307,141;    0,091;   -0,500
980,042;  416,141;    0,182;    3,045
980,593;  418,778;   -2,545;    0,227
981,144;  529,596;    2,545;   -0,500
981,695;  575,687;    1,455;    1,500
982,246;  513,778;   -0,273;    1,045
982,797;  361,051;   -1,727;    0,682
983,347;  527,414;    0,364;    0,591
983,898;  747,051;    3,091;    0,409
984,449;  699,596;    2,182;    0,773
984,999;  519,414;    1,455;   -1,136
985,550;  477,596;    0,182;   -0,318
986,100;  318,687;   -0,455;   -0,318
986,651;  313,232;   -0,818;    0,045
987,201;  357,687;   -1,000;   -0,591
987,751;  366,778;    0,818;    2,864
988,302;  417,323;    2,636;    1,500
988,852;  462,323;    0,455;   -1,136
989,402;  539,869;    0,091;    0,682
989,952;  561,687;   -2,182;    0,864
990,502;  390,141;   -0,091;    0,682
991,052;  284,596;   -0,727;    0,045
991,602;  339,596;   -2,909;    1,318
992,152;  400,778;    0,455;    0,682
992,702;  434,596;    1,364;   -0,045
993,252;  372,687;   -3,000;   -0,500
993,802;  484,778;   -0,273;    1,318
994,352;  428,960;   -1,545;    1,136
994,901;  326,232;   -0,182;    3,227
995,451;  323,687;   -0,182;    0,318
996,000;  362,141;    1,636;    0,318
996,550;  374,960;    2,273;    0,227
997,100;  416,505;    1,273;   -0,045
997,649;  565,414;    2,182;    0,955
998,198;  368,960;    1,727;   -1,500
998,748;  495,414;    1,091;   -2,318
999,297;  416,141;   -0,818;   -0,409
999,846;  562,778;    1,000;   -0,773
1000,395;  468,778;   -0,818;    0,500
1000,945;  590,232;    1,818;   -0,773
1001,494;  589,596;    2,364;    0,682
1002,043;  568,869;    4,636;    0,864
1002,592;  366,505;   -1,091;    1,955
1003,141;  367,596;   -0,455;   -0,682
1003,690;  533,596;    1,727;    0,500
1004,238;  406,960;    1,455;   -0,045
1004,787;  317,051;    1,364;    1,227
1005,336;  515,869;    0,364;    0,682
1005,885;  451,596;    1,364;   -2,773
1006,433;  445,414;    0,545;    0,955
1006,982;  651,960;    0,455;    1,682
1007,531;  479,414;   -1,818;   -0,227
1008,079;  429,414;   -2,273;    0,500
1008,627;  372,414;   -1,455;    0,409
1009,176;  395,323;    0,000;   -1,955
1009,724;  341,778;    1,091;    0,864
1010,273;  496,960;    1,273;    0,500
1010,821;  371,414;    0,091;    1,409
1011,369;  334,687;   -1,364;    1,318
1011,917;  362,687;   -1,364;   -0,591
1012,465;  447,687;    1,273;   -1,591
1013,013;  434,596;    2,091;   -1,682
1013,561;  543,596;    0,455;   -0,773
1014,109;  648,323;   -1,909;    1,682
1014,657;  506,051;    0,364;    0,591
1015,205;  384,687;    1,636;   -0,955
1015,753;  329,232;   -0,545;   -1,409
1016,301;  418,232;   -2,636;    3,045
1016,848;  505,323;   -1,273;    0,409
1017,396;  505,051;    2,545;    0,045
1017,944;  497,778;    1,182;    1,864
1018,491;  393,323;    0,273;    1,409
1019,039;  732,596;    0,455;    0,591
1019,586;  472,778;   -1,364;    1,682
1020,134;  449,960;    0,455;    1,500
1020,681;  536,960;    0,182;   -1,136
1021,228;  438,505;    2,909;   -2,227
1021,776;  419,505;    1,182;   -1,136
1022,323;  651,323;    0,455;    0,773
1022,870;  559,869;   -1,000;   -0,045
1023,417;  618,778;    2,636;    1,864
1023,964;  421,960;    2,636;    1,227
1024,511;  398,505;    1,000;    0,773
1025,058;  425,869;    3,182;   -0,045
1025,605;  385,960;   -2,273;    3,136
1026,152;  618,051;    1,727;   -0,591
1026,699;  462,778;    1,818;    1,318
1027,245;  444,869;   -0,091;    0,318
1027,792;  367,414;   -1,000;    1,409
1028,339;  605,414;    2,364;   -0,045
1028,885;  458,323;    1,000;   -0,227
1029,432;  405,869;   -0,091;    0,227
1029,978;  527,323;   -1,000;   -1,591
1030,525;  521,960;    1,000;    0,409
1031,071;  381,323;   -1,364;    1,136
1031,618;  689,323;    0,364;    1,682
1032,164;  507,778;   -0,091;    3,045
1032,710;  552,051;    1,636;   -1,500
1033,256;  506,414;   -0,636;   -0,136
1033,803;  354,596;   -0,545;    1,500
1034,349;  219,141;   -1,364;    0,136
1034,895;  273,414;    0,000;   -0,318
1035,441;  348,141;   -0,818;    0,318
1035,987;  403,505;   -2,364;   -0,682
1036,533;  481,051;   -1,455;   -0,955
1037,078;  681,687;    1,455;    1,682
1037,624;  520,232;    2,455;   -0,955
1038,170;  389,414;    0,455;   -0,318
1038,716;  471,596;    1,636;   -0,409
1039,261;  344,505;   -2,273;   -0,773
1039,807;  365,778;   -0,091;    3,409
1040,352;  397,505;   -1,909;   -0,318
1040,898;  391,505;   -1,545;   -0,682
1041,443;  306,414;   -1,455;   -2,591
1041,989;  621,414;    1,091;    1,591
1042,534;  409,232;   -0,364;    2,591
1043,079;  300,596;    2,909;    0,955
1043,625;  415,414;    1,818;    0,500
1044,170;  431,960;   -1,364;    1,045
1044,715;  637,141;    2,455;    0,955
1045,260;  528,232;    2,182;   -0,955
1045,805;  363,687;    1,182;   -0,591
1046,350;  324,323;    1,364;   -0,409
1046,895;  522,323;    2,909;    1,591
1047,440;  518,687;    5,364;    0,409
1047,985;  377,323;    2,818;   -0,955
1048,530;  342,687;    1,545;    1,227
1049,074;  410,687;    0,000;    0,318
1049,619;  343,778;   -1,364;    1,955
1050,164;  333,778;    0,455;    0,227
1050,708;  419,778;   -0,455;    0,045
1051,253;  679,141;    1,273;   -2,227
1051,797;  464,414;    0,818;   -1,318
1052,342;  283,414;   -1,182;    1,045
1052,886;  395,232;    0,364;   -1,409
1053,430;  271,505;   -1,364;    0,136
1053,975;  372,232;   -0,818;   -0,318
1054,519;  384,323;   -0,727;    3,227
1055,063;  453,960;    0,909;    1,318
1055,607;  432,596;   -0,182;    0,227
1056,151;  425,960;    2,909;    1,682
1056,695;  338,323;    2,273;   -1,136
1057,239;  338,141;   -1,727;   -0,682
1057,783;  384,869;    0,818;   -1,500
1058,327;  454,778;    0,000;    1,409
1058,871;  601,960;   -0,545;    1,318
1059,415;  465,051;   -0,818;   -0,045
1059,958;  627,051;    1,455;    2,591
1060,502;  386,778;   -1,000;   -0,773
1061,046;  273,596;    0,364;   -0,955
1061,589;  262,687;   -3,000;   -1,136
1062,133;  228,960;   -1,273;    1,864
1062,676;  274,051;    1,182;    0,864
1063,220;  310,778;    1,091;    0,500
1063,763;  343,960;    0,909;    1,136
1064,306;  374,778;   -0,909;    1,864
1064,849;  369,232;   -0,909;    0,591
1065,393;  344,414;    2,000;   -1,500
1065,936;  353,687;    0,182;   -0,409
1066,479;  262,323;   -1,455;    1,318
1067,022;  289,596;   -0,273;   -0,227
1067,565;  257,960;   -0,091;   -1,318
1068,108;  233,778;    0,727;   -0,591
1068,651;  202,051;   -0,636;    1,409
1069,194;  212,141;   -0,455;   -1,682
1069,736;  243,232;   -1,273;    0,955
1070,279;  214,960;   -1,364;   -0,500
1070,822;  306,232;   -2,000;   -0,318
1071,364;  438,778;   -0,364;    1,318
1071,907;  282,323;   -0,727;    3,227
1072,450;  136,960;    0,000;   -0,045
1072,992;  218,505;   -0,273;    3,136
1073,535;  303,960;    2,091;    2,136
1074,077;  209,414;   -0,727;    2,045
1074,619;  206,141;   -1,364;    0,591
1075,161;  242,141;   -1,091;    1,500
1075,704;  366,505;    1,545;    1,227
1076,246;  225,051;   -0,182;    0,682
1076,788;  156,414;   -0,364;    1,773
1077,330;  159,960;    1,273;    2,136
1077,872;  208,323;    0,909;    0,955
1078,414;  390,232;    2,727;    0,773
1078,956;  238,505;    1,273;   -0,227
1079,498;  384,960;    1,636;    0,318
1080,040;  240,505;    1,909;   -1,318
1080,581;  197,051;    1,636;   -0,318
1081,123;  134,778;    0,091;   -0,773
1081,665;  152,414;   -1,182;   -0,955
1082,206;  349,323;    1,364;   -0,500
1082,748;  260,778;    0,727;    2,045
1083,289;  168,505;   -2,000;    1,318
1083,831;  160,596;   -0,545;    0,227
1084,372;  208,596;    0,000;    0,591
1084,913;  208,414;    1,091;    0,864
1085,455;  150,687;   -1,909;   -2,045
1085,996;  152,414;   -2,273;    0,136
1086,537;  188,323;   -0,091;    0,864
1087,078;  194,505;   -0,909;   -2,136
1087,619;  249,323;   -1,273;    0,227
1088,160;  207,051;    0,000;    1,318
1088,701;  181,323;   -1,091;    0,682
1089,242;  161,232;    1,364;   -2,227
1089,783;  217,596;   -0,273;    1,409
1090,324;  199,960;    0,455;    0,682
1090,865;  144,323;    2,727;   -0,409
1091,405;  110,596;    0,727;    2,227
1091,946;  155,778;    0,182;   -0,955
1092,487;  104,687;    0,818;   -1,409
1093,027;  221,505;   -1,364;   -1,500
1093,568;  150,141;   -0,364;    1,227
1094,108;  196,232;    0,273;    1,773
1094,649;  159,051;   -1,182;    0,136
1095,189;  128,687;   -0,636;   -0,682
1095,729;  123,414;   -0,091;    0,955
1096,269;  109,778;    0,727;   -0,955
1096,810;  276,051;   -1,364;    0,500
1097,350;  210,323;    1,364;   -0,773
1097,890;  154,141;    0,364;    1,227
1098,430;  326,232;    2,364;    2,864
1098,970;  257,323;    2,182;    1,682
1099,510;  140,141;    0,545;   -2,318
1100,050;  124,051;    1,000;   -1,591
1100,589;  130,869;   -0,727;   -0,318
1101,129;  182,960;    0,818;   -0,955
1101,669;  273,323;    1,727;    2,136
1102,209;  188,778;   -0,091;    2,227
1102,748;  153,869;    0,000;    0,955
1103,288;  163,778;    1,273;   -1,227
1103,827;  154,232;    3,091;   -2,227
1104,367;  113,596;   -0,091;   -2,409
1104,906;  113,232;    1,364;   -1,136
1105,445;  162,141;    0,636;   -1,136
1105,985;  133,596;   -0,727;    1,500
1106,524;  146,778;   -1,727;   -0,682
1107,063;  137,323;   -2,727;    1,409
1107,602;  108,505;   -1,909;   -1,500
1108,141;   89,323;   -1,909;    1,500
1108,680;  155,869;   -3,455;   -0,591
1109,219;  127,778;   -0,909;   -0,500
1109,758;  119,141;    0,455;    0,682
1110,297;  116,323;    1,000;   -0,682
1110,836;   85,596;   -0,727;    0,955
1111,375;  127,323;   -2,545;    0,409
1111,913;  161,505;   -1,000;    0,773
1112,452;  136,141;   -0,273;    0,136
1112,991;   88,596;    1,091;    1,955
1113,529;   86,141;   -0,818;   -0,045
1114,068;  114,323;   -0,273;    2,955
1114,606;   79,232;   -0,364;   -0,955
1115,144;  149,596;   -1,273;    1,045
1115,683;  117,323;   -0,727;    0,318
1116,221;  146,869;   -0,455;   -0,864
1116,759;   97,778;    0,636;   -0,864
1117,297;  186,232;    0,000;    1,864
1117,836;  102,414;   -2,182;   -1,227
1118,374;  103,778;    0,182;   -0,682
1118,912;  102,596;    0,909;    2,682
1119,450;  103,323;    1,000;    0,864
1119,988;  105,596;    1,545;    2,136
1120,525;  371,051;    5,091;    3,318
1121,063;  202,414;    1,182;    1,864
1121,601;  105,596;   -0,909;   -1,227
1122,139;   83,960;   -0,727;   -2,045
1122,676;  187,687;   -0,727;    2,773
1123,214;  161,505;   -1,182;    4,409
1123,751;   75,596;    1,727;    2,227
1124,289;  117,141;   -0,091;   -0,409
1124,826;   83,687;    1,727;    0,227
1125,364;   47,232;    1,727;   -0,955
1125,901;  152,141;    1,182;    1,227
1126,438;  162,869;    0,818;    0,955
1126,975;   50,051;   -0,727;   -0,773
1127,513;   78,687;    0,273;    2,136
1128,050;   52,232;    1,636;   -0,682
1128,587;   86,051;    2,000;   -0,227
1129,124;  112,505;    0,091;    1,318
1129,661;   59,869;    0,273;    0,227
1130,198;  137,232;    1,636;    0,773
1130,734;   99,505;    0,182;    1,409
1131,271;   47,505;   -0,909;    0,864
1131,808;  114,778;    2,909;    3,045
1132,345;   67,232;    1,545;    0,318
1132,881;   22,141;   -1,545;   -1,864
1133,418;   76,869;    0,727;   -1,136
1133,954;   53,414;    2,455;   -2,682
1134,491;   89,869;    1,364;   -0,773
1135,027;   51,232;    2,364;    0,864
1135,564;   80,869;    0,273;    2,955
1136,100;   76,505;    0,364;    2,136
1136,636;   37,505;   -1,273;   -1,045
1137,172;   65,232;    0,000;   -1,045
1137,708;   47,596;   -1,364;   -1,045
1138,245;   39,960;    1,273;   -1,227
1138,781;   29,141;    1,091;   -3,318
1139,317;   50,323;    1,273;   -1,409
1139,852;   57,869;    3,091;    0,136
1140,388;   88,687;   -1,182;   -0,409
1140,924;   50,596;   -1,091;   -2,227
1141,460;   30,414;   -1,636;    0,136
1141,996;   16,869;   -1,364;    2,682
1142,531;   29,141;    1,364;    3,318
1143,067;  109,596;    1,182;    1,045
1143,602;  141,141;   -0,091;   -0,318
1144,138;   75,687;   -2,636;    1,045
1144,673;   28,687;   -1,455;    1,409
1145,209;   48,051;   -1,909;   -0,318
1145,744;   20,505;   -0,727;    0,864
1146,279;   68,505;    1,818;   -0,136
1146,815;   43,505;    1,545;   -2,682
1147,350;   54,869;   -1,364;    0,045
1147,885;   28,596;   -0,818;   -1,318
1148,420;   29,869;   -2,273;    0,773
1148,955;   27,414;   -1,727;    1,864
1149,490;   27,596;   -0,909;   -1,591
1150,025;   18,414;    0,455;   -1,773
1150,560;   60,051;    1,091;   -0,955
1151,094;   49,778;    1,455;   -0,591
1151,629;   45,051;    1,636;    0,864
1152,164;   28,414;    1,364;    1,318
1152,698;   23,687;   -0,182;   -0,136
1153,233;   11,323;    0,091;   -0,682
1153,767;   22,596;   -3,000;   -2,318
1154,302;   33,869;   -1,455;    1,773
1154,836;   34,960;   -0,455;   -2,136
1155,371;   49,596;   -1,364;    3,682
1155,905;   28,869;   -0,636;    1,682
1156,439;   32,051;   -0,636;   -0,500
1156,973;   42,141;    0,364;    0,318
1157,507;   19,505;   -0,364;    0,682
1158,042;   26,778;   -0,727;    1,045
1158,576;   41,051;    0,182;    1,773
1159,110;   39,596;   -0,818;    2,409
1159,643;   26,687;    0,636;   -0,045
1160,177;   13,141;   -1,545;    1,500

