
Integration time [ms]:   0,040
Averaging Nr. [scans]: 11
Smoothing Nr. [pixels]: 0
Data measured with spectrometer [name]: 7318044SP
Wave   ;Sample   ;Dark     ;Reference
[nm]   ;[counts] ;[counts] ;[counts] 

186,757;   36,627;   31,551;    1,318
187,357;   43,949;   22,551;    0,955
187,958;   29,889;   15,460;   -1,591
188,558;   42,338;    8,915;   -1,227
189,159;   22,793;    6,733;   -4,500
189,759;   16,600;    7,278;   -3,591
190,360;   16,146;    2,824;   -2,136
190,960;   28,861;    2,915;   -4,136
191,560;   29,226;    3,189;   -6,591
192,161;  145,068;    4,372;   -3,500
192,761;   77,462;    4,010;   -3,227
193,361;   52,397;    1,556;   -3,773
193,962;   73,684;    2,010;   -2,682
194,562;   29,736;    1,189;   -3,955
195,162;   27,799;   -2,448;   -2,227
195,762;   99,568;   -3,176;   -0,045
196,362;   70,032;    1,370;   -2,500
196,963;   22,358;    2,006;   -0,864
197,563;   50,255;    1,551;   -0,955
198,163;   24,460;    0,096;   -0,682
198,763;   34,138;    1,733;   -0,500
199,363;   58,888;    3,096;   -0,500
199,963;   46,519;    0,369;    0,409
200,563;   40,722;    2,823;   -1,409
201,163;   27,949;    3,277;   -0,227
201,763;   53,089;    3,732;    0,318
202,363;   36,434;    1,459;    1,500
202,963;   61,574;    1,459;    1,045
203,563;  102,666;    0,277;    0,500
204,162;   51,427;    2,096;   -1,864
204,762;   46,696;    0,550;    0,591
205,362;   31,642;    3,004;    1,955
205,962;   61,032;    3,096;    1,955
206,562;   54,206;    1,823;    2,318
207,161;   38,512;   -0,087;    0,318
207,761;  122,208;    1,277;    2,409
208,361;   60,444;   -0,268;    1,409
208,960;   85,169;    0,459;    1,500
209,560;   81,539;    1,277;    1,591
210,160;   99,695;    0,550;    1,864
210,759;   78,159;    4,186;    1,227
211,359;   64,483;    1,459;    1,045
211,958;  196,447;    1,277;    2,045
212,558;  216,761;    1,732;    1,864
213,157;  133,778;    1,822;    1,500
213,757;  330,897;    3,822;   -0,227
214,356;  179,220;    1,277;   -0,409
214,956;  319,338;    3,095;    0,409
215,555;  152,938;    2,095;    2,136
216,154;  116,941;   -2,723;   -0,591
216,754;  115,743;    0,277;    0,773
217,353;  147,382;   -0,268;   -1,045
217,952;   61,384;   -0,178;    0,318
218,552;  185,120;    1,368;   -0,773
219,151;  120,768;    0,277;    0,955
219,750;  115,114;    0,004;   -0,227
220,349;  104,522;   -0,451;    1,045
220,948;  217,730;   -1,360;    1,136
221,548;  137,433;    0,913;    1,227
222,147;  180,576;   -0,087;   -0,409
222,746;  332,887;   -0,451;   -0,955
223,345;  231,201;    0,731;    0,500
223,944;  232,313;   -0,451;    0,773
224,543;  259,931;    1,004;   -1,409
225,142;  283,184;    0,094;    0,136
225,741;  263,005;   -0,814;    1,045
226,340;  244,777;   -0,451;   -0,955
226,939;  410,195;   -0,996;   -0,136
227,538;  245,801;   -0,360;   -0,773
228,137;  407,398;   -0,814;    0,864
228,735;  352,663;   -0,541;    1,227
229,334;  224,282;   -0,905;   -0,227
229,933;  450,578;    0,459;    0,591
230,532;  480,841;    1,186;   -0,409
231,131;  568,958;    1,732;    0,318
231,729;  438,627;   -2,450;   -2,318
232,328;  356,690;   -0,723;   -1,500
232,927;  374,906;    1,004;   -0,500
233,525;  356,714;    3,640;    0,045
234,124;  423,020;    2,368;   -1,591
234,723;  323,450;    0,913;   -1,045
235,321;  332,581;    2,277;    0,136
235,920;  403,908;    1,186;   -1,227
236,518;  596,948;    3,459;    0,318
237,117;  401,348;    0,004;   -0,227
237,715;  414,834;    0,640;   -0,500
238,314;  499,957;   -0,087;   -2,318
238,912;  667,323;   -0,723;   -1,409
239,510;  523,017;    0,459;   -1,227
240,109;  676,296;    0,004;    3,773
240,707;  622,608;   -0,996;    1,227
241,305;  447,033;    0,550;    0,136
241,904;  596,033;   -0,178;   -2,045
242,502;  716,967;   -0,632;   -0,227
243,100;  591,453;   -0,087;   -0,955
243,698;  530,030;    0,732;    1,682
244,297;  572,927;   -0,632;    0,682
244,895;  576,656;   -0,269;   -2,318
245,493;  806,191;    2,186;   -0,591
246,091;  786,246;    1,368;   -1,318
246,689;  725,601;    1,004;    0,591
247,287;  673,499;    0,822;   -1,136
247,885;  636,302;   -1,451;    1,227
248,483;  593,306;    1,822;   -0,500
249,081;  694,277;    0,185;    1,591
249,679;  755,792;   -0,178;    1,682
250,277;  594,608;   -1,723;    0,864
250,875;  757,098;   -1,087;   -1,045
251,473;  633,722;   -1,178;    0,500
252,071;  762,124;    1,459;    1,045
252,669;  667,858;   -1,814;    0,318
253,267;  604,233;   -0,087;    0,773
253,864;  644,226;   -0,360;    0,682
254,462;  856,641;    1,640;    1,591
255,060;  588,963;   -0,269;    1,318
255,658;  577,858;    0,822;   -0,136
256,255;  720,490;    0,186;   -2,045
256,853;  752,575;   -0,269;    1,409
257,451;  715,447;    0,822;    1,864
258,048; 1235,223;    1,822;    1,864
258,646;  856,451;    1,731;   -1,045
259,243;  981,030;   -0,087;    2,227
259,841;  846,136;   -0,814;    0,318
260,438;  664,490;   -0,087;    0,864
261,036;  829,575;   -1,905;    1,409
261,633;  718,693;   -0,087;    2,227
262,231;  659,472;    2,731;   -0,045
262,828;  683,698;   -0,905;    1,136
263,425;  744,025;    0,913;   -0,591
264,023;  753,599;    0,186;    0,045
264,620;  922,070;   -0,360;   -0,318
265,217; 1071,321;   -2,087;    3,136
265,815;  745,078;   -1,905;    2,136
266,412;  898,156;    0,731;    0,136
267,009;  942,711;   -1,451;    0,773
267,606; 1046,633;    0,822;   -0,955
268,203;  785,884;   -0,269;   -0,591
268,801;  858,034;    1,731;    0,591
269,398;  761,785;   -0,360;    2,500
269,995;  945,334;    0,277;    1,591
270,592;  837,285;   -0,632;   -0,500
271,189;  753,424;    0,186;    0,409
271,786;  738,763;   -0,632;    1,227
272,383; 1037,046;   -1,087;    0,227
272,980;  853,907;    0,277;    0,318
273,577;  818,730;    0,004;    1,227
274,174;  736,858;    0,822;    2,591
274,771;  890,585;   -0,814;   -0,773
275,367; 1361,813;    2,277;    1,409
275,964; 1155,646;    0,731;   -0,500
276,561;  906,610;    1,549;   -1,045
277,158;  821,428;    0,095;   -1,773
277,755; 1119,731;    2,185;    0,409
278,351;  927,079;   -0,451;   -1,500
278,948; 1024,811;   -0,815;    0,045
279,545;  922,259;   -1,360;    2,318
280,141; 1240,777;   -1,723;   -2,045
280,738; 1107,659;   -0,451;   -0,136
281,334;  880,785;   -1,633;    0,591
281,931;  900,149;   -0,087;   -1,318
282,528; 1015,110;    0,822;   -0,500
283,124; 1156,641;   -1,087;   -0,500
283,721; 1136,297;   -0,451;    1,409
284,317;  942,617;    0,185;    2,500
284,913; 1198,129;   -1,360;    0,591
285,510; 1528,948;    0,640;   -0,318
286,106; 1303,563;   -2,269;   -0,955
286,703;  966,965;   -0,360;    1,955
287,299;  924,136;   -1,451;   -0,591
287,895;  936,619;    0,822;   -1,045
288,491;  964,967;    0,186;    2,136
289,088; 1089,221;   -2,360;    2,409
289,684; 1138,222;   -1,723;    1,500
290,280; 1314,388;    0,368;    0,682
290,876; 1278,605;    1,822;    5,500
291,472; 1141,703;    1,276;    2,227
292,068; 1159,126;    1,367;    0,227
292,665;  965,773;    2,095;    0,773
293,261;  836,895;    0,276;    2,136
293,857; 1072,463;    2,913;    2,136
294,453;  980,842;    3,550;    0,955
295,049; 1219,115;   -0,268;    1,955
295,644; 1021,982;    0,095;    0,136
296,240;  877,019;   -0,905;   -0,136
296,836; 1056,108;   -0,995;    0,318
297,432; 1221,688;    1,096;   -0,500
298,028; 1279,875;    0,732;    0,773
298,624; 1103,770;    1,459;    1,864
299,220; 1080,964;    2,368;    0,591
299,815; 1038,707;    1,005;   -0,409
300,411; 1166,842;    0,914;    1,773
301,007; 1314,577;    1,368;    0,227
301,602; 1109,486;   -0,541;   -2,318
302,198; 1243,675;    0,732;   -0,773
302,794; 1068,755;    1,187;   -0,500
303,389; 1047,780;   -1,177;    1,045
303,985; 1125,166;    0,550;    1,409
304,580; 1233,201;    1,459;    1,591
305,176; 1106,657;   -3,086;    0,136
305,771;  980,554;   -1,268;   -1,227
306,367; 1435,246;    4,095;    0,136
306,962; 1190,304;    0,641;    1,500
307,558; 1172,116;   -0,450;    0,136
308,153; 1287,211;    1,095;   -1,136
308,748; 1064,522;   -0,814;    1,682
309,344; 1495,339;   -0,632;   -1,318
309,939; 1539,631;   -1,905;   -1,318
310,534; 1180,758;   -0,086;   -1,682
311,130; 1101,990;    0,459;   -2,500
311,725; 1019,421;    1,004;   -0,500
312,320; 1124,772;    2,459;    0,045
312,915; 1279,312;    1,459;   -1,045
313,510; 1506,341;    1,550;   -0,500
314,105; 1248,611;    1,096;    1,409
314,700; 1006,314;   -3,086;   -1,045
315,295; 1093,201;   -0,904;    0,045
315,890;  984,014;    1,277;    0,864
316,485; 1112,074;   -0,359;   -0,318
317,080; 1051,411;   -3,086;    1,591
317,675; 1418,235;    2,005;   -0,682
318,270; 1595,354;    5,550;    3,318
318,865; 1511,618;    3,278;    3,045
319,460; 1287,301;   -0,904;    0,591
320,055; 1153,813;   -0,541;   -1,227
320,650; 1106,768;   -1,995;   -0,591
321,244; 1124,763;   -0,177;   -1,409
321,839; 1264,975;   -1,541;   -0,227
322,434; 1307,591;   -1,086;   -1,591
323,029; 1167,944;    1,732;    1,591
323,623; 1103,249;    1,550;    0,773
324,218; 1257,158;    2,368;    1,409
324,812; 1186,127;    1,096;    1,591
325,407; 1190,210;   -0,814;    2,045
326,002; 1295,497;    0,277;   -0,409
326,596; 1247,380;    0,914;    1,318
327,191; 1100,091;    0,823;   -1,045
327,785; 1023,198;   -0,813;   -0,227
328,379; 1121,185;    1,368;    0,136
328,974; 1127,370;    0,914;   -3,955
329,568; 1186,592;    0,186;   -2,409
330,163; 1251,599;    2,096;    1,045
330,757; 1113,551;    2,459;    1,591
331,351; 1024,098;    0,459;    0,682
331,945; 1041,292;    0,914;    1,409
332,540; 1191,015;   -1,723;   -0,591
333,134; 1171,747;   -1,086;    0,773
333,728; 1140,649;    0,005;    0,318
334,322; 1065,444;   -1,177;   -0,864
334,916;  976,927;    0,277;    0,955
335,510; 1198,720;   -0,450;   -0,136
336,105; 1227,182;   -1,086;    1,591
336,699; 1073,041;   -1,086;    0,591
337,293; 1094,362;   -1,723;    0,318
337,887; 1033,684;   -2,723;    1,955
338,481; 1219,010;    0,459;    0,591
339,074; 1360,737;   -0,359;    2,682
339,668; 1307,783;   -1,632;    1,227
340,262; 1985,849;    1,732;    3,227
340,856; 1489,280;    1,822;   -0,682
341,450; 1055,989;    1,004;    1,864
342,044; 1170,816;    1,459;    0,136
342,637; 1342,114;    0,913;   -2,136
343,231; 1366,180;   -2,360;    0,682
343,825; 1153,669;   -1,086;   -0,591
344,419; 1134,342;   -1,995;    0,500
345,012; 1753,542;    2,459;    4,045
345,606; 1534,398;    4,641;    1,591
346,199; 1162,656;   -1,813;   -0,227
346,793; 1298,429;    1,914;    2,045
347,386; 1088,115;   -0,813;   -1,136
347,980;  928,059;   -0,268;   -0,045
348,573; 1070,104;    2,278;    0,409
349,167; 1367,860;    5,278;    4,773
349,760; 1305,243;    2,914;    2,682
350,354; 1215,762;   -0,813;    1,136
350,947; 1274,213;    1,096;    1,682
351,540; 1053,017;   -0,358;   -1,409
352,134;  898,519;    1,096;    1,136
352,727;  950,654;   -0,086;    1,136
353,320;  985,563;    0,005;    0,591
353,913;  873,707;   -1,995;    1,864
354,507; 1138,113;    0,823;   -1,227
355,100; 1017,335;    0,460;    0,864
355,693; 1453,753;    2,005;    2,409
356,286; 1161,329;    0,823;    2,773
356,879;  992,078;   -0,722;    1,227
357,472;  943,288;   -0,904;    1,500
358,065; 1025,969;   -0,722;    2,500
358,658;  860,070;   -0,540;    2,318
359,251;  790,541;   -1,631;   -0,591
359,844;  999,308;   -1,904;   -1,136
360,437; 1121,349;   -2,995;    0,045
361,030;  952,993;    1,369;   -0,682
361,623;  922,770;    2,824;    0,318
362,215; 1189,493;   -0,086;    2,045
362,808; 1007,452;   -2,358;   -1,682
363,401;  934,700;   -2,449;    0,136
363,994; 1202,440;   -0,631;   -1,500
364,586;  927,291;    0,824;   -1,500
365,179;  857,507;   -0,449;   -1,136
365,772;  670,164;   -1,995;    2,045
366,364;  860,321;    1,915;   -3,227
366,957;  983,300;    2,279;   -0,045
367,549;  886,202;    2,188;   -0,864
368,142;  888,084;    1,825;   -1,500
368,734;  849,487;    0,734;   -2,136
369,327;  748,783;    1,643;   -0,500
369,919;  803,958;   -1,538;    0,409
370,512;  856,105;   -1,083;   -0,500
371,104; 1144,565;   -0,901;    1,591
371,696; 1198,715;    1,191;   -0,955
372,289; 1027,640;    0,373;    1,136
372,881;  957,055;   -2,080;    1,318
373,473;  801,732;   -2,170;    1,136
374,066;  945,732;   -0,169;    0,500
374,658;  890,461;    0,378;    1,136
375,250;  824,101;    0,653;   -1,409
375,842;  899,043;    0,473;   -0,045
376,434;  843,236;   -0,435;   -0,409
377,026;  890,012;    0,204;   -2,500
377,618;  913,336;   -0,158;   -0,682
378,210;  815,176;   -0,338;   -1,955
378,802;  756,117;    0,754;   -0,591
379,394; 1285,024;    1,846;    0,682
379,986; 1016,474;    1,393;   -0,955
380,578;  913,419;   -0,153;    0,773
381,170; 1179,869;   -0,972;    0,045
381,762; 1040,039;    0,755;    1,409
382,354;  990,289;   -0,065;   -1,318
382,945;  886,748;   -2,976;    0,318
383,537;  816,280;   -2,705;   -1,955
384,129;  824,635;   -2,160;   -1,136
384,721;  975,291;   -0,252;    0,955
385,312;  861,620;   -0,161;   -0,955
385,904; 1018,002;   -2,706;    1,591
386,496;  857,536;   -0,979;    1,045
387,087; 1041,299;    1,022;    2,500
387,679;  962,056;   -1,160;    0,045
388,270;  982,682;    2,840;    2,045
388,862;  924,728;    1,295;   -0,318
389,453;  847,462;   -0,887;    1,045
390,045;  910,914;   -0,705;   -2,682
390,636;  802,958;    0,204;   -0,591
391,227;  843,061;   -0,523;   -0,045
391,819;  865,385;    0,204;    0,773
392,410; 1174,128;    1,022;    0,045
393,001;  937,361;   -0,979;   -1,591
393,593; 1037,944;    1,930;   -0,045
394,184; 1102,923;    1,385;   -0,409
394,775;  891,571;    1,839;    2,136
395,366;  861,358;    1,385;    0,773
395,957; 1096,420;    0,113;    0,136
396,548;  968,911;   -0,342;    2,682
397,139; 1166,031;   -2,433;    0,591
397,730; 1022,066;   -1,888;    0,955
398,321; 1007,175;   -1,252;    0,955
398,912;  935,972;   -0,615;    0,136
399,503;  970,868;   -3,524;   -1,409
400,094;  988,277;    0,294;    1,682
400,685;  976,145;   -0,433;    0,045
401,276;  859,623;    0,930;   -0,955
401,867;  885,691;   -0,888;    0,773
402,458;  857,240;   -2,251;   -2,318
403,048; 1052,023;    1,112;    0,591
403,639;  917,672;    0,840;    0,864
404,230; 1144,588;    2,476;    0,318
404,821; 1192,959;   -0,615;    0,045
405,411; 1055,839;    1,203;   -2,591
406,002;  913,042;   -1,252;   -1,136
406,592; 1225,888;    2,294;    0,045
407,183; 1038,712;    0,566;   -1,500
407,774;  976,964;    3,475;   -0,136
408,364;  968,795;    0,930;    0,409
408,954; 1116,521;    0,384;    1,227
409,545; 1116,768;    1,021;    1,045
410,135; 1005,730;    1,293;    0,500
410,726;  956,969;    1,838;    0,318
411,316; 1214,665;    0,111;    0,773
411,906;  967,397;   -0,253;   -0,409
412,497;  948,636;   -1,070;   -0,045
413,087;  911,295;   -1,980;   -0,227
413,677;  885,335;   -0,707;    3,864
414,267;  846,844;    0,656;    1,409
414,857;  810,713;   -2,980;    4,227
415,448;  848,157;    0,839;    0,500
416,038;  864,475;    0,020;   -0,591
416,628;  922,856;   -0,889;    0,409
417,218; 1016,606;    0,565;    3,318
417,808; 1224,656;    0,202;   -0,409
418,398; 1039,758;    0,020;    2,682
418,988;  887,888;    2,020;    0,591
419,578; 1004,019;   -0,707;    1,409
420,168; 1010,414;   -1,343;   -0,955
420,757; 1187,524;   -1,343;   -1,500
421,347; 1003,163;    0,111;   -0,227
421,937;  959,141;    2,292;    1,409
422,527; 1132,795;    0,838;   -0,773
423,116; 1315,026;   -0,253;   -0,045
423,706;  958,768;   -1,889;    0,318
424,296;  857,751;    1,384;    0,682
424,885; 1110,388;   -0,071;   -3,045
425,475; 1074,786;    1,474;   -2,864
426,065;  898,681;   -0,980;   -0,318
426,654;  877,757;   -0,435;   -0,318
427,244; 1277,640;    0,020;    1,409
427,833; 1223,854;    1,383;   -0,500
428,423; 1041,753;   -0,526;    1,136
429,012; 1099,160;   -0,344;   -1,136
429,601; 1223,644;   -1,344;    0,136
430,191; 1067,611;    1,292;    4,318
430,780;  887,039;   -0,344;   -0,409
431,369; 1224,379;    0,746;   -0,045
431,959; 1143,606;   -1,254;    0,500
432,548;  978,725;   -1,163;   -0,045
433,137;  881,371;   -1,254;   -1,318
433,726; 1071,932;    0,292;    0,500
434,315; 1031,004;   -0,526;    2,409
434,905; 1191,250;   -1,254;    1,409
435,494; 1248,450;    0,746;    0,955
436,083; 1050,152;   -0,981;   -0,955
436,672; 1118,344;    0,110;    0,500
437,261; 1064,889;    0,292;   -1,955
437,850; 1475,439;    1,383;    0,682
438,439; 1507,291;    3,291;    1,955
439,027; 1627,085;    3,655;    1,773
439,616; 1581,073;    2,927;    1,227
440,205; 1251,002;    0,200;   -2,136
440,794; 1116,206;    2,109;   -0,045
441,383; 1021,139;   -1,346;   -0,591
441,971;  912,379;   -2,436;    0,591
442,560;  946,400;    0,563;   -1,773
443,149;  812,943;    0,379;   -1,318
443,737;  926,220;   -0,074;   -2,318
444,326;  948,244;    0,018;    0,318
444,915; 1042,932;   -1,982;    0,864
445,503; 1069,113;   -2,891;   -0,318
446,092; 1400,816;    0,382;    2,136
446,680; 1355,941;    0,382;    0,318
447,269; 1260,923;   -0,346;   -0,318
447,857; 1172,999;    0,018;   -1,773
448,445; 1106,515;    0,563;    1,318
449,034; 1063,377;   -1,528;   -1,136
449,622; 1037,112;   -1,073;    3,500
450,210; 1517,745;    2,017;    2,227
450,799; 1401,531;    0,290;   -0,591
451,387; 1255,509;    1,381;   -0,591
451,975; 1248,508;    2,654;    0,864
452,563; 1417,355;    3,472;    2,318
453,151; 1076,143;   -0,528;   -1,227
453,739; 1161,210;   -1,347;    0,136
454,328; 1390,826;    2,381;   -2,136
454,916; 1232,054;    2,562;   -0,136
455,504; 1229,295;    1,017;    1,227
456,092; 1086,280;    0,017;   -1,591
456,679;  987,393;    1,472;    0,682
457,267; 1701,924;    4,017;    1,045
457,855; 1172,930;    1,017;    1,409
458,443;  875,495;   -0,165;    1,682
459,031; 1285,187;    0,108;    2,409
459,619; 1210,712;   -1,801;    2,864
460,206; 1014,972;    0,835;    2,045
460,794; 1041,547;   -2,983;   -0,227
461,382; 1143,437;   -0,529;   -0,864
461,970; 1071,340;    1,198;    1,864
462,557;  983,053;   -0,711;   -0,682
463,145; 1236,322;   -3,165;   -1,682
463,732; 1583,954;    2,016;   -1,045
464,320; 1215,248;   -0,075;   -3,045
464,907; 1440,624;    2,743;   -0,773
465,495; 1288,205;    0,743;   -1,227
466,082; 1147,317;   -1,984;   -0,045
466,670; 1122,168;   -2,529;    1,227
467,257; 1007,615;   -1,711;    2,045
467,844; 1211,966;   -0,075;    0,045
468,432; 1192,730;    0,834;    3,500
469,019; 1063,870;    0,925;   -1,773
469,606; 1179,461;    0,470;    3,682
470,193; 1248,577;   -1,439;    0,227
470,780; 1223,968;   -2,075;    0,864
471,368; 1095,758;   -1,257;   -0,773
471,955; 1254,137;    1,379;   -0,682
472,542; 1143,539;    0,652;   -1,136
473,129;  953,821;   -0,166;    0,136
473,716;  940,033;    1,470;    0,591
474,303; 1010,595;    0,652;   -0,864
474,890; 1057,809;   -1,439;   -0,500
475,477; 1217,733;   -1,621;    0,409
476,064; 1039,612;    1,106;   -1,591
476,650; 1207,122;    0,288;    0,318
477,237; 1103,667;   -0,258;    0,955
477,824; 1047,993;   -1,076;    0,864
478,411;  886,232;   -1,894;   -0,318
478,997;  901,061;    0,560;   -0,773
479,584;  818,945;    1,196;   -0,409
480,171; 1223,663;   -0,440;   -0,773
480,757; 1339,801;    2,651;    0,773
481,344; 1116,495;    0,469;    0,409
481,931;  881,170;    1,105;    1,045
482,517; 1253,704;   -1,258;    0,318
483,104; 1419,033;    1,106;    2,864
483,690; 1267,513;   -1,804;    0,045
484,276; 1227,336;   -0,895;    0,227
484,863; 1613,682;    2,469;    1,136
485,449; 1353,941;   -0,077;    0,318
486,035; 1242,341;   -1,986;   -0,136
486,622; 1470,711;   -0,895;    0,045
487,208; 1326,552;    1,378;    1,500
487,794; 1176,078;    0,741;    0,318
488,380; 1206,599;    0,105;   -1,409
488,967; 1205,834;   -1,168;   -0,409
489,553; 1225,158;   -1,895;   -1,409
490,139; 1389,717;    1,559;    0,773
490,725; 1202,214;    0,741;   -0,227
491,311; 1218,806;    3,287;    3,045
491,897; 1052,285;   -0,986;    1,500
492,483; 1064,718;    0,105;    1,227
493,069; 1877,952;    3,923;    0,864
493,655; 1329,750;    1,650;    0,682
494,241; 1120,524;    1,377;   -0,955
494,826; 1213,877;    0,287;   -1,045
495,412; 1287,516;    2,559;   -0,682
495,998; 1146,943;   -0,805;   -0,318
496,584; 1224,382;    0,377;    1,045
497,169; 1172,562;    1,014;   -0,682
497,755; 1030,770;    0,650;    1,227
498,341; 1428,918;    0,559;    0,318
498,926; 1609,685;    1,832;    1,955
499,512; 1178,439;    1,286;    2,955
500,097; 1114,973;    0,195;   -0,318
500,683; 1149,236;   -0,350;    2,136
501,268; 1098,074;   -0,169;   -0,955
501,854; 1126,353;   -0,169;    1,227
502,439; 1053,042;   -0,624;   -1,773
503,024; 1190,872;    0,195;    0,500
503,610; 1261,032;   -0,078;   -0,682
504,195; 1051,763;    0,558;    1,955
504,780; 1226,017;    2,922;    1,227
505,366; 1408,966;    3,013;    2,864
505,951; 1239,703;    0,740;    1,045
506,536; 1126,019;   -3,260;   -3,682
507,121; 1195,649;    0,285;   -0,318
507,706; 1155,492;    2,376;    1,045
508,291; 1071,348;    2,649;    1,136
508,876; 1042,901;   -0,988;    2,591
509,461; 1100,999;   -0,169;   -0,773
510,046; 1200,059;    0,194;    0,318
510,631; 1167,553;   -0,351;   -0,773
511,216; 1044,667;    2,467;   -0,500
511,801; 1201,405;   -0,442;    2,591
512,386; 1222,981;    0,740;    0,500
512,971; 1250,942;   -2,988;    0,955
513,555; 1317,417;   -0,897;   -1,500
514,140; 1297,842;   -0,442;   -3,136
514,725; 1416,288;   -0,715;   -1,136
515,309; 1283,329;   -0,533;    0,318
515,894; 1138,500;   -0,624;   -2,227
516,479; 1180,856;   -0,624;   -0,955
517,063; 1165,508;    0,376;    1,227
517,648; 1143,087;    1,012;   -1,136
518,232; 1051,136;   -0,261;   -1,409
518,817; 1173,332;   -0,079;    1,682
519,401; 1391,279;    2,194;    0,591
519,985; 1214,030;    1,103;    1,136
520,570; 1048,547;    0,830;   -1,955
521,154; 1240,752;    2,102;    0,591
521,738; 1524,259;   -2,352;    2,409
522,323; 1362,793;   -0,170;    1,682
522,907; 1274,868;    0,466;   -0,136
523,491; 1144,166;    0,557;    0,955
524,075; 1086,089;    2,284;    0,591
524,659; 1317,767;    1,466;    0,591
525,243; 1184,440;    1,739;    0,409
525,827; 1125,185;    0,648;   -0,045
526,411; 1195,313;   -1,989;   -0,136
526,995; 1378,394;   -0,352;    1,409
527,579; 1418,521;   -0,443;   -1,045
528,163; 1330,021;    0,375;   -1,500
528,747; 1518,707;    2,466;   -0,773
529,331; 1459,395;   -0,080;   -1,409
529,915; 1207,677;    1,738;    0,955
530,499; 1326,038;   -0,807;    1,227
531,082; 1472,050;   -0,534;    1,591
531,666; 1508,696;    1,374;    0,773
532,250; 1422,357;    1,284;    2,682
532,833; 1590,743;    0,920;    2,773
533,417; 1347,671;   -1,807;    0,864
534,001; 1473,560;    1,647;   -0,318
534,584; 1419,102;    0,374;    0,500
535,168; 1226,267;    0,465;    1,409
535,751; 1667,162;    0,647;    0,045
536,334; 1285,237;   -0,898;   -0,409
536,918; 1236,397;    0,011;    1,591
537,501; 1212,241;   -0,899;    1,318
538,085; 1264,845;   -0,444;    1,045
538,668; 1306,677;    0,829;    2,409
539,251; 1698,600;    1,829;    3,773
539,834; 1414,294;    0,101;    0,773
540,418; 1540,986;   -1,990;    4,318
541,001; 1721,552;   -0,990;    1,773
541,584; 1429,488;    2,101;    2,227
542,167; 1525,204;    1,374;    2,955
542,750; 1383,554;    1,919;   -0,773
543,333; 1161,464;    0,555;    2,136
543,916; 1492,556;    0,192;    2,500
544,499; 1366,636;   -1,354;    0,227
545,082; 1475,204;    1,374;    3,591
545,665; 1384,504;    1,919;    1,500
546,248; 1531,919;    1,010;   -0,318
546,830; 1493,238;   -0,445;    1,955
547,413; 1519,882;    1,010;   -0,773
547,996; 1574,988;    0,555;    0,500
548,579; 1391,400;    0,919;    0,955
549,161; 1652,513;    1,828;    2,682
549,744; 1539,652;   -0,809;    0,409
550,326; 1476,124;   -0,809;   -1,136
550,909; 1961,329;    2,737;    0,591
551,492; 1631,346;   -0,263;    0,227
552,074; 1692,126;   -0,173;   -1,318
552,657; 1759,859;    2,373;    0,045
553,239; 1578,991;   -0,173;   -0,773
553,821; 1501,006;   -1,082;    1,045
554,404; 1699,666;    1,282;    1,136
554,986; 1835,221;    0,464;    1,045
555,568; 1720,171;    1,191;   -0,955
556,151; 1917,458;    1,191;   -0,227
556,733; 1579,270;   -0,264;   -0,864
557,315; 1584,083;    0,100;    0,500
557,897; 1389,501;    0,554;   -0,500
558,479; 1414,248;   -1,991;    1,318
559,061; 1552,317;   -0,719;   -0,864
559,643; 1671,470;   -0,264;    0,045
560,225; 1710,830;    1,645;    2,864
560,807; 1580,015;    0,918;    0,318
561,389; 1501,881;    0,554;    2,318
561,971; 1569,199;    0,463;    2,136
562,553; 1578,783;   -1,628;    1,591
563,135; 1672,306;   -0,537;    1,136
563,717; 2027,022;    3,372;    1,136
564,298; 1907,290;    3,645;   -0,045
564,880; 1629,556;    0,645;   -1,409
565,462; 1514,647;    0,645;    1,318
566,043; 1857,465;   -0,446;    2,318
566,625; 2016,547;    1,918;    1,227
567,207; 1759,061;    1,099;    1,682
567,788; 1755,558;   -1,264;    1,500
568,370; 1868,946;    1,917;   -0,500
568,951; 1742,977;    0,190;    0,227
569,533; 1937,154;   -0,628;   -0,500
570,114; 2070,543;   -0,446;    0,682
570,695; 2100,505;   -0,174;   -1,318
571,277; 2052,151;   -0,265;   -1,682
571,858; 2300,434;    2,008;   -1,136
572,439; 2329,595;    1,554;   -1,045
573,021; 2289,223;    2,099;   -2,773
573,602; 2427,841;   -1,265;    0,318
574,183; 2479,947;   -2,083;    2,227
574,764; 2477,647;   -1,629;    0,409
575,345; 2603,557;    0,917;   -0,136
575,926; 2579,439;   -0,356;    0,136
576,507; 2662,651;    1,099;   -0,227
577,088; 2757,285;    3,099;    1,682
577,669; 2886,896;    0,735;    1,955
578,250; 3160,584;    0,644;   -1,045
578,831; 2998,229;   -1,356;   -2,227
579,412; 2877,273;   -0,810;    0,955
579,993; 3154,659;    1,008;    0,227
580,573; 3150,852;   -0,629;   -0,955
581,154; 2857,543;    0,735;   -0,591
581,735; 3047,430;    0,644;    0,773
582,315; 2912,339;   -0,629;    2,136
582,896; 3086,283;   -0,174;    1,227
583,477; 2884,484;    0,189;    1,227
584,057; 2993,111;    0,553;    0,955
584,638; 3065,477;    2,553;    2,318
585,218; 3253,458;   -0,538;    2,682
585,799; 3175,484;    0,281;   -0,227
586,379; 3063,648;    0,372;    1,591
586,959; 2908,498;    0,735;    0,318
587,540; 2740,650;   -0,629;    2,227
588,120; 2658,887;    1,007;   -0,045
588,700; 2524,425;    2,553;    2,136
589,281; 2777,028;    0,462;   -0,955
589,861; 2670,536;    0,099;   -1,682
590,441; 2594,409;    2,371;   -2,682
591,021; 2404,469;   -0,265;   -2,591
591,601; 2505,775;   -0,537;    0,500
592,181; 2594,198;   -0,719;   -0,773
592,761; 2277,938;    0,007;    1,409
593,341; 2440,305;   -0,901;    0,045
593,921; 2399,828;   -0,265;    1,591
594,501; 2292,683;   -0,538;    1,318
595,081; 2270,177;    0,917;   -0,318
595,661; 2494,266;   -1,447;    0,955
596,240; 2545,868;   -0,537;    0,136
596,820; 2698,621;    0,372;    1,955
597,400; 2421,062;    2,008;    0,773
597,980; 2443,350;    2,008;    1,045
598,559; 2450,764;    2,735;   -0,227
599,139; 2387,633;   -0,174;   -1,227
599,718; 2360,724;   -0,174;   -0,409
600,298; 2442,585;    0,735;    0,682
600,877; 2784,102;    2,917;    1,409
601,457; 2698,128;    2,281;    1,136
602,036; 2568,584;    0,190;    2,045
602,616; 2544,341;    0,644;    1,682
603,195; 2671,483;   -0,355;    3,500
603,774; 2593,530;   -0,901;    2,045
604,354; 2518,999;    0,826;   -0,500
604,933; 2426,477;    0,463;    1,864
605,512; 2616,385;    3,554;    0,591
606,091; 2612,967;   -0,537;    3,773
606,671; 2649,770;    0,281;    0,773
607,250; 2652,241;    1,644;    3,136
607,829; 2671,049;    2,372;    3,227
608,408; 2553,038;    1,190;    2,591
608,987; 2499,597;    1,281;    3,409
609,566; 2376,457;   -1,265;   -2,500
610,145; 2457,355;   -1,082;    0,682
610,723; 2607,482;    4,372;    6,864
611,302; 2373,068;   -0,446;    1,682
611,881; 2501,498;    5,008;   11,227
612,460; 2391,520;    1,645;    3,955
613,039; 2450,720;   -0,082;    2,045
613,617; 2173,903;    1,736;    4,773
614,196; 2204,432;    1,099;    1,227
614,775; 2359,336;    1,009;    2,409
615,353; 2359,514;    0,736;    0,864
615,932; 2296,355;    0,100;    2,409
616,510; 2421,873;    0,554;    0,591
617,089; 2811,741;    7,100;   17,591
617,667; 2482,454;    2,372;    6,136
618,246; 2135,447;   -1,537;    1,318
618,824; 2256,660;   -3,355;   -0,955
619,402; 2195,850;   -2,900;   -1,773
619,981; 2347,741;   -0,173;   -1,045
620,559; 2332,482;    0,009;    1,682
621,137; 2334,893;   -0,718;    1,864
621,715; 2028,202;   -1,173;   -0,682
622,293; 2076,245;   -0,537;   -0,773
622,871; 2333,537;   -0,718;    0,500
623,450; 2167,890;    0,373;   -0,864
624,028; 2297,021;    0,191;   -0,955
624,606; 2223,023;   -1,718;    1,682
625,183; 2121,267;   -1,536;   -1,136
625,761; 2130,622;    1,009;    1,136
626,339; 2512,971;    1,373;    2,591
626,917; 2233,628;   -0,172;   -0,045
627,495; 2251,020;   -0,354;    1,318
628,073; 2225,261;   -0,263;    2,864
628,650; 2173,004;    0,100;    2,136
629,228; 2264,951;    0,373;    4,409
629,806; 1994,021;    2,282;    1,136
630,383; 2084,694;    1,464;   -0,318
630,961; 2064,024;    2,555;   -0,955
631,539; 2021,856;    2,464;    0,227
632,116; 2695,478;   11,373;   15,409
632,694; 2378,075;    2,555;    6,500
633,271; 2164,173;    0,828;    2,682
633,848; 2272,745;    1,828;    2,045
634,426; 2091,723;   -1,081;    1,773
635,003; 1928,056;    1,101;   -0,409
635,580; 2292,568;    1,192;    3,682
636,158; 2125,254;    3,737;    1,227
636,735; 1972,449;    0,555;   -0,500
637,312; 1979,420;   -0,809;   -0,682
637,889; 1997,860;   -4,354;   -0,682
638,466; 1983,245;   -3,990;   -0,409
639,043; 1956,460;    2,101;   -1,136
639,620; 1964,358;   -2,262;   -0,955
640,197; 2125,704;    1,100;    1,682
640,774; 2082,906;   -0,172;    1,136
641,351; 2169,018;    0,737;    1,136
641,928; 2217,312;   -0,627;    1,409
642,505; 2336,878;    0,828;   -0,500
643,082; 2218,717;   -1,718;    1,227
643,658; 1892,738;   -0,718;    1,500
644,235; 2000,941;    1,191;    2,500
644,812; 2162,598;    1,918;    0,773
645,388; 2102,982;   -0,991;    1,409
645,965; 1895,912;   -0,809;    1,682
646,542; 1906,206;   -1,445;   -0,227
647,118; 2353,681;    1,009;   -0,955
647,695; 2189,611;   -0,263;    1,136
648,271; 2000,451;   -0,536;    0,500
648,848; 2122,653;    0,736;    2,227
649,424; 2230,310;    0,827;    1,318
650,000; 1952,331;   -0,354;   -1,045
650,577; 2034,080;   -0,627;   -0,955
651,153; 2161,737;   -1,809;    0,955
651,729; 2141,758;    1,191;    0,864
652,305; 2431,688;    0,645;    2,773
652,881; 2870,981;   -0,082;    1,136
653,458; 3769,911;    1,100;    0,227
654,034; 4306,205;    0,282;    1,591
654,610; 4376,862;    0,554;    0,773
655,186; 4781,610;    0,645;    3,045
655,762; 4459,722;   -0,991;    0,409
656,338; 4407,925;    0,100;    0,136
656,913; 4709,309;   -0,082;    0,409
657,489; 4436,512;    0,827;   -0,318
658,065; 4549,442;   -0,173;   -1,591
658,641; 4779,372;   -0,900;   -0,864
659,217; 4510,029;   -0,991;    0,409
659,792; 4275,959;    0,645;   -0,409
660,368; 4385,253;   -2,173;   -0,682
660,944; 4575,819;   -2,082;    1,227
661,519; 3911,022;   -0,628;    0,409
662,095; 3031,225;   -1,719;    0,591
662,670; 2350,518;    1,281;   -0,136
663,246; 2307,630;    1,009;   -0,409
663,821; 2356,742;    0,281;    1,682
664,396; 2106,035;    0,009;    1,864
664,972; 2145,784;    0,009;   -0,500
665,547; 2294,804;    1,372;    0,136
666,122; 2215,643;   -1,082;    0,318
666,698; 2397,028;   -0,173;    0,318
667,273; 2059,231;   -0,173;    0,136
667,848; 2241,888;    2,372;    1,500
668,423; 2328,091;    2,190;    2,318
668,998; 2253,293;    2,827;   -0,682
669,573; 2310,678;   -3,264;   -1,500
670,148; 2461,608;   -1,446;   -0,682
670,723; 2164,538;   -1,810;    0,318
671,298; 2536,650;    2,372;    1,045
671,873; 2402,852;   -0,082;   -0,136
672,448; 2397,601;    0,645;    0,136
673,023; 2419,530;   -1,992;   -0,227
673,597; 2579,188;    0,827;    2,318
674,172; 2550,300;   -0,355;    0,318
674,747; 2439,775;    0,372;   -1,045
675,321; 2210,614;   -0,628;    3,318
675,896; 2084,726;    0,645;    1,045
676,471; 2335,838;    2,645;    1,591
677,045; 2228,677;   -1,264;    0,682
677,620; 2247,516;    0,190;    1,136
678,194; 2265,173;   -2,628;    1,136
678,769; 2270,012;   -1,083;   -0,318
679,343; 2357,760;   -0,628;    1,773
679,917; 2421,145;   -1,446;    1,955
680,492; 2280,257;    0,826;    3,227
681,066; 2322,368;    3,372;    0,409
681,640; 2315,298;    1,463;   -0,318
682,214; 2436,592;    0,735;    0,500
682,788; 2342,431;   -1,356;   -0,773
683,363; 2389,997;   -1,810;    1,682
683,937; 2253,291;   -1,719;   -0,318
684,511; 2463,403;    0,463;   -0,591
685,085; 2402,151;   -1,356;    0,318
685,659; 2250,990;   -2,538;    0,864
686,232; 2506,920;   -0,356;   -0,318
686,806; 2387,941;   -0,901;    0,409
687,380; 2453,325;   -0,174;    0,591
687,954; 2471,710;   -1,174;    1,136
688,528; 2578,004;   -0,719;    1,955
689,101; 2658,115;   -3,992;    1,045
689,675; 2431,227;   -0,356;   -0,136
690,249; 2503,248;   -0,719;    0,409
690,822; 2578,451;    0,280;    0,318
691,396; 2441,199;   -0,265;    1,227
691,969; 2314,402;    1,280;    0,136
692,543; 2399,059;   -0,447;   -1,955
693,116; 2218,807;   -0,265;   -1,409
693,690; 2278,192;    0,099;    0,500
694,263; 2393,485;   -1,083;    2,955
694,836; 2660,415;    1,371;    3,591
695,410; 2382,709;   -0,265;    1,773
695,983; 2395,002;    0,189;    0,591
696,556; 2288,296;   -0,447;   -1,045
697,129; 2334,771;   -0,356;    1,409
697,703; 2324,247;   -1,629;    1,955
698,276; 2334,268;    1,462;   -0,773
698,849; 2399,016;    1,280;    1,409
699,422; 2243,128;   -1,083;    0,591
699,995; 2141,694;    0,007;    0,136
700,568; 2330,079;   -0,629;    3,045
701,140; 2348,008;   -2,811;    1,682
701,713; 2459,393;   -0,174;    2,409
702,286; 2352,778;   -0,538;    0,864
702,859; 2349,071;   -0,902;   -0,591
703,432; 2284,456;    0,825;    0,682
704,004; 2255,658;    0,462;    0,318
704,577; 2110,952;   -0,629;    0,136
705,150; 2219,155;    0,189;    2,500
705,722; 2301,630;   -0,356;   -3,227
706,295; 2332,924;   -0,175;   -0,591
706,867; 2161,490;   -0,175;    1,955
707,440; 2371,875;   -1,720;   -0,409
708,012; 2431,441;    0,462;    0,591
708,584; 2282,916;    2,462;    0,227
709,157; 2263,846;    1,825;   -0,591
709,729; 2396,140;    2,280;    2,045
710,301; 2519,888;    0,734;    0,045
710,874; 2465,545;   -1,447;   -0,227
711,446; 2096,203;    0,371;    0,864
712,018; 2199,496;    0,098;    0,500
712,590; 2112,699;   -1,993;    1,682
713,162; 2432,629;    0,825;    1,318
713,734; 2293,559;    1,825;   -2,045
714,306; 2248,943;   -1,902;   -0,409
714,878; 2100,601;    0,825;    0,864
715,450; 2225,803;    0,643;    0,864
716,022; 2257,824;    1,552;    1,318
716,593; 2273,754;    0,189;    0,591
717,165; 2328,684;   -3,175;   -1,227
717,737; 2466,432;    0,280;    0,409
718,309; 2293,181;    0,280;   -0,045
718,880; 2207,565;   -0,539;   -1,409
719,452; 2320,131;   -0,175;   -1,591
720,024; 2305,243;    0,734;   -0,591
720,595; 2303,173;   -2,902;    0,955
721,167; 2204,285;    0,370;   -2,045
721,738; 2182,306;   -0,812;   -1,045
722,309; 2254,509;   -0,993;   -1,227
722,881; 2092,893;   -1,357;    0,773
723,452; 2275,550;   -2,630;    2,864
724,023; 2343,117;   -0,721;    2,682
724,595; 2362,865;    0,007;    0,682
725,166; 2156,704;    0,007;   -0,409
725,737; 2316,725;    1,734;    0,227
726,308; 2218,291;   -0,266;    0,318
726,879; 2139,948;   -1,630;    1,227
727,450; 2296,424;    0,552;   -0,045
728,021; 2156,899;    3,097;    0,682
728,592; 2310,284;    0,734;    0,500
729,163; 2467,668;    0,643;   -0,136
729,734; 2456,416;    0,188;   -0,227
730,305; 2307,801;    1,734;    0,136
730,876; 2299,458;    0,188;    2,955
731,447; 2624,843;    2,188;    2,682
732,017; 2501,318;    1,097;    1,864
732,588; 2373,430;    0,734;    1,227
733,159; 2535,542;    0,643;   -1,045
733,729; 2253,017;    0,006;    0,409
734,300; 2300,220;    0,915;    0,864
734,870; 2249,423;    3,461;    0,591
735,441; 2283,353;    0,370;   -0,591
736,011; 2157,464;    0,643;   -1,591
736,582; 2207,122;   -0,812;    0,045
737,152; 2202,870;   -1,721;   -2,045
737,722; 2263,254;   -0,267;   -0,682
738,293; 2103,730;   -1,358;    1,318
738,863; 2262,114;    2,461;    2,318
739,433; 2519,317;    5,279;    0,318
740,003; 2374,247;   -0,994;   -0,682
740,573; 2401,995;    2,097;   -1,591
741,143; 2345,652;   -1,085;    0,318
741,713; 2310,855;    1,188;   -0,500
742,283; 2300,694;    0,915;    1,591
742,853; 2198,170;    1,915;    1,591
743,423; 2029,827;    1,733;    0,045
743,993; 2112,120;   -0,358;    1,500
744,563; 2000,778;    0,097;   -0,864
745,133; 2034,162;   -0,812;   -0,864
745,702; 2139,456;   -0,267;    1,773
746,272; 2179,022;   -0,176;    0,591
746,842; 2186,043;   -1,358;   -0,591
747,411; 2095,700;   -0,267;   -0,318
747,981; 2012,176;    0,097;    0,500
748,551; 2050,378;    2,278;   -1,045
749,120; 2154,854;    0,642;   -0,227
749,690; 2175,238;   -0,631;    2,409
750,259; 2309,714;    1,369;    2,955
750,828; 2300,644;    1,551;   -1,955
751,398; 2183,392;    1,278;   -0,045
751,967; 2499,140;    2,187;    0,409
752,536; 2249,434;   -0,813;   -0,227
753,105; 2384,182;    0,096;    0,227
753,675; 2193,476;    0,096;    1,773
754,244; 2194,315;   -0,904;    3,591
754,813; 2213,608;    0,551;    1,227
755,382; 2123,538;    0,460;    0,955
755,951; 2277,923;    1,551;    3,682
756,520; 2325,398;   -0,085;    1,864
757,089; 2578,419;    0,278;    0,500
757,658; 2278,985;    1,733;    1,227
758,227; 2155,370;    1,096;    0,318
758,795; 2250,845;    1,187;    1,136
759,364; 2379,957;   -0,086;   -0,591
759,933; 2094,523;   -1,176;   -0,045
760,501; 2039,544;    0,733;   -1,318
761,070; 2182,747;   -2,813;   -1,409
761,639; 2408,313;   -1,904;    1,318
762,207; 2253,516;    1,551;   -0,955
762,776; 2318,173;    0,369;    0,864
763,344; 2173,467;   -0,995;    0,591
763,913; 1842,579;   -0,722;    1,409
764,481; 2485,054;    1,005;   -0,136
765,049; 2425,984;   -1,358;    1,409
765,618; 2323,732;   -0,086;    0,318
766,186; 2220,208;    0,278;    0,136
766,754; 2241,138;    0,005;    1,864
767,322; 1950,795;   -1,995;    0,409
767,890; 1918,543;   -0,722;   -1,773
768,459; 2095,200;   -2,177;   -0,318
769,027; 2299,494;    1,641;    3,409
769,595; 2033,788;    3,278;    2,591
770,163; 2078,263;    3,823;    2,955
770,730; 2072,375;    0,732;   -0,136
771,298; 2054,214;    0,187;   -1,409
771,866; 2033,871;   -1,541;    4,955
772,434; 2064,074;   -0,631;   -1,864
773,002; 2316,640;    0,005;    0,682
773,569; 2191,843;    0,914;    1,682
774,137; 2272,409;   -0,268;   -0,045
774,705; 2223,703;    0,278;   -0,136
775,272; 2054,724;    0,641;    0,682
775,840; 2169,836;   -0,177;    2,682
776,407; 2142,947;    0,277;    1,955
776,975; 1902,605;   -0,632;    0,318
777,542; 2031,353;   -1,086;   -0,045
778,110; 2063,192;   -1,268;   -0,045
778,677; 1906,122;   -2,359;   -0,864
779,244; 1947,234;    2,186;    1,045
779,812; 2104,891;    1,823;    0,864
780,379; 2149,639;    0,005;    1,136
780,946; 2043,751;    1,005;   -0,773
781,513; 2054,226;   -1,450;    0,318
782,080; 1895,702;   -0,086;    2,864
782,647; 2023,359;   -0,268;    3,045
783,214; 1943,107;   -0,177;    3,864
783,781; 2086,764;   -0,723;   -0,682
784,348; 2062,603;   -0,632;    1,500
784,915; 1920,443;   -3,177;    0,318
785,482; 2079,463;    1,368;    2,591
786,049; 2138,757;    0,186;   -0,591
786,615; 2056,596;    0,277;   -0,955
787,182; 1973,253;    0,186;   -0,682
787,749; 1934,365;   -2,814;    1,409
788,315; 1975,204;   -1,632;   -0,409
788,882; 1986,498;    1,550;   -1,227
789,448; 2282,701;    1,732;   -0,955
790,015; 2101,540;    1,095;    3,227
790,581; 2207,651;    1,459;    0,227
791,148; 1982,309;    0,641;    1,045
791,714; 1959,693;   -0,541;    3,136
792,280; 1932,260;    0,186;    1,591
792,847; 1855,280;    0,550;    2,500
793,413; 1950,574;   -0,269;   -0,318
793,979; 2022,413;    3,459;   -1,318
794,545; 2372,979;    4,459;    2,682
795,111; 2168,728;    2,186;    1,318
795,678; 2043,021;    0,731;   -1,682
796,244; 2212,406;    3,368;    0,136
796,810; 2159,790;    1,731;    0,773
797,375; 2126,902;    0,549;   -2,136
797,941; 1771,014;   -0,541;    0,591
798,507; 1752,126;   -0,451;   -0,955
799,073; 1765,147;   -0,360;    0,591
799,639; 1833,440;   -2,632;    3,136
800,205; 1770,552;    0,095;    2,682
800,770; 1715,664;    0,640;    1,773
801,336; 1688,594;    1,368;   -0,955
801,901; 2323,524;    4,549;    3,136
802,467; 2046,272;   -0,542;    2,045
803,033; 1697,565;   -0,087;    0,864
803,598; 1721,223;    1,913;   -1,045
804,163; 1784,698;    1,095;   -0,318
804,729; 1885,264;   -0,178;    1,136
805,294; 1806,194;    0,822;    2,227
805,859; 1679,670;    0,731;   -0,409
806,425; 2085,782;    1,186;    2,682
806,990; 2030,075;    2,186;    4,318
807,555; 1828,914;   -1,451;    2,591
808,120; 2000,117;    0,822;   -0,409
808,685; 1729,047;    0,185;   -2,500
809,250; 1581,977;    0,004;   -0,500
809,815; 1663,634;    1,913;    0,682
810,380; 1873,201;   -0,269;    1,591
810,945; 2016,131;   -1,087;    2,045
811,510; 1847,242;    2,094;    1,591
812,075; 1783,354;   -0,633;   -1,409
812,640; 2070,830;    2,003;    1,409
813,204; 1863,396;    0,822;   -0,227
813,769; 2054,508;    2,094;   -0,045
814,334; 2004,256;    0,458;    0,864
814,898; 1765,459;    0,367;    0,591
815,463; 1787,843;    1,276;   -0,773
816,027; 1720,500;   -0,724;   -2,318
816,592; 1745,703;    0,640;   -2,045
817,156; 1772,360;    2,094;    1,136
817,721; 1840,290;    4,276;    2,318
818,285; 1635,584;    2,912;    1,500
818,849; 1763,059;   -1,451;    1,682
819,414; 1650,535;   -0,269;    2,955
819,978; 1583,647;   -1,269;    1,773
820,542; 1989,213;    2,003;    0,500
821,106; 1807,961;   -0,815;    0,682
821,670; 1972,709;   -0,815;    2,591
822,234; 1736,548;   -0,270;    1,409
822,798; 1587,751;    0,003;    0,500
823,362; 1925,045;   -0,633;    4,227
823,926; 1641,247;    0,094;    1,136
824,490; 1845,359;   -0,997;   -0,682
825,054; 1749,653;   -0,088;   -1,136
825,618; 1579,946;   -1,542;   -1,500
826,181; 1613,876;    0,458;   -1,318
826,745; 1684,534;    1,367;   -1,045
827,309; 1975,645;    1,185;    1,318
827,872; 1803,121;    1,367;    0,955
828,436; 1782,960;    1,185;   -0,773
828,999; 1743,254;   -0,997;    1,227
829,563; 1665,093;   -0,179;    1,136
830,126; 1613,113;   -0,179;   -0,591
830,690; 1636,771;   -1,997;    2,864
831,253; 1514,428;   -0,543;    2,227
831,816; 1576,813;   -1,906;    0,500
832,380; 1495,197;    0,185;    0,864
832,943; 1515,036;   -1,361;   -0,500
833,506; 1537,330;    2,639;   -1,227
834,069; 1753,351;    3,912;   -0,955
834,632; 1638,644;    1,730;    1,318
835,195; 1657,483;    1,003;    0,955
835,758; 1541,322;   -0,997;    1,955
836,321; 1469,889;    0,730;   -1,045
836,884; 1492,819;   -0,725;   -0,955
837,447; 1487,385;   -2,816;    1,773
838,010; 1640,679;    0,366;    3,227
838,573; 1700,972;   -1,179;    0,773
839,135; 1602,357;   -1,361;   -0,955
839,698; 1538,923;    1,275;    0,409
840,261; 1486,308;    1,003;   -0,227
840,823; 1436,874;   -0,543;    0,864
841,386; 1425,349;   -0,452;   -2,409
841,948; 1777,098;   -1,361;    1,773
842,511; 1483,755;    0,912;    1,682
843,073; 1753,503;    1,912;    0,227
843,636; 1492,251;   -0,361;   -0,227
844,198; 1711,817;    0,911;    0,591
844,760; 1682,929;    1,093;    1,955
845,322; 1420,587;    0,548;    1,136
845,885; 1575,335;    0,730;    0,591
846,447; 1558,083;   -1,998;    0,227
847,009; 1904,195;    1,911;   -0,682
847,571; 1576,579;    0,820;   -2,045
848,133; 1540,600;   -1,089;   -1,864
848,695; 1395,257;   -0,543;    1,409
849,257; 1471,187;   -1,089;   -1,682
849,819; 1644,208;   -0,998;   -0,409
850,381; 1492,775;   -0,725;   -0,864
850,942; 1564,432;    1,093;   -0,591
851,504; 1591,544;    1,184;    0,227
852,066; 1514,655;    1,275;   -1,591
852,628; 1520,858;   -0,180;    1,955
853,189; 1339,788;    1,638;    2,682
853,751; 1402,082;   -0,907;    1,409
854,312; 1581,012;   -0,453;   -1,682
854,874; 1742,760;   -2,089;   -0,773
855,435; 1555,962;   -0,907;   -1,682
855,997; 1669,983;   -1,816;   -0,136
856,558; 1692,004;    0,366;    1,773
857,119; 1542,298;    0,820;    2,864
857,681; 1379,137;    0,002;    0,318
858,242; 1627,067;    1,911;   -2,136
858,803; 1701,815;    0,456;   -0,773
859,364; 1620,654;    0,184;   -4,773
859,925; 1642,039;   -2,453;   -0,955
860,486; 1536,787;   -0,453;   -0,955
861,047; 1416,444;   -0,544;   -1,227
861,608; 1451,829;   -1,089;   -0,773
862,169; 1378,486;    0,638;   -0,045
862,730; 1432,234;    0,456;    1,409
863,291; 1485,255;   -0,635;   -0,500
863,852; 1484,730;   -0,635;    1,955
864,412; 1432,660;   -0,271;   -0,864
864,973; 1594,499;   -0,089;    0,500
865,534; 1758,611;   -1,726;    0,227
866,094; 1578,905;    1,820;    0,227
866,655; 1678,744;    1,274;    3,318
867,215; 1535,856;    0,274;    0,136
867,776; 1410,877;    0,547;   -0,136
868,336; 1469,807;   -1,453;    0,136
868,897; 1865,555;    2,638;    1,682
869,457; 1637,666;    1,365;    0,318
870,017; 1470,506;    0,547;   -1,227
870,578; 1472,526;   -0,817;    0,773
871,138; 1445,366;   -2,089;   -0,955
871,698; 1318,750;   -0,817;   -1,318
872,258; 1458,771;   -0,453;   -2,864
872,818; 1703,428;    2,729;    0,045
873,378; 1491,813;    0,638;    1,045
873,938; 1412,924;    0,547;    0,500
874,498; 1325,582;    0,274;   -1,955
875,058; 1384,239;    2,183;    1,773
875,618; 1384,624;    1,910;   -2,682
876,177; 1428,553;    1,274;    0,136
876,737; 1204,847;   -0,090;    1,955
877,297; 1663,413;    0,183;    1,955
877,856; 1572,707;   -0,362;    0,318
878,416; 1309,001;    1,183;   -0,136
878,976; 1304,022;   -1,817;    0,409
879,535; 1359,042;    0,092;    3,136
880,095; 1343,245;   -0,544;    0,045
880,654; 1232,266;   -1,090;    1,318
881,213; 1596,741;    2,456;    1,500
881,773; 1400,853;    2,637;    2,682
882,332; 2028,420;    3,365;    5,136
882,891; 1424,168;    3,092;    2,136
883,451; 1434,916;   -1,272;    1,682
884,010; 1316,846;   -2,908;   -0,409
884,569; 1286,321;   -0,999;   -0,045
885,128; 1509,524;    2,819;   -1,864
885,687; 1825,272;    4,455;    0,682
886,246; 1993,384;    1,455;    2,136
886,805; 1692,314;    2,455;    2,045
887,364; 1342,789;   -0,999;   -0,500
887,922; 1252,447;   -1,181;    0,045
888,481; 1413,195;   -1,545;    0,591
889,040; 1576,307;    1,183;    2,136
889,599; 1449,328;    2,455;    1,409
890,157; 1444,348;    1,455;    2,409
890,716; 1356,369;   -0,090;    0,227
891,274; 1462,481;    0,092;   -1,136
891,833; 1568,502;    1,546;    0,864
892,391; 1375,614;   -0,454;    0,500
892,950; 1566,544;    1,819;   -0,773
893,508; 1369,928;    0,455;   -0,409
894,067; 1214,767;    0,637;    0,136
894,625; 1323,970;   -0,636;   -1,500
895,183; 1298,627;   -0,363;   -0,682
895,741; 1622,466;    1,728;   -1,773
896,299; 1387,124;   -0,545;   -2,409
896,858; 1281,235;    0,819;   -1,591
897,416; 1435,256;    2,728;   -1,318
897,974; 1351,186;    1,819;    0,318
898,532; 1859,753;    6,091;    2,682
899,089; 1499,501;    2,091;   -0,682
899,647; 1375,794;   -1,454;    1,318
900,205; 1419,906;    1,182;    1,045
900,763; 1438,927;   -0,454;    0,227
901,321; 1392,584;    2,364;   -1,409
901,878; 1171,787;   -1,000;   -0,773
902,436; 1236,535;   -1,363;    1,318
902,994; 2104,283;    4,728;    3,682
903,551; 1563,850;    0,728;    0,409
904,109; 1439,780;    0,182;   -1,409
904,666; 1365,073;    2,455;    1,045
905,224; 1227,821;    0,182;   -0,409
905,781; 1393,024;    0,727;   -0,318
906,338; 1309,227;   -1,363;    1,045
906,895; 1185,339;    0,637;    2,045
907,453; 1484,632;    1,727;    1,136
908,010; 1332,199;   -0,909;    0,409
908,567; 1261,129;    1,273;    0,591
909,124; 1056,513;    0,364;   -1,500
909,681; 1136,261;   -2,909;    0,682
910,238; 1219,737;    0,636;   -1,318
910,795; 1195,303;   -0,273;   -1,136
911,352; 1186,848;   -2,909;   -2,682
911,909; 1176,939;   -1,364;   -0,864
912,466; 1233,485;   -3,182;    1,500
913,022; 1241,848;   -1,636;    0,500
913,579; 1368,030;   -0,909;    2,045
914,136; 1225,848;    1,636;    0,955
914,692; 1291,576;    0,091;   -1,227
915,249; 1223,758;    1,455;    0,409
915,806; 1310,485;    0,182;    1,955
916,362; 1217,667;    1,909;    1,864
916,918; 1112,121;    2,000;    1,045
917,475; 1340,848;   -1,182;    0,955
918,031; 1133,848;    3,364;   -0,045
918,587; 1209,758;   -0,909;   -0,318
919,144; 1125,394;   -2,273;    0,227
919,700; 1074,576;    1,727;    0,773
920,256; 1040,303;    0,727;    0,045
920,812; 1076,030;   -0,727;   -1,045
921,368; 1028,030;   -1,727;   -1,045
921,924; 1016,667;    0,182;   -0,136
922,480; 1126,848;   -0,545;    1,227
923,036; 1148,303;    1,273;    1,955
923,592; 1049,667;    0,455;    0,318
924,148; 1075,848;    0,455;   -0,955
924,704; 1222,121;   -1,364;   -0,409
925,259; 1062,758;   -0,273;    0,591
925,815; 1009,939;    1,455;    0,500
926,371;  961,030;    2,909;    1,409
926,926; 1132,848;    2,091;    0,591
927,482; 1092,303;   -1,364;    0,773
928,037; 1012,212;    0,909;    2,045
928,593; 1244,121;    1,636;    1,045
929,148;  979,485;   -1,818;   -1,500
929,704; 1036,848;   -1,455;   -0,500
930,259;  922,121;    0,091;   -0,136
930,814; 1139,939;   -0,818;    1,955
931,369; 1045,758;    1,091;   -0,773
931,925;  826,939;   -0,091;    0,136
932,480;  938,848;   -2,818;   -2,591
933,035; 1350,667;    0,545;   -0,318
933,590; 1216,212;    0,364;   -1,773
934,145;  778,758;   -1,364;   -0,318
934,700;  690,121;    0,455;   -0,591
935,255;  770,303;   -0,091;    0,045
935,809; 1109,303;    3,182;    0,864
936,364;  704,576;   -0,455;   -0,136
936,919;  716,576;    0,455;   -1,773
937,474;  617,848;    1,455;    0,136
938,028;  652,576;   -1,636;    1,136
938,583; 1068,394;    1,818;    4,682
939,138;  702,030;    2,091;    2,136
939,692;  553,485;    1,636;   -1,136
940,247;  596,576;   -0,727;   -1,045
940,801;  670,576;   -0,636;    0,227
941,355;  562,303;   -0,364;    2,591
941,910;  444,212;   -0,273;   -2,136
942,464;  493,939;   -0,818;   -0,318
943,018;  774,121;    1,000;   -0,227
943,572;  580,485;    2,545;   -0,682
944,126;  639,212;    0,091;   -0,409
944,681;  501,212;    3,091;    0,227
945,235;  437,848;    1,000;   -0,591
945,789;  387,939;    0,364;   -1,864
946,342;  715,212;    0,455;   -0,591
946,896;  456,121;   -2,273;    0,955
947,450;  423,576;    1,545;   -0,227
948,004;  697,939;    1,727;   -0,045
948,558;  482,485;    0,273;   -0,864
949,111;  484,303;   -0,273;   -0,318
949,665;  705,030;    1,636;   -0,682
950,219;  648,576;   -0,091;   -1,045
950,772;  557,848;   -1,909;    1,864
951,326;  554,303;    0,545;   -0,955
951,879;  471,939;    0,727;   -2,318
952,433;  622,485;    0,000;    2,227
952,986;  439,121;    2,909;    0,682
953,539;  391,939;   -0,273;    0,591
954,093;  335,848;    0,545;   -1,318
954,646;  492,576;    0,909;    1,318
955,199;  414,758;    0,000;   -0,500
955,752;  629,030;   -0,455;    1,773
956,305;  465,758;   -0,091;    2,955
956,858;  525,848;    0,818;   -0,318
957,411;  591,121;   -0,545;    2,136
957,964;  478,212;    1,364;    2,136
958,517;  392,939;   -1,545;    3,136
959,070;  352,576;   -0,455;    1,955
959,623;  650,667;    1,091;    1,500
960,176;  593,212;    1,727;    2,045
960,728;  557,848;   -2,727;    0,773
961,281;  492,030;    0,545;    0,500
961,834;  404,758;   -0,909;    0,864
962,386;  410,394;    1,727;    1,045
962,939;  374,121;    0,364;   -0,318
963,491;  433,758;    0,455;    1,136
964,043;  360,758;    1,182;    2,409
964,596;  552,394;   -1,000;    2,227
965,148;  447,121;   -1,000;    1,773
965,700;  355,121;    1,091;   -0,227
966,253;  534,485;   -0,636;    0,318
966,805;  487,394;   -2,273;    0,773
967,357;  411,848;    1,091;   -1,500
967,909;  533,212;    0,455;   -1,227
968,461;  408,667;    0,545;    3,136
969,013;  356,939;   -0,182;   -0,864
969,565;  518,667;   -0,455;   -1,136
970,117;  780,485;   -0,364;    1,045
970,669;  520,758;    0,182;   -0,136
971,220;  309,303;   -0,455;   -1,500
971,772;  400,212;   -0,636;   -0,318
972,324;  502,030;    0,091;   -0,500
972,876;  404,576;    0,818;   -0,045
973,427;  541,939;    1,909;   -1,045
973,979;  607,939;   -0,727;   -2,500
974,530;  391,758;    1,818;    1,318
975,082;  462,212;   -0,545;    1,682
975,633;  401,485;    1,091;    1,682
976,184;  465,848;    0,909;    0,773
976,736;  464,212;    0,091;    0,227
977,287;  475,758;   -0,909;   -0,500
977,838;  429,394;    0,909;   -0,318
978,389;  444,394;   -1,000;   -0,500
978,940;  297,848;    0,545;   -0,409
979,491;  295,030;    0,091;   -0,500
980,042;  403,030;    0,182;    3,045
980,593;  406,848;   -2,545;    0,227
981,144;  506,030;    2,545;   -0,500
981,695;  557,939;    1,455;    1,500
982,246;  500,758;   -0,273;    1,045
982,797;  351,667;   -1,727;    0,682
983,347;  512,303;    0,364;    0,591
983,898;  719,303;    3,091;    0,409
984,449;  673,030;    2,182;    0,773
984,999;  500,212;    1,455;   -1,136
985,550;  454,485;    0,182;   -0,318
986,100;  304,576;   -0,455;   -0,318
986,651;  293,758;   -0,818;    0,045
987,201;  340,394;   -1,000;   -0,591
987,751;  353,030;    0,818;    2,864
988,302;  404,758;    2,636;    1,500
988,852;  450,121;    0,455;   -1,136
989,402;  517,121;    0,091;    0,682
989,952;  540,576;   -2,182;    0,864
990,502;  375,576;   -0,091;    0,682
991,052;  271,939;   -0,727;    0,045
991,602;  324,121;   -2,909;    1,318
992,152;  384,485;    0,455;    0,682
992,702;  417,121;    1,364;   -0,045
993,252;  362,667;   -3,000;   -0,500
993,802;  462,303;   -0,273;    1,318
994,352;  418,121;   -1,545;    1,136
994,901;  316,758;   -0,182;    3,227
995,451;  305,848;   -0,182;    0,318
996,000;  344,212;    1,636;    0,318
996,550;  355,939;    2,273;    0,227
997,100;  400,212;    1,273;   -0,045
997,649;  547,758;    2,182;    0,955
998,198;  351,758;    1,727;   -1,500
998,748;  480,758;    1,091;   -2,318
999,297;  404,121;   -0,818;   -0,409
999,846;  538,212;    1,000;   -0,773
1000,395;  445,030;   -0,818;    0,500
1000,945;  563,212;    1,818;   -0,773
1001,494;  564,212;    2,364;    0,682
1002,043;  543,212;    4,636;    0,864
1002,592;  349,303;   -1,091;    1,955
1003,141;  347,030;   -0,455;   -0,682
1003,690;  516,121;    1,727;    0,500
1004,238;  390,121;    1,455;   -0,045
1004,787;  305,303;    1,364;    1,227
1005,336;  494,667;    0,364;    0,682
1005,885;  439,303;    1,364;   -2,773
1006,433;  425,485;    0,545;    0,955
1006,982;  629,394;    0,455;    1,682
1007,531;  465,848;   -1,818;   -0,227
1008,079;  413,576;   -2,273;    0,500
1008,627;  352,576;   -1,455;    0,409
1009,176;  378,030;    0,000;   -1,955
1009,724;  320,939;    1,091;    0,864
1010,273;  490,848;    1,273;    0,500
1010,821;  359,030;    0,091;    1,409
1011,369;  322,121;   -1,364;    1,318
1011,917;  342,939;   -1,364;   -0,591
1012,465;  433,667;    1,273;   -1,591
1013,013;  410,030;    2,091;   -1,682
1013,561;  520,848;    0,455;   -0,773
1014,109;  625,303;   -1,909;    1,682
1014,657;  490,394;    0,364;    0,591
1015,205;  376,939;    1,636;   -0,955
1015,753;  319,576;   -0,545;   -1,409
1016,301;  398,121;   -2,636;    3,045
1016,848;  479,394;   -1,273;    0,409
1017,396;  484,394;    2,545;    0,045
1017,944;  480,485;    1,182;    1,864
1018,491;  377,030;    0,273;    1,409
1019,039;  706,394;    0,455;    0,591
1019,586;  450,939;   -1,364;    1,682
1020,134;  433,485;    0,455;    1,500
1020,681;  517,394;    0,182;   -1,136
1021,228;  419,212;    2,909;   -2,227
1021,776;  402,212;    1,182;   -1,136
1022,323;  632,121;    0,455;    0,773
1022,870;  538,576;   -1,000;   -0,045
1023,417;  594,848;    2,636;    1,864
1023,964;  403,939;    2,636;    1,227
1024,511;  381,485;    1,000;    0,773
1025,058;  418,030;    3,182;   -0,045
1025,605;  378,667;   -2,273;    3,136
1026,152;  596,848;    1,727;   -0,591
1026,699;  448,485;    1,818;    1,318
1027,245;  419,667;   -0,091;    0,318
1027,792;  353,576;   -1,000;    1,409
1028,339;  585,758;    2,364;   -0,045
1028,885;  439,667;    1,000;   -0,227
1029,432;  387,030;   -0,091;    0,227
1029,978;  506,485;   -1,000;   -1,591
1030,525;  490,667;    1,000;    0,409
1031,071;  358,121;   -1,364;    1,136
1031,618;  663,939;    0,364;    1,682
1032,164;  488,485;   -0,091;    3,045
1032,710;  532,848;    1,636;   -1,500
1033,256;  497,121;   -0,636;   -0,136
1033,803;  337,848;   -0,545;    1,500
1034,349;  200,576;   -1,364;    0,136
1034,895;  255,758;    0,000;   -0,318
1035,441;  330,576;   -0,818;    0,318
1035,987;  384,848;   -2,364;   -0,682
1036,533;  464,030;   -1,455;   -0,955
1037,078;  670,121;    1,455;    1,682
1037,624;  509,667;    2,455;   -0,955
1038,170;  365,212;    0,455;   -0,318
1038,716;  455,485;    1,636;   -0,409
1039,261;  329,667;   -2,273;   -0,773
1039,807;  349,667;   -0,091;    3,409
1040,352;  380,030;   -1,909;   -0,318
1040,898;  373,576;   -1,545;   -0,682
1041,443;  291,758;   -1,455;   -2,591
1041,989;  601,212;    1,091;    1,591
1042,534;  388,758;   -0,364;    2,591
1043,079;  275,848;    2,909;    0,955
1043,625;  393,667;    1,818;    0,500
1044,170;  407,212;   -1,364;    1,045
1044,715;  613,576;    2,455;    0,955
1045,260;  511,576;    2,182;   -0,955
1045,805;  352,121;    1,182;   -0,591
1046,350;  314,576;    1,364;   -0,409
1046,895;  505,030;    2,909;    1,591
1047,440;  494,303;    5,364;    0,409
1047,985;  364,576;    2,818;   -0,955
1048,530;  329,485;    1,545;    1,227
1049,074;  397,030;    0,000;    0,318
1049,619;  328,485;   -1,364;    1,955
1050,164;  321,848;    0,455;    0,227
1050,708;  403,212;   -0,455;    0,045
1051,253;  655,667;    1,273;   -2,227
1051,797;  449,212;    0,818;   -1,318
1052,342;  274,121;   -1,182;    1,045
1052,886;  378,667;    0,364;   -1,409
1053,430;  256,121;   -1,364;    0,136
1053,975;  356,030;   -0,818;   -0,318
1054,519;  360,485;   -0,727;    3,227
1055,063;  436,485;    0,909;    1,318
1055,607;  421,394;   -0,182;    0,227
1056,151;  417,030;    2,909;    1,682
1056,695;  320,394;    2,273;   -1,136
1057,239;  315,121;   -1,727;   -0,682
1057,783;  362,303;    0,818;   -1,500
1058,327;  430,576;    0,000;    1,409
1058,871;  582,121;   -0,545;    1,318
1059,415;  450,030;   -0,818;   -0,045
1059,958;  607,485;    1,455;    2,591
1060,502;  363,848;   -1,000;   -0,773
1061,046;  261,030;    0,364;   -0,955
1061,589;  245,485;   -3,000;   -1,136
1062,133;  218,303;   -1,273;    1,864
1062,676;  267,212;    1,182;    0,864
1063,220;  306,848;    1,091;    0,500
1063,763;  331,394;    0,909;    1,136
1064,306;  353,848;   -0,909;    1,864
1064,849;  353,303;   -0,909;    0,591
1065,393;  325,939;    2,000;   -1,500
1065,936;  334,394;    0,182;   -0,409
1066,479;  251,485;   -1,455;    1,318
1067,022;  276,758;   -0,273;   -0,227
1067,565;  252,212;   -0,091;   -1,318
1068,108;  222,303;    0,727;   -0,591
1068,651;  191,212;   -0,636;    1,409
1069,194;  208,758;   -0,455;   -1,682
1069,736;  227,939;   -1,273;    0,955
1070,279;  198,758;   -1,364;   -0,500
1070,822;  293,939;   -2,000;   -0,318
1071,364;  427,121;   -0,364;    1,318
1071,907;  273,485;   -0,727;    3,227
1072,450;  130,939;    0,000;   -0,045
1072,992;  212,576;   -0,273;    3,136
1073,535;  291,485;    2,091;    2,136
1074,077;  199,485;   -0,727;    2,045
1074,619;  192,848;   -1,364;    0,591
1075,161;  227,939;   -1,091;    1,500
1075,704;  350,848;    1,545;    1,227
1076,246;  216,212;   -0,182;    0,682
1076,788;  150,303;   -0,364;    1,773
1077,330;  153,758;    1,273;    2,136
1077,872;  203,212;    0,909;    0,955
1078,414;  379,030;    2,727;    0,773
1078,956;  227,303;    1,273;   -0,227
1079,498;  369,121;    1,636;    0,318
1080,040;  230,758;    1,909;   -1,318
1080,581;  192,758;    1,636;   -0,318
1081,123;  127,848;    0,091;   -0,773
1081,665;  145,758;   -1,182;   -0,955
1082,206;  338,848;    1,364;   -0,500
1082,748;  254,212;    0,727;    2,045
1083,289;  160,485;   -2,000;    1,318
1083,831;  149,848;   -0,545;    0,227
1084,372;  202,667;    0,000;    0,591
1084,913;  197,576;    1,091;    0,864
1085,455;  146,030;   -1,909;   -2,045
1085,996;  145,030;   -2,273;    0,136
1086,537;  181,758;   -0,091;    0,864
1087,078;  184,121;   -0,909;   -2,136
1087,619;  237,485;   -1,273;    0,227
1088,160;  197,212;    0,000;    1,318
1088,701;  176,121;   -1,091;    0,682
1089,242;  154,848;    1,364;   -2,227
1089,783;  210,030;   -0,273;    1,409
1090,324;  189,758;    0,455;    0,682
1090,865;  136,121;    2,727;   -0,409
1091,405;  104,576;    0,727;    2,227
1091,946;  147,848;    0,182;   -0,955
1092,487;  101,485;    0,818;   -1,409
1093,027;  214,485;   -1,364;   -1,500
1093,568;  146,030;   -0,364;    1,227
1094,108;  186,394;    0,273;    1,773
1094,649;  154,303;   -1,182;    0,136
1095,189;  119,212;   -0,636;   -0,682
1095,729;  116,303;   -0,091;    0,955
1096,269;   98,667;    0,727;   -0,955
1096,810;  259,848;   -1,364;    0,500
1097,350;  200,121;    1,364;   -0,773
1097,890;  148,939;    0,364;    1,227
1098,430;  311,939;    2,364;    2,864
1098,970;  243,485;    2,182;    1,682
1099,510;  136,303;    0,545;   -2,318
1100,050;  114,939;    1,000;   -1,591
1100,589;  126,576;   -0,727;   -0,318
1101,129;  179,758;    0,818;   -0,955
1101,669;  263,576;    1,727;    2,136
1102,209;  181,303;   -0,091;    2,227
1102,748;  146,485;    0,000;    0,955
1103,288;  156,667;    1,273;   -1,227
1103,827;  145,848;    3,091;   -2,227
1104,367;  104,030;   -0,091;   -2,409
1104,906;  104,485;    1,364;   -1,136
1105,445;  148,667;    0,636;   -1,136
1105,985;  126,394;   -0,727;    1,500
1106,524;  143,939;   -1,727;   -0,682
1107,063;  135,576;   -2,727;    1,409
1107,602;  104,939;   -1,909;   -1,500
1108,141;   83,848;   -1,909;    1,500
1108,680;  148,667;   -3,455;   -0,591
1109,219;  120,848;   -0,909;   -0,500
1109,758;  113,758;    0,455;    0,682
1110,297;  107,576;    1,000;   -0,682
1110,836;   85,939;   -0,727;    0,955
1111,375;  120,939;   -2,545;    0,409
1111,913;  157,848;   -1,000;    0,773
1112,452;  127,848;   -0,273;    0,136
1112,991;   82,394;    1,091;    1,955
1113,529;   78,485;   -0,818;   -0,045
1114,068;  109,939;   -0,273;    2,955
1114,606;   78,848;   -0,364;   -0,955
1115,144;  145,121;   -1,273;    1,045
1115,683;  112,667;   -0,727;    0,318
1116,221;  144,758;   -0,455;   -0,864
1116,759;   95,121;    0,636;   -0,864
1117,297;  174,212;    0,000;    1,864
1117,836;   95,848;   -2,182;   -1,227
1118,374;   99,303;    0,182;   -0,682
1118,912;  101,576;    0,909;    2,682
1119,450;   95,576;    1,000;    0,864
1119,988;  100,212;    1,545;    2,136
1120,525;  367,576;    5,091;    3,318
1121,063;  192,394;    1,182;    1,864
1121,601;  101,121;   -0,909;   -1,227
1122,139;   80,667;   -0,727;   -2,045
1122,676;  181,848;   -0,727;    2,773
1123,214;  153,394;   -1,182;    4,409
1123,751;   74,939;    1,727;    2,227
1124,289;  108,848;   -0,091;   -0,409
1124,826;   76,394;    1,727;    0,227
1125,364;   46,485;    1,727;   -0,955
1125,901;  145,394;    1,182;    1,227
1126,438;  151,394;    0,818;    0,955
1126,975;   47,848;   -0,727;   -0,773
1127,513;   71,212;    0,273;    2,136
1128,050;   49,030;    1,636;   -0,682
1128,587;   81,121;    2,000;   -0,227
1129,124;  111,212;    0,091;    1,318
1129,661;   58,212;    0,273;    0,227
1130,198;  135,121;    1,636;    0,773
1130,734;   95,485;    0,182;    1,409
1131,271;   47,848;   -0,909;    0,864
1131,808;  118,485;    2,909;    3,045
1132,345;   69,576;    1,545;    0,318
1132,881;   24,667;   -1,545;   -1,864
1133,418;   79,212;    0,727;   -1,136
1133,954;   51,576;    2,455;   -2,682
1134,491;   82,758;    1,364;   -0,773
1135,027;   44,939;    2,364;    0,864
1135,564;   76,030;    0,273;    2,955
1136,100;   69,576;    0,364;    2,136
1136,636;   38,212;   -1,273;   -1,045
1137,172;   62,939;    0,000;   -1,045
1137,708;   43,758;   -1,364;   -1,045
1138,245;   40,939;    1,273;   -1,227
1138,781;   27,212;    1,091;   -3,318
1139,317;   49,394;    1,273;   -1,409
1139,852;   60,758;    3,091;    0,136
1140,388;   86,939;   -1,182;   -0,409
1140,924;   47,303;   -1,091;   -2,227
1141,460;   27,030;   -1,636;    0,136
1141,996;   16,667;   -1,364;    2,682
1142,531;   26,485;    1,364;    3,318
1143,067;  103,121;    1,182;    1,045
1143,602;  136,394;   -0,091;   -0,318
1144,138;   67,485;   -2,636;    1,045
1144,673;   28,121;   -1,455;    1,409
1145,209;   42,667;   -1,909;   -0,318
1145,744;   22,758;   -0,727;    0,864
1146,279;   63,212;    1,818;   -0,136
1146,815;   42,303;    1,545;   -2,682
1147,350;   57,121;   -1,364;    0,045
1147,885;   25,121;   -0,818;   -1,318
1148,420;   24,212;   -2,273;    0,773
1148,955;   24,939;   -1,727;    1,864
1149,490;   31,667;   -0,909;   -1,591
1150,025;   20,576;    0,455;   -1,773
1150,560;   61,939;    1,091;   -0,955
1151,094;   45,030;    1,455;   -0,591
1151,629;   53,121;    1,636;    0,864
1152,164;   29,939;    1,364;    1,318
1152,698;   23,667;   -0,182;   -0,136
1153,233;    8,121;    0,091;   -0,682
1153,767;   20,667;   -3,000;   -2,318
1154,302;   32,758;   -1,455;    1,773
1154,836;   33,667;   -0,455;   -2,136
1155,371;   43,303;   -1,364;    3,682
1155,905;   26,303;   -0,636;    1,682
1156,439;   25,576;   -0,636;   -0,500
1156,973;   32,394;    0,364;    0,318
1157,507;   14,848;   -0,364;    0,682
1158,042;   24,485;   -0,727;    1,045
1158,576;   37,212;    0,182;    1,773
1159,110;   35,939;   -0,818;    2,409
1159,643;   27,303;    0,636;   -0,045
1160,177;   11,576;   -1,545;    1,500

