
Integration time [ms]:   0,040
Averaging Nr. [scans]: 11
Smoothing Nr. [pixels]: 0
Data measured with spectrometer [name]: 7318044SP
Wave   ;Sample   ;Dark     ;Reference
[nm]   ;[counts] ;[counts] ;[counts] 

186,757;   38,401;   31,551;    1,318
187,357;   43,272;   22,551;    0,955
187,958;   28,575;   15,460;   -1,591
188,558;   45,202;    8,915;   -1,227
189,159;   28,024;    6,733;   -4,500
189,759;   18,195;    7,278;   -3,591
190,360;   15,474;    2,824;   -2,136
190,960;   29,285;    2,915;   -4,136
191,560;   34,572;    3,189;   -6,591
192,161;  143,713;    4,372;   -3,500
192,761;   80,586;    4,010;   -3,227
193,361;   52,160;    1,556;   -3,773
193,962;   75,614;    2,010;   -2,682
194,562;   30,452;    1,189;   -3,955
195,162;   33,407;   -2,448;   -2,227
195,762;   99,350;   -3,176;   -0,045
196,362;   71,813;    1,370;   -2,500
196,963;   22,956;    2,006;   -0,864
197,563;   51,392;    1,551;   -0,955
198,163;   24,229;    0,096;   -0,682
198,763;   32,364;    1,733;   -0,500
199,363;   66,295;    3,096;   -0,500
199,963;   44,832;    0,369;    0,409
200,563;   39,850;    2,823;   -1,409
201,163;   27,258;    3,277;   -0,227
201,763;   55,126;    3,732;    0,318
202,363;   34,015;    1,459;    1,500
202,963;   57,062;    1,459;    1,045
203,563;  105,428;    0,277;    0,500
204,162;   53,098;    2,096;   -1,864
204,762;   44,543;    0,550;    0,591
205,362;   31,854;    3,004;    1,955
205,962;   60,431;    3,096;    1,955
206,562;   58,965;    1,823;    2,318
207,161;   37,630;   -0,087;    0,318
207,761;  125,513;    1,277;    2,409
208,361;   60,750;   -0,268;    1,409
208,960;   84,565;    0,459;    1,500
209,560;   84,931;    1,277;    1,591
210,160;  103,179;    0,550;    1,864
210,759;   80,827;    4,186;    1,227
211,359;   63,600;    1,459;    1,045
211,958;  194,113;    1,277;    2,045
212,558;  212,609;    1,732;    1,864
213,157;  127,716;    1,822;    1,500
213,757;  313,558;    3,822;   -0,227
214,356;  168,520;    1,277;   -0,409
214,956;  317,461;    3,095;    0,409
215,555;  149,781;    2,095;    2,136
216,154;  112,875;   -2,723;   -0,591
216,754;  117,404;    0,277;    0,773
217,353;  146,319;   -0,268;   -1,045
217,952;   61,406;   -0,178;    0,318
218,552;  185,960;    1,368;   -0,773
219,151;  125,516;    0,277;    0,955
219,750;  115,496;    0,004;   -0,227
220,349;  105,271;   -0,451;    1,045
220,948;  215,114;   -1,360;    1,136
221,548;  132,092;    0,913;    1,227
222,147;  177,417;   -0,087;   -0,409
222,746;  331,907;   -0,451;   -0,955
223,345;  229,403;    0,731;    0,500
223,944;  236,334;   -0,451;    0,773
224,543;  257,864;    1,004;   -1,409
225,142;  285,565;    0,094;    0,136
225,741;  266,935;   -0,814;    1,045
226,340;  242,342;   -0,451;   -0,955
226,939;  396,674;   -0,996;   -0,136
227,538;  242,458;   -0,360;   -0,773
228,137;  405,878;   -0,814;    0,864
228,735;  348,506;   -0,541;    1,227
229,334;  216,217;   -0,905;   -0,227
229,933;  443,875;    0,459;    0,591
230,532;  482,231;    1,186;   -0,409
231,131;  567,259;    1,732;    0,318
231,729;  428,834;   -2,450;   -2,318
232,328;  353,261;   -0,723;   -1,500
232,927;  365,934;    1,004;   -0,500
233,525;  340,737;    3,640;    0,045
234,124;  411,773;    2,368;   -1,591
234,723;  321,294;    0,913;   -1,045
235,321;  323,968;    2,277;    0,136
235,920;  388,206;    1,186;   -1,227
236,518;  587,426;    3,459;    0,318
237,117;  399,916;    0,004;   -0,227
237,715;  409,040;    0,640;   -0,500
238,314;  487,619;   -0,087;   -2,318
238,912;  671,349;   -0,723;   -1,409
239,510;  518,134;    0,459;   -1,227
240,109;  676,325;    0,004;    3,773
240,707;  622,727;   -0,996;    1,227
241,305;  449,060;    0,550;    0,136
241,904;  593,060;   -0,178;   -2,045
242,502;  704,539;   -0,632;   -0,227
243,100;  573,115;   -0,087;   -0,955
243,698;  518,421;    0,732;    1,682
244,297;  565,316;   -0,632;    0,682
244,895;  562,134;   -0,269;   -2,318
245,493;  798,486;    2,186;   -0,591
246,091;  774,178;    1,368;   -1,318
246,689;  709,715;    1,004;    0,591
247,287;  657,886;    0,822;   -1,136
247,885;  617,141;   -1,451;    1,227
248,483;  580,875;    1,822;   -0,500
249,081;  685,204;    0,185;    1,591
249,679;  748,810;   -0,178;    1,682
250,277;  588,902;   -1,723;    0,864
250,875;  755,759;   -1,087;   -1,045
251,473;  623,291;   -1,178;    0,500
252,071;  743,238;    1,459;    1,045
252,669;  664,607;   -1,814;    0,318
253,267;  600,433;   -0,087;    0,773
253,864;  639,522;   -0,360;    0,682
254,462;  844,026;    1,640;    1,591
255,060;  579,985;   -0,269;    1,318
255,658;  564,880;    0,822;   -0,136
256,255;  699,968;    0,186;   -2,045
256,853;  746,869;   -0,269;    1,409
257,451;  713,742;    0,822;    1,864
258,048; 1222,883;    1,822;    1,864
258,646;  850,381;    1,731;   -1,045
259,243;  977,232;   -0,087;    2,227
259,841;  833,158;   -0,814;    0,318
260,438;  654,329;   -0,087;    0,864
261,036;  816,418;   -1,905;    1,409
261,633;  719,260;   -0,087;    2,227
262,231;  662,676;    2,731;   -0,045
262,828;  676,633;   -0,905;    1,136
263,425;  738,139;    0,913;   -0,591
264,023;  741,985;    0,186;    0,045
264,620;  911,546;   -0,360;   -0,318
265,217; 1057,706;   -2,087;    3,136
265,815;  732,188;   -1,905;    2,136
266,412;  885,814;    0,731;    0,136
267,009;  925,916;   -1,451;    0,773
267,606; 1035,199;    0,822;   -0,955
268,203;  771,453;   -0,269;   -0,591
268,801;  846,783;    1,731;    0,591
269,398;  750,532;   -0,360;    2,500
269,995;  930,542;    0,277;    1,591
270,592;  824,129;   -0,632;   -0,500
271,189;  744,808;    0,186;    0,409
271,786;  723,150;   -0,632;    1,227
272,383; 1024,161;   -1,087;    0,227
272,980;  845,566;    0,277;    0,318
273,577;  806,393;    0,004;    1,227
274,174;  728,702;    0,822;    2,591
274,771;  879,880;   -0,814;   -0,773
275,367; 1345,021;    2,277;    1,409
275,964; 1143,126;    0,731;   -0,500
276,561;  903,268;    1,549;   -1,045
277,158;  815,447;    0,095;   -1,773
277,755; 1107,931;    2,185;    0,409
278,351;  916,918;   -0,451;   -1,500
278,948; 1019,830;   -0,815;    0,045
279,545;  916,097;   -1,360;    2,318
280,141; 1222,073;   -1,723;   -2,045
280,738; 1093,682;   -0,451;   -0,136
281,334;  873,896;   -1,633;    0,591
281,931;  889,529;   -0,087;   -1,318
282,528;  993,308;    0,822;   -0,500
283,124; 1139,571;   -1,087;   -0,500
283,721; 1114,405;   -0,451;    1,409
284,317;  931,452;    0,185;    2,500
284,913; 1191,237;   -1,360;    0,591
285,510; 1524,691;    0,640;   -0,318
286,106; 1294,945;   -2,269;   -0,955
286,703;  947,348;   -0,360;    1,955
287,299;  909,431;   -1,451;   -0,591
287,895;  916,276;    0,822;   -1,045
288,491;  949,987;    0,186;    2,136
289,088; 1074,877;   -2,360;    2,409
289,684; 1107,244;   -1,723;    1,500
290,280; 1288,412;    0,368;    0,682
290,876; 1261,172;    1,822;    5,500
291,472; 1123,177;    1,276;    2,227
292,068; 1140,689;    1,367;    0,227
292,665;  957,885;    2,095;    0,773
293,261;  828,097;    0,276;    2,136
293,857; 1054,305;    2,913;    2,136
294,453;  963,230;    3,550;    0,955
295,049; 1203,238;   -0,268;    1,955
295,644; 1012,193;    0,095;    0,136
296,240;  868,777;   -0,905;   -0,136
296,836; 1029,869;   -0,995;    0,318
297,432; 1206,178;    1,096;   -0,500
298,028; 1270,001;    0,732;    0,773
298,624; 1085,621;    1,459;    1,864
299,220; 1057,362;    2,368;    0,591
299,815; 1024,921;    1,005;   -0,409
300,411; 1131,692;    0,914;    1,773
301,007; 1295,431;    1,368;    0,227
301,602; 1090,882;   -0,541;   -2,318
302,198; 1218,349;    0,732;   -0,773
302,794; 1054,880;    1,187;   -0,500
303,389; 1032,268;   -1,177;    1,045
303,985; 1114,199;    0,550;    1,409
304,580; 1216,599;    1,459;    1,591
305,176; 1096,780;   -3,086;    0,136
305,771;  971,584;   -1,268;   -1,227
306,367; 1414,457;    4,095;    0,136
306,962; 1174,064;    0,641;    1,500
307,558; 1158,968;   -0,450;    0,136
308,153; 1273,425;    1,095;   -1,136
308,748; 1053,009;   -0,814;    1,682
309,344; 1475,460;   -0,632;   -1,318
309,939; 1515,662;   -1,905;   -1,318
310,534; 1162,061;   -0,086;   -1,682
311,130; 1087,023;    0,459;   -2,500
311,725; 1000,452;    1,004;   -0,500
312,320; 1105,351;    2,459;    0,045
312,915; 1268,615;    1,459;   -1,045
313,510; 1497,372;    1,550;   -0,500
314,105; 1238,555;    1,096;    1,409
314,700;  989,257;   -3,086;   -1,045
315,295; 1069,145;   -0,904;    0,045
315,890;  976,502;    1,277;    0,864
316,485; 1105,923;   -0,359;   -0,318
317,080; 1042,717;   -3,086;    1,591
317,675; 1398,904;    2,005;   -0,682
318,270; 1582,117;    5,550;    3,318
318,865; 1491,473;    3,278;    3,045
319,460; 1271,516;   -0,904;    0,591
320,055; 1126,032;   -0,541;   -1,227
320,650; 1098,261;   -1,995;   -0,591
321,244; 1109,528;   -0,177;   -1,409
321,839; 1241,646;   -1,541;   -0,227
322,434; 1289,533;   -1,086;   -1,591
323,029; 1146,889;    1,732;    1,591
323,623; 1086,827;    1,550;    0,773
324,218; 1238,104;    2,368;    1,409
324,812; 1165,797;    1,096;    1,591
325,407; 1179,607;   -0,814;    2,045
326,002; 1281,803;    0,277;   -0,409
326,596; 1230,051;    0,914;    1,318
327,191; 1079,216;    0,823;   -1,045
327,785; 1013,869;   -0,813;   -0,227
328,379; 1109,582;    1,368;    0,136
328,974; 1121,494;    0,914;   -3,955
329,568; 1165,536;    0,186;   -2,409
330,163; 1233,635;    2,096;    1,045
330,757; 1111,582;    2,459;    1,591
331,351; 1012,221;    0,459;    0,682
331,945; 1025,235;    0,914;    1,409
332,540; 1177,775;   -1,723;   -0,591
333,134; 1141,232;   -1,086;    0,773
333,728; 1118,863;    0,005;    0,318
334,322; 1049,387;   -1,177;   -0,864
334,916;  957,956;    0,277;    0,955
335,510; 1182,389;   -0,450;   -0,136
336,105; 1219,580;   -1,086;    1,591
336,699; 1056,254;   -1,086;    0,591
337,293; 1089,755;   -1,723;    0,318
337,887; 1018,808;   -2,723;    1,955
338,481; 1206,406;    0,459;    0,591
339,074; 1345,948;   -0,359;    2,682
339,668; 1297,813;   -1,632;    1,227
340,262; 1967,061;    1,732;    3,227
340,856; 1479,490;    1,822;   -0,682
341,450; 1044,107;    1,004;    1,864
342,044; 1162,300;    1,459;    0,136
342,637; 1335,689;    0,913;   -2,136
343,231; 1358,748;   -2,360;    0,682
343,825; 1128,064;   -1,086;   -0,591
344,419; 1111,376;   -1,995;    0,500
345,012; 1733,941;    2,459;    4,045
345,606; 1514,161;    4,641;    1,591
346,199; 1140,057;   -1,813;   -0,227
346,793; 1287,013;    1,914;    2,045
347,386; 1067,514;   -0,813;   -1,136
347,980;  913,644;   -0,268;   -0,045
348,573; 1058,237;    2,278;    0,409
349,167; 1353,450;    5,278;    4,773
349,760; 1296,469;    2,914;    2,682
350,354; 1206,085;   -0,813;    1,136
350,947; 1265,988;    1,096;    1,682
351,540; 1040,156;   -0,358;   -1,409
352,134;  864,653;    1,096;    1,136
352,727;  939,876;   -0,086;    1,136
353,320;  972,697;    0,005;    0,591
353,913;  859,204;   -1,995;    1,864
354,507; 1123,609;    0,823;   -1,227
355,100; 1001,287;    0,460;    0,864
355,693; 1427,073;    2,005;    2,409
356,286; 1131,554;    0,823;    2,773
356,879;  966,576;   -0,722;    1,227
357,472;  917,513;   -0,904;    1,500
358,065; 1014,106;   -0,722;    2,500
358,658;  857,113;   -0,540;    2,318
359,251;  773,312;   -1,631;   -0,591
359,844;  993,717;   -1,904;   -1,136
360,437; 1103,846;   -2,995;    0,045
361,030;  941,854;    1,369;   -0,682
361,623;  908,998;    2,824;    0,318
362,215; 1180,629;   -0,086;    2,045
362,808; 1007,678;   -2,358;   -1,682
363,401;  923,021;   -2,449;    0,136
363,994; 1185,671;   -0,631;   -1,500
364,586;  926,162;    0,824;   -1,500
365,179;  852,562;   -0,449;   -1,136
365,772;  659,392;   -1,995;    2,045
366,364;  848,011;    1,915;   -3,227
366,957;  974,996;    2,279;   -0,045
367,549;  873,173;    2,188;   -0,864
368,142;  871,876;    1,825;   -1,500
368,734;  826,285;    0,734;   -2,136
369,327;  739,583;    1,643;   -0,500
369,919;  796,217;   -1,538;    0,409
370,512;  836,370;   -1,083;   -0,500
371,104; 1122,478;   -0,901;    1,591
371,696; 1192,368;    1,191;   -0,955
372,289; 1024,846;    0,373;    1,136
372,881;  956,458;   -2,080;    1,318
373,473;  793,056;   -2,170;    1,136
374,066;  919,168;   -0,169;    0,500
374,658;  877,654;    0,378;    1,136
375,250;  818,231;    0,653;   -1,409
375,842;  886,296;    0,473;   -0,045
376,434;  832,332;   -0,435;   -0,409
377,026;  869,505;    0,204;   -2,500
377,618;  897,862;   -0,158;   -0,682
378,210;  807,185;   -0,338;   -1,955
378,802;  742,237;    0,754;   -0,591
379,394; 1280,524;    1,846;    0,682
379,986; 1000,351;    1,393;   -0,955
380,578;  890,117;   -0,153;    0,773
381,170; 1159,192;   -0,972;    0,045
381,762; 1021,890;    0,755;    1,409
382,354;  974,753;   -0,065;   -1,318
382,945;  861,825;   -2,976;    0,318
383,537;  798,149;   -2,705;   -1,955
384,129;  818,211;   -2,160;   -1,136
384,721;  971,950;   -0,252;    0,955
385,312;  854,547;   -0,161;   -0,955
385,904; 1006,297;   -2,706;    1,591
386,496;  837,562;   -0,979;    1,045
387,087; 1028,515;    1,022;    2,500
387,679;  961,639;   -1,160;    0,045
388,270;  969,905;    2,840;    2,045
388,862;  907,221;    1,295;   -0,318
389,453;  842,320;   -0,887;    1,045
390,045;  889,954;   -0,705;   -2,682
390,636;  790,274;    0,204;   -0,591
391,227;  833,373;   -0,523;   -0,045
391,819;  852,240;    0,204;    0,773
392,410; 1164,071;    1,022;    0,045
393,001;  930,386;   -0,979;   -1,591
393,593; 1028,058;    1,930;   -0,045
394,184; 1085,766;    1,385;   -0,409
394,775;  880,777;    1,839;    2,136
395,366;  848,841;    1,385;    0,773
395,957; 1085,363;    0,113;    0,136
396,548;  954,668;   -0,342;    2,682
397,139; 1143,248;   -2,433;    0,591
397,730; 1009,004;   -1,888;    0,955
398,321; 1001,202;   -1,252;    0,955
398,912;  926,179;   -0,615;    0,136
399,503;  958,438;   -3,524;   -1,409
400,094;  960,664;    0,294;    1,682
400,685;  968,990;   -0,433;    0,045
401,276;  860,924;    0,930;   -0,955
401,867;  872,807;   -0,888;    0,773
402,458;  836,995;   -2,251;   -2,318
403,048; 1034,320;    1,112;    0,591
403,639;  909,337;    0,840;    0,864
404,230; 1135,884;    2,476;    0,318
404,821; 1185,256;   -0,615;    0,045
405,411; 1055,953;    1,203;   -2,591
406,002;  909,884;   -1,252;   -1,136
406,592; 1220,272;    2,294;    0,045
407,183; 1030,183;    0,566;   -1,500
407,774;  971,164;    3,475;   -0,136
408,364;  953,269;    0,930;    0,409
408,954; 1092,175;    0,384;    1,227
409,545; 1107,787;    1,021;    1,045
410,135;  999,563;    1,293;    0,500
410,726;  947,977;    1,838;    0,318
411,316; 1216,587;    0,111;    0,773
411,906;  961,862;   -0,253;   -0,409
412,497;  941,924;   -1,070;   -0,045
413,087;  901,673;   -1,980;   -0,227
413,677;  867,162;   -0,707;    3,864
414,267;  838,308;    0,656;    1,409
414,857;  797,175;   -2,980;    4,227
415,448;  834,808;    0,839;    0,500
416,038;  849,761;    0,020;   -0,591
416,628;  909,592;   -0,889;    0,409
417,218; 1007,340;    0,565;    3,318
417,808; 1212,026;    0,202;   -0,409
418,398; 1025,765;    0,020;    2,682
418,988;  874,530;    2,020;    0,591
419,578;  990,936;   -0,707;    1,409
420,168; 1002,606;   -1,343;   -0,955
420,757; 1173,538;   -1,343;   -1,500
421,347;  990,984;    0,111;   -0,227
421,937;  954,599;    2,292;    1,409
422,527; 1121,978;    0,838;   -0,773
423,116; 1295,214;   -0,253;   -0,045
423,706;  947,772;   -1,889;    0,318
424,296;  843,756;    1,384;    0,682
424,885; 1099,574;   -0,071;   -3,045
425,475; 1057,970;    1,474;   -2,864
426,065;  892,684;   -0,980;   -0,318
426,654;  856,209;   -0,435;   -0,318
427,244; 1269,461;    0,020;    1,409
427,833; 1211,312;    1,383;   -0,500
428,423; 1021,116;   -0,526;    1,136
429,012; 1079,156;   -0,344;   -1,136
429,601; 1215,638;   -1,344;    0,136
430,191; 1053,517;    1,292;    4,318
430,780;  876,311;   -0,344;   -0,409
431,369; 1209,828;    0,746;   -0,045
431,959; 1124,781;   -1,254;    0,500
432,548;  974,717;   -1,163;   -0,045
433,137;  881,998;   -1,254;   -1,318
433,726; 1059,106;    0,292;    0,500
434,315; 1014,904;   -0,526;    2,409
434,905; 1175,418;   -1,254;    1,409
435,494; 1252,711;    0,746;    0,955
436,083; 1042,235;   -0,981;   -0,955
436,672; 1107,425;    0,110;    0,500
437,261; 1053,876;    0,292;   -1,955
437,850; 1455,700;    1,383;    0,682
438,439; 1490,275;    3,291;    1,955
439,027; 1607,159;    3,655;    1,773
439,616; 1561,326;    2,927;    1,227
440,205; 1225,622;    0,200;   -2,136
440,794; 1099,004;    2,109;   -0,045
441,383; 1003,116;   -1,346;   -0,591
441,971;  893,719;   -2,436;    0,591
442,560;  931,556;    0,563;   -1,773
443,149;  803,154;    0,379;   -1,318
443,737;  924,276;   -0,074;   -2,318
444,326;  947,308;    0,018;    0,318
444,915; 1033,997;   -1,982;    0,864
445,503; 1052,270;   -2,891;   -0,318
446,092; 1388,881;    0,382;    2,136
446,680; 1335,732;    0,382;    0,318
447,269; 1243,349;   -0,346;   -0,318
447,857; 1162,968;    0,018;   -1,773
448,445; 1091,756;    0,563;    1,318
449,034; 1047,164;   -1,528;   -1,136
449,622; 1023,445;   -1,073;    3,500
450,210; 1501,253;    2,017;    2,227
450,799; 1396,129;    0,290;   -0,591
451,387; 1245,743;    1,381;   -0,591
451,975; 1233,016;    2,654;    0,864
452,563; 1394,865;    3,472;    2,318
453,151; 1073,741;   -0,528;   -1,227
453,739; 1141,257;   -1,347;    0,136
454,328; 1381,420;    2,381;   -2,136
454,916; 1216,282;    2,562;   -0,136
455,504; 1201,707;    1,017;    1,227
456,092; 1069,511;    0,017;   -1,591
456,679;  978,897;    1,472;    0,682
457,267; 1699,244;    4,017;    1,045
457,855; 1161,612;    1,017;    1,409
458,443;  859,992;   -0,165;    1,682
459,031; 1270,868;    0,108;    2,409
459,619; 1194,849;   -1,801;    2,864
460,206; 1000,926;    0,835;    2,045
460,794; 1017,135;   -2,983;   -0,227
461,382; 1125,112;   -0,529;   -0,864
461,970; 1050,652;    1,198;    1,864
462,557;  970,366;   -0,711;   -0,682
463,145; 1228,545;   -3,165;   -1,682
463,732; 1578,082;    2,016;   -1,045
464,320; 1204,009;   -0,075;   -3,045
464,907; 1422,478;    2,743;   -0,773
465,495; 1283,507;    0,743;   -1,227
466,082; 1135,260;   -1,984;   -0,045
466,670; 1102,747;   -2,529;    1,227
467,257;  994,921;   -1,711;    2,045
467,844; 1197,816;   -0,075;    0,045
468,432; 1180,579;    0,834;    3,500
469,019; 1055,443;    0,925;   -1,773
469,606; 1164,490;    0,470;    3,682
470,193; 1239,875;   -1,439;    0,227
470,780; 1204,088;   -2,075;    0,864
471,368; 1083,875;   -1,257;   -0,773
471,955; 1230,528;    1,379;   -0,682
472,542; 1127,291;    0,652;   -1,136
473,129;  936,030;   -0,166;    0,136
473,716;  913,878;    1,470;    0,591
474,303;  994,258;    0,652;   -0,864
474,890; 1034,012;   -1,439;   -0,500
475,477; 1201,389;   -1,621;    0,409
476,064; 1027,991;    1,106;   -1,591
476,650; 1201,777;    0,288;    0,318
477,237; 1088,414;   -0,258;    0,955
477,824; 1047,648;   -1,076;    0,864
478,411;  884,978;   -1,894;   -0,318
478,997;  894,440;    0,560;   -0,773
479,584;  796,048;    1,196;   -0,409
480,171; 1211,222;   -0,440;   -0,773
480,757; 1332,811;    2,651;    0,773
481,344; 1119,145;    0,469;    0,409
481,931;  880,537;    1,105;    1,045
482,517; 1248,711;   -1,258;    0,318
483,104; 1410,591;    1,106;    2,864
483,690; 1261,252;   -1,804;    0,045
484,276; 1211,527;   -0,895;    0,227
484,863; 1601,329;    2,469;    1,136
485,449; 1332,493;   -0,077;    0,318
486,035; 1227,438;   -1,986;   -0,136
486,622; 1449,629;   -0,895;    0,045
487,208; 1297,832;    1,378;    1,500
487,794; 1155,901;    0,741;    0,318
488,380; 1182,512;    0,105;   -1,409
488,967; 1186,470;   -1,168;   -0,409
489,553; 1217,613;   -1,895;   -1,409
490,139; 1365,263;    1,559;    0,773
490,725; 1178,577;    0,741;   -0,227
491,311; 1196,715;    3,287;    3,045
491,897; 1043,103;   -0,986;    1,500
492,483; 1062,354;    0,105;    1,227
493,069; 1863,770;    3,923;    0,864
493,655; 1316,111;    1,650;    0,682
494,241; 1116,885;    1,377;   -0,955
494,826; 1205,787;    0,287;   -1,045
495,412; 1267,971;    2,559;   -0,682
495,998; 1119,391;   -0,805;   -0,318
496,584; 1206,287;    0,377;    1,045
497,169; 1152,739;    1,014;   -0,682
497,755; 1020,669;    0,650;    1,227
498,341; 1421,276;    0,559;    0,318
498,926; 1583,314;    1,832;    1,955
499,512; 1173,240;    1,286;    2,955
500,097; 1103,687;    0,195;   -0,318
500,683; 1130,043;   -0,350;    2,136
501,268; 1087,608;   -0,169;   -0,955
501,854; 1124,795;   -0,169;    1,227
502,439; 1037,207;   -0,624;   -1,773
503,024; 1177,676;    0,195;    0,500
503,610; 1235,472;   -0,078;   -0,682
504,195; 1043,475;    0,558;    1,955
504,780; 1213,186;    2,922;    1,227
505,366; 1391,955;    3,013;    2,864
505,951; 1227,228;    0,740;    1,045
506,536; 1127,636;   -3,260;   -3,682
507,121; 1184,813;    0,285;   -0,318
507,706; 1143,474;    2,376;    1,045
508,291; 1056,873;    2,649;    1,136
508,876; 1012,510;   -0,988;    2,591
509,461; 1095,610;   -0,169;   -0,773
510,046; 1178,944;    0,194;    0,318
510,631; 1141,986;   -0,351;   -0,773
511,216; 1035,098;    2,467;   -0,500
511,801; 1193,113;   -0,442;    2,591
512,386; 1212,140;    0,740;    0,500
512,971; 1229,552;   -2,988;    0,955
513,555; 1299,938;   -0,897;   -1,500
514,140; 1289,544;   -0,442;   -3,136
514,725; 1396,259;   -0,715;   -1,136
515,309; 1270,937;   -0,533;    0,318
515,894; 1122,108;   -0,624;   -2,227
516,479; 1170,372;   -0,624;   -0,955
517,063; 1149,753;    0,376;    1,227
517,648; 1115,695;    1,012;   -1,136
518,232; 1030,010;   -0,261;   -1,409
518,817; 1159,842;   -0,079;    1,682
519,401; 1375,426;    2,194;    0,591
519,985; 1194,542;    1,103;    1,136
520,570; 1033,875;    0,830;   -1,955
521,154; 1215,987;    2,102;    0,591
521,738; 1509,127;   -2,352;    2,409
522,323; 1339,393;   -0,170;    1,682
522,907; 1254,645;    0,466;   -0,136
523,491; 1125,034;    0,557;    0,955
524,075; 1063,047;    2,284;    0,591
524,659; 1304,546;    1,466;    0,591
525,243; 1176,582;    1,739;    0,409
525,827; 1101,235;    0,648;   -0,045
526,411; 1164,728;   -1,989;   -0,136
526,995; 1359,535;   -0,352;    1,409
527,579; 1389,294;   -0,443;   -1,045
528,163; 1316,338;    0,375;   -1,500
528,747; 1511,842;    2,466;   -0,773
529,331; 1430,167;   -0,080;   -1,409
529,915; 1185,903;    1,738;    0,955
530,499; 1302,900;   -0,807;    1,227
531,082; 1443,187;   -0,534;    1,591
531,666; 1495,555;    1,374;    0,773
532,250; 1411,310;    1,284;    2,682
532,833; 1582,511;    0,920;    2,773
533,417; 1336,621;   -1,807;    0,864
534,001; 1469,144;    1,647;   -0,318
534,584; 1401,592;    0,374;    0,500
535,168; 1190,485;    0,465;    1,409
535,751; 1633,020;    0,647;    0,045
536,334; 1251,185;   -0,898;   -0,409
536,918; 1194,163;    0,011;    1,591
537,501; 1195,642;   -0,899;    1,318
538,085; 1251,155;   -0,444;    1,045
538,668; 1289,350;    0,829;    2,409
539,251; 1686,273;    1,829;    3,773
539,834; 1398,694;    0,101;    0,773
540,418; 1506,473;   -1,990;    4,318
541,001; 1701,768;   -0,990;    1,773
541,584; 1420,425;    2,101;    2,227
542,167; 1504,873;    1,374;    2,955
542,750; 1365,131;    1,919;   -0,773
543,333; 1133,218;    0,555;    2,136
543,916; 1466,040;    0,192;    2,500
544,499; 1336,120;   -1,354;    0,227
545,082; 1453,505;    1,374;    3,591
545,665; 1363,897;    1,919;    1,500
546,248; 1519,491;    1,010;   -0,318
546,830; 1476,447;   -0,445;    1,955
547,413; 1493,361;    1,010;   -0,773
547,996; 1544,011;    0,555;    0,500
548,579; 1367,330;    0,919;    0,955
549,161; 1634,534;    1,828;    2,682
549,744; 1510,035;   -0,809;    0,409
550,326; 1447,506;   -0,809;   -1,136
550,909; 1935,346;    2,737;    0,591
551,492; 1604,638;   -0,263;    0,227
552,074; 1678,869;   -0,173;   -1,318
552,657; 1736,147;    2,373;    0,045
553,239; 1560,188;   -0,173;   -0,773
553,821; 1473,569;   -1,082;    1,045
554,404; 1680,591;    1,282;    1,136
554,986; 1820,144;    0,464;    1,045
555,568; 1706,549;    1,191;   -0,955
556,151; 1900,926;    1,191;   -0,227
556,733; 1564,012;   -0,264;   -0,864
557,315; 1554,912;    0,100;    0,500
557,897; 1370,422;    0,554;   -0,500
558,479; 1381,713;   -1,991;    1,318
559,061; 1522,324;   -0,719;   -0,864
559,643; 1648,024;   -0,264;    0,045
560,225; 1682,934;    1,645;    2,864
560,807; 1551,479;    0,918;    0,318
561,389; 1476,344;    0,554;    2,318
561,971; 1547,020;    0,463;    2,136
562,553; 1535,699;   -1,628;    1,591
563,135; 1631,859;   -0,537;    1,136
563,717; 1993,393;    3,372;    1,136
564,298; 1877,933;    3,645;   -0,045
564,880; 1607,193;    0,645;   -1,409
565,462; 1472,011;    0,645;    1,318
566,043; 1817,742;   -0,446;    2,318
566,625; 1981,007;    1,918;    1,227
567,207; 1738,337;    1,099;    1,682
567,788; 1711,469;   -1,264;    1,500
568,370; 1840,490;    1,917;   -0,500
568,951; 1716,433;    0,190;    0,227
569,533; 1896,424;   -0,628;   -0,500
570,114; 2025,274;   -0,446;    0,682
570,695; 2054,413;   -0,174;   -1,318
571,277; 2012,512;   -0,265;   -1,682
571,858; 2278,796;    2,008;   -1,136
572,439; 2297,868;    1,554;   -1,045
573,021; 2262,216;    2,099;   -2,773
573,602; 2382,382;   -1,265;    0,318
574,183; 2432,668;   -2,083;    2,227
574,764; 2428,459;   -1,629;    0,409
575,345; 2546,368;    0,917;   -0,136
575,926; 2533,525;   -0,356;    0,136
576,507; 2618,919;    1,099;   -0,227
577,088; 2713,098;    3,099;    1,682
577,669; 2858,343;    0,735;    1,955
578,250; 3107,395;    0,644;   -1,045
578,831; 2952,764;   -1,356;   -2,227
579,412; 2818,448;   -0,810;    0,955
579,993; 3096,924;    1,008;    0,227
580,573; 3115,481;   -0,629;   -0,955
581,154; 2813,899;    0,735;   -0,591
581,735; 2977,059;    0,644;    0,773
582,315; 2867,332;   -0,629;    2,136
582,896; 3014,095;   -0,174;    1,227
583,477; 2832,566;    0,189;    1,227
584,057; 2929,194;    0,553;    0,955
584,638; 3011,833;    2,553;    2,318
585,218; 3204,178;   -0,538;    2,682
585,799; 3124,751;    0,281;   -0,227
586,379; 3011,916;    0,372;    1,591
586,959; 2840,583;    0,735;    0,318
587,540; 2702,367;   -0,629;    2,227
588,120; 2610,509;    1,007;   -0,045
588,700; 2467,232;    2,553;    2,136
589,281; 2727,020;    0,462;   -0,955
589,861; 2606,345;    0,099;   -1,682
590,441; 2518,764;    2,371;   -2,682
591,021; 2356,189;   -0,265;   -2,591
591,601; 2458,952;   -0,537;    0,500
592,181; 2549,559;   -0,719;   -0,773
592,761; 2236,744;    0,007;    1,409
593,341; 2390,026;   -0,901;    0,045
593,921; 2354,186;   -0,265;    1,591
594,501; 2248,495;   -0,538;    1,318
595,081; 2202,627;    0,917;   -0,318
595,661; 2444,624;   -1,447;    0,955
596,240; 2506,501;   -0,537;    0,136
596,820; 2668,165;    0,372;    1,955
597,400; 2363,511;    2,008;    0,773
597,980; 2396,619;    2,008;    1,045
598,559; 2376,214;    2,735;   -0,227
599,139; 2348,900;   -0,174;   -1,227
599,718; 2338,809;   -0,174;   -0,409
600,298; 2408,217;    0,735;    0,682
600,877; 2775,917;    2,917;    1,409
601,457; 2665,309;    2,281;    1,136
602,036; 2517,944;    0,190;    2,045
602,616; 2467,247;    0,644;    1,682
603,195; 2631,209;   -0,355;    3,500
603,774; 2555,165;   -0,901;    2,045
604,354; 2481,361;    0,826;   -0,500
604,933; 2377,110;    0,463;    1,864
605,512; 2566,019;    3,554;    0,591
606,091; 2569,876;   -0,537;    3,773
606,671; 2599,678;    0,281;    0,773
607,250; 2611,512;    1,644;    3,136
607,829; 2609,323;    2,372;    3,227
608,408; 2504,584;    1,190;    2,591
608,987; 2453,238;    1,281;    3,409
609,566; 2321,996;   -1,265;   -2,500
610,145; 2420,086;   -1,082;    0,682
610,723; 2542,577;    4,372;    6,864
611,302; 2320,255;   -0,446;    1,682
611,881; 2461,775;    5,008;   11,227
612,460; 2350,343;    1,645;    3,955
613,039; 2408,999;   -0,082;    2,045
613,617; 2126,631;    1,736;    4,773
614,196; 2156,345;    1,099;    1,227
614,775; 2328,980;    1,009;    2,409
615,353; 2334,159;    0,736;    0,864
615,932; 2266,363;    0,100;    2,409
616,510; 2385,153;    0,554;    0,591
617,089; 2773,385;    7,100;   17,591
617,667; 2431,189;    2,372;    6,136
618,246; 2070,457;   -1,537;    1,318
618,824; 2204,033;   -3,355;   -0,955
619,402; 2162,768;   -2,900;   -1,773
619,981; 2318,752;   -0,173;   -1,045
620,559; 2298,766;    0,009;    1,682
621,137; 2303,631;   -0,718;    1,864
621,715; 1991,939;   -1,173;   -0,682
622,293; 2036,529;   -0,537;   -0,773
622,871; 2304,003;   -0,718;    0,500
623,450; 2134,631;    0,373;   -0,864
624,028; 2246,215;    0,191;   -0,955
624,606; 2185,400;   -1,718;    1,682
625,183; 2075,555;   -1,536;   -1,136
625,761; 2095,455;    1,009;    1,136
626,339; 2479,893;    1,373;    2,591
626,917; 2211,919;   -0,172;   -0,045
627,495; 2200,401;   -0,354;    1,318
628,073; 2169,825;   -0,263;    2,864
628,650; 2143,657;    0,100;    2,136
629,228; 2227,419;    0,373;    4,409
629,806; 1945,401;    2,282;    1,136
630,383; 2032,349;    1,464;   -0,318
630,961; 2028,858;    2,555;   -0,955
631,539; 1983,420;    2,464;    0,227
632,116; 2666,221;   11,373;   15,409
632,694; 2329,092;    2,555;    6,500
633,271; 2128,104;    0,828;    2,682
633,848; 2251,401;    1,828;    2,045
634,426; 2049,110;   -1,081;    1,773
635,003; 1894,811;    1,101;   -0,409
635,580; 2256,233;    1,192;    3,682
636,158; 2098,369;    3,737;    1,227
636,735; 1935,380;    0,555;   -0,500
637,312; 1942,804;   -0,809;   -0,682
637,889; 1962,430;   -4,354;   -0,682
638,466; 1940,547;   -3,990;   -0,409
639,043; 1931,765;    2,101;   -1,136
639,620; 1925,300;   -2,262;   -0,955
640,197; 2070,088;    1,100;    1,682
640,774; 2042,109;   -0,172;    1,136
641,351; 2120,129;    0,737;    1,136
641,928; 2173,332;   -0,627;    1,409
642,505; 2295,716;    0,828;   -0,500
643,082; 2173,464;   -1,718;    1,227
643,658; 1847,666;   -0,718;    1,500
644,235; 1954,777;    1,191;    2,500
644,812; 2129,071;    1,918;    0,773
645,388; 2063,455;   -0,991;    1,409
645,965; 1850,475;   -0,809;    1,682
646,542; 1876,769;   -1,445;   -0,227
647,118; 2320,789;    1,009;   -0,955
647,695; 2149,537;   -0,263;    1,136
648,271; 1957,830;   -0,536;    0,500
648,848; 2091,306;    0,736;    2,227
649,424; 2205,872;    0,827;    1,318
650,000; 1913,710;   -0,354;   -1,045
650,577; 1989,822;   -0,627;   -0,955
651,153; 2103,570;   -1,809;    0,955
651,729; 2097,136;    1,191;    0,864
652,305; 2393,702;    0,645;    2,773
652,881; 2812,450;   -0,082;    1,136
653,458; 3714,379;    1,100;    0,227
654,034; 4248,673;    0,282;    1,591
654,610; 4289,966;    0,554;    0,773
655,186; 4698,623;    0,645;    3,045
655,762; 4384,734;   -0,991;    0,409
656,338; 4348,755;    0,100;    0,136
656,913; 4646,321;   -0,082;    0,409
657,489; 4358,160;    0,827;   -0,318
658,065; 4435,271;   -0,173;   -1,591
658,641; 4691,837;   -0,900;   -0,864
659,217; 4441,676;   -0,991;    0,409
659,792; 4218,424;    0,645;   -0,409
660,368; 4286,262;   -2,173;   -0,682
660,944; 4489,192;   -2,082;    1,227
661,519; 3839,758;   -0,628;    0,409
662,095; 2968,415;   -1,719;    0,591
662,670; 2300,799;    1,281;   -0,136
663,246; 2254,183;    1,009;   -0,409
663,821; 2323,931;    0,281;    1,682
664,396; 2075,952;    0,009;    1,864
664,972; 2091,336;    0,009;   -0,500
665,547; 2253,175;    1,372;    0,136
666,122; 2186,195;   -1,082;    0,318
666,698; 2366,943;   -0,173;    0,318
667,273; 2033,873;   -0,173;    0,136
667,848; 2202,712;    2,372;    1,500
668,423; 2282,187;    2,190;    2,318
668,998; 2210,935;    2,827;   -0,682
669,573; 2259,046;   -3,264;   -1,500
670,148; 2408,976;   -1,446;   -0,682
670,723; 2115,814;   -1,810;    0,318
671,298; 2479,108;    2,372;    1,045
671,873; 2353,583;   -0,082;   -0,136
672,448; 2352,513;    0,645;    0,136
673,023; 2366,533;   -1,992;   -0,227
673,597; 2551,463;    0,827;    2,318
674,172; 2524,120;   -0,355;    0,318
674,747; 2395,049;    0,372;   -1,045
675,321; 2166,434;   -0,628;    3,318
675,896; 2049,181;    0,645;    1,045
676,471; 2285,384;    2,645;    1,591
677,045; 2184,677;   -1,264;    0,682
677,620; 2223,970;    0,190;    1,136
678,194; 2228,627;   -2,628;    1,136
678,769; 2221,739;   -1,083;   -0,318
679,343; 2309,305;   -0,628;    1,773
679,917; 2381,416;   -1,446;    1,955
680,492; 2227,619;    0,826;    3,227
681,066; 2278,821;    3,372;    0,409
681,640; 2261,842;    1,463;   -0,318
682,214; 2380,771;    0,735;    0,500
682,788; 2309,337;   -1,356;   -0,773
683,363; 2352,449;   -1,810;    1,682
683,937; 2206,015;   -1,719;   -0,318
684,511; 2411,126;    0,463;   -0,591
685,085; 2371,147;   -1,356;    0,318
685,659; 2219,440;   -2,538;    0,864
686,232; 2468,643;   -0,356;   -0,318
686,806; 2348,118;   -0,901;    0,409
687,380; 2402,320;   -0,174;    0,591
687,954; 2393,977;   -1,174;    1,136
688,528; 2543,998;   -0,719;    1,955
689,101; 2612,654;   -3,992;    1,045
689,675; 2388,220;   -0,356;   -0,136
690,249; 2472,423;   -0,719;    0,409
690,822; 2530,807;    0,280;    0,318
691,396; 2408,191;   -0,265;    1,227
691,969; 2260,939;    1,280;    0,136
692,543; 2352,232;   -0,447;   -1,955
693,116; 2171,526;   -0,265;   -1,409
693,690; 2247,183;    0,099;    0,500
694,263; 2373,658;   -1,083;    2,955
694,836; 2621,951;    1,371;    3,591
695,410; 2348,335;   -0,265;    1,773
695,983; 2366,447;    0,189;    0,591
696,556; 2245,558;   -0,447;   -1,045
697,129; 2291,942;   -0,356;    1,409
697,703; 2285,508;   -1,629;    1,955
698,276; 2290,165;    1,462;   -0,773
698,849; 2362,277;    1,280;    1,409
699,422; 2209,479;   -1,083;    0,591
699,995; 2105,773;    0,007;    0,136
700,568; 2293,066;   -0,629;    3,045
701,140; 2308,723;   -2,811;    1,682
701,713; 2412,925;   -0,174;    2,409
702,286; 2299,855;   -0,538;    0,864
702,859; 2298,694;   -0,902;   -0,591
703,432; 2261,532;    0,825;    0,682
704,004; 2228,371;    0,462;    0,318
704,577; 2067,755;   -0,629;    0,136
705,150; 2177,503;    0,189;    2,500
705,722; 2259,978;   -0,356;   -3,227
706,295; 2285,362;   -0,175;   -0,591
706,867; 2115,383;   -0,175;    1,955
707,440; 2316,676;   -1,720;   -0,409
708,012; 2394,697;    0,462;    0,591
708,584; 2256,899;    2,462;    0,227
709,157; 2195,374;    1,825;   -0,591
709,729; 2339,668;    2,280;    2,045
710,301; 2459,143;    0,734;    0,045
710,874; 2422,345;   -1,447;   -0,227
711,446; 2056,548;    0,371;    0,864
712,018; 2144,295;    0,098;    0,500
712,590; 2061,407;   -1,993;    1,682
713,162; 2368,246;    0,825;    1,318
713,734; 2241,084;    1,825;   -2,045
714,306; 2211,378;   -1,902;   -0,409
714,878; 2060,035;    0,825;    0,864
715,450; 2175,601;    0,643;    0,864
716,022; 2206,258;    1,552;    1,318
716,593; 2221,642;    0,189;    0,591
717,165; 2270,480;   -3,175;   -1,227
717,737; 2433,774;    0,280;    0,409
718,309; 2243,703;    0,280;   -0,045
718,880; 2166,906;   -0,539;   -1,409
719,452; 2271,290;   -0,175;   -1,591
720,024; 2258,492;    0,734;   -0,591
720,595; 2265,695;   -2,902;    0,955
721,167; 2167,806;    0,370;   -2,045
721,738; 2147,372;   -0,812;   -1,045
722,309; 2227,575;   -0,993;   -1,227
722,881; 2062,050;   -1,357;    0,773
723,452; 2236,343;   -2,630;    2,864
724,023; 2286,818;   -0,721;    2,682
724,595; 2311,657;    0,007;    0,682
725,166; 2100,314;    0,007;   -0,409
725,737; 2283,334;    1,734;    0,227
726,308; 2190,173;   -0,266;    0,318
726,879; 2106,376;   -1,630;    1,227
727,450; 2235,578;    0,552;   -0,045
728,021; 2112,780;    3,097;    0,682
728,592; 2268,619;    0,734;    0,500
729,163; 2419,458;    0,643;   -0,136
729,734; 2420,478;    0,188;   -0,227
730,305; 2263,499;    1,734;    0,136
730,876; 2246,701;    0,188;    2,955
731,447; 2572,995;    2,188;    2,682
732,017; 2436,197;    1,097;    1,864
732,588; 2328,127;    0,734;    1,227
733,159; 2494,784;    0,643;   -1,045
733,729; 2209,804;    0,006;    0,409
734,300; 2268,279;    0,915;    0,864
734,870; 2221,300;    3,461;    0,591
735,441; 2235,866;    0,370;   -0,591
736,011; 2126,977;    0,643;   -1,591
736,582; 2166,180;   -0,812;    0,045
737,152; 2164,564;   -1,721;   -2,045
737,722; 2227,766;   -0,267;   -0,682
738,293; 2070,787;   -1,358;    1,318
738,863; 2237,171;    2,461;    2,318
739,433; 2470,646;    5,279;    0,318
740,003; 2338,121;   -0,994;   -0,682
740,573; 2376,506;    2,097;   -1,591
741,143; 2314,708;   -1,085;    0,318
741,713; 2270,092;    1,188;   -0,500
742,283; 2261,022;    0,915;    1,591
742,853; 2172,133;    1,915;    1,591
743,423; 1995,245;    1,733;    0,045
743,993; 2080,993;   -0,358;    1,500
744,563; 1958,922;    0,097;   -0,864
745,133; 2002,761;   -0,812;   -0,864
745,702; 2085,691;   -0,267;    1,773
746,272; 2139,984;   -0,176;    0,591
746,842; 2148,277;   -1,358;   -0,591
747,411; 2052,480;   -0,267;   -0,318
747,981; 1965,137;    0,097;    0,500
748,551; 1993,066;    2,278;   -1,045
749,120; 2105,269;    0,642;   -0,227
749,690; 2124,107;   -0,631;    2,409
750,259; 2262,128;    1,369;    2,955
750,828; 2268,330;    1,551;   -1,955
751,398; 2131,624;    1,278;   -0,045
751,967; 2473,462;    2,187;    0,409
752,536; 2221,847;   -0,813;   -0,227
753,105; 2374,049;    0,096;    0,227
753,675; 2166,888;    0,096;    1,773
754,244; 2158,363;   -0,904;    3,591
754,813; 2181,474;    0,551;    1,227
755,382; 2084,586;    0,460;    0,955
755,951; 2240,606;    1,551;    3,682
756,520; 2298,172;   -0,085;    1,864
757,089; 2543,193;    0,278;    0,500
757,658; 2244,395;    1,733;    1,227
758,227; 2132,325;    1,096;    0,318
758,795; 2213,164;    1,187;    1,136
759,364; 2333,275;   -0,086;   -0,591
759,933; 2061,932;   -1,176;   -0,045
760,501; 1997,680;    0,733;   -1,318
761,070; 2159,428;   -2,813;   -1,409
761,639; 2372,903;   -1,904;    1,318
762,207; 2221,833;    1,551;   -0,955
762,776; 2282,217;    0,369;    0,864
763,344; 2154,328;   -0,995;    0,591
763,913; 1805,167;   -0,722;    1,409
764,481; 2453,733;    1,005;   -0,136
765,049; 2377,663;   -1,358;    1,409
765,618; 2274,138;   -0,086;    0,318
766,186; 2179,431;    0,278;    0,136
766,754; 2198,724;    0,005;    1,864
767,322; 1918,836;   -1,995;    0,409
767,890; 1881,129;   -0,722;   -1,773
768,459; 2060,513;   -2,177;   -0,318
769,027; 2273,534;    1,641;    3,409
769,595; 1992,191;    3,278;    2,591
770,163; 2049,121;    3,823;    2,955
770,730; 2050,596;    0,732;   -0,136
771,298; 2013,071;    0,187;   -1,409
771,866; 2004,000;   -1,541;    4,955
772,434; 2037,021;   -0,631;   -1,864
773,002; 2278,587;    0,005;    0,682
773,569; 2153,608;    0,914;    1,682
774,137; 2234,446;   -0,268;   -0,045
774,705; 2189,467;    0,278;   -0,136
775,272; 2024,942;    0,641;    0,682
775,840; 2116,872;   -0,177;    2,682
776,407; 2100,710;    0,277;    1,955
776,975; 1863,822;   -0,632;    0,318
777,542; 2009,752;   -1,086;   -0,045
778,110; 2023,318;   -1,268;   -0,045
778,677; 1881,065;   -2,359;   -0,864
779,244; 1920,177;    2,186;    1,045
779,812; 2064,379;    1,823;    0,864
780,379; 2118,400;    0,005;    1,136
780,946; 2010,057;    1,005;   -0,773
781,513; 2010,532;   -1,450;    0,318
782,080; 1869,098;   -0,086;    2,864
782,647; 1993,209;   -0,268;    3,045
783,214; 1909,685;   -0,177;    3,864
783,781; 2045,887;   -0,723;   -0,682
784,348; 2024,089;   -0,632;    1,500
784,915; 1875,655;   -3,177;    0,318
785,482; 2058,040;    1,368;    2,591
786,049; 2132,333;    0,186;   -0,591
786,615; 2024,535;    0,277;   -0,955
787,182; 1930,647;    0,186;   -0,682
787,749; 1906,849;   -2,814;    1,409
788,315; 1944,961;   -1,632;   -0,409
788,882; 1956,527;    1,550;   -1,227
789,448; 2251,365;    1,732;   -0,955
790,015; 2047,659;    1,095;    3,227
790,581; 2155,679;    1,459;    0,227
791,148; 1954,336;    0,641;    1,045
791,714; 1919,448;   -0,541;    3,136
792,280; 1900,014;    0,186;    1,591
792,847; 1821,943;    0,550;    2,500
793,413; 1914,055;   -0,269;   -0,318
793,979; 1998,621;    3,459;   -1,318
794,545; 2348,005;    4,459;    2,682
795,111; 2143,298;    2,186;    1,318
795,678; 1989,683;    0,731;   -1,682
796,244; 2183,976;    3,368;    0,136
796,810; 2126,451;    1,731;    0,773
797,375; 2099,653;    0,549;   -2,136
797,941; 1736,401;   -0,541;    0,591
798,507; 1726,694;   -0,451;   -0,955
799,073; 1735,624;   -0,360;    0,591
799,639; 1806,736;   -2,632;    3,136
800,205; 1727,483;    0,095;    2,682
800,770; 1685,959;    0,640;    1,773
801,336; 1646,343;    1,368;   -0,955
801,901; 2284,636;    4,549;    3,136
802,467; 2007,748;   -0,542;    2,045
803,033; 1684,859;   -0,087;    0,864
803,598; 1695,243;    1,913;   -1,045
804,163; 1768,082;    1,095;   -0,318
804,729; 1853,648;   -0,178;    1,136
805,294; 1780,396;    0,822;    2,227
805,859; 1660,053;    0,731;   -0,409
806,425; 2044,801;    1,186;    2,682
806,990; 2009,094;    2,186;    4,318
807,555; 1809,660;   -1,451;    2,591
808,120; 1964,408;    0,822;   -0,409
808,685; 1708,156;    0,185;   -2,500
809,250; 1549,631;    0,004;   -0,500
809,815; 1627,288;    1,913;    0,682
810,380; 1830,490;   -0,269;    1,591
810,945; 1981,056;   -1,087;    2,045
811,510; 1831,622;    2,094;    1,591
812,075; 1756,734;   -0,633;   -1,409
812,640; 2031,936;    2,003;    1,409
813,204; 1833,956;    0,822;   -0,227
813,769; 2031,432;    2,094;   -0,045
814,334; 1957,270;    0,458;    0,864
814,898; 1738,836;    0,367;    0,591
815,463; 1758,221;    1,276;   -0,773
816,027; 1687,605;   -0,724;   -2,318
816,592; 1694,625;    0,640;   -2,045
817,156; 1746,555;    2,094;    1,136
817,721; 1821,848;    4,276;    2,318
818,285; 1601,051;    2,912;    1,500
818,849; 1731,889;   -1,451;    1,682
819,414; 1616,819;   -0,269;    2,955
819,978; 1561,021;   -1,269;    1,773
820,542; 1967,588;    2,003;    0,500
821,106; 1794,881;   -0,815;    0,682
821,670; 1955,901;   -0,815;    2,591
822,234; 1715,195;   -0,270;    1,409
822,798; 1567,852;    0,003;    0,500
823,362; 1896,963;   -0,633;    4,227
823,926; 1600,620;    0,094;    1,136
824,490; 1806,550;   -0,997;   -0,682
825,054; 1722,116;   -0,088;   -1,136
825,618; 1573,045;   -1,542;   -1,500
826,181; 1597,430;    0,458;   -1,318
826,745; 1668,177;    1,367;   -1,045
827,309; 1956,016;    1,185;    1,318
827,872; 1798,946;    1,367;    0,955
828,436; 1760,057;    1,185;   -0,773
828,999; 1705,896;   -0,997;    1,227
829,563; 1624,189;   -0,179;    1,136
830,126; 1577,028;   -0,179;   -0,591
830,690; 1594,049;   -1,997;    2,864
831,253; 1489,160;   -0,543;    2,227
831,816; 1551,272;   -1,906;    0,500
832,380; 1462,565;    0,185;    0,864
832,943; 1491,404;   -1,361;   -0,500
833,506; 1500,788;    2,639;   -1,227
834,069; 1723,899;    3,912;   -0,955
834,632; 1613,284;    1,730;    1,318
835,195; 1620,031;    1,003;    0,955
835,758; 1520,052;   -0,997;    1,955
836,321; 1447,073;    0,730;   -1,045
836,884; 1471,275;   -0,725;   -0,955
837,447; 1459,386;   -2,816;    1,773
838,010; 1614,680;    0,366;    3,227
838,573; 1683,882;   -1,179;    0,773
839,135; 1580,539;   -1,361;   -0,955
839,698; 1513,469;    1,275;    0,409
840,261; 1460,307;    1,003;   -0,227
840,823; 1420,873;   -0,543;    0,864
841,386; 1400,530;   -0,452;   -2,409
841,948; 1741,551;   -1,361;    1,773
842,511; 1453,753;    0,912;    1,682
843,073; 1724,956;    1,912;    0,227
843,636; 1463,613;   -0,361;   -0,227
844,198; 1684,633;    0,911;    0,591
844,760; 1661,745;    1,093;    1,955
845,322; 1395,765;    0,548;    1,136
845,885; 1553,968;    0,730;    0,591
846,447; 1533,806;   -1,998;    0,227
847,009; 1879,463;    1,911;   -0,682
847,571; 1567,575;    0,820;   -2,045
848,133; 1522,868;   -1,089;   -1,864
848,695; 1379,161;   -0,543;    1,409
849,257; 1430,727;   -1,089;   -1,682
849,819; 1622,475;   -0,998;   -0,409
850,381; 1472,405;   -0,725;   -0,864
850,942; 1547,971;    1,093;   -0,591
851,504; 1573,082;    1,184;    0,227
852,066; 1490,558;    1,275;   -1,591
852,628; 1498,851;   -0,180;    1,955
853,189; 1314,417;    1,638;    2,682
853,751; 1382,619;   -0,907;    1,409
854,312; 1556,822;   -0,453;   -1,682
854,874; 1727,842;   -2,089;   -0,773
855,435; 1536,681;   -0,907;   -1,682
855,997; 1638,974;   -1,816;   -0,136
856,558; 1662,086;    0,366;    1,773
857,119; 1511,197;    0,820;    2,864
857,681; 1360,581;    0,002;    0,318
858,242; 1596,511;    1,911;   -2,136
858,803; 1671,077;    0,456;   -0,773
859,364; 1594,279;    0,184;   -4,773
859,925; 1622,573;   -2,453;   -0,955
860,486; 1500,866;   -0,453;   -0,955
861,047; 1376,341;   -0,544;   -1,227
861,608; 1411,544;   -1,089;   -0,773
862,169; 1348,291;    0,638;   -0,045
862,730; 1409,039;    0,456;    1,409
863,291; 1467,605;   -0,635;   -0,500
863,852; 1462,717;   -0,635;    1,955
864,412; 1401,737;   -0,271;   -0,864
864,973; 1572,303;   -0,089;    0,500
865,534; 1748,324;   -1,726;    0,227
866,094; 1555,981;    1,820;    0,227
866,655; 1656,910;    1,274;    3,318
867,215; 1511,113;    0,274;    0,136
867,776; 1382,861;    0,547;   -0,136
868,336; 1445,245;   -1,453;    0,136
868,897; 1850,084;    2,638;    1,682
869,457; 1619,922;    1,365;    0,318
870,017; 1430,852;    0,547;   -1,227
870,578; 1452,600;   -0,817;    0,773
871,138; 1426,711;   -2,089;   -0,955
871,698; 1303,277;   -0,817;   -1,318
872,258; 1452,480;   -0,453;   -2,864
872,818; 1685,773;    2,729;    0,045
873,378; 1464,975;    0,638;    1,045
873,938; 1393,632;    0,547;    0,500
874,498; 1304,471;    0,274;   -1,955
875,058; 1365,037;    2,183;    1,773
875,618; 1363,512;    1,910;   -2,682
876,177; 1417,987;    1,274;    0,136
876,737; 1191,099;   -0,090;    1,955
877,297; 1642,029;    0,183;    1,955
877,856; 1553,685;   -0,362;    0,318
878,416; 1293,615;    1,183;   -0,136
878,976; 1280,090;   -1,817;    0,409
879,535; 1333,474;    0,092;    3,136
880,095; 1325,313;   -0,544;    0,045
880,654; 1220,061;   -1,090;    1,318
881,213; 1573,082;    2,456;    1,500
881,773; 1370,284;    2,637;    2,682
882,332; 1993,850;    3,365;    5,136
882,891; 1392,143;    3,092;    2,136
883,451; 1411,982;   -1,272;    1,682
884,010; 1290,730;   -2,908;   -0,409
884,569; 1256,750;   -0,999;   -0,045
885,128; 1493,135;    2,819;   -1,864
885,687; 1807,155;    4,455;    0,682
886,246; 1976,721;    1,455;    2,136
886,805; 1666,469;    2,455;    2,045
887,364; 1322,944;   -0,999;   -0,500
887,922; 1239,419;   -1,181;    0,045
888,481; 1393,440;   -1,545;    0,591
889,040; 1557,733;    1,183;    2,136
889,599; 1420,481;    2,455;    1,409
890,157; 1423,683;    1,455;    2,409
890,716; 1335,704;   -0,090;    0,227
891,274; 1436,815;    0,092;   -1,136
891,833; 1540,291;    1,546;    0,864
892,391; 1340,584;   -0,454;    0,500
892,950; 1538,968;    1,819;   -0,773
893,508; 1340,898;    0,455;   -0,409
894,067; 1188,646;    0,637;    0,136
894,625; 1309,575;   -0,636;   -1,500
895,183; 1274,869;   -0,363;   -0,682
895,741; 1615,889;    1,728;   -1,773
896,299; 1369,364;   -0,545;   -2,409
896,858; 1272,567;    0,819;   -1,591
897,416; 1413,860;    2,728;   -1,318
897,974; 1338,426;    1,819;    0,318
898,532; 1854,628;    6,091;    2,682
899,089; 1481,922;    2,091;   -0,682
899,647; 1357,215;   -1,454;    1,318
900,205; 1403,145;    1,182;    1,045
900,763; 1408,801;   -0,454;    0,227
901,321; 1360,640;    2,364;   -1,409
901,878; 1154,024;   -1,000;   -0,773
902,436; 1226,954;   -1,363;    1,318
902,994; 2081,975;    4,728;    3,682
903,551; 1542,813;    0,728;    0,409
904,109; 1416,379;    0,182;   -1,409
904,666; 1347,582;    2,455;    1,045
905,224; 1212,148;    0,182;   -0,409
905,781; 1374,441;    0,727;   -0,318
906,338; 1296,825;   -1,363;    1,045
906,895; 1165,573;    0,637;    2,045
907,453; 1473,957;    1,727;    1,136
908,010; 1304,705;   -0,909;    0,409
908,567; 1238,362;    1,273;    0,591
909,124; 1049,474;    0,364;   -1,500
909,681; 1114,131;   -2,909;    0,682
910,238; 1189,969;    0,636;   -1,318
910,795; 1174,808;   -0,273;   -1,136
911,352; 1158,717;   -2,909;   -2,682
911,909; 1158,535;   -1,364;   -0,864
912,466; 1211,990;   -3,182;    1,500
913,022; 1228,444;   -1,636;    0,500
913,579; 1347,808;   -0,909;    2,045
914,136; 1207,354;    1,636;    0,955
914,692; 1271,990;    0,091;   -1,227
915,249; 1209,081;    1,455;    0,409
915,806; 1298,263;    0,182;    1,955
916,362; 1194,990;    1,909;    1,864
916,918; 1092,444;    2,000;    1,045
917,475; 1320,626;   -1,182;    0,955
918,031; 1126,626;    3,364;   -0,045
918,587; 1195,717;   -0,909;   -0,318
919,144; 1106,626;   -2,273;    0,227
919,700; 1049,990;    1,727;    0,773
920,256; 1017,172;    0,727;    0,045
920,812; 1056,990;   -0,727;   -1,045
921,368; 1019,808;   -1,727;   -1,045
921,924;  997,081;    0,182;   -0,136
922,480; 1108,990;   -0,545;    1,227
923,036; 1142,990;    1,273;    1,955
923,592; 1029,172;    0,455;    0,318
924,148; 1061,444;    0,455;   -0,955
924,704; 1213,626;   -1,364;   -0,409
925,259; 1046,081;   -0,273;    0,591
925,815;  996,354;    1,455;    0,500
926,371;  949,263;    2,909;    1,409
926,926; 1115,172;    2,091;    0,591
927,482; 1077,081;   -1,364;    0,773
928,037;  998,808;    0,909;    2,045
928,593; 1217,354;    1,636;    1,045
929,148;  965,081;   -1,818;   -1,500
929,704; 1023,626;   -1,455;   -0,500
930,259;  897,263;    0,091;   -0,136
930,814; 1113,717;   -0,818;    1,955
931,369; 1033,990;    1,091;   -0,773
931,925;  811,899;   -0,091;    0,136
932,480;  925,808;   -2,818;   -2,591
933,035; 1328,263;    0,545;   -0,318
933,590; 1201,535;    0,364;   -1,773
934,145;  765,535;   -1,364;   -0,318
934,700;  671,444;    0,455;   -0,591
935,255;  746,808;   -0,091;    0,045
935,809; 1113,717;    3,182;    0,864
936,364;  694,535;   -0,455;   -0,136
936,919;  702,535;    0,455;   -1,773
937,474;  609,535;    1,455;    0,136
938,028;  641,444;   -1,636;    1,136
938,583; 1063,990;    1,818;    4,682
939,138;  692,626;    2,091;    2,136
939,692;  540,626;    1,636;   -1,136
940,247;  591,172;   -0,727;   -1,045
940,801;  666,444;   -0,636;    0,227
941,355;  557,081;   -0,364;    2,591
941,910;  438,354;   -0,273;   -2,136
942,464;  485,535;   -0,818;   -0,318
943,018;  759,808;    1,000;   -0,227
943,572;  565,535;    2,545;   -0,682
944,126;  631,354;    0,091;   -0,409
944,681;  496,899;    3,091;    0,227
945,235;  431,990;    1,000;   -0,591
945,789;  385,626;    0,364;   -1,864
946,342;  717,717;    0,455;   -0,591
946,896;  455,263;   -2,273;    0,955
947,450;  426,263;    1,545;   -0,227
948,004;  693,263;    1,727;   -0,045
948,558;  480,990;    0,273;   -0,864
949,111;  478,263;   -0,273;   -0,318
949,665;  695,626;    1,636;   -0,682
950,219;  641,899;   -0,091;   -1,045
950,772;  554,081;   -1,909;    1,864
951,326;  553,263;    0,545;   -0,955
951,879;  469,899;    0,727;   -2,318
952,433;  617,081;    0,000;    2,227
952,986;  433,354;    2,909;    0,682
953,539;  387,717;   -0,273;    0,591
954,093;  331,354;    0,545;   -1,318
954,646;  489,535;    0,909;    1,318
955,199;  405,444;    0,000;   -0,500
955,752;  621,535;   -0,455;    1,773
956,305;  464,081;   -0,091;    2,955
956,858;  517,626;    0,818;   -0,318
957,411;  582,808;   -0,545;    2,136
957,964;  474,717;    1,364;    2,136
958,517;  387,535;   -1,545;    3,136
959,070;  341,263;   -0,455;    1,955
959,623;  647,444;    1,091;    1,500
960,176;  587,263;    1,727;    2,045
960,728;  547,808;   -2,727;    0,773
961,281;  487,354;    0,545;    0,500
961,834;  407,626;   -0,909;    0,864
962,386;  413,808;    1,727;    1,045
962,939;  370,535;    0,364;   -0,318
963,491;  420,263;    0,455;    1,136
964,043;  352,172;    1,182;    2,409
964,596;  543,081;   -1,000;    2,227
965,148;  443,808;   -1,000;    1,773
965,700;  348,081;    1,091;   -0,227
966,253;  522,990;   -0,636;    0,318
966,805;  482,808;   -2,273;    0,773
967,357;  409,717;    1,091;   -1,500
967,909;  528,899;    0,455;   -1,227
968,461;  407,626;    0,545;    3,136
969,013;  352,444;   -0,182;   -0,864
969,565;  518,444;   -0,455;   -1,136
970,117;  767,535;   -0,364;    1,045
970,669;  517,808;    0,182;   -0,136
971,220;  307,172;   -0,455;   -1,500
971,772;  399,808;   -0,636;   -0,318
972,324;  500,081;    0,091;   -0,500
972,876;  406,990;    0,818;   -0,045
973,427;  533,263;    1,909;   -1,045
973,979;  595,808;   -0,727;   -2,500
974,530;  383,354;    1,818;    1,318
975,082;  453,354;   -0,545;    1,682
975,633;  392,263;    1,091;    1,682
976,184;  470,717;    0,909;    0,773
976,736;  447,081;    0,091;    0,227
977,287;  464,354;   -0,909;   -0,500
977,838;  432,444;    0,909;   -0,318
978,389;  437,626;   -1,000;   -0,500
978,940;  295,626;    0,545;   -0,409
979,491;  291,081;    0,091;   -0,500
980,042;  393,354;    0,182;    3,045
980,593;  399,172;   -2,545;    0,227
981,144;  496,990;    2,545;   -0,500
981,695;  555,172;    1,455;    1,500
982,246;  493,263;   -0,273;    1,045
982,797;  347,172;   -1,727;    0,682
983,347;  502,444;    0,364;    0,591
983,898;  713,808;    3,091;    0,409
984,449;  671,354;    2,182;    0,773
984,999;  500,899;    1,455;   -1,136
985,550;  449,899;    0,182;   -0,318
986,100;  298,990;   -0,455;   -0,318
986,651;  297,263;   -0,818;    0,045
987,201;  334,717;   -1,000;   -0,591
987,751;  349,444;    0,818;    2,864
988,302;  399,081;    2,636;    1,500
988,852;  442,899;    0,455;   -1,136
989,402;  512,354;    0,091;    0,682
989,952;  535,172;   -2,182;    0,864
990,502;  368,172;   -0,091;    0,682
991,052;  269,172;   -0,727;    0,045
991,602;  322,444;   -2,909;    1,318
992,152;  382,626;    0,455;    0,682
992,702;  414,899;    1,364;   -0,045
993,252;  354,354;   -3,000;   -0,500
993,802;  457,081;   -0,273;    1,318
994,352;  410,626;   -1,545;    1,136
994,901;  306,990;   -0,182;    3,227
995,451;  297,899;   -0,182;    0,318
996,000;  337,717;    1,636;    0,318
996,550;  348,354;    2,273;    0,227
997,100;  389,899;    1,273;   -0,045
997,649;  534,263;    2,182;    0,955
998,198;  346,899;    1,727;   -1,500
998,748;  468,899;    1,091;   -2,318
999,297;  389,626;   -0,818;   -0,409
999,846;  536,172;    1,000;   -0,773
1000,395;  448,535;   -0,818;    0,500
1000,945;  561,626;    1,818;   -0,773
1001,494;  557,899;    2,364;    0,682
1002,043;  537,081;    4,636;    0,864
1002,592;  342,990;   -1,091;    1,955
1003,141;  348,626;   -0,455;   -0,682
1003,690;  512,444;    1,727;    0,500
1004,238;  382,626;    1,455;   -0,045
1004,787;  300,717;    1,364;    1,227
1005,336;  493,899;    0,364;    0,682
1005,885;  437,717;    1,364;   -2,773
1006,433;  424,626;    0,545;    0,955
1006,982;  621,717;    0,455;    1,682
1007,531;  458,172;   -1,818;   -0,227
1008,079;  408,717;   -2,273;    0,500
1008,627;  343,444;   -1,455;    0,409
1009,176;  364,990;    0,000;   -1,955
1009,724;  314,626;    1,091;    0,864
1010,273;  477,535;    1,273;    0,500
1010,821;  349,990;    0,091;    1,409
1011,369;  310,626;   -1,364;    1,318
1011,917;  338,990;   -1,364;   -0,591
1012,465;  422,535;    1,273;   -1,591
1013,013;  406,081;    2,091;   -1,682
1013,561;  519,899;    0,455;   -0,773
1014,109;  622,081;   -1,909;    1,682
1014,657;  483,899;    0,364;    0,591
1015,205;  368,354;    1,636;   -0,955
1015,753;  316,172;   -0,545;   -1,409
1016,301;  397,535;   -2,636;    3,045
1016,848;  476,899;   -1,273;    0,409
1017,396;  479,808;    2,545;    0,045
1017,944;  476,808;    1,182;    1,864
1018,491;  378,172;    0,273;    1,409
1019,039;  705,263;    0,455;    0,591
1019,586;  446,808;   -1,364;    1,682
1020,134;  431,172;    0,455;    1,500
1020,681;  502,172;    0,182;   -1,136
1021,228;  410,899;    2,909;   -2,227
1021,776;  393,263;    1,182;   -1,136
1022,323;  634,990;    0,455;    0,773
1022,870;  533,535;   -1,000;   -0,045
1023,417;  586,081;    2,636;    1,864
1023,964;  404,081;    2,636;    1,227
1024,511;  378,444;    1,000;    0,773
1025,058;  406,444;    3,182;   -0,045
1025,605;  359,444;   -2,273;    3,136
1026,152;  589,354;    1,727;   -0,591
1026,699;  435,354;    1,818;    1,318
1027,245;  415,717;   -0,091;    0,318
1027,792;  348,263;   -1,000;    1,409
1028,339;  582,990;    2,364;   -0,045
1028,885;  436,626;    1,000;   -0,227
1029,432;  386,808;   -0,091;    0,227
1029,978;  505,081;   -1,000;   -1,591
1030,525;  490,717;    1,000;    0,409
1031,071;  355,535;   -1,364;    1,136
1031,618;  664,081;    0,364;    1,682
1032,164;  476,172;   -0,091;    3,045
1032,710;  524,990;    1,636;   -1,500
1033,256;  486,172;   -0,636;   -0,136
1033,803;  334,535;   -0,545;    1,500
1034,349;  202,808;   -1,364;    0,136
1034,895;  244,717;    0,000;   -0,318
1035,441;  319,354;   -0,818;    0,318
1035,987;  377,444;   -2,364;   -0,682
1036,533;  452,444;   -1,455;   -0,955
1037,078;  647,899;    1,455;    1,682
1037,624;  503,626;    2,455;   -0,955
1038,170;  364,717;    0,455;   -0,318
1038,716;  452,354;    1,636;   -0,409
1039,261;  324,354;   -2,273;   -0,773
1039,807;  344,717;   -0,091;    3,409
1040,352;  373,172;   -1,909;   -0,318
1040,898;  364,444;   -1,545;   -0,682
1041,443;  293,717;   -1,455;   -2,591
1041,989;  594,354;    1,091;    1,591
1042,534;  390,535;   -0,364;    2,591
1043,079;  276,899;    2,909;    0,955
1043,625;  390,263;    1,818;    0,500
1044,170;  408,717;   -1,364;    1,045
1044,715;  605,535;    2,455;    0,955
1045,260;  506,444;    2,182;   -0,955
1045,805;  343,354;    1,182;   -0,591
1046,350;  304,808;    1,364;   -0,409
1046,895;  496,081;    2,909;    1,591
1047,440;  489,626;    5,364;    0,409
1047,985;  351,172;    2,818;   -0,955
1048,530;  322,172;    1,545;    1,227
1049,074;  393,081;    0,000;    0,318
1049,619;  324,081;   -1,364;    1,955
1050,164;  311,808;    0,455;    0,227
1050,708;  393,990;   -0,455;    0,045
1051,253;  650,990;    1,273;   -2,227
1051,797;  440,808;    0,818;   -1,318
1052,342;  271,081;   -1,182;    1,045
1052,886;  377,263;    0,364;   -1,409
1053,430;  254,808;   -1,364;    0,136
1053,975;  347,626;   -0,818;   -0,318
1054,519;  358,717;   -0,727;    3,227
1055,063;  426,808;    0,909;    1,318
1055,607;  415,899;   -0,182;    0,227
1056,151;  410,717;    2,909;    1,682
1056,695;  319,354;    2,273;   -1,136
1057,239;  318,444;   -1,727;   -0,682
1057,783;  363,626;    0,818;   -1,500
1058,327;  432,263;    0,000;    1,409
1058,871;  578,444;   -0,545;    1,318
1059,415;  449,626;   -0,818;   -0,045
1059,958;  604,172;    1,455;    2,591
1060,502;  363,444;   -1,000;   -0,773
1061,046;  260,990;    0,364;   -0,955
1061,589;  240,354;   -3,000;   -1,136
1062,133;  214,717;   -1,273;    1,864
1062,676;  260,990;    1,182;    0,864
1063,220;  293,990;    1,091;    0,500
1063,763;  331,354;    0,909;    1,136
1064,306;  356,444;   -0,909;    1,864
1064,849;  355,535;   -0,909;    0,591
1065,393;  328,626;    2,000;   -1,500
1065,936;  327,626;    0,182;   -0,409
1066,479;  243,990;   -1,455;    1,318
1067,022;  269,535;   -0,273;   -0,227
1067,565;  247,172;   -0,091;   -1,318
1068,108;  219,626;    0,727;   -0,591
1068,651;  195,172;   -0,636;    1,409
1069,194;  205,535;   -0,455;   -1,682
1069,736;  222,535;   -1,273;    0,955
1070,279;  202,354;   -1,364;   -0,500
1070,822;  295,081;   -2,000;   -0,318
1071,364;  418,354;   -0,364;    1,318
1071,907;  274,263;   -0,727;    3,227
1072,450;  132,263;    0,000;   -0,045
1072,992;  209,081;   -0,273;    3,136
1073,535;  291,535;    2,091;    2,136
1074,077;  199,263;   -0,727;    2,045
1074,619;  198,354;   -1,364;    0,591
1075,161;  231,717;   -1,091;    1,500
1075,704;  353,717;    1,545;    1,227
1076,246;  215,626;   -0,182;    0,682
1076,788;  153,535;   -0,364;    1,773
1077,330;  152,444;    1,273;    2,136
1077,872;  200,626;    0,909;    0,955
1078,414;  371,263;    2,727;    0,773
1078,956;  218,899;    1,273;   -0,227
1079,498;  365,535;    1,636;    0,318
1080,040;  232,354;    1,909;   -1,318
1080,581;  188,626;    1,636;   -0,318
1081,123;  128,081;    0,091;   -0,773
1081,665;  141,172;   -1,182;   -0,955
1082,206;  331,354;    1,364;   -0,500
1082,748;  248,444;    0,727;    2,045
1083,289;  160,899;   -2,000;    1,318
1083,831;  151,990;   -0,545;    0,227
1084,372;  199,990;    0,000;    0,591
1084,913;  196,535;    1,091;    0,864
1085,455;  144,899;   -1,909;   -2,045
1085,996;  143,990;   -2,273;    0,136
1086,537;  176,808;   -0,091;    0,864
1087,078;  191,172;   -0,909;   -2,136
1087,619;  236,263;   -1,273;    0,227
1088,160;  195,172;    0,000;    1,318
1088,701;  171,899;   -1,091;    0,682
1089,242;  156,808;    1,364;   -2,227
1089,783;  207,172;   -0,273;    1,409
1090,324;  188,354;    0,455;    0,682
1090,865;  135,081;    2,727;   -0,409
1091,405;  105,808;    0,727;    2,227
1091,946;  154,172;    0,182;   -0,955
1092,487;  101,717;    0,818;   -1,409
1093,027;  212,444;   -1,364;   -1,500
1093,568;  146,081;   -0,364;    1,227
1094,108;  183,990;    0,273;    1,773
1094,649;  148,899;   -1,182;    0,136
1095,189;  119,717;   -0,636;   -0,682
1095,729;  115,444;   -0,091;    0,955
1096,269;  105,354;    0,727;   -0,955
1096,810;  260,899;   -1,364;    0,500
1097,350;  196,990;    1,364;   -0,773
1097,890;  149,990;    0,364;    1,227
1098,430;  310,808;    2,364;    2,864
1098,970;  244,444;    2,182;    1,682
1099,510;  132,081;    0,545;   -2,318
1100,050;  113,263;    1,000;   -1,591
1100,589;  125,263;   -0,727;   -0,318
1101,129;  178,808;    0,818;   -0,955
1101,669;  257,354;    1,727;    2,136
1102,209;  176,354;   -0,091;    2,227
1102,748;  147,535;    0,000;    0,955
1103,288;  156,354;    1,273;   -1,227
1103,827;  150,717;    3,091;   -2,227
1104,367;  112,626;   -0,091;   -2,409
1104,906;  107,444;    1,364;   -1,136
1105,445;  146,263;    0,636;   -1,136
1105,985;  124,081;   -0,727;    1,500
1106,524;  142,717;   -1,727;   -0,682
1107,063;  132,717;   -2,727;    1,409
1107,602;  103,444;   -1,909;   -1,500
1108,141;   83,444;   -1,909;    1,500
1108,680;  151,535;   -3,455;   -0,591
1109,219;  120,354;   -0,909;   -0,500
1109,758;  113,899;    0,455;    0,682
1110,297;  110,444;    1,000;   -0,682
1110,836;   79,899;   -0,727;    0,955
1111,375;  116,899;   -2,545;    0,409
1111,913;  155,354;   -1,000;    0,773
1112,452;  127,990;   -0,273;    0,136
1112,991;   80,081;    1,091;    1,955
1113,529;   79,081;   -0,818;   -0,045
1114,068;  104,444;   -0,273;    2,955
1114,606;   70,990;   -0,364;   -0,955
1115,144;  140,172;   -1,273;    1,045
1115,683;  108,899;   -0,727;    0,318
1116,221;  141,626;   -0,455;   -0,864
1116,759;   94,172;    0,636;   -0,864
1117,297;  176,172;    0,000;    1,864
1117,836;   99,626;   -2,182;   -1,227
1118,374;  102,717;    0,182;   -0,682
1118,912;   97,626;    0,909;    2,682
1119,450;   98,899;    1,000;    0,864
1119,988;   98,172;    1,545;    2,136
1120,525;  358,172;    5,091;    3,318
1121,063;  190,717;    1,182;    1,864
1121,601;   98,081;   -0,909;   -1,227
1122,139;   81,263;   -0,727;   -2,045
1122,676;  182,626;   -0,727;    2,773
1123,214;  151,263;   -1,182;    4,409
1123,751;   71,626;    1,727;    2,227
1124,289;  111,354;   -0,091;   -0,409
1124,826;   80,626;    1,727;    0,227
1125,364;   41,717;    1,727;   -0,955
1125,901;  143,263;    1,182;    1,227
1126,438;  154,263;    0,818;    0,955
1126,975;   49,808;   -0,727;   -0,773
1127,513;   69,717;    0,273;    2,136
1128,050;   47,808;    1,636;   -0,682
1128,587;   87,081;    2,000;   -0,227
1129,124;  109,081;    0,091;    1,318
1129,661;   55,535;    0,273;    0,227
1130,198;  126,081;    1,636;    0,773
1130,734;   89,444;    0,182;    1,409
1131,271;   42,626;   -0,909;    0,864
1131,808;  113,808;    2,909;    3,045
1132,345;   70,444;    1,545;    0,318
1132,881;   26,717;   -1,545;   -1,864
1133,418;   77,990;    0,727;   -1,136
1133,954;   49,717;    2,455;   -2,682
1134,491;   81,717;    1,364;   -0,773
1135,027;   50,535;    2,364;    0,864
1135,564;   79,444;    0,273;    2,955
1136,100;   71,172;    0,364;    2,136
1136,636;   38,263;   -1,273;   -1,045
1137,172;   64,172;    0,000;   -1,045
1137,708;   42,081;   -1,364;   -1,045
1138,245;   38,444;    1,273;   -1,227
1138,781;   29,081;    1,091;   -3,318
1139,317;   49,263;    1,273;   -1,409
1139,852;   58,444;    3,091;    0,136
1140,388;   81,535;   -1,182;   -0,409
1140,924;   46,172;   -1,091;   -2,227
1141,460;   29,990;   -1,636;    0,136
1141,996;   16,899;   -1,364;    2,682
1142,531;   26,899;    1,364;    3,318
1143,067;  104,990;    1,182;    1,045
1143,602;  134,535;   -0,091;   -0,318
1144,138;   68,808;   -2,636;    1,045
1144,673;   29,263;   -1,455;    1,409
1145,209;   42,626;   -1,909;   -0,318
1145,744;   22,172;   -0,727;    0,864
1146,279;   61,263;    1,818;   -0,136
1146,815;   36,263;    1,545;   -2,682
1147,350;   52,808;   -1,364;    0,045
1147,885;   24,717;   -0,818;   -1,318
1148,420;   23,808;   -2,273;    0,773
1148,955;   25,172;   -1,727;    1,864
1149,490;   27,081;   -0,909;   -1,591
1150,025;   20,535;    0,455;   -1,773
1150,560;   62,081;    1,091;   -0,955
1151,094;   49,535;    1,455;   -0,591
1151,629;   49,081;    1,636;    0,864
1152,164;   27,990;    1,364;    1,318
1152,698;   15,990;   -0,182;   -0,136
1153,233;    7,172;    0,091;   -0,682
1153,767;   20,990;   -3,000;   -2,318
1154,302;   32,717;   -1,455;    1,773
1154,836;   31,354;   -0,455;   -2,136
1155,371;   44,626;   -1,364;    3,682
1155,905;   30,899;   -0,636;    1,682
1156,439;   32,717;   -0,636;   -0,500
1156,973;   38,172;    0,364;    0,318
1157,507;   18,081;   -0,364;    0,682
1158,042;   25,626;   -0,727;    1,045
1158,576;   37,899;    0,182;    1,773
1159,110;   37,717;   -0,818;    2,409
1159,643;   24,717;    0,636;   -0,045
1160,177;   13,172;   -1,545;    1,500

