
Integration time [ms]:   0,040
Averaging Nr. [scans]: 11
Smoothing Nr. [pixels]: 0
Data measured with spectrometer [name]: 7318044SP
Wave   ;Sample   ;Dark     ;Reference
[nm]   ;[counts] ;[counts] ;[counts] 

186,757;   39,940;   31,551;    1,318
187,357;   40,538;   22,551;    0,955
187,958;   29,023;   15,460;   -1,591
188,558;   47,287;    8,915;   -1,227
189,159;   29,835;    6,733;   -4,500
189,759;   18,915;    7,278;   -3,591
190,360;   15,466;    2,824;   -2,136
190,960;   28,640;    2,915;   -4,136
191,560;   35,743;    3,189;   -6,591
192,161;  147,879;    4,372;   -3,500
192,761;   83,293;    4,010;   -3,227
193,361;   53,684;    1,556;   -3,773
193,962;   76,050;    2,010;   -2,682
194,562;   33,713;    1,189;   -3,955
195,162;   32,216;   -2,448;   -2,227
195,762;   99,797;   -3,176;   -0,045
196,362;   70,078;    1,370;   -2,500
196,963;   26,039;    2,006;   -0,864
197,563;   51,659;    1,551;   -0,955
198,163;   23,769;    0,096;   -0,682
198,763;   37,904;    1,733;   -0,500
199,363;   64,835;    3,096;   -0,500
199,963;   43,827;    0,369;    0,409
200,563;   36,846;    2,823;   -1,409
201,163;   24,435;    3,277;   -0,227
201,763;   55,121;    3,732;    0,318
202,363;   30,011;    1,459;    1,500
202,963;   60,331;    1,459;    1,045
203,563;  108,697;    0,277;    0,500
204,162;   51,003;    2,096;   -1,864
204,762;   47,176;    0,550;    0,591
205,362;   32,033;    3,004;    1,955
205,962;   62,791;    3,096;    1,955
206,562;   57,598;    1,823;    2,318
207,161;   42,082;   -0,087;    0,318
207,761;  122,873;    1,277;    2,409
208,361;   60,019;   -0,268;    1,409
208,960;   83,380;    0,459;    1,500
209,560;   82,292;    1,277;    1,591
210,160;  100,722;    0,550;    1,864
210,759;   80,914;    4,186;    1,227
211,359;   68,143;    1,459;    1,045
211,958;  194,201;    1,277;    2,045
212,558;  208,515;    1,732;    1,864
213,157;  133,350;    1,822;    1,500
213,757;  319,374;    3,822;   -0,227
214,356;  172,609;    1,277;   -0,409
214,956;  315,730;    3,095;    0,409
215,555;  149,688;    2,095;    2,136
216,154;  111,691;   -2,723;   -0,591
216,754;  112,947;    0,277;    0,773
217,353;  150,044;   -0,268;   -1,045
217,952;   65,950;   -0,178;    0,318
218,552;  187,231;    1,368;   -0,773
219,151;  121,515;    0,277;    0,955
219,750;  113,041;    0,004;   -0,227
220,349;  101,088;   -0,451;    1,045
220,948;  217,567;   -1,360;    1,136
221,548;  140,272;    0,913;    1,227
222,147;  180,234;   -0,087;   -0,409
222,746;  331,179;   -0,451;   -0,955
223,345;  224,947;    0,731;    0,500
223,944;  231,696;   -0,451;    0,773
224,543;  260,316;    1,004;   -1,409
225,142;  276,655;    0,094;    0,136
225,741;  257,752;   -0,814;    1,045
226,340;  242,977;   -0,451;   -0,955
226,939;  395,490;   -0,996;   -0,136
227,538;  243,730;   -0,360;   -0,773
228,137;  400,694;   -0,814;    0,864
228,735;  352,231;   -0,541;    1,227
229,334;  221,124;   -0,905;   -0,227
229,933;  443,237;    0,459;    0,591
230,532;  476,319;    1,186;   -0,409
231,131;  562,256;    1,732;    0,318
231,729;  426,741;   -2,450;   -2,318
232,328;  348,440;   -0,723;   -1,500
232,927;  365,476;    1,004;   -0,500
233,525;  348,644;    3,640;    0,045
234,124;  417,135;    2,368;   -1,591
234,723;  320,746;    0,913;   -1,045
235,321;  323,421;    2,277;    0,136
235,920;  392,385;    1,186;   -1,227
236,518;  592,060;    3,459;    0,318
237,117;  400,641;    0,004;   -0,227
237,715;  412,584;    0,640;   -0,500
238,314;  497,889;   -0,087;   -2,318
238,912;  673,074;   -0,723;   -1,409
239,510;  525,132;    0,459;   -1,227
240,109;  674,686;    0,004;    3,773
240,707;  625,452;   -0,996;    1,227
241,305;  445,239;    0,550;    0,136
241,904;  600,421;   -0,178;   -2,045
242,502;  713,537;   -0,632;   -0,227
243,100;  586,476;   -0,087;   -0,955
243,698;  520,328;    0,732;    1,682
244,297;  565,768;   -0,632;    0,682
244,895;  568,859;   -0,269;   -2,318
245,493;  802,030;    2,186;   -0,591
246,091;  783,994;    1,368;   -1,318
246,689;  711,713;    1,004;    0,591
247,287;  662,884;    0,822;   -1,136
247,885;  620,140;   -1,451;    1,227
248,483;  586,964;    1,822;   -0,500
249,081;  680,840;    0,185;    1,591
249,679;  752,627;   -0,178;    1,682
250,277;  591,173;   -1,723;    0,864
250,875;  759,030;   -1,087;   -1,045
251,473;  635,198;   -1,178;    0,500
252,071;  752,509;    1,459;    1,045
252,669;  664,606;   -1,814;    0,318
253,267;  598,886;   -0,087;    0,773
253,864;  638,793;   -0,360;    0,682
254,462;  847,388;    1,640;    1,591
255,060;  581,801;   -0,269;    1,318
255,658;  570,151;    0,822;   -0,136
256,255;  699,694;    0,186;   -2,045
256,853;  742,776;   -0,269;    1,409
257,451;  717,013;    0,822;    1,864
258,048; 1225,063;    1,822;    1,864
258,646;  851,107;    1,731;   -1,045
259,243;  986,958;   -0,087;    2,227
259,841;  844,066;   -0,814;    0,318
260,438;  655,055;   -0,087;    0,864
261,036;  816,507;   -1,905;    1,409
261,633;  711,531;   -0,087;    2,227
262,231;  656,674;    2,731;   -0,045
262,828;  679,176;   -0,905;    1,136
263,425;  731,683;    0,913;   -0,591
264,023;  742,074;    0,186;    0,045
264,620;  911,000;   -0,360;   -0,318
265,217; 1056,796;   -2,087;    3,136
265,815;  736,641;   -1,905;    2,136
266,412;  887,539;    0,731;    0,136
267,009;  935,732;   -1,451;    0,773
267,606; 1040,743;    0,822;   -0,955
268,203;  767,270;   -0,269;   -0,591
268,801;  847,236;    1,731;    0,591
269,398;  761,622;   -0,360;    2,500
269,995;  924,540;    0,277;    1,591
270,592;  819,581;   -0,632;   -0,500
271,189;  743,534;    0,186;    0,409
271,786;  727,967;   -0,632;    1,227
272,383; 1030,705;   -1,087;    0,227
272,980;  843,746;    0,277;    0,318
273,577;  812,027;    0,004;    1,227
274,174;  728,154;    0,822;    2,591
274,771;  875,333;   -0,814;   -0,773
275,367; 1350,474;    2,277;    1,409
275,964; 1152,033;    0,731;   -0,500
276,561;  908,539;    1,549;   -1,045
277,158;  819,900;    0,095;   -1,773
277,755; 1104,931;    2,185;    0,409
278,351;  912,735;   -0,451;   -1,500
278,948; 1021,374;   -0,815;    0,045
279,545;  917,096;   -1,360;    2,318
280,141; 1221,253;   -1,723;   -2,045
280,738; 1083,680;   -0,451;   -0,136
281,334;  868,622;   -1,633;    0,591
281,931;  888,892;   -0,087;   -1,318
282,528; 1001,762;    0,822;   -0,500
283,124; 1150,206;   -1,087;   -0,500
283,721; 1129,586;   -0,451;    1,409
284,317;  929,815;    0,185;    2,500
284,913; 1191,873;   -1,360;    0,591
285,510; 1520,054;    0,640;   -0,318
286,106; 1287,581;   -2,269;   -0,955
286,703;  951,437;   -0,360;    1,955
287,299;  920,520;   -1,451;   -0,591
287,895;  932,911;    0,822;   -1,045
288,491;  950,986;    0,186;    2,136
289,088; 1087,421;   -2,360;    2,409
289,684; 1124,606;   -1,723;    1,500
290,280; 1292,046;    0,368;    0,682
290,876; 1257,079;    1,822;    5,500
291,472; 1128,176;    1,276;    2,227
292,068; 1129,870;    1,367;    0,227
292,665;  955,611;    2,095;    0,773
293,261;  826,823;    0,276;    2,136
293,857; 1057,030;    2,913;    2,136
294,453;  968,592;    3,550;    0,955
295,049; 1202,598;   -0,268;    1,955
295,644; 1005,008;    0,095;    0,136
296,240;  860,501;   -0,905;   -0,136
296,836; 1025,138;   -0,995;    0,318
297,432; 1203,265;    1,096;   -0,500
298,028; 1275,088;    0,732;    0,773
298,624; 1092,253;    1,459;    1,864
299,220; 1065,813;    2,368;    0,591
299,815; 1026,917;    1,005;   -0,409
300,411; 1145,416;    0,914;    1,773
301,007; 1297,973;    1,368;    0,227
301,602; 1094,061;   -0,541;   -2,318
302,198; 1226,344;    0,732;   -0,773
302,794; 1057,240;    1,187;   -0,500
303,389; 1035,810;   -1,177;    1,045
303,985; 1118,286;    0,550;    1,409
304,580; 1218,777;    1,459;    1,591
305,176; 1102,322;   -3,086;    0,136
305,771;  968,763;   -1,268;   -1,227
306,367; 1428,909;    4,095;    0,136
306,962; 1166,879;    0,641;    1,500
307,558; 1151,691;   -0,450;    0,136
308,153; 1264,330;    1,095;   -1,136
308,748; 1055,642;   -0,814;    1,682
309,344; 1491,366;   -0,632;   -1,318
309,939; 1524,204;   -1,905;   -1,318
310,534; 1159,785;   -0,086;   -1,682
311,130; 1088,656;    0,459;   -2,500
311,725; 1002,903;    1,004;   -0,500
312,320; 1096,074;    2,459;    0,045
312,915; 1252,702;    1,459;   -1,045
313,510; 1489,005;    1,550;   -0,500
314,105; 1245,278;    1,096;    1,409
314,700;  992,708;   -3,086;   -1,045
315,295; 1071,504;   -0,904;    0,045
315,890;  953,589;    1,277;    0,864
316,485; 1093,738;   -0,359;   -0,318
317,080; 1035,713;   -3,086;    1,591
317,675; 1411,810;    2,005;   -0,682
318,270; 1591,931;    5,550;    3,318
318,865; 1497,378;    3,278;    3,045
319,460; 1276,421;   -0,904;    0,591
320,055; 1135,028;   -0,541;   -1,227
320,650; 1096,256;   -1,995;   -0,591
321,244; 1113,524;   -0,177;   -1,409
321,839; 1240,551;   -1,541;   -0,227
322,434; 1295,620;   -1,086;   -1,591
323,029; 1151,339;    1,732;    1,591
323,623; 1095,187;    1,550;    0,773
324,218; 1244,827;    2,368;    1,409
324,812; 1167,066;    1,096;    1,591
325,407; 1179,967;   -0,814;    2,045
326,002; 1280,162;    0,277;   -0,409
326,596; 1240,956;    0,914;    1,318
327,191; 1093,394;    0,823;   -1,045
327,785; 1016,410;   -0,813;   -0,227
328,379; 1115,760;    1,368;    0,136
328,974; 1132,490;    0,914;   -3,955
329,568; 1183,895;    0,186;   -2,409
330,163; 1239,085;    2,096;    1,045
330,757; 1104,124;    2,459;    1,591
331,351; 1013,854;    0,459;    0,682
331,945; 1026,141;    0,914;    1,409
332,540; 1178,499;   -1,723;   -0,591
333,134; 1144,229;   -1,086;    0,773
333,728; 1126,223;    0,005;    0,318
334,322; 1053,383;   -1,177;   -0,864
334,916;  967,408;    0,277;    0,955
335,510; 1187,386;   -0,450;   -0,136
336,105; 1208,848;   -1,086;    1,591
336,699; 1057,069;   -1,086;    0,591
337,293; 1079,570;   -1,723;    0,318
337,887; 1014,986;   -2,723;    1,955
338,481; 1211,675;    0,459;    0,591
339,074; 1343,672;   -0,359;    2,682
339,668; 1297,082;   -1,632;    1,227
340,262; 1972,967;    1,732;    3,227
340,856; 1481,760;    1,822;   -0,682
341,450; 1054,741;    1,004;    1,864
342,044; 1159,206;    1,459;    0,136
342,637; 1331,686;    0,913;   -2,136
343,231; 1352,928;   -2,360;    0,682
343,825; 1133,879;   -1,086;   -0,591
344,419; 1115,099;   -1,995;    0,500
345,012; 1743,028;    2,459;    4,045
345,606; 1522,430;    4,641;    1,591
346,199; 1143,689;   -1,813;   -0,227
346,793; 1281,099;    1,914;    2,045
347,386; 1075,328;   -0,813;   -1,136
347,980;  922,367;   -0,268;   -0,045
348,573; 1062,232;    2,278;    0,409
349,167; 1359,535;    5,278;    4,773
349,760; 1301,645;    2,914;    2,682
350,354; 1209,532;   -0,813;    1,136
350,947; 1263,799;    1,096;    1,682
351,540; 1046,604;   -0,358;   -1,409
352,134;  873,193;    1,096;    1,136
352,727;  932,871;   -0,086;    1,136
353,320;  975,237;    0,005;    0,591
353,913;  851,380;   -1,995;    1,864
354,507; 1121,149;    0,823;   -1,227
355,100; 1003,736;    0,460;    0,864
355,693; 1438,339;    2,005;    2,409
356,286; 1152,003;    0,823;    2,773
356,879;  987,025;   -0,722;    1,227
357,472;  930,325;   -0,904;    1,500
358,065; 1020,918;   -0,722;    2,500
358,658;  859,744;   -0,540;    2,318
359,251;  771,761;   -1,631;   -0,591
359,844;  996,348;   -1,904;   -1,136
360,437; 1112,295;   -2,995;    0,045
361,030;  947,940;    1,369;   -0,682
361,623;  915,629;    2,824;    0,318
362,215; 1182,532;   -0,086;    2,045
362,808;  995,127;   -2,358;   -1,682
363,401;  925,742;   -2,449;    0,136
363,994; 1188,574;   -0,631;   -1,500
364,586;  915,428;    0,824;   -1,500
365,179;  855,555;   -0,449;   -1,136
365,772;  665,568;   -1,995;    2,045
366,364;  852,549;    1,915;   -3,227
366,957;  980,624;    2,279;   -0,045
367,549;  875,982;    2,188;   -0,864
368,142;  879,048;    1,825;   -1,500
368,734;  837,183;    0,734;   -2,136
369,327;  739,844;    1,643;   -0,500
369,919;  797,842;   -1,538;    0,409
370,512;  837,357;   -1,083;   -0,500
371,104; 1135,190;   -0,901;    1,591
371,696; 1186,077;    1,191;   -0,955
372,289; 1017,372;    0,373;    1,136
372,881;  950,073;   -2,080;    1,318
373,473;  783,759;   -2,170;    1,136
374,066;  928,231;   -0,169;    0,500
374,658;  883,893;    0,378;    1,136
375,250;  822,737;    0,653;   -1,409
375,842;  895,433;    0,473;   -0,045
376,434;  844,100;   -0,435;   -0,409
377,026;  872,540;    0,204;   -2,500
377,618;  908,618;   -0,158;   -0,682
378,210;  806,481;   -0,338;   -1,955
378,802;  745,802;    0,754;   -0,591
379,394; 1275,814;    1,846;    0,682
379,986; 1010,183;    1,393;   -0,955
380,578;  896,404;   -0,153;    0,773
381,170; 1170,299;   -0,972;    0,045
381,762; 1022,364;    0,755;    1,409
382,354;  982,504;   -0,065;   -1,318
382,945;  869,398;   -2,976;    0,318
383,537;  809,182;   -2,705;   -1,955
384,129;  824,066;   -2,160;   -1,136
384,721;  968,079;   -0,252;    0,955
385,312;  851,222;   -0,161;   -0,955
385,904; 1015,699;   -2,706;    1,591
386,496;  848,054;   -0,979;    1,045
387,087; 1027,551;    1,022;    2,500
387,679;  952,947;   -1,160;    0,045
388,270;  978,030;    2,840;    2,045
388,862;  918,256;    1,295;   -0,318
389,453;  841,446;   -0,887;    1,045
390,045;  898,716;   -0,705;   -2,682
390,636;  790,763;    0,204;   -0,591
391,227;  834,680;   -0,523;   -0,045
391,819;  855,275;    0,204;    0,773
392,410; 1154,471;    1,022;    0,045
393,001;  934,514;   -0,979;   -1,591
393,593; 1026,550;    1,930;   -0,045
394,184; 1090,895;    1,385;   -0,409
394,775;  888,087;    1,839;    2,136
395,366;  854,151;    1,385;    0,773
395,957; 1093,944;    0,113;    0,136
396,548;  965,250;   -0,342;    2,682
397,139; 1153,920;   -2,433;    0,591
397,730; 1012,677;   -1,888;    0,955
398,321; 1005,694;   -1,252;    0,955
398,912;  929,308;   -0,615;    0,136
399,503;  965,294;   -3,524;   -1,409
400,094;  971,883;    0,294;    1,682
400,685;  962,300;   -0,433;    0,045
401,276;  862,961;    0,930;   -0,955
401,867;  870,481;   -0,888;    0,773
402,458;  841,487;   -2,251;   -2,318
403,048; 1051,176;    1,112;    0,591
403,639;  916,283;    0,840;    0,864
404,230; 1131,195;    2,476;    0,318
404,821; 1195,658;   -0,615;    0,045
405,411; 1057,718;    1,203;   -2,591
406,002;  898,922;   -1,252;   -1,136
406,592; 1212,674;    2,294;    0,045
407,183; 1027,222;    0,566;   -1,500
407,774;  969,930;    3,475;   -0,136
408,364;  954,398;    0,930;    0,409
408,954; 1102,577;    0,384;    1,227
409,545; 1099,462;    1,021;    1,045
410,135;  988,511;    1,293;    0,500
410,726;  954,654;    1,838;    0,318
411,316; 1221,809;    0,111;    0,773
411,906;  963,448;   -0,253;   -0,409
412,497;  955,690;   -1,070;   -0,045
413,087;  906,803;   -1,980;   -0,227
413,677;  869,021;   -0,707;    3,864
414,267;  845,167;    0,656;    1,409
414,857;  802,307;   -2,980;    4,227
415,448;  832,211;    0,839;    0,500
416,038;  844,800;    0,020;   -0,591
416,628;  910,905;   -0,889;    0,409
417,218; 1002,745;    0,565;    3,318
417,808; 1212,067;    0,202;   -0,409
418,398; 1022,351;    0,020;    2,682
418,988;  878,208;    2,020;    0,591
419,578;  990,249;   -0,707;    1,409
420,168; 1003,737;   -1,343;   -0,955
420,757; 1180,123;   -1,343;   -1,500
421,347; 1000,935;    0,111;   -0,227
421,937;  959,095;    2,292;    1,409
422,527; 1126,929;    0,838;   -0,773
423,116; 1295,073;   -0,253;   -0,045
423,706;  949,723;   -1,889;    0,318
424,296;  850,979;    1,384;    0,682
424,885; 1106,343;   -0,071;   -3,045
425,475; 1060,103;    1,474;   -2,864
426,065;  898,180;   -0,980;   -0,318
426,654;  866,252;   -0,435;   -0,318
427,244; 1263,502;    0,020;    1,409
427,833; 1205,445;    1,383;   -0,500
428,423; 1024,613;   -0,526;    1,136
429,012; 1094,381;   -0,344;   -1,136
429,601; 1217,590;   -1,344;    0,136
430,191; 1056,833;    1,292;    4,318
430,780;  871,445;   -0,344;   -0,409
431,369; 1217,689;    0,746;   -0,045
431,959; 1134,188;   -1,254;    0,500
432,548;  978,307;   -1,163;   -0,045
433,137;  877,224;   -1,254;   -1,318
433,726; 1060,149;    0,292;    0,500
434,315; 1018,221;   -0,526;    2,409
434,905; 1181,191;   -1,254;    1,409
435,494; 1249,846;    0,746;    0,955
436,083; 1049,279;   -0,981;   -0,955
436,672; 1109,742;    0,110;    0,500
437,261; 1048,375;    0,292;   -1,955
437,850; 1456,926;    1,383;    0,682
438,439; 1488,411;    3,291;    1,955
439,027; 1619,477;    3,655;    1,773
439,616; 1565,463;    2,927;    1,227
440,205; 1229,303;    0,200;   -2,136
440,794; 1111,232;    2,109;   -0,045
441,383; 1011,617;   -1,346;   -0,591
441,971;  908,766;   -2,436;    0,591
442,560;  933,785;    0,563;   -1,773
443,149;  800,299;    0,379;   -1,318
443,737;  917,143;   -0,074;   -2,318
444,326;  940,628;    0,018;    0,318
444,915; 1023,771;   -1,982;    0,864
445,503; 1054,135;   -2,891;   -0,318
446,092; 1389,747;    0,382;    2,136
446,680; 1341,325;    0,382;    0,318
447,269; 1246,306;   -0,346;   -0,318
447,857; 1163,744;    0,018;   -1,773
448,445; 1088,441;    0,563;    1,318
449,034; 1061,939;   -1,528;   -1,136
449,622; 1034,129;   -1,073;    3,500
450,210; 1509,575;    2,017;    2,227
450,799; 1399,360;    0,290;   -0,591
451,387; 1243,884;    1,381;   -0,591
451,975; 1238,975;    2,654;    0,864
452,563; 1405,914;    3,472;    2,318
453,151; 1080,608;   -0,528;   -1,227
453,739; 1153,853;   -1,347;    0,136
454,328; 1377,470;    2,381;   -2,136
454,916; 1212,060;    2,562;   -0,136
455,504; 1212,757;    1,017;    1,227
456,092; 1075,380;    0,017;   -1,591
456,679;  970,220;    1,472;    0,682
457,267; 1702,476;    4,017;    1,045
457,855; 1165,663;    1,017;    1,409
458,443;  871,771;   -0,165;    1,682
459,031; 1266,556;    0,108;    2,409
459,619; 1197,991;   -1,801;    2,864
460,206;  992,068;    0,835;    2,045
460,794; 1024,823;   -2,983;   -0,227
461,382; 1133,801;   -0,529;   -0,864
461,970; 1051,159;    1,198;    1,864
462,557;  979,872;   -0,711;   -0,682
463,145; 1231,233;   -3,165;   -1,682
463,732; 1579,952;    2,016;   -1,045
464,320; 1201,699;   -0,075;   -3,045
464,907; 1436,531;    2,743;   -0,773
465,495; 1287,561;    0,743;   -1,227
466,082; 1144,040;   -1,984;   -0,045
466,670; 1117,710;   -2,529;    1,227
467,257; 1010,610;   -1,711;    2,045
467,844; 1201,051;   -0,075;    0,045
468,432; 1177,360;    0,834;    3,500
469,019; 1057,043;    0,925;   -1,773
469,606; 1165,635;    0,470;    3,682
470,193; 1239,839;   -1,439;    0,227
470,780; 1200,869;   -2,075;    0,864
471,368; 1071,111;   -1,257;   -0,773
471,955; 1235,310;    1,379;   -0,682
472,542; 1135,982;    0,652;   -1,136
473,129;  939,720;   -0,166;    0,136
473,716;  925,932;    1,470;    0,591
474,303;  995,313;    0,652;   -0,864
474,890; 1038,885;   -1,439;   -0,500
475,477; 1199,354;   -1,621;    0,409
476,064; 1033,230;    1,106;   -1,591
476,650; 1202,560;    0,288;    0,318
477,237; 1084,651;   -0,258;    0,955
477,824; 1038,522;   -1,076;    0,864
478,411;  873,852;   -1,894;   -0,318
478,997;  893,497;    0,560;   -0,773
479,584;  795,378;    1,196;   -0,409
480,171; 1207,461;   -0,440;   -0,773
480,757; 1329,868;    2,651;    0,773
481,344; 1113,566;    0,469;    0,409
481,931;  878,232;    1,105;    1,045
482,517; 1250,951;   -1,258;    0,318
483,104; 1407,648;    1,106;    2,864
483,690; 1254,127;   -1,804;    0,045
484,276; 1228,494;   -0,895;    0,227
484,863; 1598,750;    2,469;    1,136
485,449; 1353,188;   -0,077;    0,318
486,035; 1226,042;   -1,986;   -0,136
486,622; 1457,687;   -0,895;    0,045
487,208; 1305,709;    1,378;    1,500
487,794; 1167,777;    0,741;    0,318
488,380; 1198,207;    0,105;   -1,409
488,967; 1184,893;   -1,168;   -0,409
489,553; 1218,218;   -1,895;   -1,409
490,139; 1376,141;    1,559;    0,773
490,725; 1178,364;    0,741;   -0,227
491,311; 1199,138;    3,287;    3,045
491,897; 1051,163;   -0,986;    1,500
492,483; 1067,959;    0,105;    1,227
493,069; 1868,739;    3,923;    0,864
493,655; 1326,625;    1,650;    0,682
494,241; 1122,218;    1,377;   -0,955
494,826; 1208,755;    0,287;   -1,045
495,412; 1267,485;    2,559;   -0,682
495,998; 1122,088;   -0,805;   -0,318
496,584; 1209,529;    0,377;    1,045
497,169; 1155,617;    1,014;   -0,682
497,755; 1023,003;    0,650;    1,227
498,341; 1427,245;    0,559;    0,318
498,926; 1594,920;    1,832;    1,955
499,512; 1167,484;    1,286;    2,955
500,097; 1102,931;    0,195;   -0,318
500,683; 1134,468;   -0,350;    2,136
501,268; 1079,124;   -0,169;   -0,955
501,854; 1123,129;   -0,169;    1,227
502,439; 1039,815;   -0,624;   -1,773
503,024; 1169,647;    0,195;    0,500
503,610; 1241,080;   -0,078;   -0,682
504,195; 1033,264;    0,558;    1,955
504,780; 1215,430;    2,922;    1,227
505,366; 1393,653;    3,013;    2,864
505,951; 1230,837;    0,740;    1,045
506,536; 1126,154;   -3,260;   -3,682
507,121; 1176,966;    0,285;   -0,318
507,706; 1141,991;    2,376;    1,045
508,291; 1050,936;    2,649;    1,136
508,876; 1026,666;   -0,988;    2,591
509,461; 1091,583;   -0,169;   -0,773
510,046; 1178,189;    0,194;    0,318
510,631; 1155,685;   -0,351;   -0,773
511,216; 1046,071;    2,467;   -0,500
511,801; 1187,176;   -0,442;    2,591
512,386; 1205,567;    0,740;    0,500
512,971; 1231,707;   -2,988;    0,955
513,555; 1297,275;   -0,897;   -1,500
514,140; 1287,972;   -0,442;   -3,136
514,725; 1402,051;   -0,715;   -1,136
515,309; 1267,184;   -0,533;    0,318
515,894; 1126,900;   -0,624;   -2,227
516,479; 1164,892;   -0,624;   -0,955
517,063; 1150,090;    0,376;    1,227
517,648; 1119,214;    1,012;   -1,136
518,232; 1035,712;   -0,261;   -1,409
518,817; 1168,726;   -0,079;    1,682
519,401; 1365,765;    2,194;    0,591
519,985; 1193,426;    1,103;    1,136
520,570; 1032,396;    0,830;   -1,955
521,154; 1213,508;    2,102;    0,591
521,738; 1505,103;   -2,352;    2,409
522,323; 1340,186;   -0,170;    1,682
522,907; 1258,803;    0,466;   -0,136
523,491; 1135,373;    0,557;    0,955
524,075; 1059,205;    2,284;    0,591
524,659; 1302,431;    1,466;    0,591
525,243; 1182,649;    1,739;    0,409
525,827; 1106,665;    0,648;   -0,045
526,411; 1172,068;   -1,989;   -0,136
526,995; 1365,511;   -0,352;    1,409
527,579; 1390,453;   -0,443;   -1,045
528,163; 1313,406;    0,375;   -1,500
528,747; 1501,728;    2,466;   -0,773
529,331; 1428,872;   -0,080;   -1,409
529,915; 1176,334;    1,738;    0,955
530,499; 1300,786;   -0,807;    1,227
531,082; 1440,891;   -0,534;    1,591
531,666; 1499,805;    1,374;    0,773
532,250; 1418,379;    1,284;    2,682
532,833; 1586,852;    0,920;    2,773
533,417; 1346,417;   -1,807;    0,864
534,001; 1463,304;    1,647;   -0,318
534,584; 1412,480;    0,374;    0,500
535,168; 1208,100;    0,465;    1,409
535,751; 1634,089;    0,647;    0,045
536,334; 1257,345;   -0,898;   -0,409
536,918; 1216,414;    0,011;    1,591
537,501; 1203,439;   -0,899;    1,318
538,085; 1254,679;   -0,444;    1,045
538,668; 1286,692;    0,829;    2,409
539,251; 1691,615;    1,829;    3,773
539,834; 1401,400;    0,101;    0,773
540,418; 1516,362;   -1,990;    4,318
541,001; 1707,020;   -0,990;    1,773
541,584; 1421,678;    2,101;    2,227
542,167; 1504,034;    1,374;    2,955
542,750; 1361,747;    1,919;   -0,773
543,333; 1128,290;    0,555;    2,136
543,916; 1477,202;    0,192;    2,500
544,499; 1352,918;   -1,354;    0,227
545,082; 1465,485;    1,374;    3,591
545,665; 1371,968;    1,919;    1,500
546,248; 1509,017;    1,010;   -0,318
546,830; 1478,791;   -0,445;    1,955
547,413; 1494,251;    1,010;   -0,773
547,996; 1562,265;    0,555;    0,500
548,579; 1372,857;    0,919;    0,955
549,161; 1636,334;    1,828;    2,682
549,744; 1517,835;   -0,809;    0,409
550,326; 1443,851;   -0,809;   -1,136
550,909; 1948,419;    2,737;    0,591
551,492; 1615,075;   -0,263;    0,227
552,074; 1679,033;   -0,173;   -1,318
552,657; 1740,857;    2,373;    0,045
553,239; 1549,080;   -0,173;   -0,773
553,821; 1468,006;   -1,082;    1,045
554,404; 1685,755;    1,282;    1,136
554,986; 1821,218;    0,464;    1,045
555,568; 1702,623;    1,191;   -0,955
556,151; 1896,455;    1,191;   -0,227
556,733; 1570,995;   -0,264;   -0,864
557,315; 1568,895;    0,100;    0,500
557,897; 1382,405;    0,554;   -0,500
558,479; 1402,151;   -1,991;    1,318
559,061; 1535,399;   -0,719;   -0,864
559,643; 1641,554;   -0,264;    0,045
560,225; 1680,463;    1,645;    2,864
560,807; 1555,735;    0,918;    0,318
561,389; 1487,328;    0,554;    2,318
561,971; 1563,278;    0,463;    2,136
562,553; 1553,501;   -1,628;    1,591
563,135; 1647,115;   -0,537;    1,136
563,717; 1996,559;    3,372;    1,136
564,298; 1875,644;    3,645;   -0,045
564,880; 1611,451;    0,645;   -1,409
565,462; 1493,724;    0,645;    1,318
566,043; 1820,909;   -0,446;    2,318
566,625; 1985,628;    1,918;    1,227
567,207; 1737,958;    1,099;    1,682
567,788; 1712,636;   -1,264;    1,500
568,370; 1856,476;    1,917;   -0,500
568,951; 1729,509;    0,190;    0,227
569,533; 1906,501;   -0,628;   -0,500
570,114; 2030,986;   -0,446;    0,682
570,695; 2078,308;   -0,174;   -1,318
571,277; 2029,953;   -0,265;   -1,682
571,858; 2269,600;    2,008;   -1,136
572,439; 2300,126;    1,554;   -1,045
573,021; 2277,567;    2,099;   -2,773
573,602; 2393,278;   -1,265;    0,318
574,183; 2437,473;   -2,083;    2,227
574,764; 2449,082;   -1,629;    0,409
575,345; 2564,718;    0,917;   -0,136
575,926; 2530,057;   -0,356;    0,136
576,507; 2608,542;    1,099;   -0,227
577,088; 2716,630;    3,099;    1,682
577,669; 2862,239;    0,735;    1,955
578,250; 3103,655;    0,644;   -1,045
578,831; 2953,024;   -1,356;   -2,227
579,412; 2829,434;   -0,810;    0,955
579,993; 3103,638;    1,008;    0,227
580,573; 3111,104;   -0,629;   -0,955
581,154; 2810,250;    0,735;   -0,591
581,735; 3002,410;    0,644;    0,773
582,315; 2885,046;   -0,629;    2,136
582,896; 3042,173;   -0,174;    1,227
583,477; 2842,735;    0,189;    1,227
584,057; 2950,090;    0,553;    0,955
584,638; 3026,366;    2,553;    2,318
585,218; 3203,801;   -0,538;    2,682
585,799; 3110,465;    0,281;   -0,227
586,379; 3013,176;    0,372;    1,591
586,959; 2864,751;    0,735;    0,318
587,540; 2693,627;   -0,629;    2,227
588,120; 2607,588;    1,007;   -0,045
588,700; 2468,401;    2,553;    2,136
589,281; 2726,644;    0,462;   -0,955
589,861; 2633,332;    0,099;   -1,682
590,441; 2533,569;    2,371;   -2,682
591,021; 2368,266;   -0,265;   -2,591
591,601; 2466,211;   -0,537;    0,500
592,181; 2554,454;   -0,719;   -0,773
592,761; 2252,641;    0,007;    1,409
593,341; 2394,558;   -0,901;    0,045
593,921; 2361,627;   -0,265;    1,591
594,501; 2248,118;   -0,538;    1,318
595,081; 2230,523;    0,917;   -0,318
595,661; 2434,884;   -1,447;    0,955
596,240; 2511,032;   -0,537;    0,136
596,820; 2672,696;    0,372;    1,955
597,400; 2382,316;    2,008;    0,773
597,980; 2405,333;    2,008;    1,045
598,559; 2389,928;    2,735;   -0,227
599,139; 2339,159;   -0,174;   -1,227
599,718; 2333,795;   -0,174;   -0,409
600,298; 2398,658;    0,735;    0,682
600,877; 2753,994;    2,917;    1,409
601,457; 2658,203;    2,281;    1,136
602,036; 2532,476;    0,190;    2,045
602,616; 2472,870;    0,644;    1,682
603,195; 2624,195;   -0,355;    3,500
603,774; 2566,605;   -0,901;    2,045
604,354; 2492,074;    0,826;   -0,500
604,933; 2374,368;    0,463;    1,864
605,512; 2570,005;    3,554;    0,591
606,091; 2579,862;   -0,537;    3,773
606,671; 2608,754;    0,281;    0,773
607,250; 2619,043;    1,644;    3,136
607,829; 2636,035;    2,372;    3,227
608,408; 2510,206;    1,190;    2,591
608,987; 2456,677;    1,281;    3,409
609,566; 2327,801;   -1,265;   -2,500
610,145; 2418,617;   -1,082;    0,682
610,723; 2577,743;    4,372;    6,864
611,302; 2332,239;   -0,446;    1,682
611,881; 2460,124;    5,008;   11,227
612,460; 2354,691;    1,645;    3,955
613,039; 2413,347;   -0,082;    2,045
613,617; 2131,253;    1,736;    4,773
614,196; 2165,239;    1,099;    1,227
614,775; 2326,146;    1,009;    2,409
615,353; 2335,234;    0,736;    0,864
615,932; 2275,165;    0,100;    2,409
616,510; 2411,683;    0,554;    0,591
617,089; 2787,733;    7,100;   17,591
617,667; 2452,173;    2,372;    6,136
618,246; 2103,441;   -1,537;    1,318
618,824; 2222,198;   -3,355;   -0,955
619,402; 2158,297;   -2,900;   -1,773
619,981; 2326,099;   -0,173;   -1,045
620,559; 2306,295;    0,009;    1,682
621,137; 2298,251;   -0,718;    1,864
621,715; 1990,014;   -1,173;   -0,682
622,293; 2044,876;   -0,537;   -0,773
622,871; 2296,622;   -0,718;    0,500
623,450; 2130,614;    0,373;   -0,864
624,028; 2258,653;    0,191;   -0,955
624,606; 2185,837;   -1,718;    1,682
625,183; 2086,537;   -1,536;   -1,136
625,761; 2104,620;    1,009;    1,136
626,339; 2496,058;    1,373;    2,591
626,917; 2219,719;   -0,172;   -0,045
627,495; 2219,383;   -0,354;    1,318
628,073; 2186,080;   -0,263;    2,864
628,650; 2148,639;    0,100;    2,136
629,228; 2239,584;    0,373;    4,409
629,806; 1961,474;    2,282;    1,136
630,383; 2048,331;    1,464;   -0,318
630,961; 2022,840;    2,555;   -0,955
631,539; 1988,948;    2,464;    0,227
632,116; 2666,931;   11,373;   15,409
632,694; 2335,893;    2,555;    6,500
633,271; 2136,813;    0,828;    2,682
633,848; 2253,929;    1,828;    2,045
634,426; 2054,819;   -1,081;    1,773
635,003; 1902,791;    1,101;   -0,409
635,580; 2266,576;    1,192;    3,682
636,158; 2114,259;    3,737;    1,227
636,735; 1949,998;    0,555;   -0,500
637,312; 1947,149;   -0,809;   -0,682
637,889; 1976,411;   -4,354;   -0,682
638,466; 1954,981;   -3,990;   -0,409
639,043; 1939,835;    2,101;   -1,136
639,620; 1923,552;   -2,262;   -0,955
640,197; 2083,979;    1,100;    1,682
640,774; 2057,817;   -0,172;    1,136
641,351; 2115,838;    0,737;    1,136
641,928; 2178,586;   -0,627;    1,409
642,505; 2325,788;    0,828;   -0,500
643,082; 2201,445;   -1,718;    1,227
643,658; 1866,012;   -0,718;    1,500
644,235; 1971,032;    1,191;    2,500
644,812; 2135,144;    1,918;    0,773
645,388; 2066,346;   -0,991;    1,409
645,965; 1849,821;   -0,809;    1,682
646,542; 1881,751;   -1,445;   -0,227
647,118; 2330,044;    1,009;   -0,955
647,695; 2163,520;   -0,263;    1,136
648,271; 1970,449;   -0,536;    0,500
648,848; 2100,743;    0,736;    2,227
649,424; 2222,854;    0,827;    1,318
650,000; 1915,784;   -0,354;   -1,045
650,577; 1994,805;   -0,627;   -0,955
651,153; 2115,007;   -1,809;    0,955
651,729; 2113,664;    1,191;    0,864
652,305; 2401,775;    0,645;    2,773
652,881; 2840,614;   -0,082;    1,136
653,458; 3718,544;    1,100;    0,227
654,034; 4258,837;    0,282;    1,591
654,610; 4316,222;    0,554;    0,773
655,186; 4715,424;    0,645;    3,045
655,762; 4387,263;   -0,991;    0,409
656,338; 4351,738;    0,100;    0,136
656,913; 4645,304;   -0,082;    0,409
657,489; 4375,688;    0,827;   -0,318
658,065; 4479,982;   -0,173;   -1,591
658,641; 4715,093;   -0,900;   -0,864
659,217; 4445,023;   -0,991;    0,409
659,792; 4231,135;    0,645;   -0,409
660,368; 4323,428;   -2,173;   -0,682
660,944; 4518,994;   -2,082;    1,227
661,519; 3845,742;   -0,628;    0,409
662,095; 2986,126;   -1,719;    0,591
662,670; 2303,692;    1,281;   -0,136
663,246; 2283,622;    1,009;   -0,409
663,821; 2336,279;    0,281;    1,682
664,396; 2080,027;    0,009;    1,864
664,972; 2110,775;    0,009;   -0,500
665,547; 2268,341;    1,372;    0,136
666,122; 2189,816;   -1,082;    0,318
666,698; 2362,473;   -0,173;    0,318
667,273; 2034,948;   -0,173;    0,136
667,848; 2211,242;    2,372;    1,500
668,423; 2300,262;    2,190;    2,318
668,998; 2239,101;    2,827;   -0,682
669,573; 2289,758;   -3,264;   -1,500
670,148; 2424,142;   -1,446;   -0,682
670,723; 2127,799;   -1,810;    0,318
671,298; 2494,365;    2,372;    1,045
671,873; 2368,295;   -0,082;   -0,136
672,448; 2372,952;    0,645;    0,136
673,023; 2384,973;   -1,992;   -0,227
673,597; 2559,448;    0,827;    2,318
674,172; 2542,923;   -0,355;    0,318
674,747; 2397,125;    0,372;   -1,045
675,321; 2181,510;   -0,628;    3,318
675,896; 2051,621;    0,645;    1,045
676,471; 2291,733;    2,645;    1,591
677,045; 2190,844;   -1,264;    0,682
677,620; 2222,865;    0,190;    1,136
678,194; 2230,340;   -2,628;    1,136
678,769; 2228,543;   -1,083;   -0,318
679,343; 2327,836;   -0,628;    1,773
679,917; 2381,220;   -1,446;    1,955
680,492; 2231,514;    0,826;    3,227
681,066; 2283,716;    3,372;    0,409
681,640; 2254,373;    1,463;   -0,318
682,214; 2373,848;    0,735;    0,500
682,788; 2324,141;   -1,356;   -0,773
683,363; 2372,253;   -1,810;    1,682
683,937; 2212,183;   -1,719;   -0,318
684,511; 2419,385;    0,463;   -0,591
685,085; 2361,860;   -1,356;    0,318
685,659; 2215,517;   -2,538;    0,864
686,232; 2480,993;   -0,356;   -0,318
686,806; 2356,195;   -0,901;    0,409
687,380; 2409,034;   -0,174;    0,591
687,954; 2429,327;   -1,174;    1,136
688,528; 2538,621;   -0,719;    1,955
689,101; 2603,823;   -3,992;    1,045
689,675; 2394,116;   -0,356;   -0,136
690,249; 2468,682;   -0,719;    0,409
690,822; 2532,339;    0,280;    0,318
691,396; 2415,905;   -0,265;    1,227
691,969; 2280,381;    1,280;    0,136
692,543; 2380,129;   -0,447;   -1,955
693,116; 2184,058;   -0,265;   -1,409
693,690; 2246,261;    0,099;    0,500
694,263; 2369,009;   -1,083;    2,955
694,836; 2620,756;    1,371;    3,591
695,410; 2344,141;   -0,265;    1,773
695,983; 2369,889;    0,189;    0,591
696,556; 2275,364;   -0,447;   -1,045
697,129; 2307,112;   -0,356;    1,409
697,703; 2299,132;   -1,629;    1,955
698,276; 2308,153;    1,462;   -0,773
698,849; 2363,355;    1,280;    1,409
699,422; 2202,922;   -1,083;    0,591
699,995; 2110,033;    0,007;    0,136
700,568; 2300,599;   -0,629;    3,045
701,140; 2310,165;   -2,811;    1,682
701,713; 2438,004;   -0,174;    2,409
702,286; 2315,843;   -0,538;    0,864
702,859; 2306,318;   -0,902;   -0,591
703,432; 2256,611;    0,825;    0,682
704,004; 2235,450;    0,462;    0,318
704,577; 2080,925;   -0,629;    0,136
705,150; 2179,310;    0,189;    2,500
705,722; 2278,239;   -0,356;   -3,227
706,295; 2287,896;   -0,175;   -0,591
706,867; 2124,462;   -0,175;    1,955
707,440; 2329,483;   -1,720;   -0,409
708,012; 2400,049;    0,462;    0,591
708,584; 2249,706;    2,462;    0,227
709,157; 2226,272;    1,825;   -0,591
709,729; 2359,020;    2,280;    2,045
710,301; 2473,586;    0,734;    0,045
710,874; 2427,970;   -1,447;   -0,227
711,446; 2057,991;    0,371;    0,864
712,018; 2169,012;    0,098;    0,500
712,590; 2085,487;   -1,993;    1,682
713,162; 2397,053;    0,825;    1,318
713,734; 2258,801;    1,825;   -2,045
714,306; 2200,549;   -1,902;   -0,409
714,878; 2057,751;    0,825;    0,864
715,450; 2183,499;    0,643;    0,864
716,022; 2212,065;    1,552;    1,318
716,593; 2238,449;    0,189;    0,591
717,165; 2283,197;   -3,175;   -1,227
717,737; 2430,309;    0,280;    0,409
718,309; 2266,966;    0,280;   -0,045
718,880; 2171,896;   -0,539;   -1,409
719,452; 2279,007;   -0,175;   -1,591
720,024; 2259,210;    0,734;   -0,591
720,595; 2260,048;   -2,902;    0,955
721,167; 2180,796;    0,370;   -2,045
721,738; 2169,908;   -0,812;   -1,045
722,309; 2229,474;   -0,993;   -1,227
722,881; 2054,676;   -1,357;    0,773
723,452; 2240,970;   -2,630;    2,864
724,023; 2297,081;   -0,721;    2,682
724,595; 2318,375;    0,007;    0,682
725,166; 2130,304;    0,007;   -0,409
725,737; 2293,870;    1,734;    0,227
726,308; 2189,255;   -0,266;    0,318
726,879; 2110,184;   -1,630;    1,227
727,450; 2257,478;    0,552;   -0,045
728,021; 2124,226;    3,097;    0,682
728,592; 2289,337;    0,734;    0,500
729,163; 2423,540;    0,643;   -0,136
729,734; 2423,651;    0,188;   -0,227
730,305; 2275,763;    1,734;    0,136
730,876; 2269,874;    0,188;    2,955
731,447; 2588,895;    2,188;    2,682
732,017; 2463,461;    1,097;    1,864
732,588; 2332,300;    0,734;    1,227
733,159; 2482,320;    0,643;   -1,045
733,729; 2229,523;    0,006;    0,409
734,300; 2281,998;    0,915;    0,864
734,870; 2210,746;    3,461;    0,591
735,441; 2242,948;    0,370;   -0,591
736,011; 2146,060;    0,643;   -1,591
736,582; 2169,717;   -0,812;    0,045
737,152; 2161,919;   -1,721;   -2,045
737,722; 2228,758;   -0,267;   -0,682
738,293; 2055,051;   -1,358;    1,318
738,863; 2238,254;    2,461;    2,318
739,433; 2479,911;    5,279;    0,318
740,003; 2364,750;   -0,994;   -0,682
740,573; 2390,952;    2,097;   -1,591
741,143; 2318,155;   -1,085;    0,318
741,713; 2288,266;    1,188;   -0,500
742,283; 2273,469;    0,915;    1,591
742,853; 2171,853;    1,915;    1,591
743,423; 1993,874;    1,733;    0,045
743,993; 2082,621;   -0,358;    1,500
744,563; 1971,369;    0,097;   -0,864
745,133; 2020,754;   -0,812;   -0,864
745,702; 2097,865;   -0,267;    1,773
746,272; 2153,795;   -0,176;    0,591
746,842; 2164,906;   -1,358;   -0,591
747,411; 2061,654;   -0,267;   -0,318
747,981; 1984,039;    0,097;    0,500
748,551; 2019,423;    2,278;   -1,045
749,120; 2122,080;    0,642;   -0,227
749,690; 2130,010;   -0,631;    2,409
750,259; 2276,939;    1,369;    2,955
750,828; 2287,596;    1,551;   -1,955
751,398; 2152,980;    1,278;   -0,045
751,967; 2479,637;    2,187;    0,409
752,536; 2213,204;   -0,813;   -0,227
753,105; 2363,679;    0,096;    0,227
753,675; 2163,427;    0,096;    1,773
754,244; 2162,720;   -0,904;    3,591
754,813; 2185,650;    0,551;    1,227
755,382; 2092,852;    0,460;    0,955
755,951; 2253,146;    1,551;    3,682
756,520; 2302,166;   -0,085;    1,864
757,089; 2543,369;    0,278;    0,500
757,658; 2243,480;    1,733;    1,227
758,227; 2118,683;    1,096;    0,318
758,795; 2205,521;    1,187;    1,136
759,364; 2339,906;   -0,086;   -0,591
759,933; 2066,744;   -1,176;   -0,045
760,501; 2009,220;    0,733;   -1,318
761,070; 2162,331;   -2,813;   -1,409
761,639; 2362,806;   -1,904;    1,318
762,207; 2237,009;    1,551;   -0,955
762,776; 2286,666;    0,369;    0,864
763,344; 2149,414;   -0,995;    0,591
763,913; 1809,707;   -0,722;    1,409
764,481; 2460,637;    1,005;   -0,136
765,049; 2397,021;   -1,358;    1,409
765,618; 2282,314;   -0,086;    0,318
766,186; 2192,699;    0,278;    0,136
766,754; 2195,537;    0,005;    1,864
767,322; 1914,649;   -1,995;    0,409
767,890; 1882,215;   -0,722;   -1,773
768,459; 2064,418;   -2,177;   -0,318
769,027; 2275,711;    1,641;    3,409
769,595; 1998,641;    3,278;    2,591
770,163; 2041,752;    3,823;    2,955
770,730; 2042,409;    0,732;   -0,136
771,298; 2014,521;    0,187;   -1,409
771,866; 2004,541;   -1,541;    4,955
772,434; 2042,198;   -0,631;   -1,864
773,002; 2295,764;    0,005;    0,682
773,569; 2149,603;    0,914;    1,682
774,137; 2243,806;   -0,268;   -0,045
774,705; 2195,099;    0,278;   -0,136
775,272; 2016,483;    0,641;    0,682
775,840; 2118,867;   -0,177;    2,682
776,407; 2110,434;    0,277;    1,955
776,975; 1875,091;   -0,632;    0,318
777,542; 2012,929;   -1,086;   -0,045
778,110; 2020,950;   -1,268;   -0,045
778,677; 1876,789;   -2,359;   -0,864
779,244; 1921,900;    2,186;    1,045
779,812; 2089,466;    1,823;    0,864
780,379; 2137,487;    0,005;    1,136
780,946; 2018,689;    1,005;   -0,773
781,513; 2034,619;   -1,450;    0,318
782,080; 1883,094;   -0,086;    2,864
782,647; 1998,024;   -0,268;    3,045
783,214; 1918,317;   -0,177;    3,864
783,781; 2058,429;   -0,723;   -0,682
784,348; 2034,177;   -0,632;    1,500
784,915; 1893,470;   -3,177;    0,318
785,482; 2054,582;    1,368;    2,591
786,049; 2103,875;    0,186;   -0,591
786,615; 2025,805;    0,277;   -0,955
787,182; 1928,462;    0,186;   -0,682
787,749; 1907,028;   -2,814;    1,409
788,315; 1942,049;   -1,632;   -0,409
788,882; 1962,160;    1,550;   -1,227
789,448; 2267,908;    1,732;   -0,955
790,015; 2053,110;    1,095;    3,227
790,581; 2170,677;    1,459;    0,227
791,148; 1964,970;    0,641;    1,045
791,714; 1940,081;   -0,541;    3,136
792,280; 1924,557;    0,186;    1,591
792,847; 1830,123;    0,550;    2,500
793,413; 1920,871;   -0,269;   -0,318
793,979; 1993,437;    3,459;   -1,318
794,545; 2353,185;    4,459;    2,682
795,111; 2158,478;    2,186;    1,318
795,678; 2017,226;    0,731;   -1,682
796,244; 2195,883;    3,368;    0,136
796,810; 2141,903;    1,731;    0,773
797,375; 2120,015;    0,549;   -2,136
797,941; 1747,945;   -0,541;    0,591
798,507; 1716,147;   -0,451;   -0,955
799,073; 1725,713;   -0,360;    0,591
799,639; 1805,461;   -2,632;    3,136
800,205; 1749,300;    0,095;    2,682
800,770; 1709,230;    0,640;    1,773
801,336; 1659,523;    1,368;   -0,955
801,901; 2291,907;    4,549;    3,136
802,467; 2027,292;   -0,542;    2,045
803,033; 1691,494;   -0,087;    0,864
803,598; 1692,969;    1,913;   -1,045
804,163; 1758,717;    1,095;   -0,318
804,729; 1858,192;   -0,178;    1,136
805,294; 1782,940;    0,822;    2,227
805,859; 1661,870;    0,731;   -0,409
806,425; 2050,981;    1,186;    2,682
806,990; 2018,366;    2,186;    4,318
807,555; 1817,750;   -1,451;    2,591
808,120; 1973,316;    0,822;   -0,409
808,685; 1703,337;    0,185;   -2,500
809,250; 1551,630;    0,004;   -0,500
809,815; 1630,651;    1,913;    0,682
810,380; 1838,762;   -0,269;    1,591
810,945; 1991,510;   -1,087;    2,045
811,510; 1817,712;    2,094;    1,591
812,075; 1747,642;   -0,633;   -1,409
812,640; 2052,754;    2,003;    1,409
813,204; 1837,320;    0,822;   -0,227
813,769; 2059,886;    2,094;   -0,045
814,334; 1987,816;    0,458;    0,864
814,898; 1727,564;    0,367;    0,591
815,463; 1762,857;    1,276;   -0,773
816,027; 1697,241;   -0,724;   -2,318
816,592; 1708,625;    0,640;   -2,045
817,156; 1757,282;    2,094;    1,136
817,721; 1821,576;    4,276;    2,318
818,285; 1614,960;    2,912;    1,500
818,849; 1733,708;   -1,451;    1,682
819,414; 1631,092;   -0,269;    2,955
819,978; 1558,295;   -1,269;    1,773
820,542; 1967,043;    2,003;    0,500
821,106; 1799,336;   -0,815;    0,682
821,670; 1963,175;   -0,815;    2,591
822,234; 1719,286;   -0,270;    1,409
822,798; 1567,216;    0,003;    0,500
823,362; 1898,327;   -0,633;    4,227
823,926; 1606,439;    0,094;    1,136
824,490; 1812,551;   -0,997;   -0,682
825,054; 1736,117;   -0,088;   -1,136
825,618; 1566,319;   -1,542;   -1,500
826,181; 1599,612;    0,458;   -1,318
826,745; 1663,451;    1,367;   -1,045
827,309; 1955,472;    1,185;    1,318
827,872; 1800,856;    1,367;    0,955
828,436; 1754,240;    1,185;   -0,773
828,999; 1698,352;   -0,997;    1,227
829,563; 1628,918;   -0,179;    1,136
830,126; 1582,211;   -0,179;   -0,591
830,690; 1606,596;   -1,997;    2,864
831,253; 1485,798;   -0,543;    2,227
831,816; 1557,728;   -1,906;    0,500
832,380; 1485,021;    0,185;    0,864
832,943; 1506,315;   -1,361;   -0,500
833,506; 1508,517;    2,639;   -1,227
834,069; 1731,810;    3,912;   -0,955
834,632; 1622,831;    1,730;    1,318
835,195; 1628,579;    1,003;    0,955
835,758; 1521,327;   -0,997;    1,955
836,321; 1460,166;    0,730;   -1,045
836,884; 1475,186;   -0,725;   -0,955
837,447; 1468,570;   -2,816;    1,773
838,010; 1616,591;    0,366;    3,227
838,573; 1678,794;   -1,179;    0,773
839,135; 1579,996;   -1,361;   -0,955
839,698; 1525,562;    1,275;    0,409
840,261; 1472,492;    1,003;   -0,227
840,823; 1410,785;   -0,543;    0,864
841,386; 1392,442;   -0,452;   -2,409
841,948; 1763,281;   -1,361;    1,773
842,511; 1449,302;    0,912;    1,682
843,073; 1720,686;    1,912;    0,227
843,636; 1466,797;   -0,361;   -0,227
844,198; 1692,363;    0,911;    0,591
844,760; 1664,930;    1,093;    1,955
845,322; 1406,950;    0,548;    1,136
845,885; 1569,698;    0,730;    0,591
846,447; 1540,628;   -1,998;    0,227
847,009; 1877,921;    1,911;   -0,682
847,571; 1561,396;    0,820;   -2,045
848,133; 1509,962;   -1,089;   -1,864
848,695; 1368,256;   -0,543;    1,409
849,257; 1438,004;   -1,089;   -1,682
849,819; 1626,479;   -0,998;   -0,409
850,381; 1483,772;   -0,725;   -0,864
850,942; 1549,066;    1,093;   -0,591
851,504; 1589,541;    1,184;    0,227
852,066; 1493,925;    1,275;   -1,591
852,628; 1511,582;   -0,180;    1,955
853,189; 1333,330;    1,638;    2,682
853,751; 1403,532;   -0,907;    1,409
854,312; 1581,553;   -0,453;   -1,682
854,874; 1730,210;   -2,089;   -0,773
855,435; 1539,685;   -0,907;   -1,682
855,997; 1647,615;   -1,816;   -0,136
856,558; 1666,181;    0,366;    1,773
857,119; 1517,747;    0,820;    2,864
857,681; 1356,040;    0,002;    0,318
858,242; 1594,606;    1,911;   -2,136
858,803; 1672,082;    0,456;   -0,773
859,364; 1601,193;    0,184;   -4,773
859,925; 1633,305;   -2,453;   -0,955
860,486; 1526,053;   -0,453;   -0,955
861,047; 1387,528;   -0,544;   -1,227
861,608; 1418,367;   -1,089;   -0,773
862,169; 1365,751;    0,638;   -0,045
862,730; 1418,226;    0,456;    1,409
863,291; 1478,792;   -0,635;   -0,500
863,852; 1465,176;   -0,635;    1,955
864,412; 1393,015;   -0,271;   -0,864
864,973; 1587,036;   -0,089;    0,500
865,534; 1759,056;   -1,726;    0,227
866,094; 1561,077;    1,820;    0,227
866,655; 1653,916;    1,274;    3,318
867,215; 1507,482;    0,274;    0,136
867,776; 1388,593;    0,547;   -0,136
868,336; 1450,887;   -1,453;    0,136
868,897; 1850,726;    2,638;    1,682
869,457; 1624,383;    1,365;    0,318
870,017; 1441,403;    0,547;   -1,227
870,578; 1461,424;   -0,817;    0,773
871,138; 1434,808;   -2,089;   -0,955
871,698; 1304,102;   -0,817;   -1,318
872,258; 1450,122;   -0,453;   -2,864
872,818; 1684,597;    2,729;    0,045
873,378; 1474,618;    0,638;    1,045
873,938; 1394,002;    0,547;    0,500
874,498; 1306,932;    0,274;   -1,955
875,058; 1365,407;    2,183;    1,773
875,618; 1365,064;    1,910;   -2,682
876,177; 1425,448;    1,274;    0,136
876,737; 1190,833;   -0,090;    1,955
877,297; 1656,308;    0,183;    1,955
877,856; 1549,328;   -0,362;    0,318
878,416; 1288,258;    1,183;   -0,136
878,976; 1273,733;   -1,817;    0,409
879,535; 1343,208;    0,092;    3,136
880,095; 1328,138;   -0,544;    0,045
880,654; 1216,068;   -1,090;    1,318
881,213; 1573,361;    2,456;    1,500
881,773; 1385,746;    2,637;    2,682
882,332; 2014,857;    3,365;    5,136
882,891; 1409,787;    3,092;    2,136
883,451; 1409,353;   -1,272;    1,682
884,010; 1290,010;   -2,908;   -0,409
884,569; 1267,485;   -0,999;   -0,045
885,128; 1494,687;    2,819;   -1,864
885,687; 1808,435;    4,455;    0,682
886,246; 1974,001;    1,455;    2,136
886,805; 1673,931;    2,455;    2,045
887,364; 1321,497;   -0,999;   -0,500
887,922; 1250,609;   -1,181;    0,045
888,481; 1401,720;   -1,545;    0,591
889,040; 1558,468;    1,183;    2,136
889,599; 1433,580;    2,455;    1,409
890,157; 1434,964;    1,455;    2,409
890,716; 1344,439;   -0,090;    0,227
891,274; 1441,096;    0,092;   -1,136
891,833; 1550,480;    1,546;    0,864
892,391; 1347,137;   -0,454;    0,500
892,950; 1545,249;    1,819;   -0,773
893,508; 1351,451;    0,455;   -0,409
894,067; 1197,199;    0,637;    0,136
894,625; 1302,402;   -0,636;   -1,500
895,183; 1275,150;   -0,363;   -0,682
895,741; 1616,352;    1,728;   -1,773
896,299; 1371,373;   -0,545;   -2,409
896,858; 1274,848;    0,819;   -1,591
897,416; 1417,596;    2,728;   -1,318
897,974; 1346,889;    1,819;    0,318
898,532; 1854,273;    6,091;    2,682
899,089; 1483,476;    2,091;   -0,682
899,647; 1363,497;   -1,454;    1,318
900,205; 1411,790;    1,182;    1,045
900,763; 1417,538;   -0,454;    0,227
901,321; 1364,104;    2,364;   -1,409
901,878; 1159,034;   -1,000;   -0,773
902,436; 1226,236;   -1,363;    1,318
902,994; 2070,711;    4,728;    3,682
903,551; 1543,914;    0,728;    0,409
904,109; 1413,571;    0,182;   -1,409
904,666; 1353,409;    2,455;    1,045
905,224; 1220,066;    0,182;   -0,409
905,781; 1387,360;    0,727;   -0,318
906,338; 1303,562;   -1,363;    1,045
906,895; 1173,219;    0,637;    2,045
907,453; 1473,876;    1,727;    1,136
908,010; 1309,351;   -0,909;    0,409
908,567; 1243,736;    1,273;    0,591
909,124; 1049,211;    0,364;   -1,500
909,681; 1118,595;   -2,909;    0,682
910,238; 1204,979;    0,636;   -1,318
910,795; 1171,455;   -0,273;   -1,136
911,352; 1158,273;   -2,909;   -2,682
911,909; 1166,182;   -1,364;   -0,864
912,466; 1216,636;   -3,182;    1,500
913,022; 1227,000;   -1,636;    0,500
913,579; 1359,818;   -0,909;    2,045
914,136; 1208,273;    1,636;    0,955
914,692; 1275,636;    0,091;   -1,227
915,249; 1217,273;    1,455;    0,409
915,806; 1300,091;    0,182;    1,955
916,362; 1207,455;    1,909;    1,864
916,918; 1102,909;    2,000;    1,045
917,475; 1326,455;   -1,182;    0,955
918,031; 1127,182;    3,364;   -0,045
918,587; 1200,273;   -0,909;   -0,318
919,144; 1106,182;   -2,273;    0,227
919,700; 1050,727;    1,727;    0,773
920,256; 1017,909;    0,727;    0,045
920,812; 1058,909;   -0,727;   -1,045
921,368; 1016,000;   -1,727;   -1,045
921,924; 1002,273;    0,182;   -0,136
922,480; 1113,273;   -0,545;    1,227
923,036; 1150,636;    1,273;    1,955
923,592; 1034,364;    0,455;    0,318
924,148; 1067,364;    0,455;   -0,955
924,704; 1210,636;   -1,364;   -0,409
925,259; 1050,364;   -0,273;    0,591
925,815; 1009,273;    1,455;    0,500
926,371;  952,909;    2,909;    1,409
926,926; 1119,636;    2,091;    0,591
927,482; 1075,727;   -1,364;    0,773
928,037; 1001,818;    0,909;    2,045
928,593; 1230,545;    1,636;    1,045
929,148;  964,818;   -1,818;   -1,500
929,704; 1021,182;   -1,455;   -0,500
930,259;  903,364;    0,091;   -0,136
930,814; 1131,818;   -0,818;    1,955
931,369; 1042,273;    1,091;   -0,773
931,925;  812,000;   -0,091;    0,136
932,480;  931,364;   -2,818;   -2,591
933,035; 1339,455;    0,545;   -0,318
933,590; 1210,000;    0,364;   -1,773
934,145;  768,000;   -1,364;   -0,318
934,700;  678,455;    0,455;   -0,591
935,255;  758,182;   -0,091;    0,045
935,809; 1108,182;    3,182;    0,864
936,364;  694,364;   -0,455;   -0,136
936,919;  704,000;    0,455;   -1,773
937,474;  611,727;    1,455;    0,136
938,028;  641,273;   -1,636;    1,136
938,583; 1059,091;    1,818;    4,682
939,138;  684,545;    2,091;    2,136
939,692;  540,091;    1,636;   -1,136
940,247;  591,727;   -0,727;   -1,045
940,801;  658,545;   -0,636;    0,227
941,355;  559,000;   -0,364;    2,591
941,910;  443,364;   -0,273;   -2,136
942,464;  488,636;   -0,818;   -0,318
943,018;  766,727;    1,000;   -0,227
943,572;  578,455;    2,545;   -0,682
944,126;  627,091;    0,091;   -0,409
944,681;  502,000;    3,091;    0,227
945,235;  439,455;    1,000;   -0,591
945,789;  389,818;    0,364;   -1,864
946,342;  714,000;    0,455;   -0,591
946,896;  450,727;   -2,273;    0,955
947,450;  422,636;    1,545;   -0,227
948,004;  693,545;    1,727;   -0,045
948,558;  482,545;    0,273;   -0,864
949,111;  476,545;   -0,273;   -0,318
949,665;  699,818;    1,636;   -0,682
950,219;  650,364;   -0,091;   -1,045
950,772;  562,818;   -1,909;    1,864
951,326;  556,091;    0,545;   -0,955
951,879;  470,273;    0,727;   -2,318
952,433;  617,727;    0,000;    2,227
952,986;  436,364;    2,909;    0,682
953,539;  390,636;   -0,273;    0,591
954,093;  335,000;    0,545;   -1,318
954,646;  485,455;    0,909;    1,318
955,199;  412,000;    0,000;   -0,500
955,752;  627,727;   -0,455;    1,773
956,305;  467,455;   -0,091;    2,955
956,858;  521,818;    0,818;   -0,318
957,411;  589,364;   -0,545;    2,136
957,964;  475,545;    1,364;    2,136
958,517;  392,727;   -1,545;    3,136
959,070;  345,364;   -0,455;    1,955
959,623;  645,636;    1,091;    1,500
960,176;  587,545;    1,727;    2,045
960,728;  553,091;   -2,727;    0,773
961,281;  489,545;    0,545;    0,500
961,834;  402,273;   -0,909;    0,864
962,386;  407,636;    1,727;    1,045
962,939;  371,182;    0,364;   -0,318
963,491;  425,455;    0,455;    1,136
964,043;  359,818;    1,182;    2,409
964,596;  543,727;   -1,000;    2,227
965,148;  443,545;   -1,000;    1,773
965,700;  352,727;    1,091;   -0,227
966,253;  523,727;   -0,636;    0,318
966,805;  482,000;   -2,273;    0,773
967,357;  403,818;    1,091;   -1,500
967,909;  534,091;    0,455;   -1,227
968,461;  405,909;    0,545;    3,136
969,013;  350,818;   -0,182;   -0,864
969,565;  511,364;   -0,455;   -1,136
970,117;  774,909;   -0,364;    1,045
970,669;  518,455;    0,182;   -0,136
971,220;  307,182;   -0,455;   -1,500
971,772;  399,636;   -0,636;   -0,318
972,324;  506,818;    0,091;   -0,500
972,876;  400,000;    0,818;   -0,045
973,427;  539,000;    1,909;   -1,045
973,979;  603,091;   -0,727;   -2,500
974,530;  391,455;    1,818;    1,318
975,082;  458,727;   -0,545;    1,682
975,633;  400,909;    1,091;    1,682
976,184;  466,000;    0,909;    0,773
976,736;  454,818;    0,091;    0,227
977,287;  463,273;   -0,909;   -0,500
977,838;  428,273;    0,909;   -0,318
978,389;  439,364;   -1,000;   -0,500
978,940;  294,273;    0,545;   -0,409
979,491;  291,545;    0,091;   -0,500
980,042;  395,636;    0,182;    3,045
980,593;  406,909;   -2,545;    0,227
981,144;  506,091;    2,545;   -0,500
981,695;  544,455;    1,455;    1,500
982,246;  493,364;   -0,273;    1,045
982,797;  345,091;   -1,727;    0,682
983,347;  509,818;    0,364;    0,591
983,898;  713,364;    3,091;    0,409
984,449;  672,909;    2,182;    0,773
984,999;  497,182;    1,455;   -1,136
985,550;  456,091;    0,182;   -0,318
986,100;  305,000;   -0,455;   -0,318
986,651;  296,455;   -0,818;    0,045
987,201;  336,091;   -1,000;   -0,591
987,751;  353,455;    0,818;    2,864
988,302;  401,727;    2,636;    1,500
988,852;  443,818;    0,455;   -1,136
989,402;  509,727;    0,091;    0,682
989,952;  541,364;   -2,182;    0,864
990,502;  379,273;   -0,091;    0,682
991,052;  274,182;   -0,727;    0,045
991,602;  324,636;   -2,909;    1,318
992,152;  385,636;    0,455;    0,682
992,702;  415,545;    1,364;   -0,045
993,252;  354,000;   -3,000;   -0,500
993,802;  462,636;   -0,273;    1,318
994,352;  416,364;   -1,545;    1,136
994,901;  317,455;   -0,182;    3,227
995,451;  310,182;   -0,182;    0,318
996,000;  344,545;    1,636;    0,318
996,550;  357,636;    2,273;    0,227
997,100;  396,455;    1,273;   -0,045
997,649;  539,545;    2,182;    0,955
998,198;  349,909;    1,727;   -1,500
998,748;  474,909;    1,091;   -2,318
999,297;  399,909;   -0,818;   -0,409
999,846;  537,364;    1,000;   -0,773
1000,395;  441,273;   -0,818;    0,500
1000,945;  567,727;    1,818;   -0,773
1001,494;  562,818;    2,364;    0,682
1002,043;  539,364;    4,636;    0,864
1002,592;  341,909;   -1,091;    1,955
1003,141;  339,455;   -0,455;   -0,682
1003,690;  513,909;    1,727;    0,500
1004,238;  386,091;    1,455;   -0,045
1004,787;  300,636;    1,364;    1,227
1005,336;  488,455;    0,364;    0,682
1005,885;  435,182;    1,364;   -2,773
1006,433;  423,091;    0,545;    0,955
1006,982;  627,818;    0,455;    1,682
1007,531;  462,545;   -1,818;   -0,227
1008,079;  416,545;   -2,273;    0,500
1008,627;  348,455;   -1,455;    0,409
1009,176;  372,727;    0,000;   -1,955
1009,724;  320,545;    1,091;    0,864
1010,273;  486,818;    1,273;    0,500
1010,821;  359,727;    0,091;    1,409
1011,369;  316,727;   -1,364;    1,318
1011,917;  339,636;   -1,364;   -0,591
1012,465;  423,909;    1,273;   -1,591
1013,013;  409,636;    2,091;   -1,682
1013,561;  517,545;    0,455;   -0,773
1014,109;  618,000;   -1,909;    1,682
1014,657;  485,909;    0,364;    0,591
1015,205;  375,455;    1,636;   -0,955
1015,753;  313,636;   -0,545;   -1,409
1016,301;  398,091;   -2,636;    3,045
1016,848;  474,273;   -1,273;    0,409
1017,396;  476,091;    2,545;    0,045
1017,944;  476,182;    1,182;    1,864
1018,491;  374,455;    0,273;    1,409
1019,039;  698,182;    0,455;    0,591
1019,586;  442,636;   -1,364;    1,682
1020,134;  431,909;    0,455;    1,500
1020,681;  516,636;    0,182;   -1,136
1021,228;  412,364;    2,909;   -2,227
1021,776;  393,091;    1,182;   -1,136
1022,323;  628,545;    0,455;    0,773
1022,870;  532,636;   -1,000;   -0,045
1023,417;  588,000;    2,636;    1,864
1023,964;  406,909;    2,636;    1,227
1024,511;  380,545;    1,000;    0,773
1025,058;  410,364;    3,182;   -0,045
1025,605;  366,000;   -2,273;    3,136
1026,152;  594,636;    1,727;   -0,591
1026,699;  440,818;    1,818;    1,318
1027,245;  419,000;   -0,091;    0,318
1027,792;  350,455;   -1,000;    1,409
1028,339;  582,091;    2,364;   -0,045
1028,885;  436,455;    1,000;   -0,227
1029,432;  391,091;   -0,091;    0,227
1029,978;  506,818;   -1,000;   -1,591
1030,525;  496,455;    1,000;    0,409
1031,071;  357,545;   -1,364;    1,136
1031,618;  660,818;    0,364;    1,682
1032,164;  482,091;   -0,091;    3,045
1032,710;  530,545;    1,636;   -1,500
1033,256;  485,182;   -0,636;   -0,136
1033,803;  335,636;   -0,545;    1,500
1034,349;  199,364;   -1,364;    0,136
1034,895;  249,818;    0,000;   -0,318
1035,441;  327,727;   -0,818;    0,318
1035,987;  378,455;   -2,364;   -0,682
1036,533;  458,455;   -1,455;   -0,955
1037,078;  652,727;    1,455;    1,682
1037,624;  500,818;    2,455;   -0,955
1038,170;  359,000;    0,455;   -0,318
1038,716;  451,364;    1,636;   -0,409
1039,261;  322,909;   -2,273;   -0,773
1039,807;  341,455;   -0,091;    3,409
1040,352;  368,818;   -1,909;   -0,318
1040,898;  369,909;   -1,545;   -0,682
1041,443;  291,182;   -1,455;   -2,591
1041,989;  600,455;    1,091;    1,591
1042,534;  390,455;   -0,364;    2,591
1043,079;  282,909;    2,909;    0,955
1043,625;  394,182;    1,818;    0,500
1044,170;  412,545;   -1,364;    1,045
1044,715;  613,364;    2,455;    0,955
1045,260;  508,364;    2,182;   -0,955
1045,805;  343,727;    1,182;   -0,591
1046,350;  310,545;    1,364;   -0,409
1046,895;  501,273;    2,909;    1,591
1047,440;  493,273;    5,364;    0,409
1047,985;  358,636;    2,818;   -0,955
1048,530;  321,545;    1,545;    1,227
1049,074;  395,091;    0,000;    0,318
1049,619;  319,182;   -1,364;    1,955
1050,164;  308,818;    0,455;    0,227
1050,708;  396,182;   -0,455;    0,045
1051,253;  654,091;    1,273;   -2,227
1051,797;  447,182;    0,818;   -1,318
1052,342;  274,545;   -1,182;    1,045
1052,886;  379,091;    0,364;   -1,409
1053,430;  256,818;   -1,364;    0,136
1053,975;  355,909;   -0,818;   -0,318
1054,519;  358,000;   -0,727;    3,227
1055,063;  432,545;    0,909;    1,318
1055,607;  417,909;   -0,182;    0,227
1056,151;  407,091;    2,909;    1,682
1056,695;  323,636;    2,273;   -1,136
1057,239;  313,455;   -1,727;   -0,682
1057,783;  361,727;    0,818;   -1,500
1058,327;  432,000;    0,000;    1,409
1058,871;  574,727;   -0,545;    1,318
1059,415;  449,273;   -0,818;   -0,045
1059,958;  603,182;    1,455;    2,591
1060,502;  360,091;   -1,000;   -0,773
1061,046;  260,273;    0,364;   -0,955
1061,589;  243,273;   -3,000;   -1,136
1062,133;  216,000;   -1,273;    1,864
1062,676;  261,727;    1,182;    0,864
1063,220;  303,636;    1,091;    0,500
1063,763;  333,727;    0,909;    1,136
1064,306;  353,818;   -0,909;    1,864
1064,849;  349,636;   -0,909;    0,591
1065,393;  327,636;    2,000;   -1,500
1065,936;  333,273;    0,182;   -0,409
1066,479;  247,818;   -1,455;    1,318
1067,022;  275,182;   -0,273;   -0,227
1067,565;  244,000;   -0,091;   -1,318
1068,108;  212,091;    0,727;   -0,591
1068,651;  195,000;   -0,636;    1,409
1069,194;  207,091;   -0,455;   -1,682
1069,736;  230,455;   -1,273;    0,955
1070,279;  202,455;   -1,364;   -0,500
1070,822;  289,273;   -2,000;   -0,318
1071,364;  420,364;   -0,364;    1,318
1071,907;  272,636;   -0,727;    3,227
1072,450;  125,909;    0,000;   -0,045
1072,992;  205,545;   -0,273;    3,136
1073,535;  290,182;    2,091;    2,136
1074,077;  203,909;   -0,727;    2,045
1074,619;  194,000;   -1,364;    0,591
1075,161;  227,182;   -1,091;    1,500
1075,704;  351,000;    1,545;    1,227
1076,246;  212,545;   -0,182;    0,682
1076,788;  149,727;   -0,364;    1,773
1077,330;  149,182;    1,273;    2,136
1077,872;  199,182;    0,909;    0,955
1078,414;  375,636;    2,727;    0,773
1078,956;  229,273;    1,273;   -0,227
1079,498;  370,455;    1,636;    0,318
1080,040;  228,273;    1,909;   -1,318
1080,581;  186,455;    1,636;   -0,318
1081,123;  128,818;    0,091;   -0,773
1081,665;  141,364;   -1,182;   -0,955
1082,206;  330,727;    1,364;   -0,500
1082,748;  245,636;    0,727;    2,045
1083,289;  160,364;   -2,000;    1,318
1083,831;  146,727;   -0,545;    0,227
1084,372;  196,727;    0,000;    0,591
1084,913;  193,636;    1,091;    0,864
1085,455;  139,909;   -1,909;   -2,045
1085,996;  146,364;   -2,273;    0,136
1086,537;  178,182;   -0,091;    0,864
1087,078;  188,091;   -0,909;   -2,136
1087,619;  231,000;   -1,273;    0,227
1088,160;  196,727;    0,000;    1,318
1088,701;  174,091;   -1,091;    0,682
1089,242;  155,455;    1,364;   -2,227
1089,783;  210,818;   -0,273;    1,409
1090,324;  196,182;    0,455;    0,682
1090,865;  133,364;    2,727;   -0,409
1091,405;  105,364;    0,727;    2,227
1091,946;  151,909;    0,182;   -0,955
1092,487;  102,727;    0,818;   -1,409
1093,027;  217,455;   -1,364;   -1,500
1093,568;  146,364;   -0,364;    1,227
1094,108;  182,091;    0,273;    1,773
1094,649;  145,636;   -1,182;    0,136
1095,189;  118,818;   -0,636;   -0,682
1095,729;  114,091;   -0,091;    0,955
1096,269;  102,455;    0,727;   -0,955
1096,810;  262,273;   -1,364;    0,500
1097,350;  199,182;    1,364;   -0,773
1097,890;  150,909;    0,364;    1,227
1098,430;  317,909;    2,364;    2,864
1098,970;  244,818;    2,182;    1,682
1099,510;  133,909;    0,545;   -2,318
1100,050;  114,273;    1,000;   -1,591
1100,589;  126,727;   -0,727;   -0,318
1101,129;  176,273;    0,818;   -0,955
1101,669;  264,636;    1,727;    2,136
1102,209;  178,091;   -0,091;    2,227
1102,748;  141,727;    0,000;    0,955
1103,288;  152,636;    1,273;   -1,227
1103,827;  151,727;    3,091;   -2,227
1104,367;  109,000;   -0,091;   -2,409
1104,906;  106,455;    1,364;   -1,136
1105,445;  150,455;    0,636;   -1,136
1105,985;  126,273;   -0,727;    1,500
1106,524;  141,455;   -1,727;   -0,682
1107,063;  126,000;   -2,727;    1,409
1107,602;  100,545;   -1,909;   -1,500
1108,141;   84,091;   -1,909;    1,500
1108,680;  151,909;   -3,455;   -0,591
1109,219;  121,364;   -0,909;   -0,500
1109,758;  109,545;    0,455;    0,682
1110,297;  100,909;    1,000;   -0,682
1110,836;   77,000;   -0,727;    0,955
1111,375;  120,000;   -2,545;    0,409
1111,913;  157,273;   -1,000;    0,773
1112,452;  126,182;   -0,273;    0,136
1112,991;   79,545;    1,091;    1,955
1113,529;   77,909;   -0,818;   -0,045
1114,068;  105,455;   -0,273;    2,955
1114,606;   74,727;   -0,364;   -0,955
1115,144;  144,818;   -1,273;    1,045
1115,683;  111,818;   -0,727;    0,318
1116,221;  146,091;   -0,455;   -0,864
1116,759;   94,273;    0,636;   -0,864
1117,297;  173,364;    0,000;    1,864
1117,836;   98,727;   -2,182;   -1,227
1118,374;  102,909;    0,182;   -0,682
1118,912;   96,909;    0,909;    2,682
1119,450;   98,000;    1,000;    0,864
1119,988;   97,273;    1,545;    2,136
1120,525;  360,818;    5,091;    3,318
1121,063;  190,273;    1,182;    1,864
1121,601;  100,000;   -0,909;   -1,227
1122,139;   76,455;   -0,727;   -2,045
1122,676;  178,455;   -0,727;    2,773
1123,214;  155,091;   -1,182;    4,409
1123,751;   71,909;    1,727;    2,227
1124,289;  114,091;   -0,091;   -0,409
1124,826;   80,000;    1,727;    0,227
1125,364;   39,364;    1,727;   -0,955
1125,901;  145,727;    1,182;    1,227
1126,438;  156,818;    0,818;    0,955
1126,975;   44,000;   -0,727;   -0,773
1127,513;   74,545;    0,273;    2,136
1128,050;   48,182;    1,636;   -0,682
1128,587;   84,364;    2,000;   -0,227
1129,124;  106,636;    0,091;    1,318
1129,661;   56,545;    0,273;    0,227
1130,198;  131,818;    1,636;    0,773
1130,734;   94,273;    0,182;    1,409
1131,271;   46,636;   -0,909;    0,864
1131,808;  115,455;    2,909;    3,045
1132,345;   68,182;    1,545;    0,318
1132,881;   28,909;   -1,545;   -1,864
1133,418;   79,727;    0,727;   -1,136
1133,954;   52,818;    2,455;   -2,682
1134,491;   85,182;    1,364;   -0,773
1135,027;   48,182;    2,364;    0,864
1135,564;   82,818;    0,273;    2,955
1136,100;   69,727;    0,364;    2,136
1136,636;   36,091;   -1,273;   -1,045
1137,172;   67,000;    0,000;   -1,045
1137,708;   45,273;   -1,364;   -1,045
1138,245;   40,273;    1,273;   -1,227
1138,781;   24,909;    1,091;   -3,318
1139,317;   52,364;    1,273;   -1,409
1139,852;   60,000;    3,091;    0,136
1140,388;   87,364;   -1,182;   -0,409
1140,924;   53,000;   -1,091;   -2,227
1141,460;   28,455;   -1,636;    0,136
1141,996;   14,455;   -1,364;    2,682
1142,531;   31,455;    1,364;    3,318
1143,067;  104,909;    1,182;    1,045
1143,602;  131,545;   -0,091;   -0,318
1144,138;   67,636;   -2,636;    1,045
1144,673;   28,818;   -1,455;    1,409
1145,209;   47,636;   -1,909;   -0,318
1145,744;   21,364;   -0,727;    0,864
1146,279;   65,364;    1,818;   -0,136
1146,815;   39,818;    1,545;   -2,682
1147,350;   55,909;   -1,364;    0,045
1147,885;   29,636;   -0,818;   -1,318
1148,420;   30,545;   -2,273;    0,773
1148,955;   29,091;   -1,727;    1,864
1149,490;   31,455;   -0,909;   -1,591
1150,025;   23,000;    0,455;   -1,773
1150,560;   65,364;    1,091;   -0,955
1151,094;   52,000;    1,455;   -0,591
1151,629;   46,818;    1,636;    0,864
1152,164;   31,909;    1,364;    1,318
1152,698;   21,909;   -0,182;   -0,136
1153,233;    7,818;    0,091;   -0,682
1153,767;   19,909;   -3,000;   -2,318
1154,302;   34,545;   -1,455;    1,773
1154,836;   33,909;   -0,455;   -2,136
1155,371;   48,455;   -1,364;    3,682
1155,905;   34,091;   -0,636;    1,682
1156,439;   31,091;   -0,636;   -0,500
1156,973;   43,273;    0,364;    0,318
1157,507;   20,818;   -0,364;    0,682
1158,042;   20,909;   -0,727;    1,045
1158,576;   32,727;    0,182;    1,773
1159,110;   36,273;   -0,818;    2,409
1159,643;   29,000;    0,636;   -0,045
1160,177;   17,545;   -1,545;    1,500

