
Integration time [ms]:   0,040
Averaging Nr. [scans]: 11
Smoothing Nr. [pixels]: 0
Data measured with spectrometer [name]: 7318044SP
Wave   ;Sample   ;Dark     ;Reference
[nm]   ;[counts] ;[counts] ;[counts] 

186,757;   32,189;   31,551;    1,318
187,357;   39,409;   22,551;    0,955
187,958;   27,260;   15,460;   -1,591
188,558;   40,353;    8,915;   -1,227
189,159;   26,345;    6,733;   -4,500
189,759;   14,060;    7,278;   -3,591
190,360;   11,407;    2,824;   -2,136
190,960;   26,376;    2,915;   -4,136
191,560;   30,155;    3,189;   -6,591
192,161;  144,003;    4,372;   -3,500
192,761;   79,409;    4,010;   -3,227
193,361;   49,427;    1,556;   -3,773
193,962;   65,941;    2,010;   -2,682
194,562;   26,827;    1,189;   -3,955
195,162;   25,033;   -2,448;   -2,227
195,762;   89,463;   -3,176;   -0,045
196,362;   61,296;    1,370;   -2,500
196,963;   20,448;    2,006;   -0,864
197,563;   43,544;    1,551;   -0,955
198,163;   16,308;    0,096;   -0,682
198,763;   25,344;    1,733;   -0,500
199,363;   52,276;    3,096;   -0,500
199,963;   35,830;    0,369;    0,409
200,563;   29,674;    2,823;   -1,409
201,163;   21,636;    3,277;   -0,227
201,763;   44,865;    3,732;    0,318
202,363;   26,214;    1,459;    1,500
202,963;   44,905;    1,459;    1,045
203,563;   83,630;    0,277;    0,500
204,162;   38,483;    2,096;   -1,864
204,762;   36,770;    0,550;    0,591
205,362;   24,436;    3,004;    1,955
205,962;   44,991;    3,096;    1,955
206,562;   43,996;    1,823;    2,318
207,161;   29,227;   -0,087;    0,318
207,761;   97,635;    1,277;    2,409
208,361;   44,683;   -0,268;    1,409
208,960;   64,776;    0,459;    1,500
209,560;   59,978;    1,277;    1,591
210,160;   74,491;    0,550;    1,864
210,759;   53,316;    4,186;    1,227
211,359;   44,291;    1,459;    1,045
211,958;  155,790;    1,277;    2,045
212,558;  167,647;    1,732;    1,864
213,157;  100,852;    1,822;    1,500
213,757;  263,253;    3,822;   -0,227
214,356;  138,025;    1,277;   -0,409
214,956;  261,131;    3,095;    0,409
215,555;  115,570;    2,095;    2,136
216,154;   81,482;   -2,723;   -0,591
216,754;   87,828;    0,277;    0,773
217,353;  112,368;   -0,268;   -1,045
217,952;   44,115;   -0,178;    0,318
218,552;  143,851;    1,368;   -0,773
219,151;   89,868;    0,277;    0,955
219,750;   84,314;    0,004;   -0,227
220,349;   69,619;   -0,451;    1,045
220,948;  167,833;   -1,360;    1,136
221,548;   94,889;    0,913;    1,227
222,147;  131,757;   -0,087;   -0,409
222,746;  260,352;   -0,451;   -0,955
223,345;  164,396;    0,731;    0,500
223,944;  174,408;   -0,451;    0,773
224,543;  191,839;    1,004;   -1,409
225,142;  193,932;    0,094;    0,136
225,741;  186,739;   -0,814;    1,045
226,340;  174,695;   -0,451;   -0,955
226,939;  297,194;   -0,996;   -0,136
227,538;  169,898;   -0,360;   -0,773
228,137;  303,939;   -0,814;    0,864
228,735;  256,385;   -0,541;    1,227
229,334;  137,913;   -0,905;   -0,227
229,933;  327,573;    0,459;    0,591
230,532;  346,013;    1,186;   -0,409
231,131;  425,855;    1,732;    0,318
231,729;  300,801;   -2,450;   -2,318
232,328;  230,227;   -0,723;   -1,500
232,927;  250,526;    1,004;   -0,500
233,525;  228,171;    3,640;    0,045
234,124;  277,464;    2,368;   -1,591
234,723;  200,262;    0,913;   -1,045
235,321;  192,490;    2,277;    0,136
235,920;  243,901;    1,186;   -1,227
236,518;  411,948;    3,459;    0,318
237,117;  250,349;    0,004;   -0,227
237,715;  265,737;    0,640;   -0,500
238,314;  332,857;   -0,087;   -2,318
238,912;  485,497;   -0,723;   -1,409
239,510;  360,189;    0,459;   -1,227
240,109;  493,186;    0,004;    3,773
240,707;  449,136;   -0,996;    1,227
241,305;  295,746;    0,550;    0,136
241,904;  423,473;   -0,178;   -2,045
242,502;  537,045;   -0,632;   -0,227
243,100;  421,083;   -0,087;   -0,955
243,698;  359,470;    0,732;    1,682
244,297;  405,740;   -0,632;    0,682
244,895;  411,200;   -0,269;   -2,318
245,493;  622,558;    2,186;   -0,591
246,091;  619,883;    1,368;   -1,318
246,689;  553,874;    1,004;    0,591
247,287;  506,772;    0,822;   -1,136
247,885;  477,402;   -1,451;    1,227
248,483;  442,942;    1,822;   -0,500
249,081;  537,929;    0,185;    1,591
249,679;  598,079;   -0,178;    1,682
250,277;  457,250;   -1,723;    0,864
250,875;  619,183;   -1,087;   -1,045
251,473;  493,907;   -1,178;    0,500
252,071;  616,851;    1,459;    1,045
252,669;  528,953;   -1,814;    0,318
253,267;  464,252;   -0,087;    0,773
253,864;  522,954;   -0,360;    0,682
254,462;  714,648;    1,640;    1,591
255,060;  463,877;   -0,269;    1,318
255,658;  458,044;    0,822;   -0,136
256,255;  572,036;    0,186;   -2,045
256,853;  614,311;   -0,269;    1,409
257,451;  600,086;    0,822;    1,864
258,048; 1077,951;    1,822;    1,864
258,646;  721,912;    1,731;   -1,045
259,243;  854,402;   -0,087;    2,227
259,841;  720,323;   -0,814;    0,318
260,438;  552,317;   -0,087;    0,864
261,036;  688,570;   -1,905;    1,409
261,633;  572,244;   -0,087;    2,227
262,231;  530,112;    2,731;   -0,045
262,828;  541,599;   -0,905;    1,136
263,425;  606,388;    0,913;   -0,591
264,023;  624,514;    0,186;    0,045
264,620;  793,713;   -0,360;   -0,318
265,217;  929,417;   -2,087;    3,136
265,815;  614,821;   -1,905;    2,136
266,412;  770,343;    0,731;    0,136
267,009;  804,531;   -1,451;    0,773
267,606;  914,912;    0,822;   -0,955
268,203;  664,517;   -0,269;   -0,591
268,801;  737,220;    1,731;    0,591
269,398;  633,068;   -0,360;    2,500
269,995;  811,599;    0,277;    1,591
270,592;  714,916;   -0,632;   -0,500
271,189;  621,707;    0,186;    0,409
271,786;  601,945;   -0,632;    1,227
272,383;  907,860;   -1,087;    0,227
272,980;  724,637;    0,277;    0,318
273,577;  676,720;    0,004;    1,227
274,174;  617,394;    0,822;    2,591
274,771;  775,317;   -0,814;   -0,773
275,367; 1233,984;    2,277;    1,409
275,964; 1021,458;    0,731;   -0,500
276,561;  785,071;    1,549;   -1,045
277,158;  692,352;    0,095;   -1,773
277,755;  973,839;    2,185;    0,409
278,351;  808,449;   -0,451;   -1,500
278,948;  903,827;   -0,815;    0,045
279,545;  804,543;   -1,360;    2,318
280,141; 1085,596;   -1,723;   -2,045
280,738;  987,390;   -0,451;   -0,136
281,334;  762,431;   -1,633;    0,591
281,931;  789,263;   -0,087;   -1,318
282,528;  898,222;    0,822;   -0,500
283,124; 1032,012;   -1,087;   -0,500
283,721; 1017,865;   -0,451;    1,409
284,317;  826,187;    0,185;    2,500
284,913; 1079,607;   -1,360;    0,591
285,510; 1399,788;    0,640;   -0,318
286,106; 1176,671;   -2,269;   -0,955
286,703;  861,343;   -0,360;    1,955
287,299;  820,687;   -1,451;   -0,591
287,895;  824,261;    0,822;   -1,045
288,491;  850,249;    0,186;    2,136
289,088;  984,871;   -2,360;    2,409
289,684; 1025,317;   -1,723;    1,500
290,280; 1205,842;    0,368;    0,682
290,876; 1166,519;    1,822;    5,500
291,472; 1040,355;    1,276;    2,227
292,068; 1056,325;    1,367;    0,227
292,665;  893,232;    2,095;    0,773
293,261;  758,634;    0,276;    2,136
293,857;  996,916;    2,913;    2,136
294,453;  907,473;    3,550;    0,955
295,049; 1139,451;   -0,268;    1,955
295,644;  939,966;    0,095;    0,136
296,240;  803,269;   -0,905;   -0,136
296,836;  975,530;   -0,995;    0,318
297,432; 1152,648;    1,096;   -0,500
298,028; 1218,563;    0,732;    0,773
298,624; 1022,374;    1,459;    1,864
299,220; 1000,293;    2,368;    0,591
299,815;  966,949;    1,005;   -0,409
300,411; 1087,723;    0,914;    1,773
301,007; 1242,445;    1,368;    0,227
301,602; 1045,090;   -0,541;   -2,318
302,198; 1178,812;    0,732;   -0,773
302,794; 1008,536;    1,187;   -0,500
303,389;  976,653;   -1,177;    1,045
303,985; 1061,858;    0,550;    1,409
304,580; 1178,709;    1,459;    1,591
305,176; 1047,084;   -3,086;    0,136
305,771;  921,075;   -1,268;   -1,227
306,367; 1373,952;    4,095;    0,136
306,962; 1123,545;    0,641;    1,500
307,558; 1119,357;   -0,450;    0,136
308,153; 1227,456;    1,095;   -1,136
308,748; 1004,674;   -0,814;    1,682
309,344; 1436,773;   -0,632;   -1,318
309,939; 1462,969;   -1,905;   -1,318
310,534; 1106,098;   -0,086;   -1,682
311,130; 1036,052;    0,459;   -2,500
311,725;  953,031;    1,004;   -0,500
312,320; 1056,650;    2,459;    0,045
312,915; 1206,198;    1,459;   -1,045
313,510; 1439,588;    1,550;   -0,500
314,105; 1169,480;    1,096;    1,409
314,700;  929,278;   -3,086;   -1,045
315,295; 1010,345;   -0,904;    0,045
315,890;  910,527;    1,277;    0,864
316,485; 1045,503;   -0,359;   -0,318
317,080;  970,744;   -3,086;    1,591
317,675; 1339,932;    2,005;   -0,682
318,270; 1529,401;    5,550;    3,318
318,865; 1431,029;    3,278;    3,045
319,460; 1215,451;   -0,904;    0,591
320,055; 1059,402;   -0,541;   -1,227
320,650; 1027,628;   -1,995;   -0,591
321,244; 1042,536;   -0,177;   -1,409
321,839; 1168,122;   -1,541;   -0,227
322,434; 1215,377;   -1,086;   -1,591
323,029; 1075,630;    1,732;    1,591
323,623; 1013,128;    1,550;    0,773
324,218; 1171,569;    2,368;    1,409
324,812; 1107,090;    1,096;    1,591
325,407; 1122,905;   -0,814;    2,045
326,002; 1233,193;    0,277;   -0,409
326,596; 1172,615;    0,914;    1,318
327,191; 1016,785;    0,823;   -1,045
327,785;  954,433;   -0,813;   -0,227
328,379; 1048,606;    1,368;    0,136
328,974; 1072,973;    0,914;   -3,955
329,568; 1119,284;    0,186;   -2,409
330,163; 1183,560;    2,096;    1,045
330,757; 1047,981;    2,459;    1,591
331,351;  963,797;    0,459;    0,682
331,945;  973,891;    0,914;    1,409
332,540; 1131,169;   -1,723;   -0,591
333,134; 1097,178;   -1,086;    0,773
333,728; 1074,712;    0,005;    0,318
334,322; 1010,046;   -1,177;   -0,864
334,916;  923,180;    0,277;    0,955
335,510; 1153,237;   -0,450;   -0,136
336,105; 1176,694;   -1,086;    1,591
336,699; 1024,286;   -1,086;    0,591
337,293; 1057,887;   -1,723;    0,318
337,887;  989,289;   -2,723;    1,955
338,481; 1178,163;    0,459;    0,591
339,074; 1321,081;   -0,359;    2,682
339,668; 1277,670;   -1,632;    1,227
340,262; 1944,553;    1,732;    3,227
340,856; 1471,265;    1,822;   -0,682
341,450; 1037,887;    1,004;    1,864
342,044; 1149,524;    1,459;    0,136
342,637; 1322,095;    0,913;   -2,136
343,231; 1347,000;   -2,360;    0,682
343,825; 1125,914;   -1,086;   -0,591
344,419; 1111,489;   -1,995;    0,500
345,012; 1737,322;    2,459;    4,045
345,606; 1518,630;    4,641;    1,591
346,199; 1139,883;   -1,813;   -0,227
346,793; 1284,108;    1,914;    2,045
347,386; 1066,169;   -0,813;   -1,136
347,980;  916,551;   -0,268;   -0,045
348,573; 1055,135;    2,278;    0,409
349,167; 1358,974;    5,278;    4,773
349,760; 1295,722;    2,914;    2,682
350,354; 1208,494;   -0,813;    1,136
350,947; 1262,954;    1,096;    1,682
351,540; 1035,576;   -0,358;   -1,409
352,134;  869,089;    1,096;    1,136
352,727;  939,508;   -0,086;    1,136
353,320;  964,681;    0,005;    0,591
353,913;  862,009;   -1,995;    1,864
354,507; 1122,508;    0,823;   -1,227
355,100;  995,001;    0,460;    0,864
355,693; 1438,403;    2,005;    2,409
356,286; 1142,625;    0,823;    2,773
356,879;  965,376;   -0,722;    1,227
357,472;  924,314;   -0,904;    1,500
358,065; 1010,626;   -0,722;    2,500
358,658;  843,822;   -0,540;    2,318
359,251;  772,749;   -1,631;   -0,591
359,844;  988,054;   -1,904;   -1,136
360,437; 1109,561;   -2,995;    0,045
361,030;  942,655;    1,369;   -0,682
361,623;  906,693;    2,824;    0,318
362,215; 1175,511;   -0,086;    2,045
362,808;  997,473;   -2,358;   -1,682
363,401;  918,257;   -2,449;    0,136
363,994; 1182,447;   -0,631;   -1,500
364,586;  910,559;    0,824;   -1,500
365,179;  849,404;   -0,449;   -1,136
365,772;  659,089;   -1,995;    2,045
366,364;  844,495;    1,915;   -3,227
366,957;  964,182;    2,279;   -0,045
367,549;  868,716;    2,188;   -0,864
368,142;  867,951;    1,825;   -1,500
368,734;  820,515;    0,734;   -2,136
369,327;  723,348;    1,643;   -0,500
369,919;  785,328;   -1,538;    0,409
370,512;  831,365;   -1,083;   -0,500
371,104; 1125,607;   -0,901;    1,591
371,696; 1178,987;    1,191;   -0,955
372,289; 1003,977;    0,373;    1,136
372,881;  944,891;   -2,080;    1,318
373,473;  786,256;   -2,170;    1,136
374,066;  916,001;   -0,169;    0,500
374,658;  876,000;    0,378;    1,136
375,250;  806,095;    0,653;   -1,409
375,842;  873,118;    0,473;   -0,045
376,434;  821,048;   -0,435;   -0,409
377,026;  850,531;    0,204;   -2,500
377,618;  886,296;   -0,158;   -0,682
378,210;  790,860;   -0,338;   -1,955
378,802;  730,734;    0,754;   -0,591
379,394; 1254,951;    1,846;    0,682
379,986;  980,542;    1,393;   -0,955
380,578;  871,930;   -0,153;    0,773
381,170; 1152,512;   -0,972;    0,045
381,762; 1016,917;    0,755;    1,409
382,354;  969,787;   -0,065;   -1,318
382,945;  859,323;   -2,976;    0,318
383,537;  794,213;   -2,705;   -1,955
384,129;  803,090;   -2,160;   -1,136
384,721;  948,133;   -0,252;    0,955
385,312;  836,115;   -0,161;   -0,955
385,904;  992,848;   -2,706;    1,591
386,496;  815,550;   -0,979;    1,045
387,087; 1012,378;    1,022;    2,500
387,679;  941,033;   -1,160;    0,045
388,270;  957,558;    2,840;    2,045
388,862;  892,792;    1,295;   -0,318
389,453;  819,432;   -0,887;    1,045
390,045;  880,247;   -0,705;   -2,682
390,636;  772,371;    0,204;   -0,591
391,227;  812,033;   -0,523;   -0,045
391,819;  826,909;    0,204;    0,773
392,410; 1130,935;    1,022;    0,045
393,001;  916,561;   -0,979;   -1,591
393,593; 1008,878;    1,930;   -0,045
394,184; 1066,579;    1,385;   -0,409
394,775;  860,136;    1,839;    2,136
395,366;  817,544;    1,385;    0,773
395,957; 1062,865;    0,113;    0,136
396,548;  925,002;   -0,342;    2,682
397,139; 1120,560;   -2,433;    0,591
397,730;  979,888;   -1,888;    0,955
398,321;  981,644;   -1,252;    0,955
398,912;  908,899;   -0,615;    0,136
399,503;  935,157;   -3,524;   -1,409
400,094;  950,300;    0,294;    1,682
400,685;  943,521;   -0,433;    0,045
401,276;  839,178;    0,930;   -0,955
401,867;  849,072;   -0,888;    0,773
402,458;  813,521;   -2,251;   -2,318
403,048; 1006,860;    1,112;    0,591
403,639;  892,679;    0,840;    0,864
404,230; 1096,154;    2,476;    0,318
404,821; 1161,066;   -0,615;    0,045
405,411; 1035,045;    1,203;   -2,591
406,002;  877,699;   -1,252;   -1,136
406,592; 1186,191;    2,294;    0,045
407,183; 1001,393;    0,566;   -1,500
407,774;  946,549;    3,475;   -0,136
408,364;  927,103;    0,930;    0,409
408,954; 1066,560;    0,384;    1,227
409,545; 1066,989;    1,021;    1,045
410,135;  962,416;    1,293;    0,500
410,726;  918,767;    1,838;    0,318
411,316; 1176,630;    0,111;    0,773
411,906;  921,917;   -0,253;   -0,409
412,497;  913,595;   -1,070;   -0,045
413,087;  864,528;   -1,980;   -0,227
413,677;  823,043;   -0,707;    3,864
414,267;  791,368;    0,656;    1,409
414,857;  748,967;   -2,980;    4,227
415,448;  781,302;    0,839;    0,500
416,038;  801,076;    0,020;   -0,591
416,628;  861,198;   -0,889;    0,409
417,218;  955,227;    0,565;    3,318
417,808; 1154,825;    0,202;   -0,409
418,398;  965,383;    0,020;    2,682
418,988;  811,696;    2,020;    0,591
419,578;  929,638;   -0,707;    1,409
420,168;  916,753;   -1,343;   -0,955
420,757; 1101,032;   -1,343;   -1,500
421,347;  929,889;    0,111;   -0,227
421,937;  885,230;    2,292;    1,409
422,527; 1044,344;    0,838;   -0,773
423,116; 1211,831;   -0,253;   -0,045
423,706;  854,306;   -1,889;    0,318
424,296;  759,470;    1,384;    0,682
424,885;  998,107;   -0,071;   -3,045
425,475;  957,693;    1,474;   -2,864
426,065;  785,587;   -0,980;   -0,318
426,654;  760,499;   -0,435;   -0,318
427,244; 1168,276;    0,020;    1,409
427,833; 1124,397;    1,383;   -0,500
428,423;  917,854;   -0,526;    1,136
429,012;  962,636;   -0,344;   -1,136
429,601; 1091,671;   -1,344;    0,136
430,191;  930,628;    1,292;    4,318
430,780;  758,777;   -0,344;   -0,409
431,369; 1089,680;    0,746;   -0,045
431,959;  975,545;   -1,254;    0,500
432,548;  842,392;   -1,163;   -0,045
433,137;  728,134;   -1,254;   -1,318
433,726;  905,873;    0,292;    0,500
434,315;  878,222;   -0,526;    2,409
434,905; 1038,940;   -1,254;    1,409
435,494; 1086,222;    0,746;    0,955
436,083;  863,914;   -0,981;   -0,955
436,672;  937,474;    0,110;    0,500
437,261;  876,119;    0,292;   -1,955
437,850; 1271,483;    1,383;    0,682
438,439; 1313,532;    3,291;    1,955
439,027; 1432,966;    3,655;    1,773
439,616; 1374,962;    2,927;    1,227
440,205; 1031,611;    0,200;   -2,136
440,794;  909,915;    2,109;   -0,045
441,383;  806,495;   -1,346;   -0,591
441,971;  704,279;   -2,436;    0,591
442,560;  731,128;    0,563;   -1,773
443,149;  593,698;    0,379;   -1,318
443,737;  703,526;   -0,074;   -2,318
444,326;  718,518;    0,018;    0,318
444,915;  797,387;   -1,982;    0,864
445,503;  819,290;   -2,891;   -0,318
446,092; 1160,269;    0,382;    2,136
446,680; 1089,037;    0,382;    0,318
447,269;  977,113;   -0,346;   -0,318
447,857;  916,198;    0,018;   -1,773
448,445;  841,626;    0,563;    1,318
449,034;  763,031;   -1,528;   -1,136
449,622;  734,767;   -1,073;    3,500
450,210; 1210,781;    2,017;    2,227
450,799; 1083,660;    0,290;   -0,591
451,387;  956,370;    1,381;   -0,591
451,975;  951,182;    2,654;    0,864
452,563; 1094,567;    3,472;    2,318
453,151;  767,276;   -0,528;   -1,227
453,739;  855,724;   -1,347;    0,136
454,328; 1065,607;    2,381;   -2,136
454,916;  915,478;    2,562;   -0,136
455,504;  912,076;    1,017;    1,227
456,092;  749,965;    0,017;   -1,591
456,679;  656,079;    1,472;    0,682
457,267; 1335,255;    4,017;    1,045
457,855;  817,266;    1,017;    1,409
458,443;  553,113;   -0,165;    1,682
459,031;  908,073;    0,108;    2,409
459,619;  827,137;   -1,801;    2,864
460,206;  635,583;    0,835;    2,045
460,794;  642,981;   -2,983;   -0,227
461,382;  744,884;   -0,529;   -0,864
461,970;  708,333;    1,198;    1,864
462,557;  587,500;   -0,711;   -0,682
463,145;  836,673;   -3,165;   -1,682
463,732; 1180,227;    2,016;   -1,045
464,320;  796,077;   -0,075;   -3,045
464,907; 1043,449;    2,743;   -0,773
465,495;  896,413;    0,743;   -1,227
466,082;  757,781;   -1,984;   -0,045
466,670;  766,634;   -2,529;    1,227
467,257;  591,722;   -1,711;    2,045
467,844;  777,622;   -0,075;    0,045
468,432;  753,296;    0,834;    3,500
469,019;  649,812;    0,925;   -1,773
469,606;  769,669;    0,470;    3,682
470,193;  835,254;   -1,439;    0,227
470,780;  776,270;   -2,075;    0,864
471,368;  633,612;   -1,257;   -0,773
471,955;  799,170;    1,379;   -0,682
472,542;  722,946;    0,652;   -1,136
473,129;  517,129;   -0,166;    0,136
473,716;  523,700;    1,470;    0,591
474,303;  588,264;    0,652;   -0,864
474,890;  596,043;   -1,439;   -0,500
475,477;  746,336;   -1,621;    0,409
476,064;  580,317;    1,106;   -1,591
476,650;  759,998;    0,288;    0,318
477,237;  641,362;   -0,258;    0,955
477,824;  591,418;   -1,076;    0,864
478,411;  423,746;   -1,894;   -0,318
478,997;  413,039;    0,560;   -0,773
479,584;  314,845;    1,196;   -0,409
480,171;  660,739;   -0,440;   -0,773
480,757;  761,888;    2,651;    0,773
481,344;  547,663;    0,469;    0,409
481,931;  369,917;    1,105;    1,045
482,517;  640,255;   -1,258;    0,318
483,104;  776,933;    1,106;    2,864
483,690;  583,141;   -1,804;    0,045
484,276;  521,882;   -0,895;    0,227
484,863;  895,041;    2,469;    1,136
485,449;  626,222;   -0,077;    0,318
486,035;  538,988;   -1,986;   -0,136
486,622;  725,985;   -0,895;    0,045
487,208;  569,650;    1,378;    1,500
487,794;  422,366;    0,741;    0,318
488,380;  411,163;    0,105;   -1,409
488,967;  446,869;   -1,168;   -0,409
489,553;  466,550;   -1,895;   -1,409
490,139;  614,564;    1,559;    0,773
490,725;  448,699;    0,741;   -0,227
491,311;  531,561;    3,287;    3,045
491,897;  452,770;   -0,986;    1,500
492,483;  453,570;    0,105;    1,227
493,069; 1169,984;    3,923;    0,864
493,655;  715,608;    1,650;    0,682
494,241;  521,288;    1,377;   -0,955
494,826;  569,450;    0,287;   -1,045
495,412;  685,635;    2,559;   -0,682
495,998;  533,264;   -0,805;   -0,318
496,584;  656,608;    0,377;    1,045
497,169;  650,065;    1,014;   -0,682
497,755;  531,469;    0,650;    1,227
498,341;  859,693;    0,559;    0,318
498,926; 1055,466;    1,832;    1,955
499,512;  641,526;    1,286;    2,955
500,097;  635,228;    0,195;   -0,318
500,683;  682,850;   -0,350;    2,136
501,268;  602,598;   -0,169;   -0,955
501,854;  659,064;   -0,169;    1,227
502,439;  621,491;   -0,624;   -1,773
503,024;  767,131;    0,195;    0,500
503,610;  846,471;   -0,078;   -0,682
504,195;  683,389;    0,558;    1,955
504,780;  877,815;    2,922;    1,227
505,366; 1072,035;    3,013;    2,864
505,951;  937,799;    0,740;    1,045
506,536;  824,840;   -3,260;   -3,682
507,121;  928,465;    0,285;   -0,318
507,706;  873,582;    2,376;    1,045
508,291;  801,717;    2,649;    1,136
508,876;  805,293;   -0,988;    2,591
509,461;  913,836;   -0,169;   -0,773
510,046; 1020,622;    0,194;    0,318
510,631; 1004,018;   -0,351;   -0,773
511,216;  891,684;    2,467;   -0,500
511,801; 1054,045;   -0,442;    2,591
512,386; 1095,358;    0,740;    0,500
512,971; 1134,604;   -2,988;    0,955
513,555; 1214,707;   -0,897;   -1,500
514,140; 1209,044;   -0,442;   -3,136
514,725; 1339,868;   -0,715;   -1,136
515,309; 1216,906;   -0,533;    0,318
515,894; 1067,713;   -0,624;   -2,227
516,479; 1124,255;   -0,624;   -0,955
517,063; 1121,812;    0,376;    1,227
517,648; 1105,120;    1,012;   -1,136
518,232; 1037,644;   -0,261;   -1,409
518,817; 1158,750;   -0,079;    1,682
519,401; 1378,603;    2,194;    0,591
519,985; 1212,078;    1,103;    1,136
520,570; 1050,694;    0,830;   -1,955
521,154; 1245,359;    2,102;    0,591
521,738; 1537,514;   -2,352;    2,409
522,323; 1377,488;   -0,170;    1,682
522,907; 1293,667;    0,466;   -0,136
523,491; 1176,057;    0,557;    0,955
524,075; 1104,344;    2,284;    0,591
524,659; 1345,107;    1,466;    0,591
525,243; 1231,054;    1,739;    0,409
525,827; 1155,532;    0,648;   -0,045
526,411; 1227,561;   -1,989;   -0,136
526,995; 1411,373;   -0,352;    1,409
527,579; 1449,698;   -0,443;   -1,045
528,163; 1364,932;    0,375;   -1,500
528,747; 1556,798;    2,466;   -0,773
529,331; 1504,757;   -0,080;   -1,409
529,915; 1260,862;    1,738;    0,955
530,499; 1365,314;   -0,807;    1,227
531,082; 1489,317;   -0,534;    1,591
531,666; 1564,164;    1,374;    0,773
532,250; 1468,994;    1,284;    2,682
532,833; 1640,935;    0,920;    2,773
533,417; 1419,865;   -1,807;    0,864
534,001; 1532,671;    1,647;   -0,318
534,584; 1478,767;    0,374;    0,500
535,168; 1282,749;    0,465;    1,409
535,751; 1718,084;    0,647;    0,045
536,334; 1331,891;   -0,898;   -0,409
536,918; 1299,867;    0,011;    1,591
537,501; 1281,445;   -0,899;    1,318
538,085; 1335,506;   -0,444;    1,045
538,668; 1353,975;    0,829;    2,409
539,251; 1745,535;    1,829;    3,773
539,834; 1485,500;    0,101;    0,773
540,418; 1592,385;   -1,990;    4,318
541,001; 1788,312;   -0,990;    1,773
541,584; 1505,904;    2,101;    2,227
542,167; 1581,151;    1,374;    2,955
542,750; 1446,051;    1,919;   -0,773
543,333; 1224,792;    0,555;    2,136
543,916; 1558,238;    0,192;    2,500
544,499; 1431,869;   -1,354;    0,227
545,082; 1534,983;    1,374;    3,591
545,665; 1454,552;    1,919;    1,500
546,248; 1603,519;    1,010;   -0,318
546,830; 1571,927;   -0,445;    1,955
547,413; 1591,399;    1,010;   -0,773
547,996; 1656,965;    0,555;    0,500
548,579; 1469,929;    0,919;    0,955
549,161; 1715,043;    1,828;    2,682
549,744; 1598,190;   -0,809;    0,409
550,326; 1543,935;   -0,809;   -1,136
550,909; 2017,782;    2,737;    0,591
551,492; 1700,155;   -0,263;    0,227
552,074; 1764,855;   -0,173;   -1,318
552,657; 1842,315;    2,373;    0,045
553,239; 1646,996;   -0,173;   -0,773
553,821; 1571,365;   -1,082;    1,045
554,404; 1767,213;    1,282;    1,136
554,986; 1890,682;    0,464;    1,045
555,568; 1801,089;    1,191;   -0,955
556,151; 1992,740;    1,191;   -0,227
556,733; 1673,911;   -0,264;   -0,864
557,315; 1665,282;    0,100;    0,500
557,897; 1464,244;    0,554;   -0,500
558,479; 1495,901;   -1,991;    1,318
559,061; 1627,346;   -0,719;   -0,864
559,643; 1762,220;   -0,264;    0,045
560,225; 1786,385;    1,645;    2,864
560,807; 1656,948;    0,918;    0,318
561,389; 1586,452;    0,554;    2,318
561,971; 1650,240;    0,463;    2,136
562,553; 1659,085;   -1,628;    1,591
563,135; 1747,607;   -0,537;    1,136
563,717; 2094,777;    3,372;    1,136
564,298; 1986,959;    3,645;   -0,045
564,880; 1712,697;    0,645;   -1,409
565,462; 1585,606;    0,645;    1,318
566,043; 1942,774;   -0,446;    2,318
566,625; 2087,674;    1,918;    1,227
567,207; 1837,560;    1,099;    1,682
567,788; 1840,967;   -1,264;    1,500
568,370; 1971,366;    1,917;   -0,500
568,951; 1855,026;    0,190;    0,227
569,533; 2045,034;   -0,628;   -0,500
570,114; 2174,947;   -0,446;    0,682
570,695; 2211,289;   -0,174;   -1,318
571,277; 2176,576;   -0,265;   -1,682
571,858; 2403,764;    2,008;   -1,136
572,439; 2441,193;    1,554;   -1,045
573,021; 2413,025;    2,099;   -2,773
573,602; 2547,001;   -1,265;    0,318
574,183; 2612,294;   -2,083;    2,227
574,764; 2620,447;   -1,629;    0,409
575,345; 2719,362;    0,917;   -0,136
575,926; 2718,142;   -0,356;    0,136
576,507; 2786,447;    1,099;   -0,227
577,088; 2926,626;    3,099;    1,682
577,669; 3051,972;    0,735;    1,955
578,250; 3295,840;    0,644;   -1,045
578,831; 3145,681;   -1,356;   -2,227
579,412; 3029,532;   -0,810;    0,955
579,993; 3342,464;    1,008;    0,227
580,573; 3336,021;   -0,629;   -0,955
581,154; 3015,711;    0,735;   -0,591
581,735; 3224,960;    0,644;    0,773
582,315; 3066,142;   -0,629;    2,136
582,896; 3241,174;   -0,174;    1,227
583,477; 3064,112;    0,189;    1,227
584,057; 3155,189;    0,553;    0,955
584,638; 3234,192;    2,553;    2,318
585,218; 3407,444;   -0,538;    2,682
585,799; 3325,104;    0,281;   -0,227
586,379; 3224,081;    0,372;    1,591
586,959; 3041,391;    0,735;    0,318
587,540; 2884,373;   -0,629;    2,227
588,120; 2791,440;    1,007;   -0,045
588,700; 2657,514;    2,553;    2,136
589,281; 2921,288;    0,462;   -0,955
589,861; 2814,617;    0,099;   -1,682
590,441; 2732,306;    2,371;   -2,682
591,021; 2523,819;   -0,265;   -2,591
591,601; 2640,022;   -0,537;    0,500
592,181; 2741,263;   -0,719;   -0,773
592,761; 2420,393;    0,007;    1,409
593,341; 2565,198;   -0,901;    0,045
593,921; 2515,532;   -0,265;    1,591
594,501; 2420,939;   -0,538;    1,318
595,081; 2383,427;    0,917;   -0,318
595,661; 2616,248;   -1,447;    0,955
596,240; 2683,661;   -0,537;    0,136
596,820; 2814,770;    0,372;    1,955
597,400; 2539,770;    2,008;    0,773
597,980; 2578,776;    2,008;    1,045
598,559; 2572,198;    2,735;   -0,227
599,139; 2530,250;   -0,174;   -1,227
599,718; 2493,614;   -0,174;   -0,409
600,298; 2578,019;    0,735;    0,682
600,877; 2930,711;    2,917;    1,409
601,457; 2860,729;    2,281;    1,136
602,036; 2723,286;    0,190;    2,045
602,616; 2661,676;    0,644;    1,682
603,195; 2828,993;   -0,355;    3,500
603,774; 2735,407;   -0,901;    2,045
604,354; 2653,785;    0,826;   -0,500
604,933; 2554,723;    0,463;    1,864
605,512; 2751,717;    3,554;    0,591
606,091; 2749,383;   -0,537;    3,773
606,671; 2790,917;    0,281;    0,773
607,250; 2781,298;    1,644;    3,136
607,829; 2781,005;    2,372;    3,227
608,408; 2674,090;    1,190;    2,591
608,987; 2604,273;    1,281;    3,409
609,566; 2497,529;   -1,265;   -2,500
610,145; 2596,577;   -1,082;    0,682
610,723; 2733,706;    4,372;    6,864
611,302; 2488,012;   -0,446;    1,682
611,881; 2604,900;    5,008;   11,227
612,460; 2513,196;    1,645;    3,955
613,039; 2589,478;   -0,082;    2,045
613,617; 2297,952;    1,736;    4,773
614,196; 2333,108;    1,099;    1,227
614,775; 2487,094;    1,009;    2,409
615,353; 2496,540;    0,736;    0,864
615,932; 2425,291;    0,100;    2,409
616,510; 2555,722;    0,554;    0,591
617,089; 2928,769;    7,100;   17,591
617,667; 2621,572;    2,372;    6,136
618,246; 2268,924;   -1,537;    1,318
618,824; 2385,047;   -3,355;   -0,955
619,402; 2329,693;   -2,900;   -1,773
619,981; 2487,760;   -0,173;   -1,045
620,559; 2465,315;    0,009;    1,682
621,137; 2452,728;   -0,718;    1,864
621,715; 2135,766;   -1,173;   -0,682
622,293; 2195,898;   -0,537;   -0,773
622,871; 2472,737;   -0,718;    0,500
623,450; 2293,262;    0,373;   -0,864
624,028; 2422,127;    0,191;   -0,955
624,606; 2336,306;   -1,718;    1,682
625,183; 2236,180;   -1,536;   -1,136
625,761; 2247,262;    1,009;    1,136
626,339; 2629,893;    1,373;    2,591
626,917; 2392,805;   -0,172;   -0,045
627,495; 2390,016;   -0,354;    1,318
628,073; 2325,615;   -0,263;    2,864
628,650; 2292,732;    0,100;    2,136
629,228; 2392,230;    0,373;    4,409
629,806; 2108,295;    2,282;    1,136
630,383; 2200,052;    1,464;   -0,318
630,961; 2187,025;    2,555;   -0,955
631,539; 2121,759;    2,464;    0,227
632,116; 2766,116;   11,373;   15,409
632,694; 2446,888;    2,555;    6,500
633,271; 2262,337;    0,828;    2,682
633,848; 2382,278;    1,828;    2,045
634,426; 2212,882;   -1,081;    1,773
635,003; 2049,018;    1,101;   -0,409
635,580; 2389,710;    1,192;    3,682
636,158; 2248,317;    3,737;    1,227
636,735; 2081,976;    0,555;   -0,500
637,312; 2099,046;   -0,809;   -0,682
637,889; 2124,199;   -4,354;   -0,682
638,466; 2090,748;   -3,990;   -0,409
639,043; 2067,588;    2,101;   -1,136
639,620; 2078,758;   -2,262;   -0,955
640,197; 2227,780;    1,100;    1,682
640,774; 2209,165;   -0,172;    1,136
641,351; 2270,824;    0,737;    1,136
641,928; 2310,755;   -0,627;    1,409
642,505; 2429,504;    0,828;   -0,500
643,082; 2328,253;   -1,718;    1,227
643,658; 1987,275;   -0,718;    1,500
644,235; 2106,206;    1,191;    2,500
644,812; 2256,955;    1,918;    0,773
645,388; 2195,795;   -0,991;    1,409
645,965; 2011,908;   -0,809;    1,682
646,542; 2029,203;   -1,445;   -0,227
647,118; 2459,861;    1,009;   -0,955
647,695; 2292,519;   -0,263;    1,136
648,271; 2104,541;   -0,536;    0,500
648,848; 2232,836;    0,736;    2,227
649,424; 2359,494;    0,827;    1,318
650,000; 2066,062;   -0,354;   -1,045
650,577; 2140,993;   -0,627;   -0,955
651,153; 2254,196;   -1,809;    0,955
651,729; 2257,764;    1,191;    0,864
652,305; 2537,149;    0,645;    2,773
652,881; 3005,990;   -0,082;    1,136
653,458; 3962,011;    1,100;    0,227
654,034; 4561,033;    0,282;    1,591
654,610; 4596,601;    0,554;    0,773
655,186; 4999,714;    0,645;    3,045
655,762; 4678,463;   -0,991;    0,409
656,338; 4633,939;    0,100;    0,136
656,913; 4954,325;   -0,082;    0,409
657,489; 4665,710;    0,827;   -0,318
658,065; 4782,278;   -0,173;   -1,591
658,641; 5032,300;   -0,900;   -0,864
659,217; 4741,867;   -0,991;    0,409
659,792; 4517,980;    0,645;   -0,409
660,368; 4639,638;   -2,173;   -0,682
660,944; 4818,660;   -2,082;    1,227
661,519; 4092,864;   -0,628;    0,409
662,095; 3179,522;   -1,719;    0,591
662,670; 2480,908;    1,281;   -0,136
663,246; 2433,748;    1,009;   -0,409
663,821; 2478,588;    0,281;    1,682
664,396; 2219,428;    0,009;    1,864
664,972; 2256,904;    0,009;   -0,500
665,547; 2427,290;    1,372;    0,136
666,122; 2361,130;   -1,082;    0,318
666,698; 2528,425;   -0,173;    0,318
667,273; 2175,810;   -0,173;    0,136
667,848; 2375,287;    2,372;    1,500
668,423; 2439,218;    2,190;    2,318
668,998; 2376,058;    2,827;   -0,682
669,573; 2453,262;   -3,264;   -1,500
670,148; 2580,102;   -1,446;   -0,682
670,723; 2302,305;   -1,810;    0,318
671,298; 2656,691;    2,372;    1,045
671,873; 2532,349;   -0,082;   -0,136
672,448; 2514,735;    0,645;    0,136
673,023; 2544,393;   -1,992;   -0,227
673,597; 2717,870;    0,827;    2,318
674,172; 2703,437;   -0,355;    0,318
674,747; 2567,368;    0,372;   -1,045
675,321; 2333,208;   -0,628;    3,318
675,896; 2203,230;    0,645;    1,045
676,471; 2461,616;    2,645;    1,591
677,045; 2355,819;   -1,264;    0,682
677,620; 2384,114;    0,190;    1,136
678,194; 2416,318;   -2,628;    1,136
678,769; 2400,249;   -1,083;   -0,318
679,343; 2494,816;   -0,628;    1,773
679,917; 2541,929;   -1,446;    1,955
680,492; 2402,587;    0,826;    3,227
681,066; 2442,700;    3,372;    0,409
681,640; 2422,177;    1,463;   -0,318
682,214; 2552,471;    0,735;    0,500
682,788; 2478,493;   -1,356;   -0,773
683,363; 2512,242;   -1,810;    1,682
683,937; 2368,173;   -1,719;   -0,318
684,511; 2583,377;    0,463;   -0,591
685,085; 2538,763;   -1,356;    0,318
685,659; 2388,148;   -2,538;    0,864
686,232; 2642,534;   -0,356;   -0,318
686,806; 2522,101;   -0,901;    0,409
687,380; 2585,123;   -0,174;    0,591
687,954; 2610,872;   -1,174;    1,136
688,528; 2703,076;   -0,719;    1,955
689,101; 2809,007;   -3,992;    1,045
689,675; 2568,574;   -0,356;   -0,136
690,249; 2635,778;   -0,719;    0,409
690,822; 2696,982;    0,280;    0,318
691,396; 2594,731;   -0,265;    1,227
691,969; 2443,298;    1,280;    0,136
692,543; 2559,502;   -0,447;   -1,955
693,116; 2359,615;   -0,265;   -1,409
693,690; 2418,819;    0,099;    0,500
694,263; 2552,477;   -1,083;    2,955
694,836; 2788,681;    1,371;    3,591
695,410; 2503,885;   -0,265;    1,773
695,983; 2526,361;    0,189;    0,591
696,556; 2407,019;   -0,447;   -1,045
697,129; 2481,859;   -0,356;    1,409
697,703; 2445,609;   -1,629;    1,955
698,276; 2473,449;    1,462;   -0,773
698,849; 2519,016;    1,280;    1,409
699,422; 2366,402;   -1,083;    0,591
699,995; 2282,424;    0,007;    0,136
700,568; 2467,627;   -0,629;    3,045
701,140; 2478,377;   -2,811;    1,682
701,713; 2591,762;   -0,174;    2,409
702,286; 2488,966;   -0,538;    0,864
702,859; 2467,351;   -0,902;   -0,591
703,432; 2403,646;    0,825;    0,682
704,004; 2400,941;    0,462;    0,318
704,577; 2230,326;   -0,629;    0,136
705,150; 2336,075;    0,189;    2,500
705,722; 2435,916;   -0,356;   -3,227
706,295; 2461,028;   -0,175;   -0,591
706,867; 2277,687;   -0,175;    1,955
707,440; 2492,981;   -1,720;   -0,409
708,012; 2553,276;    0,462;    0,591
708,584; 2402,207;    2,462;    0,227
709,157; 2378,593;    1,825;   -0,591
709,729; 2517,433;    2,280;    2,045
710,301; 2655,000;    0,734;    0,045
710,874; 2626,113;   -1,447;   -0,227
711,446; 2232,498;    0,371;    0,864
712,018; 2328,884;    0,098;    0,500
712,590; 2239,906;   -1,993;    1,682
713,162; 2564,837;    0,825;    1,318
713,734; 2428,859;    1,825;   -2,045
714,306; 2383,244;   -1,902;   -0,409
714,878; 2210,448;    0,825;    0,864
715,450; 2350,288;    0,643;    0,864
716,022; 2396,492;    1,552;    1,318
716,593; 2410,150;    0,189;    0,591
717,165; 2442,536;   -3,175;   -1,227
717,737; 2575,558;    0,280;    0,409
718,309; 2415,580;    0,280;   -0,045
718,880; 2356,965;   -0,539;   -1,409
719,452; 2458,714;   -0,175;   -1,591
720,024; 2427,827;    0,734;   -0,591
720,595; 2455,304;   -2,902;    0,955
721,167; 2338,598;    0,370;   -2,045
721,738; 2294,620;   -0,812;   -1,045
722,309; 2366,188;   -0,993;   -1,227
722,881; 2211,755;   -1,357;    0,773
723,452; 2401,141;   -2,630;    2,864
724,023; 2465,253;   -0,721;    2,682
724,595; 2484,821;    0,007;    0,682
725,166; 2277,752;    0,007;   -0,409
725,737; 2434,137;    1,734;    0,227
726,308; 2351,614;   -0,266;    0,318
726,879; 2267,545;   -1,630;    1,227
727,450; 2402,385;    0,552;   -0,045
728,021; 2270,407;    3,097;    0,682
728,592; 2422,338;    0,734;    0,500
729,163; 2574,633;    0,643;   -0,136
729,734; 2575,200;    0,188;   -0,227
730,305; 2442,858;    1,734;    0,136
730,876; 2427,153;    0,188;    2,955
731,447; 2736,629;    2,188;    2,682
732,017; 2622,651;    1,097;    1,864
732,588; 2487,582;    0,734;    1,227
733,159; 2647,604;    0,643;   -1,045
733,729; 2383,717;    0,006;    0,409
734,300; 2421,648;    0,915;    0,864
734,870; 2357,397;    3,461;    0,591
735,441; 2404,237;    0,370;   -0,591
736,011; 2283,805;    0,643;   -1,591
736,582; 2323,554;   -0,812;    0,045
737,152; 2295,849;   -1,721;   -2,045
737,722; 2389,416;   -0,267;   -0,682
738,293; 2226,074;   -1,358;    1,318
738,863; 2376,096;    2,461;    2,318
739,433; 2610,845;    5,279;    0,318
740,003; 2499,958;   -0,994;   -0,682
740,573; 2535,071;    2,097;   -1,591
741,143; 2475,366;   -1,085;    0,318
741,713; 2449,842;    1,188;   -0,500
742,283; 2415,500;    0,915;    1,591
742,853; 2323,977;    1,915;    1,591
743,423; 2148,181;    1,733;    0,045
743,993; 2222,475;   -0,358;    1,500
744,563; 2094,406;    0,097;   -0,864
745,133; 2156,337;   -0,812;   -0,864
745,702; 2266,087;   -0,267;    1,773
746,272; 2290,563;   -0,176;    0,591
746,842; 2298,858;   -1,358;   -0,591
747,411; 2209,243;   -0,267;   -0,318
747,981; 2129,992;    0,097;    0,500
748,551; 2165,742;    2,278;   -1,045
749,120; 2260,400;    0,642;   -0,227
749,690; 2287,513;   -0,631;    2,409
750,259; 2424,716;    1,369;    2,955
750,828; 2427,284;    1,551;   -1,955
751,398; 2308,397;    1,278;   -0,045
751,967; 2614,055;    2,187;    0,409
752,536; 2373,713;   -0,813;   -0,227
753,105; 2532,553;    0,096;    0,227
753,675; 2323,484;    0,096;    1,773
754,244; 2326,961;   -0,904;    3,591
754,813; 2342,619;    0,551;    1,227
755,382; 2238,732;    0,460;    0,955
755,951; 2410,027;    1,551;    3,682
756,520; 2445,594;   -0,085;    1,864
757,089; 2698,798;    0,278;    0,500
757,658; 2413,820;    1,733;    1,227
758,227; 2298,751;    1,096;    0,318
758,795; 2372,318;    1,187;    1,136
759,364; 2514,431;   -0,086;   -0,591
759,933; 2212,907;   -1,176;   -0,045
760,501; 2176,293;    0,733;   -1,318
761,070; 2318,133;   -2,813;   -1,409
761,639; 2550,609;   -1,904;    1,318
762,207; 2368,359;    1,551;   -0,955
762,776; 2427,017;    0,369;    0,864
763,344; 2300,312;   -0,995;    0,591
763,913; 1948,788;   -0,722;    1,409
764,481; 2596,265;    1,005;   -0,136
765,049; 2525,923;   -1,358;    1,409
765,618; 2402,945;   -0,086;    0,318
766,186; 2327,603;    0,278;    0,136
766,754; 2359,261;    0,005;    1,864
767,322; 2062,647;   -1,995;    0,409
767,890; 2034,578;   -0,722;   -1,773
768,459; 2217,236;   -2,177;   -0,318
769,027; 2411,258;    1,641;    3,409
769,595; 2120,098;    3,278;    2,591
770,163; 2179,120;    3,823;    2,955
770,730; 2189,051;    0,732;   -0,136
771,298; 2155,255;    0,187;   -1,409
771,866; 2141,640;   -1,541;    4,955
772,434; 2195,117;   -0,631;   -1,864
773,002; 2441,048;    0,005;    0,682
773,569; 2300,888;    0,914;    1,682
774,137; 2353,910;   -0,268;   -0,045
774,705; 2331,296;    0,278;   -0,136
775,272; 2171,863;    0,641;    0,682
775,840; 2287,248;   -0,177;    2,682
776,407; 2241,361;    0,277;    1,955
776,975; 2002,383;   -0,632;    0,318
777,542; 2156,860;   -1,086;   -0,045
778,110; 2162,609;   -1,268;   -0,045
778,677; 2030,176;   -2,359;   -0,864
779,244; 2062,835;    2,186;    1,045
779,812; 2212,311;    1,823;    0,864
780,379; 2261,060;    0,005;    1,136
780,946; 2153,719;    1,005;   -0,773
781,513; 2162,195;   -1,450;    0,318
782,080; 2008,490;   -0,086;    2,864
782,647; 2136,875;   -0,268;    3,045
783,214; 2060,443;   -0,177;    3,864
783,781; 2183,101;   -0,723;   -0,682
784,348; 2154,305;   -0,632;    1,500
784,915; 2024,236;   -3,177;    0,318
785,482; 2180,985;    1,368;    2,591
786,049; 2251,279;    0,186;   -0,591
786,615; 2190,665;    0,277;   -0,955
787,182; 2088,142;    0,186;   -0,682
787,749; 2055,709;   -2,814;    1,409
788,315; 2069,276;   -1,632;   -0,409
788,882; 2102,844;    1,550;   -1,227
789,448; 2395,775;    1,732;   -0,955
790,015; 2208,342;    1,095;    3,227
790,581; 2292,455;    1,459;    0,227
791,148; 2102,113;    0,641;    1,045
791,714; 2076,408;   -0,541;    3,136
792,280; 2039,521;    0,186;    1,591
792,847; 1964,997;    0,550;    2,500
793,413; 2054,474;   -0,269;   -0,318
793,979; 2130,677;    3,459;   -1,318
794,545; 2480,972;    4,459;    2,682
795,111; 2266,903;    2,186;    1,318
795,678; 2113,470;    0,731;   -1,682
796,244; 2304,583;    3,368;    0,136
796,810; 2261,060;    1,731;    0,773
797,375; 2228,900;    0,549;   -2,136
797,941; 1867,103;   -0,541;    0,591
798,507; 1854,216;   -0,451;   -0,955
799,073; 1847,966;   -0,360;    0,591
799,639; 1926,624;   -2,632;    3,136
800,205; 1880,100;    0,095;    2,682
800,770; 1830,759;    0,640;    1,773
801,336; 1788,962;    1,368;   -0,955
801,901; 2399,621;    4,549;    3,136
802,467; 2141,824;   -0,542;    2,045
803,033; 1796,028;   -0,087;    0,864
803,598; 1808,232;    1,913;   -1,045
804,163; 1880,436;    1,095;   -0,318
804,729; 1978,730;   -0,178;    1,136
805,294; 1902,843;    0,822;    2,227
805,859; 1768,774;    0,731;   -0,409
806,425; 2142,614;    1,186;    2,682
806,990; 2119,363;    2,186;    4,318
807,555; 1934,658;   -1,451;    2,591
808,120; 2093,407;    0,822;   -0,409
808,685; 1828,520;    0,185;   -2,500
809,250; 1675,906;    0,004;   -0,500
809,815; 1767,200;    1,913;    0,682
810,380; 1977,495;   -0,269;    1,591
810,945; 2117,880;   -1,087;    2,045
811,510; 1944,811;    2,094;    1,591
812,075; 1870,197;   -0,633;   -1,409
812,640; 2147,219;    2,003;    1,409
813,204; 1955,877;    0,822;   -0,227
813,769; 2155,808;    2,094;   -0,045
814,334; 2092,739;    0,458;    0,864
814,898; 1860,943;    0,367;    0,591
815,463; 1882,238;    1,276;   -0,773
816,027; 1813,532;   -0,724;   -2,318
816,592; 1832,282;    0,640;   -2,045
817,156; 1861,122;    2,094;    1,136
817,721; 1927,689;    4,276;    2,318
818,285; 1728,711;    2,912;    1,500
818,849; 1865,187;   -1,451;    1,682
819,414; 1748,482;   -0,269;    2,955
819,978; 1677,413;   -1,269;    1,773
820,542; 2086,617;    2,003;    0,500
821,106; 1908,639;   -0,815;    0,682
821,670; 2078,115;   -0,815;    2,591
822,234; 1837,864;   -0,270;    1,409
822,798; 1685,886;    0,003;    0,500
823,362; 2007,363;   -0,633;    4,227
823,926; 1717,567;    0,094;    1,136
824,490; 1928,043;   -0,997;   -0,682
825,054; 1844,883;   -0,088;   -1,136
825,618; 1681,269;   -1,542;   -1,500
826,181; 1705,927;    0,458;   -1,318
826,745; 1773,949;    1,367;   -1,045
827,309; 2061,607;    1,185;    1,318
827,872; 1904,084;    1,367;    0,955
828,436; 1876,924;    1,185;   -0,773
828,999; 1842,582;   -0,997;    1,227
829,563; 1751,968;   -0,179;    1,136
830,126; 1697,080;   -0,179;   -0,591
830,690; 1696,193;   -1,997;    2,864
831,253; 1571,306;   -0,543;    2,227
831,816; 1656,601;   -1,906;    0,500
832,380; 1573,623;    0,185;    0,864
832,943; 1600,372;   -1,361;   -0,500
833,506; 1610,939;    2,639;   -1,227
834,069; 1847,416;    3,912;   -0,955
834,632; 1733,983;    1,730;    1,318
835,195; 1725,823;    1,003;    0,955
835,758; 1620,027;   -0,997;    1,955
836,321; 1559,322;    0,730;   -1,045
836,884; 1575,798;   -0,725;   -0,955
837,447; 1572,093;   -2,816;    1,773
838,010; 1719,387;    0,366;    3,227
838,573; 1788,046;   -1,179;    0,773
839,135; 1701,613;   -1,361;   -0,955
839,698; 1621,817;    1,275;    0,409
840,261; 1558,111;    1,003;   -0,227
840,823; 1521,315;   -0,543;    0,864
841,386; 1499,337;   -0,452;   -2,409
841,948; 1843,632;   -1,361;    1,773
842,511; 1558,472;    0,912;    1,682
843,073; 1826,130;    1,912;    0,227
843,636; 1564,788;   -0,361;   -0,227
844,198; 1781,447;    0,911;    0,591
844,760; 1749,469;    1,093;    1,955
845,322; 1493,854;    0,548;    1,136
845,885; 1649,785;    0,730;    0,591
846,447; 1634,625;   -1,998;    0,227
847,009; 1964,374;    1,911;   -0,682
847,571; 1663,033;    0,820;   -2,045
848,133; 1625,055;   -1,089;   -1,864
848,695; 1487,077;   -0,543;    1,409
849,257; 1545,189;   -1,089;   -1,682
849,819; 1724,211;   -0,998;   -0,409
850,381; 1584,233;   -0,725;   -0,864
850,942; 1658,073;    1,093;   -0,591
851,504; 1684,004;    1,184;    0,227
852,066; 1598,935;    1,275;   -1,591
852,628; 1610,139;   -0,180;    1,955
853,189; 1412,070;    1,638;    2,682
853,751; 1480,183;   -0,907;    1,409
854,312; 1655,023;   -0,453;   -1,682
854,874; 1816,681;   -2,089;   -0,773
855,435; 1641,340;   -0,907;   -1,682
855,997; 1757,634;   -1,816;   -0,136
856,558; 1755,656;    0,366;    1,773
857,119; 1610,042;    0,820;    2,864
857,681; 1461,427;    0,002;    0,318
858,242; 1695,358;    1,911;   -2,136
858,803; 1784,926;    0,456;   -0,773
859,364; 1717,039;    0,184;   -4,773
859,925; 1727,333;   -2,453;   -0,955
860,486; 1617,082;   -0,453;   -0,955
861,047; 1488,104;   -0,544;   -1,227
861,608; 1523,854;   -1,089;   -0,773
862,169; 1472,421;    0,638;   -0,045
862,730; 1494,534;    0,456;    1,409
863,291; 1563,283;   -0,635;   -0,500
863,852; 1550,305;   -0,635;    1,955
864,412; 1489,872;   -0,271;   -0,864
864,973; 1663,621;   -0,089;    0,500
865,534; 1830,734;   -1,726;    0,227
866,094; 1656,847;    1,820;    0,227
866,655; 1737,233;    1,274;    3,318
867,215; 1604,436;    0,274;    0,136
867,776; 1496,640;    0,547;   -0,136
868,336; 1546,480;   -1,453;    0,136
868,897; 1930,866;    2,638;    1,682
869,457; 1712,433;    1,365;    0,318
870,017; 1541,092;    0,547;   -1,227
870,578; 1553,204;   -0,817;    0,773
871,138; 1504,772;   -2,089;   -0,955
871,698; 1377,703;   -0,817;   -1,318
872,258; 1519,179;   -0,453;   -2,864
872,818; 1767,656;    2,729;    0,045
873,378; 1558,678;    0,638;    1,045
873,938; 1474,336;    0,547;    0,500
874,498; 1396,994;    0,274;   -1,955
875,058; 1455,925;    2,183;    1,773
875,618; 1450,220;    1,910;   -2,682
876,177; 1493,696;    1,274;    0,136
876,737; 1269,809;   -0,090;    1,955
877,297; 1728,922;    0,183;    1,955
877,856; 1627,944;   -0,362;    0,318
878,416; 1369,875;    1,183;   -0,136
878,976; 1348,988;   -1,817;    0,409
879,535; 1413,646;    0,092;    3,136
880,095; 1415,850;   -0,544;    0,045
880,654; 1302,690;   -1,090;    1,318
881,213; 1663,712;    2,456;    1,500
881,773; 1464,006;    2,637;    2,682
882,332; 2092,574;    3,365;    5,136
882,891; 1489,959;    3,092;    2,136
883,451; 1504,527;   -1,272;    1,682
884,010; 1373,185;   -2,908;   -0,409
884,569; 1352,298;   -0,999;   -0,045
885,128; 1590,683;    2,819;   -1,864
885,687; 1891,433;    4,455;    0,682
886,246; 2062,182;    1,455;    2,136
886,805; 1742,567;    2,455;    2,045
887,364; 1416,498;   -0,999;   -0,500
887,922; 1337,793;   -1,181;    0,045
888,481; 1473,815;   -1,545;    0,591
889,040; 1649,382;    1,183;    2,136
889,599; 1516,677;    2,455;    1,409
890,157; 1525,153;    1,455;    2,409
890,716; 1428,721;   -0,090;    0,227
891,274; 1530,652;    0,092;   -1,136
891,833; 1632,037;    1,546;    0,864
892,391; 1431,332;   -0,454;    0,500
892,950; 1627,990;    1,819;   -0,773
893,508; 1435,921;    0,455;   -0,409
894,067; 1284,671;    0,637;    0,136
894,625; 1394,783;   -0,636;   -1,500
895,183; 1365,351;   -0,363;   -0,682
895,741; 1697,918;    1,728;   -1,773
896,299; 1457,758;   -0,545;   -2,409
896,858; 1355,689;    0,819;   -1,591
897,416; 1499,348;    2,728;   -1,318
897,974; 1436,642;    1,819;    0,318
898,532; 1934,755;    6,091;    2,682
899,089; 1556,322;    2,091;   -0,682
899,647; 1441,435;   -1,454;    1,318
900,205; 1495,094;    1,182;    1,045
900,763; 1492,115;   -0,454;    0,227
901,321; 1457,865;    2,364;   -1,409
901,878; 1247,796;   -1,000;   -0,773
902,436; 1306,999;   -1,363;    1,318
902,994; 2164,567;    4,728;    3,682
903,551; 1617,316;    0,728;    0,409
904,109; 1505,156;    0,182;   -1,409
904,666; 1437,360;    2,455;    1,045
905,224; 1297,836;    0,182;   -0,409
905,781; 1464,495;    0,727;   -0,318
906,338; 1383,153;   -1,363;    1,045
906,895; 1263,629;    0,637;    2,045
907,453; 1551,742;    1,727;    1,136
908,010; 1392,219;   -0,909;    0,409
908,567; 1331,422;    1,273;    0,591
909,124; 1126,081;    0,364;   -1,500
909,681; 1185,739;   -2,909;    0,682
910,238; 1274,215;    0,636;   -1,318
910,795; 1256,783;   -0,273;   -1,136
911,352; 1257,874;   -2,909;   -2,682
911,909; 1241,601;   -1,364;   -0,864
912,466; 1296,510;   -3,182;    1,500
913,022; 1292,056;   -1,636;    0,500
913,579; 1419,419;   -0,909;    2,045
914,136; 1285,783;    1,636;    0,955
914,692; 1357,601;    0,091;   -1,227
915,249; 1277,965;    1,455;    0,409
915,806; 1374,965;    0,182;    1,955
916,362; 1280,692;    1,909;    1,864
916,918; 1170,419;    2,000;    1,045
917,475; 1399,419;   -1,182;    0,955
918,031; 1186,419;    3,364;   -0,045
918,587; 1257,965;   -0,909;   -0,318
919,144; 1175,692;   -2,273;    0,227
919,700; 1135,056;    1,727;    0,773
920,256; 1097,874;    0,727;    0,045
920,812; 1127,692;   -0,727;   -1,045
921,368; 1083,419;   -1,727;   -1,045
921,924; 1058,510;    0,182;   -0,136
922,480; 1176,783;   -0,545;    1,227
923,036; 1213,146;    1,273;    1,955
923,592; 1100,510;    0,455;    0,318
924,148; 1137,601;    0,455;   -0,955
924,704; 1280,419;   -1,364;   -0,409
925,259; 1119,874;   -0,273;    0,591
925,815; 1060,510;    1,455;    0,500
926,371; 1007,692;    2,909;    1,409
926,926; 1171,783;    2,091;    0,591
927,482; 1132,874;   -1,364;    0,773
928,037; 1065,328;    0,909;    2,045
928,593; 1283,510;    1,636;    1,045
929,148; 1028,237;   -1,818;   -1,500
929,704; 1078,056;   -1,455;   -0,500
930,259;  947,419;    0,091;   -0,136
930,814; 1169,692;   -0,818;    1,955
931,369; 1091,692;    1,091;   -0,773
931,925;  863,237;   -0,091;    0,136
932,480;  977,419;   -2,818;   -2,591
933,035; 1397,874;    0,545;   -0,318
933,590; 1250,874;    0,364;   -1,773
934,145;  815,510;   -1,364;   -0,318
934,700;  725,601;    0,455;   -0,591
935,255;  810,965;   -0,091;    0,045
935,809; 1148,419;    3,182;    0,864
936,364;  725,874;   -0,455;   -0,136
936,919;  743,237;    0,455;   -1,773
937,474;  652,783;    1,455;    0,136
938,028;  682,237;   -1,636;    1,136
938,583; 1095,328;    1,818;    4,682
939,138;  736,874;    2,091;    2,136
939,692;  572,783;    1,636;   -1,136
940,247;  623,328;   -0,727;   -1,045
940,801;  701,783;   -0,636;    0,227
941,355;  589,146;   -0,364;    2,591
941,910;  468,601;   -0,273;   -2,136
942,464;  515,783;   -0,818;   -0,318
943,018;  796,056;    1,000;   -0,227
943,572;  599,783;    2,545;   -0,682
944,126;  659,965;    0,091;   -0,409
944,681;  522,328;    3,091;    0,227
945,235;  467,510;    1,000;   -0,591
945,789;  421,510;    0,364;   -1,864
946,342;  746,692;    0,455;   -0,591
946,896;  471,237;   -2,273;    0,955
947,450;  441,965;    1,545;   -0,227
948,004;  714,783;    1,727;   -0,045
948,558;  502,601;    0,273;   -0,864
949,111;  499,328;   -0,273;   -0,318
949,665;  726,692;    1,636;   -0,682
950,219;  671,328;   -0,091;   -1,045
950,772;  584,692;   -1,909;    1,864
951,326;  579,419;    0,545;   -0,955
951,879;  493,146;    0,727;   -2,318
952,433;  641,601;    0,000;    2,227
952,986;  459,874;    2,909;    0,682
953,539;  408,783;   -0,273;    0,591
954,093;  352,510;    0,545;   -1,318
954,646;  518,056;    0,909;    1,318
955,199;  430,237;    0,000;   -0,500
955,752;  649,056;   -0,455;    1,773
956,305;  482,874;   -0,091;    2,955
956,858;  549,237;    0,818;   -0,318
957,411;  605,237;   -0,545;    2,136
957,964;  498,419;    1,364;    2,136
958,517;  411,237;   -1,545;    3,136
959,070;  367,328;   -0,455;    1,955
959,623;  674,874;    1,091;    1,500
960,176;  611,783;    1,727;    2,045
960,728;  575,874;   -2,727;    0,773
961,281;  510,146;    0,545;    0,500
961,834;  423,510;   -0,909;    0,864
962,386;  433,874;    1,727;    1,045
962,939;  392,874;    0,364;   -0,318
963,491;  442,783;    0,455;    1,136
964,043;  365,965;    1,182;    2,409
964,596;  571,783;   -1,000;    2,227
965,148;  467,601;   -1,000;    1,773
965,700;  366,783;    1,091;   -0,227
966,253;  541,056;   -0,636;    0,318
966,805;  505,328;   -2,273;    0,773
967,357;  426,056;    1,091;   -1,500
967,909;  549,601;    0,455;   -1,227
968,461;  426,328;    0,545;    3,136
969,013;  371,510;   -0,182;   -0,864
969,565;  532,328;   -0,455;   -1,136
970,117;  797,965;   -0,364;    1,045
970,669;  541,965;    0,182;   -0,136
971,220;  321,510;   -0,455;   -1,500
971,772;  414,965;   -0,636;   -0,318
972,324;  523,056;    0,091;   -0,500
972,876;  430,419;    0,818;   -0,045
973,427;  556,146;    1,909;   -1,045
973,979;  626,601;   -0,727;   -2,500
974,530;  405,146;    1,818;    1,318
975,082;  467,783;   -0,545;    1,682
975,633;  408,056;    1,091;    1,682
976,184;  481,874;    0,909;    0,773
976,736;  473,328;    0,091;    0,227
977,287;  490,874;   -0,909;   -0,500
977,838;  450,692;    0,909;   -0,318
978,389;  460,601;   -1,000;   -0,500
978,940;  309,146;    0,545;   -0,409
979,491;  307,056;    0,091;   -0,500
980,042;  415,874;    0,182;    3,045
980,593;  419,783;   -2,545;    0,227
981,144;  522,146;    2,545;   -0,500
981,695;  571,874;    1,455;    1,500
982,246;  509,237;   -0,273;    1,045
982,797;  370,328;   -1,727;    0,682
983,347;  528,328;    0,364;    0,591
983,898;  740,328;    3,091;    0,409
984,449;  694,601;    2,182;    0,773
984,999;  515,601;    1,455;   -1,136
985,550;  474,965;    0,182;   -0,318
986,100;  316,783;   -0,455;   -0,318
986,651;  314,237;   -0,818;    0,045
987,201;  355,237;   -1,000;   -0,591
987,751;  365,783;    0,818;    2,864
988,302;  421,783;    2,636;    1,500
988,852;  465,692;    0,455;   -1,136
989,402;  537,874;    0,091;    0,682
989,952;  557,146;   -2,182;    0,864
990,502;  390,056;   -0,091;    0,682
991,052;  288,146;   -0,727;    0,045
991,602;  334,328;   -2,909;    1,318
992,152;  396,601;    0,455;    0,682
992,702;  436,874;    1,364;   -0,045
993,252;  376,328;   -3,000;   -0,500
993,802;  478,510;   -0,273;    1,318
994,352;  430,237;   -1,545;    1,136
994,901;  327,601;   -0,182;    3,227
995,451;  322,419;   -0,182;    0,318
996,000;  365,328;    1,636;    0,318
996,550;  375,692;    2,273;    0,227
997,100;  414,419;    1,273;   -0,045
997,649;  563,237;    2,182;    0,955
998,198;  364,692;    1,727;   -1,500
998,748;  492,510;    1,091;   -2,318
999,297;  414,419;   -0,818;   -0,409
999,846;  555,146;    1,000;   -0,773
1000,395;  462,419;   -0,818;    0,500
1000,945;  591,328;    1,818;   -0,773
1001,494;  588,056;    2,364;    0,682
1002,043;  559,510;    4,636;    0,864
1002,592;  373,783;   -1,091;    1,955
1003,141;  365,510;   -0,455;   -0,682
1003,690;  535,419;    1,727;    0,500
1004,238;  406,783;    1,455;   -0,045
1004,787;  315,510;    1,364;    1,227
1005,336;  510,965;    0,364;    0,682
1005,885;  449,874;    1,364;   -2,773
1006,433;  444,965;    0,545;    0,955
1006,982;  654,874;    0,455;    1,682
1007,531;  483,783;   -1,818;   -0,227
1008,079;  429,056;   -2,273;    0,500
1008,627;  367,328;   -1,455;    0,409
1009,176;  388,965;    0,000;   -1,955
1009,724;  337,601;    1,091;    0,864
1010,273;  502,965;    1,273;    0,500
1010,821;  367,783;    0,091;    1,409
1011,369;  331,965;   -1,364;    1,318
1011,917;  357,783;   -1,364;   -0,591
1012,465;  443,419;    1,273;   -1,591
1013,013;  427,510;    2,091;   -1,682
1013,561;  537,510;    0,455;   -0,773
1014,109;  642,056;   -1,909;    1,682
1014,657;  503,237;    0,364;    0,591
1015,205;  392,328;    1,636;   -0,955
1015,753;  335,874;   -0,545;   -1,409
1016,301;  418,146;   -2,636;    3,045
1016,848;  496,783;   -1,273;    0,409
1017,396;  500,328;    2,545;    0,045
1017,944;  489,874;    1,182;    1,864
1018,491;  390,692;    0,273;    1,409
1019,039;  732,692;    0,455;    0,591
1019,586;  472,328;   -1,364;    1,682
1020,134;  454,601;    0,455;    1,500
1020,681;  538,783;    0,182;   -1,136
1021,228;  432,692;    2,909;   -2,227
1021,776;  416,328;    1,182;   -1,136
1022,323;  651,419;    0,455;    0,773
1022,870;  561,965;   -1,000;   -0,045
1023,417;  605,056;    2,636;    1,864
1023,964;  421,692;    2,636;    1,227
1024,511;  403,510;    1,000;    0,773
1025,058;  433,237;    3,182;   -0,045
1025,605;  383,146;   -2,273;    3,136
1026,152;  613,237;    1,727;   -0,591
1026,699;  459,874;    1,818;    1,318
1027,245;  445,056;   -0,091;    0,318
1027,792;  373,601;   -1,000;    1,409
1028,339;  604,328;    2,364;   -0,045
1028,885;  459,692;    1,000;   -0,227
1029,432;  403,056;   -0,091;    0,227
1029,978;  521,783;   -1,000;   -1,591
1030,525;  508,965;    1,000;    0,409
1031,071;  378,419;   -1,364;    1,136
1031,618;  683,056;    0,364;    1,682
1032,164;  498,783;   -0,091;    3,045
1032,710;  549,510;    1,636;   -1,500
1033,256;  510,965;   -0,636;   -0,136
1033,803;  350,783;   -0,545;    1,500
1034,349;  213,874;   -1,364;    0,136
1034,895;  267,601;    0,000;   -0,318
1035,441;  343,056;   -0,818;    0,318
1035,987;  399,510;   -2,364;   -0,682
1036,533;  476,419;   -1,455;   -0,955
1037,078;  679,510;    1,455;    1,682
1037,624;  525,510;    2,455;   -0,955
1038,170;  388,328;    0,455;   -0,318
1038,716;  473,965;    1,636;   -0,409
1039,261;  344,146;   -2,273;   -0,773
1039,807;  358,510;   -0,091;    3,409
1040,352;  392,783;   -1,909;   -0,318
1040,898;  385,328;   -1,545;   -0,682
1041,443;  309,056;   -1,455;   -2,591
1041,989;  619,783;    1,091;    1,591
1042,534;  405,237;   -0,364;    2,591
1043,079;  288,783;    2,909;    0,955
1043,625;  411,328;    1,818;    0,500
1044,170;  433,510;   -1,364;    1,045
1044,715;  638,601;    2,455;    0,955
1045,260;  523,965;    2,182;   -0,955
1045,805;  364,328;    1,182;   -0,591
1046,350;  324,328;    1,364;   -0,409
1046,895;  516,237;    2,909;    1,591
1047,440;  512,965;    5,364;    0,409
1047,985;  375,146;    2,818;   -0,955
1048,530;  340,510;    1,545;    1,227
1049,074;  409,237;    0,000;    0,318
1049,619;  333,419;   -1,364;    1,955
1050,164;  324,874;    0,455;    0,227
1050,708;  416,328;   -0,455;    0,045
1051,253;  675,601;    1,273;   -2,227
1051,797;  460,419;    0,818;   -1,318
1052,342;  286,328;   -1,182;    1,045
1052,886;  396,783;    0,364;   -1,409
1053,430;  266,692;   -1,364;    0,136
1053,975;  368,328;   -0,818;   -0,318
1054,519;  383,692;   -0,727;    3,227
1055,063;  450,783;    0,909;    1,318
1055,607;  430,874;   -0,182;    0,227
1056,151;  427,419;    2,909;    1,682
1056,695;  331,237;    2,273;   -1,136
1057,239;  334,328;   -1,727;   -0,682
1057,783;  376,783;    0,818;   -1,500
1058,327;  452,237;    0,000;    1,409
1058,871;  595,601;   -0,545;    1,318
1059,415;  462,783;   -0,818;   -0,045
1059,958;  627,419;    1,455;    2,591
1060,502;  386,510;   -1,000;   -0,773
1061,046;  275,237;    0,364;   -0,955
1061,589;  255,237;   -3,000;   -1,136
1062,133;  227,237;   -1,273;    1,864
1062,676;  272,056;    1,182;    0,864
1063,220;  311,601;    1,091;    0,500
1063,763;  336,510;    0,909;    1,136
1064,306;  369,328;   -0,909;    1,864
1064,849;  366,783;   -0,909;    0,591
1065,393;  339,419;    2,000;   -1,500
1065,936;  349,056;    0,182;   -0,409
1066,479;  257,692;   -1,455;    1,318
1067,022;  289,510;   -0,273;   -0,227
1067,565;  257,510;   -0,091;   -1,318
1068,108;  228,328;    0,727;   -0,591
1068,651;  199,874;   -0,636;    1,409
1069,194;  214,056;   -0,455;   -1,682
1069,736;  238,146;   -1,273;    0,955
1070,279;  207,783;   -1,364;   -0,500
1070,822;  302,419;   -2,000;   -0,318
1071,364;  432,783;   -0,364;    1,318
1071,907;  287,056;   -0,727;    3,227
1072,450;  137,783;    0,000;   -0,045
1072,992;  216,874;   -0,273;    3,136
1073,535;  303,419;    2,091;    2,136
1074,077;  209,601;   -0,727;    2,045
1074,619;  205,965;   -1,364;    0,591
1075,161;  235,419;   -1,091;    1,500
1075,704;  366,237;    1,545;    1,227
1076,246;  229,601;   -0,182;    0,682
1076,788;  161,874;   -0,364;    1,773
1077,330;  166,146;    1,273;    2,136
1077,872;  210,237;    0,909;    0,955
1078,414;  390,965;    2,727;    0,773
1078,956;  234,056;    1,273;   -0,227
1079,498;  385,692;    1,636;    0,318
1080,040;  238,237;    1,909;   -1,318
1080,581;  194,874;    1,636;   -0,318
1081,123;  132,146;    0,091;   -0,773
1081,665;  144,783;   -1,182;   -0,955
1082,206;  349,874;    1,364;   -0,500
1082,748;  260,965;    0,727;    2,045
1083,289;  170,510;   -2,000;    1,318
1083,831;  158,874;   -0,545;    0,227
1084,372;  207,965;    0,000;    0,591
1084,913;  204,965;    1,091;    0,864
1085,455;  149,328;   -1,909;   -2,045
1085,996;  153,510;   -2,273;    0,136
1086,537;  192,692;   -0,091;    0,864
1087,078;  192,783;   -0,909;   -2,136
1087,619;  246,874;   -1,273;    0,227
1088,160;  199,965;    0,000;    1,318
1088,701;  183,146;   -1,091;    0,682
1089,242;  162,692;    1,364;   -2,227
1089,783;  222,965;   -0,273;    1,409
1090,324;  196,510;    0,455;    0,682
1090,865;  137,510;    2,727;   -0,409
1091,405;  111,601;    0,727;    2,227
1091,946;  157,601;    0,182;   -0,955
1092,487;  110,692;    0,818;   -1,409
1093,027;  227,692;   -1,364;   -1,500
1093,568;  154,874;   -0,364;    1,227
1094,108;  189,601;    0,273;    1,773
1094,649;  154,056;   -1,182;    0,136
1095,189;  122,510;   -0,636;   -0,682
1095,729;  123,874;   -0,091;    0,955
1096,269;  110,328;    0,727;   -0,955
1096,810;  276,692;   -1,364;    0,500
1097,350;  209,056;    1,364;   -0,773
1097,890;  153,419;    0,364;    1,227
1098,430;  322,965;    2,364;    2,864
1098,970;  259,601;    2,182;    1,682
1099,510;  140,874;    0,545;   -2,318
1100,050;  116,601;    1,000;   -1,591
1100,589;  128,965;   -0,727;   -0,318
1101,129;  188,237;    0,818;   -0,955
1101,669;  270,510;    1,727;    2,136
1102,209;  191,601;   -0,091;    2,227
1102,748;  160,237;    0,000;    0,955
1103,288;  162,510;    1,273;   -1,227
1103,827;  158,056;    3,091;   -2,227
1104,367;  113,601;   -0,091;   -2,409
1104,906;  111,965;    1,364;   -1,136
1105,445;  158,056;    0,636;   -1,136
1105,985;  133,783;   -0,727;    1,500
1106,524;  145,237;   -1,727;   -0,682
1107,063;  137,056;   -2,727;    1,409
1107,602;  109,874;   -1,909;   -1,500
1108,141;   90,237;   -1,909;    1,500
1108,680;  156,146;   -3,455;   -0,591
1109,219;  123,692;   -0,909;   -0,500
1109,758;  116,874;    0,455;    0,682
1110,297;  114,692;    1,000;   -0,682
1110,836;   90,056;   -0,727;    0,955
1111,375;  126,510;   -2,545;    0,409
1111,913;  163,237;   -1,000;    0,773
1112,452;  130,965;   -0,273;    0,136
1112,991;   80,056;    1,091;    1,955
1113,529;   79,874;   -0,818;   -0,045
1114,068;  114,056;   -0,273;    2,955
1114,606;   80,237;   -0,364;   -0,955
1115,144;  150,783;   -1,273;    1,045
1115,683;  116,237;   -0,727;    0,318
1116,221;  142,237;   -0,455;   -0,864
1116,759;   97,237;    0,636;   -0,864
1117,297;  182,237;    0,000;    1,864
1117,836;  103,510;   -2,182;   -1,227
1118,374;  106,601;    0,182;   -0,682
1118,912;  103,965;    0,909;    2,682
1119,450;   99,965;    1,000;    0,864
1119,988;   98,692;    1,545;    2,136
1120,525;  375,783;    5,091;    3,318
1121,063;  195,328;    1,182;    1,864
1121,601;  102,237;   -0,909;   -1,227
1122,139;   80,965;   -0,727;   -2,045
1122,676;  186,146;   -0,727;    2,773
1123,214;  154,419;   -1,182;    4,409
1123,751;   72,783;    1,727;    2,227
1124,289;  116,783;   -0,091;   -0,409
1124,826;   79,874;    1,727;    0,227
1125,364;   45,510;    1,727;   -0,955
1125,901;  149,692;    1,182;    1,227
1126,438;  160,692;    0,818;    0,955
1126,975;   51,146;   -0,727;   -0,773
1127,513;   71,146;    0,273;    2,136
1128,050;   50,510;    1,636;   -0,682
1128,587;   84,874;    2,000;   -0,227
1129,124;  108,237;    0,091;    1,318
1129,661;   58,510;    0,273;    0,227
1130,198;  132,328;    1,636;    0,773
1130,734;   98,965;    0,182;    1,409
1131,271;   49,510;   -0,909;    0,864
1131,808;  120,146;    2,909;    3,045
1132,345;   70,510;    1,545;    0,318
1132,881;   26,874;   -1,545;   -1,864
1133,418;   75,510;    0,727;   -1,136
1133,954;   50,419;    2,455;   -2,682
1134,491;   87,146;    1,364;   -0,773
1135,027;   47,783;    2,364;    0,864
1135,564;   82,874;    0,273;    2,955
1136,100;   76,056;    0,364;    2,136
1136,636;   35,965;   -1,273;   -1,045
1137,172;   62,965;    0,000;   -1,045
1137,708;   48,601;   -1,364;   -1,045
1138,245;   42,601;    1,273;   -1,227
1138,781;   29,965;    1,091;   -3,318
1139,317;   52,237;    1,273;   -1,409
1139,852;   56,419;    3,091;    0,136
1140,388;   85,510;   -1,182;   -0,409
1140,924;   47,965;   -1,091;   -2,227
1141,460;   30,965;   -1,636;    0,136
1141,996;   18,146;   -1,364;    2,682
1142,531;   24,692;    1,364;    3,318
1143,067;  108,965;    1,182;    1,045
1143,602;  138,965;   -0,091;   -0,318
1144,138;   71,146;   -2,636;    1,045
1144,673;   28,056;   -1,455;    1,409
1145,209;   43,601;   -1,909;   -0,318
1145,744;   20,874;   -0,727;    0,864
1146,279;   63,056;    1,818;   -0,136
1146,815;   39,146;    1,545;   -2,682
1147,350;   57,965;   -1,364;    0,045
1147,885;   27,056;   -0,818;   -1,318
1148,420;   29,965;   -2,273;    0,773
1148,955;   29,510;   -1,727;    1,864
1149,490;   30,874;   -0,909;   -1,591
1150,025;   17,056;    0,455;   -1,773
1150,560;   61,146;    1,091;   -0,955
1151,094;   51,965;    1,455;   -0,591
1151,629;   50,237;    1,636;    0,864
1152,164;   32,237;    1,364;    1,318
1152,698;   22,056;   -0,182;   -0,136
1153,233;    9,419;    0,091;   -0,682
1153,767;   22,874;   -3,000;   -2,318
1154,302;   31,965;   -1,455;    1,773
1154,836;   31,601;   -0,455;   -2,136
1155,371;   43,328;   -1,364;    3,682
1155,905;   29,601;   -0,636;    1,682
1156,439;   29,874;   -0,636;   -0,500
1156,973;   37,783;    0,364;    0,318
1157,507;   19,965;   -0,364;    0,682
1158,042;   25,056;   -0,727;    1,045
1158,576;   37,146;    0,182;    1,773
1159,110;   36,328;   -0,818;    2,409
1159,643;   30,510;    0,636;   -0,045
1160,177;   11,965;   -1,545;    1,500

