
Integration time [ms]:   0,040
Averaging Nr. [scans]: 11
Smoothing Nr. [pixels]: 0
Data measured with spectrometer [name]: 7318044SP
Wave   ;Sample   ;Dark     ;Reference
[nm]   ;[counts] ;[counts] ;[counts] 

186,757;    3,271;   31,551;    1,318
187,357;   26,120;   22,551;    0,955
187,958;    5,842;   15,460;   -1,591
188,558;   42,439;    8,915;   -1,227
189,159;   18,049;    6,733;   -4,500
189,759;  -11,081;    7,278;   -3,591
190,360;  -12,407;    2,824;   -2,136
190,960;   14,105;    2,915;   -4,136
191,560;   26,378;    3,189;   -6,591
192,161;  239,475;    4,372;   -3,500
192,761;   96,530;    4,010;   -3,227
193,361;   47,160;    1,556;   -3,773
193,962;   81,125;    2,010;   -2,682
194,562;   17,811;    1,189;   -3,955
195,162;   33,586;   -2,448;   -2,227
195,762;  149,021;   -3,176;   -0,045
196,362;   97,375;    1,370;   -2,500
196,963;    7,160;    2,006;   -0,864
197,563;   52,174;    1,551;   -0,955
198,163;    3,536;    0,096;   -0,682
198,763;   13,452;    1,733;   -0,500
199,363;   67,986;    3,096;   -0,500
199,963;   40,295;    0,369;    0,409
200,563;   25,689;    2,823;   -1,409
201,163;   -0,806;    3,277;   -0,227
201,763;   38,342;    3,732;    0,318
202,363;   -2,902;    1,459;    1,500
202,963;   36,090;    1,459;    1,045
203,563;   92,775;    0,277;    0,500
204,162;   19,984;    2,096;   -1,864
204,762;   15,550;    0,550;    0,591
205,362;   -8,326;    3,004;    1,955
205,962;   15,823;    3,096;    1,955
206,562;   15,645;    1,823;    2,318
207,161;    2,047;   -0,087;    0,318
207,761;   81,041;    1,277;    2,409
208,361;    4,725;   -0,268;    1,409
208,960;   30,040;    0,459;    1,500
209,560;   31,025;    1,277;    1,591
210,160;   45,929;    0,550;    1,864
210,759;   18,712;    4,186;    1,227
211,359;    4,491;    1,459;    1,045
211,958;  119,495;    1,277;    2,045
212,558;  128,636;    1,732;    1,864
213,157;   59,907;    1,822;    1,500
213,757;  213,532;    3,822;   -0,227
214,356;   80,910;    1,277;   -0,409
214,956;  187,679;    3,095;    0,409
215,555;   54,657;    2,095;    2,136
216,154;   29,325;   -2,723;   -0,591
216,754;   23,039;    0,277;    0,773
217,353;   39,772;   -0,268;   -1,045
217,952;  -13,142;   -0,178;    0,318
218,552;   62,138;    1,368;   -0,773
219,151;   26,161;    0,277;    0,955
219,750;   23,901;    0,004;   -0,227
220,349;   -2,043;   -0,451;    1,045
220,948;   80,325;   -1,360;    1,136
221,548;   16,915;    0,913;    1,227
222,147;   42,550;   -0,087;   -0,409
222,746;  134,123;   -0,451;   -0,955
223,345;   57,612;    0,731;    0,500
223,944;   58,086;   -0,451;    0,773
224,543;   70,725;    1,004;   -1,409
225,142;   55,715;    0,094;    0,136
225,741;   59,374;   -0,814;    1,045
226,340;   51,531;   -0,451;   -0,955
226,939;  117,627;   -0,996;   -0,136
227,538;   34,204;   -0,360;   -0,773
228,137;  118,540;   -0,814;    0,864
228,735;   90,715;   -0,541;    1,227
229,334;   11,974;   -0,905;   -0,227
229,933;  117,235;    0,459;    0,591
230,532;  115,153;    1,186;   -0,409
231,131;  156,131;    1,732;    0,318
231,729;   83,837;   -2,450;   -2,318
232,328;   36,966;   -0,723;   -1,500
232,927;   52,148;    1,004;   -0,500
233,525;   38,103;    3,640;    0,045
234,124;   50,575;    2,368;   -1,591
234,723;   16,720;    0,913;   -1,045
235,321;    9,342;    2,277;    0,136
235,920;   26,662;    1,186;   -1,227
236,518;  117,829;    3,459;    0,318
237,117;   23,435;    0,004;   -0,227
237,715;   43,857;    0,640;   -0,500
238,314;   57,900;   -0,087;   -2,318
238,912;  125,569;   -0,723;   -1,409
239,510;   74,997;    0,459;   -1,227
240,109;  135,944;    0,004;    3,773
240,707;  108,401;   -0,996;    1,227
241,305;   21,026;    0,550;    0,136
241,904;   77,481;   -0,178;   -2,045
242,502;  161,138;   -0,632;   -0,227
243,100;   92,207;   -0,087;   -0,955
243,698;   40,721;    0,732;    1,682
244,297;   74,435;   -0,632;    0,682
244,895;   84,692;   -0,269;   -2,318
245,493;  204,455;    2,186;   -0,591
246,091;  218,577;    1,368;   -1,318
246,689;  173,388;    1,004;    0,591
247,287;  161,985;    0,822;   -1,136
247,885;  137,758;   -1,451;    1,227
248,483;  112,219;    1,822;   -0,500
249,081;  200,400;    0,185;    1,591
249,679;  240,406;   -0,178;    1,682
250,277;  143,165;   -1,723;    0,864
250,875;  270,760;   -1,087;   -1,045
251,473;  185,747;   -1,178;    0,500
252,071;  293,310;    1,459;    1,045
252,669;  217,541;   -1,814;    0,318
253,267;  187,500;   -0,087;    0,773
253,864;  253,985;   -0,360;    0,682
254,462;  408,101;    1,640;    1,591
255,060;  207,703;   -0,269;    1,318
255,658;  211,177;    0,822;   -0,136
256,255;  291,069;    0,186;   -2,045
256,853;  352,213;   -0,269;    1,409
257,451;  333,623;    0,822;    1,864
258,048;  774,498;    1,822;    1,864
258,646;  490,003;    1,731;   -1,045
259,243;  597,940;   -0,087;    2,227
259,841;  475,697;   -0,814;    0,318
260,438;  333,369;   -0,087;    0,864
261,036;  478,475;   -1,905;    1,409
261,633;  383,827;   -0,087;    2,227
262,231;  333,825;    2,731;   -0,045
262,828;  350,336;   -0,905;    1,136
263,425;  436,303;    0,913;   -0,591
264,023;  452,340;    0,186;    0,045
264,620;  646,172;   -0,360;   -0,318
265,217;  799,456;   -2,087;    3,136
265,815;  498,023;   -1,905;    2,136
266,412;  664,561;    0,731;    0,136
267,009;  713,525;   -1,451;    0,773
267,606;  823,913;    0,822;   -0,955
268,203;  578,353;   -0,269;   -0,591
268,801;  650,657;    1,731;    0,591
269,398;  571,538;   -0,360;    2,500
269,995;  750,245;    0,277;    1,591
270,592;  665,643;   -0,632;   -0,500
271,189;  579,207;    0,186;    0,409
271,786;  556,706;   -0,632;    1,227
272,383;  854,761;   -1,087;    0,227
272,980;  681,597;    0,277;    0,318
273,577;  640,288;    0,004;    1,227
274,174;  574,621;    0,822;    2,591
274,771;  733,813;   -0,814;   -0,773
275,367; 1177,645;    2,277;    1,409
275,964;  977,792;    0,731;   -0,500
276,561;  728,379;    1,549;   -1,045
277,158;  643,587;    0,095;   -1,773
277,755;  927,582;    2,185;    0,409
278,351;  759,178;   -0,451;   -1,500
278,948;  857,543;   -0,815;    0,045
279,545;  769,312;   -1,360;    2,318
280,141; 1048,050;   -1,723;   -2,045
280,738;  940,345;   -0,451;   -0,136
281,334;  712,356;   -1,633;    0,591
281,931;  743,912;   -0,087;   -1,318
282,528;  851,002;    0,822;   -0,500
283,124;  987,738;   -1,087;   -0,500
283,721;  988,885;   -0,451;    1,409
284,317;  802,894;    0,185;    2,500
284,913; 1056,684;   -1,360;    0,591
285,510; 1404,048;    0,640;   -0,318
286,106; 1187,563;   -2,269;   -0,955
286,703;  874,490;   -0,360;    1,955
287,299;  845,424;   -1,451;   -0,591
287,895;  868,659;    0,822;   -1,045
288,491;  935,447;    0,186;    2,136
289,088; 1096,476;   -2,360;    2,409
289,684; 1160,450;   -1,723;    1,500
290,280; 1368,212;    0,368;    0,682
290,876; 1395,223;    1,822;    5,500
291,472; 1294,802;    1,276;    2,227
292,068; 1377,213;    1,367;    0,227
292,665; 1225,060;    2,095;    0,773
293,261; 1153,766;    0,276;    2,136
293,857; 1408,471;    2,913;    2,136
294,453; 1402,137;    3,550;    0,955
295,049; 1663,009;   -0,268;    1,955
295,644; 1557,440;    0,095;    0,136
296,240; 1505,110;   -0,905;   -0,136
296,836; 1748,960;   -0,995;    0,318
297,432; 1982,688;    1,096;   -0,500
298,028; 2136,844;    0,732;    0,773
298,624; 2141,435;    1,459;    1,864
299,220; 2215,432;    2,368;    0,591
299,815; 2156,488;    1,005;   -0,409
300,411; 2292,282;    0,914;    1,773
301,007; 2448,005;    1,368;    0,227
301,602; 2371,123;   -0,541;   -2,318
302,198; 2550,119;    0,732;   -0,773
302,794; 2628,742;    1,187;   -0,500
303,389; 2731,854;   -1,177;    1,045
303,985; 2829,478;    0,550;    1,409
304,580; 2913,917;    1,459;    1,591
305,176; 2858,976;   -3,086;    0,136
305,771; 2775,888;   -1,268;   -1,227
306,367; 3086,722;    4,095;    0,136
306,962; 3048,759;    0,641;    1,500
307,558; 2859,694;   -0,450;    0,136
308,153; 2899,892;    1,095;   -1,136
308,748; 2887,455;   -0,814;    1,682
309,344; 3124,391;   -0,632;   -1,318
309,939; 3192,726;   -1,905;   -1,318
310,534; 3031,240;   -0,086;   -1,682
311,130; 2868,800;    0,459;   -2,500
311,725; 2687,127;    1,004;   -0,500
312,320; 2829,558;    2,459;    0,045
312,915; 2906,429;    1,459;   -1,045
313,510; 3014,894;    1,550;   -0,500
314,105; 2973,305;    1,096;    1,409
314,700; 2551,905;   -3,086;   -1,045
315,295; 2480,099;   -0,904;    0,045
315,890; 2252,745;    1,277;    0,864
316,485; 2329,868;   -0,359;   -0,318
317,080; 2295,863;   -3,086;    1,591
317,675; 2592,838;    2,005;   -0,682
318,270; 2610,153;    5,550;    3,318
318,865; 2508,782;    3,278;    3,045
319,460; 2243,363;   -0,904;    0,591
320,055; 2181,507;   -0,541;   -1,227
320,650; 2025,076;   -1,995;   -0,591
321,244; 2040,268;   -0,177;   -1,409
321,839; 2333,289;   -1,541;   -0,227
322,434; 2296,558;   -1,086;   -1,591
323,029; 2113,310;    1,732;    1,591
323,623; 2038,273;    1,550;    0,773
324,218; 2102,263;    2,368;    1,409
324,812; 2029,931;    1,096;    1,591
325,407; 2026,181;   -0,814;    2,045
326,002; 2078,071;    0,277;   -0,409
326,596; 2123,885;    0,914;    1,318
327,191; 2109,855;    0,823;   -1,045
327,785; 2004,885;   -0,813;   -0,227
328,379; 2207,706;    1,368;    0,136
328,974; 2126,557;    0,914;   -3,955
329,568; 2320,788;    0,186;   -2,409
330,163; 2409,357;    2,096;    1,045
330,757; 2456,765;    2,459;    1,591
331,351; 2323,632;    0,459;    0,682
331,945; 2517,372;    0,914;    1,409
332,540; 2584,729;   -1,723;   -0,591
333,134; 2674,382;   -1,086;    0,773
333,728; 2782,151;    0,005;    0,318
334,322; 2983,270;   -1,177;   -0,864
334,916; 2723,607;    0,277;    0,955
335,510; 3072,923;   -0,450;   -0,136
336,105; 3339,492;   -1,086;    1,591
336,699; 3206,568;   -1,086;    0,591
337,293; 3306,015;   -1,723;    0,318
337,887; 3447,591;   -2,723;    1,955
338,481; 3714,846;    0,459;    0,591
339,074; 4013,145;   -0,359;    2,682
339,668; 4029,988;   -1,632;    1,227
340,262; 4607,876;    1,732;    3,227
340,856; 4248,279;    1,822;   -0,682
341,450; 3896,762;    1,004;    1,864
342,044; 4550,288;    1,459;    0,136
342,637; 4618,944;    0,913;   -2,136
343,231; 4654,779;   -2,360;    0,682
343,825; 4675,107;   -1,086;   -0,591
344,419; 4839,504;   -1,995;    0,500
345,012; 5077,748;    2,459;    4,045
345,606; 5131,947;    4,641;    1,591
346,199; 5057,345;   -1,813;   -0,227
346,793; 4939,370;    1,914;    2,045
347,386; 5144,528;   -0,813;   -1,136
347,980; 5143,866;   -0,268;   -0,045
348,573; 5183,179;    2,278;    0,409
349,167; 5169,478;    5,278;    4,773
349,760; 5518,342;    2,914;    2,682
350,354; 5498,509;   -0,813;    1,136
350,947; 5381,230;    1,096;    1,682
351,540; 5199,795;   -0,358;   -1,409
352,134; 5164,557;    1,096;    1,136
352,727; 5295,468;   -0,086;    1,136
353,320; 5226,623;    0,005;    0,591
353,913; 5062,242;   -1,995;    1,864
354,507; 5301,276;    0,823;   -1,227
355,100; 5313,145;    0,460;    0,864
355,693; 4931,165;    2,005;    2,409
356,286; 4927,186;    0,823;    2,773
356,879; 5139,992;   -0,722;    1,227
357,472; 4838,409;   -0,904;    1,500
358,065; 5020,358;   -0,722;    2,500
358,658; 4926,258;   -0,540;    2,318
359,251; 4660,363;   -1,631;   -0,591
359,844; 4377,611;   -1,904;   -1,136
360,437; 4554,217;   -2,995;    0,045
361,030; 4706,694;    1,369;   -0,682
361,623; 4395,452;    2,824;    0,318
362,215; 4439,007;   -0,086;    2,045
362,808; 4292,866;   -2,358;   -1,682
363,401; 4392,364;   -2,449;    0,136
363,994; 4301,725;   -0,631;   -1,500
364,586; 4175,015;    0,824;   -1,500
365,179; 4273,470;   -0,449;   -1,136
365,772; 3855,901;   -1,995;    2,045
366,364; 4032,752;    1,915;   -3,227
366,957; 4245,712;    2,279;   -0,045
367,549; 4148,481;    2,188;   -0,864
368,142; 3915,219;    1,825;   -1,500
368,734; 4007,366;    0,734;   -2,136
369,327; 3991,691;    1,643;   -0,500
369,919; 3913,979;   -1,538;    0,409
370,512; 3832,957;   -1,083;   -0,500
371,104; 3718,247;   -0,901;    1,591
371,696; 3830,584;    1,191;   -0,955
372,289; 3811,031;    0,373;    1,136
372,881; 3868,410;   -2,080;    1,318
373,473; 3736,413;   -2,170;    1,136
374,066; 3666,227;   -0,169;    0,500
374,658; 3580,491;    0,378;    1,136
375,250; 3750,194;    0,653;   -1,409
375,842; 3646,244;    0,473;   -0,045
376,434; 3540,980;   -0,435;   -0,409
377,026; 3871,985;    0,204;   -2,500
377,618; 3795,643;   -0,158;   -0,682
378,210; 3672,044;   -0,338;   -1,955
378,802; 3504,201;    0,754;   -0,591
379,394; 3666,613;    1,846;    0,682
379,986; 3903,549;    1,393;   -0,955
380,578; 3926,598;   -0,153;    0,773
381,170; 3611,747;   -0,972;    0,045
381,762; 3531,717;    0,755;    1,409
382,354; 3582,230;   -0,065;   -1,318
382,945; 3638,615;   -2,976;    0,318
383,537; 3732,285;   -2,705;   -1,955
384,129; 3770,298;   -2,160;   -1,136
384,721; 3880,381;   -0,252;    0,955
385,312; 3778,407;   -0,161;   -0,955
385,904; 3901,806;   -2,706;    1,591
386,496; 3445,938;   -0,979;    1,045
387,087; 3589,159;    1,022;    2,500
387,679; 3565,052;   -1,160;    0,045
388,270; 3670,350;    2,840;    2,045
388,862; 3689,582;    1,295;   -0,318
389,453; 3529,878;   -0,887;    1,045
390,045; 3761,754;   -0,705;   -2,682
390,636; 3708,810;    0,204;   -0,591
391,227; 3609,860;   -0,523;   -0,045
391,819; 3732,976;    0,204;    0,773
392,410; 3818,471;    1,022;    0,045
393,001; 3739,805;   -0,979;   -1,591
393,593; 3909,122;    1,930;   -0,045
394,184; 3835,728;    1,385;   -0,409
394,775; 3648,495;    1,839;    2,136
395,366; 3841,581;    1,385;    0,773
395,957; 3823,699;    0,113;    0,136
396,548; 3982,876;   -0,342;    2,682
397,139; 4218,058;   -2,433;    0,591
397,730; 4004,898;   -1,888;    0,955
398,321; 4024,152;   -1,252;    0,955
398,912; 3986,876;   -0,615;    0,136
399,503; 4117,349;   -3,524;   -1,409
400,094; 3767,491;    0,294;    1,682
400,685; 3673,340;   -0,433;    0,045
401,276; 3635,467;    0,930;   -0,955
401,867; 3817,415;   -0,888;    0,773
402,458; 3862,693;   -2,251;   -2,318
403,048; 3885,280;    1,112;    0,591
403,639; 3579,978;    0,840;    0,864
404,230; 3865,418;    2,476;    0,318
404,821; 3817,622;   -0,615;    0,045
405,411; 3814,959;    1,203;   -2,591
406,002; 3500,054;   -1,252;   -1,136
406,592; 3540,497;    2,294;    0,045
407,183; 3585,936;    0,566;   -1,500
407,774; 3463,633;    3,475;   -0,136
408,364; 3585,358;    0,930;    0,409
408,954; 3408,764;    0,384;    1,227
409,545; 3381,834;    1,021;    1,045
410,135; 3020,752;    1,293;    0,500
410,726; 3069,853;    1,838;    0,318
411,316; 3302,211;    0,111;    0,773
411,906; 3012,576;   -0,253;   -0,409
412,497; 2719,447;   -1,070;   -0,045
413,087; 2944,889;   -1,980;   -0,227
413,677; 3061,704;   -0,707;    3,864
414,267; 2898,098;    0,656;    1,409
414,857; 2803,321;   -2,980;    4,227
415,448; 2881,956;    0,839;    0,500
416,038; 2681,568;    0,020;   -0,591
416,628; 2596,956;   -0,889;    0,409
417,218; 2460,928;    0,565;    3,318
417,808; 2555,060;    0,202;   -0,409
418,398; 2497,735;    0,020;    2,682
418,988; 2346,555;    2,020;    0,591
419,578; 2374,985;   -0,707;    1,409
420,168; 2472,044;   -1,343;   -0,955
420,757; 2353,534;   -1,343;   -1,500
421,347; 2023,341;    0,111;   -0,227
421,937; 1996,899;    2,292;    1,409
422,527; 2060,715;    0,838;   -0,773
423,116; 2070,034;   -0,253;   -0,045
423,706; 1878,545;   -1,889;    0,318
424,296; 1678,167;    1,384;    0,682
424,885; 1926,622;   -0,071;   -3,045
425,475; 1872,088;    1,474;   -2,864
426,065; 1671,834;   -0,980;   -0,318
426,654; 1539,724;   -0,435;   -0,318
427,244; 1842,693;    0,020;    1,409
427,833; 1654,645;    1,383;   -0,500
428,423; 1480,707;   -0,526;    1,136
429,012; 1602,255;   -0,344;   -1,136
429,601; 1562,928;   -1,344;    0,136
430,191; 1385,057;    1,292;    4,318
430,780; 1141,779;   -0,344;   -0,409
431,369; 1435,572;    0,746;   -0,045
431,959; 1380,002;   -1,254;    0,500
432,548; 1160,237;   -1,163;   -0,045
433,137; 1027,409;   -1,254;   -1,318
433,726; 1183,348;    0,292;    0,500
434,315; 1074,468;   -0,526;    2,409
434,905; 1185,409;   -1,254;    1,409
435,494; 1211,487;    0,746;    0,955
436,083;  974,713;   -0,981;   -0,955
436,672;  991,613;    0,110;    0,500
437,261;  896,731;    0,292;   -1,955
437,850; 1262,903;    1,383;    0,682
438,439; 1263,759;    3,291;    1,955
439,027; 1337,540;    3,655;    1,773
439,616; 1261,437;    2,927;    1,227
440,205;  893,456;    0,200;   -2,136
440,794;  737,107;    2,109;   -0,045
441,383;  599,245;   -1,346;   -0,591
441,971;  471,945;   -2,436;    0,591
442,560;  494,868;    0,563;   -1,773
443,149;  343,459;    0,379;   -1,318
443,737;  411,873;   -0,074;   -2,318
444,326;  405,889;    0,018;    0,318
444,915;  455,796;   -1,982;    0,864
445,503;  446,176;   -2,891;   -0,318
446,092;  769,776;    0,382;    2,136
446,680;  666,060;    0,382;    0,318
447,269;  536,271;   -0,346;   -0,318
447,857;  471,770;    0,018;   -1,773
448,445;  385,214;    0,563;    1,318
449,034;  285,661;   -1,528;   -1,136
449,622;  263,577;   -1,073;    3,500
450,210;  665,324;    2,017;    2,227
450,799;  528,281;    0,290;   -0,591
451,387;  440,641;    1,381;   -0,591
451,975;  405,657;    2,654;    0,864
452,563;  501,411;    3,472;    2,318
453,151;  234,426;   -0,528;   -1,227
453,739;  297,491;   -1,347;    0,136
454,328;  431,370;    2,381;   -2,136
454,916;  327,785;    2,562;   -0,136
455,504;  319,988;    1,017;    1,227
456,092;  173,204;    0,017;   -1,591
456,679;  115,465;    1,472;    0,682
457,267;  608,510;    4,017;    1,045
457,855;  217,651;    1,017;    1,409
458,443;   29,632;   -0,165;    1,682
459,031;  255,439;    0,108;    2,409
459,619;  190,318;   -1,801;    2,864
460,206;   54,048;    0,835;    2,045
460,794;   51,631;   -2,983;   -0,227
461,382;  114,595;   -0,529;   -0,864
461,970;  104,712;    1,198;    1,864
462,557;    6,822;   -0,711;   -0,682
463,145;  162,987;   -3,165;   -1,682
463,732;  440,841;    2,016;   -1,045
464,320;  162,947;   -0,075;   -3,045
464,907;  330,489;    2,743;   -0,773
465,495;  232,056;    0,743;   -1,227
466,082;  135,959;   -1,984;   -0,045
466,670;  154,350;   -2,529;    1,227
467,257;   15,509;   -1,711;    2,045
467,844;  136,057;   -0,075;    0,045
468,432;  105,662;    0,834;    3,500
469,019;   54,366;    0,925;   -1,773
469,606;  151,315;    0,470;    3,682
470,193;  188,528;   -1,439;    0,227
470,780;  131,207;   -2,075;    0,864
471,368;   51,090;   -1,257;   -0,773
471,955;  171,574;    1,379;   -0,682
472,542;  119,056;    0,652;   -1,136
473,129;   -8,963;   -0,166;    0,136
473,716;    3,593;    1,470;    0,591
474,303;   41,243;    0,652;   -0,864
474,890;   43,050;   -1,439;   -0,500
475,477;  148,470;   -1,621;    0,409
476,064;   47,304;    1,106;   -1,591
476,650;  172,036;    0,288;    0,318
477,237;   76,672;   -0,258;    0,955
477,824;   45,291;   -1,076;    0,864
478,411;  -46,918;   -1,894;   -0,318
478,997;  -56,034;    0,560;   -0,773
479,584; -109,680;    1,196;   -0,409
480,171;   75,602;   -0,440;   -0,773
480,757;  139,727;    2,651;    0,773
481,344;   32,219;    0,469;    0,409
481,931;  -70,989;    1,105;    1,045
482,517;   64,143;   -1,258;    0,318
483,104;  150,196;    1,106;    2,864
483,690;   12,399;   -1,804;    0,045
484,276;   -7,237;   -0,895;    0,227
484,863;  214,583;    2,469;    1,136
485,449;   50,613;   -0,077;    0,318
486,035;   11,218;   -1,986;   -0,136
486,622;  107,893;   -0,895;    0,045
487,208;   22,229;    1,378;    1,500
487,794;  -63,336;    0,741;    0,318
488,380;  -63,827;    0,105;   -1,409
488,967;  -53,289;   -1,168;   -0,409
489,553;  -41,002;   -1,895;   -1,409
490,139;   45,343;    1,559;    0,773
490,725;  -40,714;    0,741;   -0,227
491,311;   14,765;    3,287;    3,045
491,897;   -4,124;   -0,986;    1,500
492,483;    9,600;    0,105;    1,227
493,069;  455,417;    3,923;    0,864
493,655;  161,033;    1,650;    0,682
494,241;   25,148;    1,377;   -0,955
494,826;   34,901;    0,287;   -1,045
495,412;  108,388;    2,559;   -0,682
495,998;    8,554;   -0,805;   -0,318
496,584;   79,316;    0,377;    1,045
497,169;   95,631;    1,014;   -0,682
497,755;   22,662;    0,650;    1,227
498,341;  178,897;    0,559;    0,318
498,926;  307,064;    1,832;    1,955
499,512;   23,999;    1,286;    2,955
500,097;   38,494;    0,195;   -0,318
500,683;   61,867;   -0,350;    2,136
501,268;    1,732;   -0,169;   -0,955
501,854;   38,781;   -0,169;    1,227
502,439;   38,881;   -0,624;   -1,773
503,024;   88,257;    0,195;    0,500
503,610;  138,997;   -0,078;   -0,682
504,195;   73,831;    0,558;    1,955
504,780;  213,304;    2,922;    1,227
505,366;  341,263;    3,013;    2,864
505,951;  287,473;    0,740;    1,045
506,536;  205,647;   -3,260;   -3,682
507,121;  329,416;    0,285;   -0,318
507,706;  290,800;    2,376;    1,045
508,291;  274,753;    2,649;    1,136
508,876;  351,524;   -0,988;    2,591
509,461;  517,562;   -0,169;   -0,773
510,046;  668,022;    0,194;    0,318
510,631;  742,997;   -0,351;   -0,773
511,216;  735,787;    2,467;   -0,500
511,801; 1032,089;   -0,442;    2,591
512,386; 1200,928;    0,740;    0,500
512,971; 1406,846;   -2,988;    0,955
513,555; 1647,048;   -0,897;   -1,500
514,140; 1993,128;   -0,442;   -3,136
514,725; 2272,859;   -0,715;   -1,136
515,309; 2534,637;   -0,533;    0,318
515,894; 2718,143;   -0,624;   -2,227
516,479; 3238,302;   -0,624;   -0,955
517,063; 3500,786;    0,376;    1,227
517,648; 4009,904;    1,012;   -1,136
518,232; 4114,907;   -0,261;   -1,409
518,817; 4815,524;   -0,079;    1,682
519,401; 5492,905;    2,194;    0,591
519,985; 5485,669;    1,103;    1,136
520,570; 5889,188;    0,830;   -1,955
521,154; 6588,705;    2,102;    0,591
521,738; 7177,078;   -2,352;    2,409
522,323; 8090,119;   -0,170;    1,682
522,907; 8290,207;    0,466;   -0,136
523,491; 8451,955;    0,557;    0,955
524,075; 8835,663;    2,284;    0,591
524,659; 9310,398;    1,466;    0,591
525,243; 9244,639;    1,739;    0,409
525,827; 9792,273;    0,648;   -0,045
526,411;10825,489;   -1,989;   -0,136
526,995;11349,797;   -0,352;    1,409
527,579;11264,322;   -0,443;   -1,045
528,163;11807,827;    0,375;   -1,500
528,747;12019,611;    2,466;   -0,773
529,331;12546,246;   -0,080;   -1,409
529,915;12921,237;    1,738;    0,955
530,499;13059,477;   -0,807;    1,227
531,082;12987,399;   -0,534;    1,591
531,666;12653,855;    1,374;    0,773
532,250;13429,956;    1,284;    2,682
532,833;13907,061;    0,920;    2,773
533,417;13876,017;   -1,807;    0,864
534,001;13985,906;    1,647;   -0,318
534,584;14789,445;    0,374;    0,500
535,168;14726,795;    0,465;    1,409
535,751;14904,713;    0,647;    0,045
536,334;14390,229;   -0,898;   -0,409
536,918;15050,423;    0,011;    1,591
537,501;15241,245;   -0,899;    1,318
538,085;15321,111;   -0,444;    1,045
538,668;15555,092;    0,829;    2,409
539,251;15951,619;    1,829;    3,773
539,834;15986,591;    0,101;    0,773
540,418;15967,542;   -1,990;    4,318
541,001;16110,273;   -0,990;    1,773
541,584;16142,925;    2,101;    2,227
542,167;15893,875;    1,374;    2,955
542,750;16101,150;    1,919;   -0,773
543,333;15737,888;    0,555;    2,136
543,916;16494,135;    0,192;    2,500
544,499;17173,534;   -1,354;    0,227
545,082;17176,976;    1,374;    3,591
545,665;17366,318;    1,919;    1,500
546,248;17748,161;    1,010;   -0,318
546,830;17396,094;   -0,445;    1,955
547,413;17856,946;    1,010;   -0,773
547,996;18395,002;    0,555;    0,500
548,579;18194,176;    0,919;    0,955
549,161;18012,891;    1,828;    2,682
549,744;17834,611;   -0,809;    0,409
550,326;18274,806;   -0,809;   -1,136
550,909;18108,415;    2,737;    0,591
551,492;18540,220;   -0,263;    0,227
552,074;18344,502;   -0,173;   -1,318
552,657;18905,294;    2,373;    0,045
553,239;18616,328;   -0,173;   -0,773
553,821;18546,192;   -1,082;    1,045
554,404;18103,982;    1,282;    1,136
554,986;18526,246;    0,464;    1,045
555,568;19129,825;    1,191;   -0,955
556,151;18316,806;    1,191;   -0,227
556,733;18513,302;   -0,264;   -0,864
557,315;19015,702;    0,100;    0,500
557,897;18837,461;    0,554;   -0,500
558,479;18925,325;   -1,991;    1,318
559,061;19092,530;   -0,719;   -0,864
559,643;19468,947;   -0,264;    0,045
560,225;19800,359;    1,645;    2,864
560,807;19845,856;    0,918;    0,318
561,389;19287,683;    0,554;    2,318
561,971;20113,487;    0,463;    2,136
562,553;19922,114;   -1,628;    1,591
563,135;20083,854;   -0,537;    1,136
563,717;19692,633;    3,372;    1,136
564,298;20446,370;    3,645;   -0,045
564,880;20172,539;    0,645;   -1,409
565,462;20294,448;    0,645;    1,318
566,043;21470,438;   -0,446;    2,318
566,625;21065,158;    1,918;    1,227
567,207;20911,281;    1,099;    1,682
567,788;22077,497;   -1,264;    1,500
568,370;22890,453;    1,917;   -0,500
568,951;22769,876;    0,190;    0,227
569,533;23700,730;   -0,628;   -0,500
570,114;24155,805;   -0,446;    0,682
570,695;24687,707;   -0,174;   -1,318
571,277;25252,334;   -0,265;   -1,682
571,858;26015,389;    2,008;   -1,136
572,439;26901,359;    1,554;   -1,045
573,021;27131,935;    2,099;   -2,773
573,602;27645,846;   -1,265;    0,318
574,183;28590,084;   -2,083;    2,227
574,764;28704,213;   -1,629;    0,409
575,345;29342,015;    0,917;   -0,136
575,926;29958,481;   -0,356;    0,136
576,507;29915,112;    1,099;   -0,227
577,088;31116,989;    3,099;    1,682
577,669;31153,358;    0,735;    1,955
578,250;31984,902;    0,644;   -1,045
578,831;32649,283;   -1,356;   -2,227
579,412;32912,430;   -0,810;    0,955
579,993;33771,236;    1,008;    0,227
580,573;34073,367;   -0,629;   -0,955
581,154;33096,670;    0,735;   -0,591
581,735;33996,046;    0,644;    0,773
582,315;33483,955;   -0,629;    2,136
582,896;33795,395;   -0,174;    1,227
583,477;33201,740;    0,189;    1,227
584,057;33411,749;    0,553;    0,955
584,638;33684,963;    2,553;    2,318
585,218;33704,190;   -0,538;    2,682
585,799;33882,259;    0,281;   -0,227
586,379;33867,625;    0,372;    1,591
586,959;32558,785;    0,735;    0,318
587,540;31818,801;   -0,629;    2,227
588,120;31309,025;    1,007;   -0,045
588,700;30264,355;    2,553;    2,136
589,281;30586,029;    0,462;   -0,955
589,861;30581,284;    0,099;   -1,682
590,441;30333,679;    2,371;   -2,682
591,021;29300,957;   -0,265;   -2,591
591,601;29573,519;   -0,537;    0,500
592,181;29506,797;   -0,719;   -0,773
592,761;28745,221;    0,007;    1,409
593,341;28727,201;   -0,901;    0,045
593,921;28752,956;   -0,265;    1,591
594,501;28641,545;   -0,538;    1,318
595,081;28487,429;    0,917;   -0,318
595,661;28819,017;   -1,447;    0,955
596,240;29344,279;   -0,537;    0,136
596,820;28980,182;    0,372;    1,955
597,400;29181,575;    2,008;    0,773
597,980;29384,620;    2,008;    1,045
598,559;29407,191;    2,735;   -0,227
599,139;29087,141;   -0,174;   -1,227
599,718;29014,595;   -0,174;   -0,409
600,298;29281,769;    0,735;    0,682
600,877;29489,823;    2,917;    1,409
601,457;29738,726;    2,281;    1,136
602,036;29638,694;    0,190;    2,045
602,616;29901,614;    0,644;    1,682
603,195;30296,992;   -0,355;    3,500
603,774;29880,182;   -0,901;    2,045
604,354;29715,890;    0,826;   -0,500
604,933;29180,408;    0,463;    1,864
605,512;29309,333;    3,554;    0,591
606,091;29334,093;   -0,537;    3,773
606,671;30129,973;    0,281;    0,773
607,250;29266,350;    1,644;    3,136
607,829;29472,557;    2,372;    3,227
608,408;29332,502;    1,190;    2,591
608,987;28368,745;    1,281;    3,409
609,566;28692,388;   -1,265;   -2,500
610,145;28774,376;   -1,082;    0,682
610,723;29153,981;    4,372;    6,864
611,302;28395,411;   -0,446;    1,682
611,881;27915,283;    5,008;   11,227
612,460;28779,726;    1,645;    3,955
613,039;29135,258;   -0,082;    2,045
613,617;27884,435;    1,736;    4,773
614,196;28050,395;    1,099;    1,227
614,775;28434,303;    1,009;    2,409
615,353;28359,105;    0,736;    0,864
615,932;28057,093;    0,100;    2,409
616,510;28612,660;    0,554;    0,591
617,089;28224,171;    7,100;   17,591
617,667;27938,281;    2,372;    6,136
618,246;27798,686;   -1,537;    1,318
618,824;27961,227;   -3,355;   -0,955
619,402;27450,415;   -2,900;   -1,773
619,981;28017,418;   -0,173;   -1,045
620,559;27819,051;    0,009;    1,682
621,137;27282,059;   -0,718;    1,864
621,715;27363,574;   -1,173;   -0,682
622,293;27279,020;   -0,537;   -0,773
622,871;27698,339;   -0,718;    0,500
623,450;27306,818;    0,373;   -0,864
624,028;27207,258;    0,191;   -0,955
624,606;26818,034;   -1,718;    1,682
625,183;27209,179;   -1,536;   -1,136
625,761;26836,445;    1,009;    1,136
626,339;27168,490;    1,373;    2,591
626,917;27534,756;   -0,172;   -0,045
627,495;27507,082;   -0,354;    1,318
628,073;27023,831;   -0,263;    2,864
628,650;26726,325;    0,100;    2,136
629,228;27101,096;    0,373;    4,409
629,806;26497,157;    2,282;    1,136
630,383;26787,918;    1,464;   -0,318
630,961;26561,190;    2,555;   -0,955
631,539;26299,326;    2,464;    0,227
632,116;25676,190;   11,373;   15,409
632,694;26166,022;    2,555;    6,500
633,271;26520,746;    0,828;    2,682
633,848;26428,296;    1,828;    2,045
634,426;26463,190;   -1,081;    1,773
635,003;25603,185;    1,101;   -0,409
635,580;25926,067;    1,192;    3,682
636,158;26456,498;    3,737;    1,227
636,735;26417,960;    0,555;   -0,500
637,312;26591,115;   -0,809;   -0,682
637,889;26709,578;   -4,354;   -0,682
638,466;26169,753;   -3,990;   -0,409
639,043;26133,952;    2,101;   -1,136
639,620;26461,913;   -2,262;   -0,955
640,197;26784,085;    1,100;    1,682
640,774;26928,784;   -0,172;    1,136
641,351;27354,028;    0,737;    1,136
641,928;26746,908;   -0,627;    1,409
642,505;26368,243;    0,828;   -0,500
643,082;26502,851;   -1,718;    1,227
643,658;25482,640;   -0,718;    1,500
644,235;26288,430;    1,191;    2,500
644,812;26593,310;    1,918;    0,773
645,388;26289,009;   -0,991;    1,409
645,965;26471,253;   -0,809;    1,682
646,542;26540,042;   -1,445;   -0,227
647,118;26474,377;    1,009;   -0,955
647,695;26821,167;   -0,263;    1,136
648,271;26683,320;   -0,536;    0,500
648,848;27056,837;    0,736;    2,227
649,424;26851,990;    0,827;    1,318
650,000;26601,143;   -0,354;   -1,045
650,577;26412,933;   -0,627;   -0,955
651,153;26910,268;   -1,809;    0,955
651,729;27931,603;    1,191;    0,864
652,305;28382,483;    0,645;    2,773
652,881;33435,182;   -0,082;    1,136
653,458;40493,062;    1,100;    0,227
654,034;44237,943;    0,282;    1,591
654,610;45562,459;    0,554;    0,773
655,186;46914,249;    0,645;    3,045
655,762;46625,402;   -0,991;    0,409
656,338;46628,283;    0,100;    0,136
656,913;47580,890;   -0,082;    0,409
657,489;46791,225;    0,827;   -0,318
658,065;46791,106;   -0,173;   -1,591
658,641;47473,441;   -0,900;   -0,864
659,217;46701,321;   -0,991;    0,409
659,792;46106,383;    0,645;   -0,409
660,368;46322,991;   -2,173;   -0,682
660,944;45788,690;   -2,082;    1,227
661,519;40651,661;   -0,628;    0,409
662,095;34372,905;   -1,719;    0,591
662,670;29832,695;    1,281;   -0,136
663,246;28833,575;    1,009;   -0,409
663,821;28217,728;    0,281;    1,682
664,396;27711,518;    0,009;    1,864
664,972;28035,398;    0,009;   -0,500
665,547;28299,642;    1,372;    0,136
666,122;28346,250;   -1,082;    0,318
666,698;28604,585;   -0,173;    0,318
667,273;27940,102;   -0,173;    0,136
667,848;28769,982;    2,372;    1,500
668,423;28562,590;    2,190;    2,318
668,998;29194,561;    2,827;   -0,682
669,573;29717,169;   -3,264;   -1,500
670,148;29483,958;   -1,446;   -0,682
670,723;29298,293;   -1,810;    0,318
671,298;29701,901;    2,372;    1,045
671,873;29846,509;   -0,082;   -0,136
672,448;29782,571;    0,645;    0,136
673,023;30159,633;   -1,992;   -0,227
673,597;30537,786;    0,827;    2,318
674,172;30266,667;   -0,355;    0,318
674,747;29713,638;    0,372;   -1,045
675,321;29528,519;   -0,628;    3,318
675,896;29142,035;    0,645;    1,045
676,471;30198,734;    2,645;    1,591
677,045;29975,524;   -1,264;    0,682
677,620;29991,313;    0,190;    1,136
678,194;30264,557;   -2,628;    1,136
678,769;29865,347;   -1,083;   -0,318
679,343;30113,954;   -0,628;    1,773
679,917;29991,926;   -1,446;    1,955
680,492;30057,170;    0,826;    3,227
681,066;30201,687;    3,372;    0,409
681,640;30272,112;    1,463;   -0,318
682,214;31105,447;    0,735;    0,500
682,788;30581,237;   -1,356;   -0,773
683,363;30539,390;   -1,810;    1,682
683,937;30253,543;   -1,719;   -0,318
684,511;31015,060;    0,463;   -0,591
685,085;30763,122;   -1,356;    0,318
685,659;30509,912;   -2,538;    0,864
686,232;30775,156;   -0,356;   -0,318
686,806;30432,764;   -0,901;    0,409
687,380;31113,644;   -0,174;    0,591
687,954;31347,797;   -1,174;    1,136
688,528;31025,041;   -0,719;    1,955
689,101;31810,013;   -3,992;    1,045
689,675;31383,711;   -0,356;   -0,136
690,249;30720,683;   -0,719;    0,409
690,822;31062,927;    0,280;    0,318
691,396;31169,262;   -0,265;    1,227
691,969;30659,687;    1,280;    0,136
692,543;31070,477;   -0,447;   -1,955
693,116;30691,994;   -0,265;   -1,409
693,690;30621,874;    0,099;    0,500
694,263;31108,209;   -1,083;    2,955
694,836;31170,635;    1,371;    3,591
695,410;29799,879;   -0,265;    1,773
695,983;30269,578;    0,189;    0,591
696,556;30253,185;   -0,447;   -1,045
697,129;30601,975;   -0,356;    1,409
697,703;30218,037;   -1,629;    1,955
698,276;30200,099;    1,462;   -0,773
698,849;30004,344;    1,280;    1,409
699,422;30392,951;   -1,083;    0,591
699,995;30099,650;    0,007;    0,136
700,568;30596,530;   -0,629;    3,045
701,140;30634,229;   -2,811;    1,682
701,713;30369,837;   -0,174;    2,409
702,286;30112,444;   -0,538;    0,864
702,859;29962,779;   -0,902;   -0,591
703,432;29118,205;    0,825;    0,682
704,004;29611,813;    0,462;    0,318
704,577;29512,239;   -0,629;    0,136
705,150;30066,937;    0,189;    2,500
705,722;29869,363;   -0,356;   -3,227
706,295;29622,971;   -0,175;   -0,591
706,867;29525,215;   -0,175;    1,955
707,440;29769,277;   -1,720;   -0,409
708,012;30027,430;    0,462;    0,591
708,584;29928,129;    2,462;    0,227
709,157;30158,828;    1,825;   -0,591
709,729;29793,254;    2,280;    2,045
710,301;30626,043;    0,734;    0,045
710,874;30626,378;   -1,447;   -0,227
711,446;29503,168;    0,371;    0,864
712,018;29416,139;    0,098;    0,500
712,590;29127,656;   -1,993;    1,682
713,162;29732,082;    0,825;    1,318
713,734;30011,053;    1,825;   -2,045
714,306;29882,206;   -1,902;   -0,409
714,878;28532,086;    0,825;    0,864
715,450;29335,058;    0,643;    0,864
716,022;29557,938;    1,552;    1,318
716,593;29711,091;    0,189;    0,591
717,165;29641,154;   -3,175;   -1,227
717,737;29372,580;    0,280;    0,409
718,309;28997,369;    0,280;   -0,045
718,880;29014,431;   -0,539;   -1,409
719,452;29255,494;   -0,175;   -1,591
720,024;28774,101;    0,734;   -0,591
720,595;29339,254;   -2,902;    0,955
721,167;28875,317;    0,370;   -2,045
721,738;28421,743;   -0,812;   -1,045
722,309;28409,896;   -0,993;   -1,227
722,881;28134,140;   -1,357;    0,773
723,452;28774,111;   -2,630;    2,864
724,023;28942,810;   -0,721;    2,682
724,595;28666,690;    0,007;    0,682
725,166;28443,934;    0,007;   -0,409
725,737;28135,724;    1,734;    0,227
726,308;28210,695;   -0,266;    0,318
726,879;28653,212;   -1,630;    1,227
727,450;28496,820;    0,552;   -0,045
728,021;28492,700;    3,097;    0,682
728,592;28233,580;    0,734;    0,500
729,163;28597,461;    0,643;   -0,136
729,734;28595,159;    0,188;   -0,227
730,305;28955,767;    1,734;    0,136
730,876;29337,648;    0,188;    2,955
731,447;29079,801;    2,188;    2,682
732,017;29173,499;    1,097;    1,864
732,588;28626,107;    0,734;    1,227
733,159;28852,533;    0,643;   -1,045
733,729;28669,686;    0,006;    0,409
734,300;27897,476;    0,915;    0,864
734,870;28351,083;    3,461;    0,591
735,441;29000,146;    0,370;   -0,591
736,011;28712,662;    0,643;   -1,591
736,582;28669,543;   -0,812;    0,045
737,152;28093,241;   -1,721;   -2,045
737,722;28496,122;   -0,267;   -0,682
738,293;28197,911;   -1,358;    1,318
738,863;28127,155;    2,461;    2,318
739,433;27890,490;    5,279;    0,318
740,003;28545,644;   -0,994;   -0,682
740,573;27934,524;    2,097;   -1,591
741,143;27876,768;   -1,085;    0,318
741,713;28683,467;    1,188;   -0,500
742,283;28392,074;    0,915;    1,591
742,853;28148,319;    1,915;    1,591
743,423;27528,108;    1,733;    0,045
743,993;27723,898;   -0,358;    1,500
744,563;27096,778;    0,097;   -0,864
745,133;27082,840;   -0,812;   -0,864
745,702;27727,539;   -0,267;    1,773
746,272;26932,056;   -0,176;    0,591
746,842;26716,300;   -1,358;   -0,591
747,411;27181,998;   -0,267;   -0,318
747,981;27362,424;    0,097;    0,500
748,551;27337,396;    2,278;   -1,045
749,120;27217,731;    0,642;   -0,227
749,690;27579,611;   -0,631;    2,409
750,259;27943,400;    1,369;    2,955
750,828;27878,008;    1,551;   -1,955
751,398;28155,616;    1,278;   -0,045
751,967;27612,496;    2,187;    0,409
752,536;27803,559;   -0,813;   -0,227
753,105;28314,166;    0,096;    0,227
753,675;28057,865;    0,096;    1,773
754,244;28013,836;   -0,904;    3,591
754,813;28028,080;    0,551;    1,227
755,382;27612,506;    0,460;    0,955
755,951;28235,932;    1,551;    3,682
756,520;27692,812;   -0,085;    1,864
757,089;28303,784;    0,278;    0,500
757,658;28412,755;    1,733;    1,227
758,227;28399,817;    1,096;    0,318
758,795;28723,334;    1,187;    1,136
759,364;28935,487;   -0,086;   -0,591
759,933;27948,186;   -1,176;   -0,045
760,501;27447,157;    0,733;   -1,318
761,070;27936,765;   -2,813;   -1,409
761,639;28614,827;   -1,904;    1,318
762,207;27936,344;    1,551;   -0,955
762,776;27899,134;    0,369;    0,864
763,344;27858,469;   -0,995;    0,591
763,913;26993,713;   -0,722;    1,409
764,481;27737,957;    1,005;   -0,136
765,049;27477,110;   -1,358;    1,409
765,618;27341,718;   -0,086;    0,318
766,186;27426,143;    0,278;    0,136
766,754;27651,388;    0,005;    1,864
767,322;26621,086;   -1,995;    0,409
767,890;26695,603;   -0,722;   -1,773
768,459;27060,847;   -2,177;   -0,318
769,027;27267,818;    1,641;    3,409
769,595;26159,608;    3,278;    2,591
770,163;26643,397;    3,823;    2,955
770,730;26348,096;    0,732;   -0,136
771,298;26170,522;    0,187;   -1,409
771,866;26246,675;   -1,541;    4,955
772,434;26614,010;   -0,631;   -1,864
773,002;26788,436;    0,005;    0,682
773,569;26418,771;    0,914;    1,682
774,137;26198,924;   -0,268;   -0,045
774,705;26994,986;    0,278;   -0,136
775,272;26500,412;    0,641;    0,682
775,840;26259,383;   -0,177;    2,682
776,407;25815,082;    0,277;    1,955
776,975;25405,235;   -0,632;    0,318
777,542;26421,298;   -1,086;   -0,045
778,110;26250,178;   -1,268;   -0,045
778,677;25889,513;   -2,359;   -0,864
779,244;25618,575;    2,186;    1,045
779,812;25771,092;    1,823;    0,864
780,379;25591,609;    0,005;    1,136
780,946;25853,671;    1,005;   -0,773
781,513;26220,461;   -1,450;    0,318
782,080;25569,795;   -0,086;    2,864
782,647;26281,676;   -0,268;    3,045
783,214;25865,556;   -0,177;    3,864
783,781;25495,346;   -0,723;   -0,682
784,348;25383,863;   -0,632;    1,500
784,915;25846,743;   -3,177;    0,318
785,482;25592,805;    1,368;    2,591
786,049;26017,595;    0,186;   -0,591
786,615;26146,930;    0,277;   -0,955
787,182;25928,810;    0,186;   -0,682
787,749;25609,054;   -2,814;    1,409
788,315;24885,298;   -1,632;   -0,409
788,882;25210,997;    1,550;   -1,227
789,448;25916,696;    1,732;   -0,955
790,015;25893,485;    1,095;    3,227
790,581;25493,093;    1,459;    0,227
791,148;25392,155;    0,641;    1,045
791,714;25570,763;   -0,541;    3,136
792,280;25263,007;    0,186;    1,591
792,847;24791,796;    0,550;    2,500
793,413;25372,313;   -0,269;   -0,318
793,979;24911,375;    3,459;   -1,318
794,545;25032,438;    4,459;    2,682
795,111;24372,409;    2,186;    1,318
795,678;24593,199;    0,731;   -1,682
796,244;24163,806;    3,368;    0,136
796,810;24720,596;    1,731;    0,773
797,375;24410,476;    0,549;   -2,136
797,941;24496,357;   -0,541;    0,591
798,507;24627,237;   -0,451;   -0,955
799,073;24128,754;   -0,360;    0,591
799,639;24195,725;   -2,632;    3,136
800,205;24208,787;    0,095;    2,682
800,770;23755,668;    0,640;    1,773
801,336;23851,548;    1,368;   -0,955
801,901;23558,338;    4,549;    3,136
802,467;24102,582;   -0,542;    2,045
803,033;23490,099;   -0,087;    0,864
803,598;23694,706;    1,913;   -1,045
804,163;23695,314;    1,095;   -0,318
804,729;23651,740;   -0,178;    1,136
805,294;24103,984;    0,822;    2,227
805,859;23880,592;    0,731;   -0,409
806,425;23332,745;    1,186;    2,682
806,990;22988,534;    2,186;    4,318
807,555;23442,960;   -1,451;    2,591
808,120;23338,932;    0,822;   -0,409
808,685;23407,630;    0,185;   -2,500
809,250;22852,420;    0,004;   -0,500
809,815;23142,755;    1,913;    0,682
810,380;23726,726;   -0,269;    1,591
810,945;24324,243;   -1,087;    2,045
811,510;23440,396;    2,094;    1,591
812,075;23162,549;   -0,633;   -1,409
812,640;23217,430;    2,003;    1,409
813,204;23278,128;    0,822;   -0,227
813,769;23700,827;    2,094;   -0,045
814,334;23121,798;    0,458;    0,864
814,898;23199,042;    0,367;    0,591
815,463;23009,923;    1,276;   -0,773
816,027;23016,894;   -0,724;   -2,318
816,592;23076,411;    0,640;   -2,045
817,156;22586,655;    2,094;    1,136
817,721;22479,354;    4,276;    2,318
818,285;22407,325;    2,912;    1,500
818,849;23066,569;   -1,451;    1,682
819,414;22962,631;   -0,269;    2,955
819,978;22504,057;   -1,269;    1,773
820,542;23147,756;    2,003;    0,500
821,106;22834,818;   -0,815;    0,682
821,670;22941,244;   -0,815;    2,591
822,234;22669,852;   -0,270;    1,409
822,798;22045,187;    0,003;    0,500
823,362;21953,431;   -0,633;    4,227
823,926;21250,947;    0,094;    1,136
824,490;21497,646;   -0,997;   -0,682
825,054;21975,799;   -0,088;   -1,136
825,618;21604,134;   -1,542;   -1,500
826,181;21578,287;    0,458;   -1,318
826,745;21485,622;    1,367;   -1,045
827,309;21818,866;    1,185;    1,318
827,872;21180,747;    1,367;    0,955
828,436;22243,082;    1,185;   -0,773
828,999;22242,417;   -0,997;    1,227
829,563;21041,024;   -0,179;    1,136
830,126;20857,632;   -0,179;   -0,591
830,690;20868,967;   -1,997;    2,864
831,253;20401,393;   -0,543;    2,227
831,816;20537,455;   -1,906;    0,500
832,380;20480,790;    0,185;    0,864
832,943;20709,852;   -1,361;   -0,500
833,506;20177,824;    2,639;   -1,227
834,069;20970,977;    3,912;   -0,955
834,632;20989,130;    1,730;    1,318
835,195;20910,829;    1,003;    0,955
835,758;20052,255;   -0,997;    1,955
836,321;19937,680;    0,730;   -1,045
836,884;20028,288;   -0,725;   -0,955
837,447;20028,078;   -2,816;    1,773
838,010;20318,595;    0,366;    3,227
838,573;20616,929;   -1,179;    0,773
839,135;20546,264;   -1,361;   -0,955
839,698;20033,054;    1,275;    0,409
840,261;19542,753;    1,003;   -0,227
840,823;19374,088;   -0,543;    0,864
841,386;19646,968;   -0,452;   -2,409
841,948;19527,576;   -1,361;    1,773
842,511;19254,274;    0,912;    1,682
843,073;19366,518;    1,912;    0,227
843,636;19186,126;   -0,361;   -0,227
844,198;19161,643;    0,911;    0,591
844,760;19278,978;    1,093;    1,955
845,322;18944,222;    0,548;    1,136
845,885;19376,739;    0,730;    0,591
846,447;19830,710;   -1,998;    0,227
847,009;19333,045;    1,911;   -0,682
847,571;19663,289;    0,820;   -2,045
848,133;19826,260;   -1,089;   -1,864
848,695;19599,505;   -0,543;    1,409
849,257;19156,385;   -1,089;   -1,682
849,819;19349,902;   -0,998;   -0,409
850,381;19411,055;   -0,725;   -0,864
850,942;19780,572;    1,093;   -0,591
851,504;19726,361;    1,184;    0,227
852,066;19696,787;    1,275;   -1,591
852,628;19217,486;   -0,180;    1,955
853,189;18755,457;    1,638;    2,682
853,751;18864,883;   -0,907;    1,409
854,312;18709,218;   -0,453;   -1,682
854,874;19214,189;   -2,089;   -0,773
855,435;19735,615;   -0,907;   -1,682
855,997;19900,950;   -1,816;   -0,136
856,558;19242,285;    0,366;    1,773
857,119;19339,893;    0,820;    2,864
857,681;18993,682;    0,002;    0,318
858,242;19004,381;    1,911;   -2,136
858,803;19448,625;    0,456;   -0,773
859,364;20066,051;    0,184;   -4,773
859,925;19369,477;   -2,453;   -0,955
860,486;19261,175;   -0,453;   -0,955
861,047;18958,329;   -0,544;   -1,227
861,608;18782,482;   -1,089;   -0,773
862,169;18891,271;    0,638;   -0,045
862,730;18679,879;    0,456;    1,409
863,291;18941,123;   -0,635;   -0,500
863,852;19293,367;   -0,635;    1,955
864,412;18750,975;   -0,271;   -0,864
864,973;17321,764;   -0,089;    0,500
865,534;17167,554;   -1,726;    0,227
866,094;18701,252;    1,820;    0,227
866,655;18329,678;    1,274;    3,318
867,215;18585,650;    0,274;    0,136
867,776;18463,439;    0,547;   -0,136
868,336;18573,410;   -1,453;    0,136
868,897;18043,018;    2,638;    1,682
869,457;17747,171;    1,365;    0,318
870,017;17990,234;    0,547;   -1,227
870,578;18535,387;   -0,817;    0,773
871,138;18204,904;   -2,089;   -0,955
871,698;17725,148;   -0,817;   -1,318
872,258;17623,301;   -0,453;   -2,864
872,818;17983,636;    2,729;    0,045
873,378;17970,698;    0,638;    1,045
873,938;17501,306;    0,547;    0,500
874,498;17859,459;    0,274;   -1,955
875,058;17754,612;    2,183;    1,773
875,618;17532,402;    1,910;   -2,682
876,177;17476,918;    1,274;    0,136
876,737;17066,617;   -0,090;    1,955
877,297;17096,134;    0,183;    1,955
877,856;17154,378;   -0,362;    0,318
878,416;17054,622;    1,183;   -0,136
878,976;17300,320;   -1,817;    0,409
879,535;17452,655;    0,092;    3,136
880,095;17167,990;   -0,544;    0,045
880,654;17320,053;   -1,090;    1,318
881,213;17407,842;    2,456;    1,500
881,773;17063,541;    2,637;    2,682
882,332;17435,330;    3,365;    5,136
882,891;17248,665;    3,092;    2,136
883,451;17722,182;   -1,272;    1,682
884,010;17143,153;   -2,908;   -0,409
884,569;17247,488;   -0,999;   -0,045
885,128;17412,187;    2,819;   -1,864
885,687;17466,886;    4,455;    0,682
886,246;17181,039;    1,455;    2,136
886,805;16972,374;    2,455;    2,045
887,364;17247,709;   -0,999;   -0,500
887,922;17614,407;   -1,181;    0,045
888,481;17110,379;   -1,545;    0,591
889,040;17385,441;    1,183;    2,136
889,599;18064,321;    2,455;    1,409
890,157;18177,293;    1,455;    2,409
890,716;17823,264;   -0,090;    0,227
891,274;17657,599;    0,092;   -1,136
891,833;18095,207;    1,546;    0,864
892,391;17969,178;   -0,454;    0,500
892,950;18031,968;    1,819;   -0,773
893,508;18370,212;    0,455;   -0,409
894,067;17724,365;    0,637;    0,136
894,625;17651,245;   -0,636;   -1,500
895,183;17892,944;   -0,363;   -0,682
895,741;17749,188;    1,728;   -1,773
896,299;17620,796;   -0,545;   -2,409
896,858;17817,676;    0,819;   -1,591
897,416;17906,738;    2,728;   -1,318
897,974;17637,437;    1,819;    0,318
898,532;17795,772;    6,091;    2,682
899,089;17677,016;    2,091;   -0,682
899,647;17773,078;   -1,454;    1,318
900,205;17455,050;    1,182;    1,045
900,763;17628,748;   -0,454;    0,227
901,321;17670,447;    2,364;   -1,409
901,878;17034,691;   -1,000;   -0,773
902,436;16946,117;   -1,363;    1,318
902,994;17315,361;    4,728;    3,682
903,551;16738,241;    0,728;    0,409
904,109;17156,031;    0,182;   -1,409
904,666;16706,911;    2,455;    1,045
905,224;16532,246;    0,182;   -0,409
905,781;16246,127;    0,727;   -0,318
906,338;16360,734;   -1,363;    1,045
906,895;16297,342;    0,637;    2,045
907,453;16215,041;    1,727;    1,136
908,010;16302,103;   -0,909;    0,409
908,567;15905,165;    1,273;    0,591
909,124;15383,318;    0,364;   -1,500
909,681;15458,926;   -2,909;    0,682
910,238;15599,079;    0,636;   -1,318
910,795;15924,687;   -0,273;   -1,136
911,352;15539,414;   -2,909;   -2,682
911,909;14917,960;   -1,364;   -0,864
912,466;15443,960;   -3,182;    1,500
913,022;15012,687;   -1,636;    0,500
913,579;15352,778;   -0,909;    2,045
914,136;15072,869;    1,636;    0,955
914,692;15426,414;    0,091;   -1,227
915,249;15001,505;    1,455;    0,409
915,806;15207,323;    0,182;    1,955
916,362;14947,141;    1,909;    1,864
916,918;14491,687;    2,000;    1,045
917,475;14522,869;   -1,182;    0,955
918,031;14597,778;    3,364;   -0,045
918,587;14022,505;   -0,909;   -0,318
919,144;14235,505;   -2,273;    0,227
919,700;14521,596;    1,727;    0,773
920,256;14091,869;    0,727;    0,045
920,812;13731,323;   -0,727;   -1,045
921,368;13723,596;   -1,727;   -1,045
921,924;13339,778;    0,182;   -0,136
922,480;12923,960;   -0,545;    1,227
923,036;13576,414;    1,273;    1,955
923,592;13509,232;    0,455;    0,318
924,148;13396,869;    0,455;   -0,955
924,704;12710,869;   -1,364;   -0,409
925,259;12988,687;   -0,273;    0,591
925,815;12703,869;    1,455;    0,500
926,371;12214,323;    2,909;    1,409
926,926;12085,323;    2,091;    0,591
927,482;11761,778;   -1,364;    0,773
928,037;11633,960;    0,909;    2,045
928,593;11918,414;    1,636;    1,045
929,148;11740,505;   -1,818;   -1,500
929,704;11231,323;   -1,455;   -0,500
930,259;11449,051;    0,091;   -0,136
930,814;10496,051;   -0,818;    1,955
931,369;10173,960;    1,091;   -0,773
931,925;10057,778;   -0,091;    0,136
932,480; 9943,596;   -2,818;   -2,591
933,035; 9816,687;    0,545;   -0,318
933,590; 9616,323;    0,364;   -1,773
934,145; 9212,960;   -1,364;   -0,318
934,700; 9544,505;    0,455;   -0,591
935,255; 9354,232;   -0,091;    0,045
935,809; 8626,505;    3,182;    0,864
936,364; 7718,687;   -0,455;   -0,136
936,919; 7663,414;    0,455;   -1,773
937,474; 7561,141;    1,455;    0,136
938,028; 7322,141;   -1,636;    1,136
938,583; 6787,141;    1,818;    4,682
939,138; 7031,141;    2,091;    2,136
939,692; 6477,414;    1,636;   -1,136
940,247; 6183,869;   -0,727;   -1,045
940,801; 5694,141;   -0,636;    0,227
941,355; 5595,960;   -0,364;    2,591
941,910; 5239,960;   -0,273;   -2,136
942,464; 5367,232;   -0,818;   -0,318
943,018; 5147,505;    1,000;   -0,227
943,572; 5066,141;    2,545;   -0,682
944,126; 4493,323;    0,091;   -0,409
944,681; 4376,414;    3,091;    0,227
945,235; 4354,687;    1,000;   -0,591
945,789; 4295,505;    0,364;   -1,864
946,342; 4377,505;    0,455;   -0,591
946,896; 4192,596;   -2,273;    0,955
947,450; 3953,596;    1,545;   -0,227
948,004; 4145,869;    1,727;   -0,045
948,558; 4157,596;    0,273;   -0,864
949,111; 4086,960;   -0,273;   -0,318
949,665; 4105,232;    1,636;   -0,682
950,219; 3978,051;   -0,091;   -1,045
950,772; 4038,869;   -1,909;    1,864
951,326; 3958,051;    0,545;   -0,955
951,879; 4060,596;    0,727;   -2,318
952,433; 4088,141;    0,000;    2,227
952,986; 3919,323;    2,909;    0,682
953,539; 3887,778;   -0,273;    0,591
954,093; 3807,505;    0,545;   -1,318
954,646; 3941,232;    0,909;    1,318
955,199; 3762,687;    0,000;   -0,500
955,752; 3641,596;   -0,455;    1,773
956,305; 3582,960;   -0,091;    2,955
956,858; 3743,414;    0,818;   -0,318
957,411; 3926,141;   -0,545;    2,136
957,964; 3770,232;    1,364;    2,136
958,517; 3765,141;   -1,545;    3,136
959,070; 3579,596;   -0,455;    1,955
959,623; 3646,960;    1,091;    1,500
960,176; 3394,596;    1,727;    2,045
960,728; 3408,596;   -2,727;    0,773
961,281; 3464,323;    0,545;    0,500
961,834; 3502,869;   -0,909;    0,864
962,386; 3410,323;    1,727;    1,045
962,939; 3357,960;    0,364;   -0,318
963,491; 3499,232;    0,455;    1,136
964,043; 3351,505;    1,182;    2,409
964,596; 3477,596;   -1,000;    2,227
965,148; 3335,323;   -1,000;    1,773
965,700; 3230,414;    1,091;   -0,227
966,253; 3384,869;   -0,636;    0,318
966,805; 3223,232;   -2,273;    0,773
967,357; 3269,323;    1,091;   -1,500
967,909; 3230,960;    0,455;   -1,227
968,461; 3351,687;    0,545;    3,136
969,013; 3285,505;   -0,182;   -0,864
969,565; 3359,778;   -0,455;   -1,136
970,117; 3397,596;   -0,364;    1,045
970,669; 3234,232;    0,182;   -0,136
971,220; 3120,869;   -0,455;   -1,500
971,772; 3031,505;   -0,636;   -0,318
972,324; 3149,414;    0,091;   -0,500
972,876; 3096,051;    0,818;   -0,045
973,427; 3224,960;    1,909;   -1,045
973,979; 3201,505;   -0,727;   -2,500
974,530; 3244,232;    1,818;    1,318
975,082; 3248,323;   -0,545;    1,682
975,633; 3133,505;    1,091;    1,682
976,184; 3263,414;    0,909;    0,773
976,736; 3043,323;    0,091;    0,227
977,287; 2855,323;   -0,909;   -0,500
977,838; 3043,687;    0,909;   -0,318
978,389; 3118,232;   -1,000;   -0,500
978,940; 2970,869;    0,545;   -0,409
979,491; 3005,505;    0,091;   -0,500
980,042; 2983,596;    0,182;    3,045
980,593; 3029,687;   -2,545;    0,227
981,144; 3053,596;    2,545;   -0,500
981,695; 3022,596;    1,455;    1,500
982,246; 2984,869;   -0,273;    1,045
982,797; 3158,687;   -1,727;    0,682
983,347; 3264,687;    0,364;    0,591
983,898; 3423,869;    3,091;    0,409
984,449; 3239,414;    2,182;    0,773
984,999; 3161,778;    1,455;   -1,136
985,550; 2941,869;    0,182;   -0,318
986,100; 2965,141;   -0,455;   -0,318
986,651; 3005,778;   -0,818;    0,045
987,201; 2971,778;   -1,000;   -0,591
987,751; 3064,323;    0,818;    2,864
988,302; 3056,505;    2,636;    1,500
988,852; 3068,414;    0,455;   -1,136
989,402; 3093,051;    0,091;    0,682
989,952; 3021,687;   -2,182;    0,864
990,502; 3131,596;   -0,091;    0,682
991,052; 3090,414;   -0,727;    0,045
991,602; 2950,778;   -2,909;    1,318
992,152; 2954,505;    0,455;    0,682
992,702; 2937,869;    1,364;   -0,045
993,252; 2853,596;   -3,000;   -0,500
993,802; 2943,778;   -0,273;    1,318
994,352; 3188,051;   -1,545;    1,136
994,901; 3280,323;   -0,182;    3,227
995,451; 3180,778;   -0,182;    0,318
996,000; 3274,323;    1,636;    0,318
996,550; 2998,869;    2,273;    0,227
997,100; 2991,869;    1,273;   -0,045
997,649; 3272,141;    2,182;    0,955
998,198; 2883,869;    1,727;   -1,500
998,748; 3089,051;    1,091;   -2,318
999,297; 3001,505;   -0,818;   -0,409
999,846; 3068,960;    1,000;   -0,773
1000,395; 3113,323;   -0,818;    0,500
1000,945; 3048,505;    1,818;   -0,773
1001,494; 3148,505;    2,364;    0,682
1002,043; 3144,869;    4,636;    0,864
1002,592; 2983,141;   -1,091;    1,955
1003,141; 3140,596;   -0,455;   -0,682
1003,690; 2985,141;    1,727;    0,500
1004,238; 3077,141;    1,455;   -0,045
1004,787; 2699,141;    1,364;    1,227
1005,336; 2930,232;    0,364;    0,682
1005,885; 3083,141;    1,364;   -2,773
1006,433; 3222,687;    0,545;    0,955
1006,982; 3280,232;    0,455;    1,682
1007,531; 3180,232;   -1,818;   -0,227
1008,079; 3149,323;   -2,273;    0,500
1008,627; 3289,505;   -1,455;    0,409
1009,176; 3023,141;    0,000;   -1,955
1009,724; 3067,687;    1,091;    0,864
1010,273; 3124,687;    1,273;    0,500
1010,821; 3225,051;    0,091;    1,409
1011,369; 2956,596;   -1,364;    1,318
1011,917; 2927,232;   -1,364;   -0,591
1012,465; 3209,960;    1,273;   -1,591
1013,013; 3333,141;    2,091;   -1,682
1013,561; 3204,232;    0,455;   -0,773
1014,109; 3256,778;   -1,909;    1,682
1014,657; 3130,141;    0,364;    0,591
1015,205; 3257,323;    1,636;   -0,955
1015,753; 3274,141;   -0,545;   -1,409
1016,301; 3325,869;   -2,636;    3,045
1016,848; 3344,778;   -1,273;    0,409
1017,396; 3374,505;    2,545;    0,045
1017,944; 3494,323;    1,182;    1,864
1018,491; 3257,596;    0,273;    1,409
1019,039; 3417,141;    0,455;    0,591
1019,586; 3328,869;   -1,364;    1,682
1020,134; 3424,505;    0,455;    1,500
1020,681; 3434,505;    0,182;   -1,136
1021,228; 3446,778;    2,909;   -2,227
1021,776; 3275,232;    1,182;   -1,136
1022,323; 3504,869;    0,455;    0,773
1022,870; 3426,051;   -1,000;   -0,045
1023,417; 3320,414;    2,636;    1,864
1023,964; 3470,414;    2,636;    1,227
1024,511; 3302,778;    1,000;    0,773
1025,058; 3100,414;    3,182;   -0,045
1025,605; 3150,869;   -2,273;    3,136
1026,152; 3381,687;    1,727;   -0,591
1026,699; 3094,596;    1,818;    1,318
1027,245; 3264,141;   -0,091;    0,318
1027,792; 3463,323;   -1,000;    1,409
1028,339; 3356,505;    2,364;   -0,045
1028,885; 3211,141;    1,000;   -0,227
1029,432; 3148,051;   -0,091;    0,227
1029,978; 3215,596;   -1,000;   -1,591
1030,525; 3113,960;    1,000;    0,409
1031,071; 3348,141;   -1,364;    1,136
1031,618; 3462,051;    0,364;    1,682
1032,164; 3229,869;   -0,091;    3,045
1032,710; 3279,323;    1,636;   -1,500
1033,256; 3203,414;   -0,636;   -0,136
1033,803; 3190,232;   -0,545;    1,500
1034,349; 2905,323;   -1,364;    0,136
1034,895; 3071,232;    0,000;   -0,318
1035,441; 3054,687;   -0,818;    0,318
1035,987; 3052,687;   -2,364;   -0,682
1036,533; 3051,414;   -1,455;   -0,955
1037,078; 3244,414;    1,455;    1,682
1037,624; 3069,232;    2,455;   -0,955
1038,170; 3108,960;    0,455;   -0,318
1038,716; 3002,505;    1,636;   -0,409
1039,261; 2898,687;   -2,273;   -0,773
1039,807; 2831,596;   -0,091;    3,409
1040,352; 2892,051;   -1,909;   -0,318
1040,898; 2939,141;   -1,545;   -0,682
1041,443; 2858,505;   -1,455;   -2,591
1041,989; 2883,141;    1,091;    1,591
1042,534; 2755,596;   -0,364;    2,591
1043,079; 2870,414;    2,909;    0,955
1043,625; 2674,869;    1,818;    0,500
1044,170; 2732,414;   -1,364;    1,045
1044,715; 2966,141;    2,455;    0,955
1045,260; 2790,596;    2,182;   -0,955
1045,805; 2825,051;    1,182;   -0,591
1046,350; 2754,687;    1,364;   -0,409
1046,895; 2715,051;    2,909;    1,591
1047,440; 2670,596;    5,364;    0,409
1047,985; 2564,687;    2,818;   -0,955
1048,530; 2500,960;    1,545;    1,227
1049,074; 2558,869;    0,000;    0,318
1049,619; 2537,232;   -1,364;    1,955
1050,164; 2337,051;    0,455;    0,227
1050,708; 2372,323;   -0,455;    0,045
1051,253; 2733,505;    1,273;   -2,227
1051,797; 2445,323;    0,818;   -1,318
1052,342; 2456,960;   -1,182;    1,045
1052,886; 2465,869;    0,364;   -1,409
1053,430; 2341,141;   -1,364;    0,136
1053,975; 2343,778;   -0,818;   -0,318
1054,519; 2328,323;   -0,727;    3,227
1055,063; 2344,141;    0,909;    1,318
1055,607; 2219,051;   -0,182;    0,227
1056,151; 2257,051;    2,909;    1,682
1056,695; 2179,778;    2,273;   -1,136
1057,239; 2239,051;   -1,727;   -0,682
1057,783; 2256,869;    0,818;   -1,500
1058,327; 2192,960;    0,000;    1,409
1058,871; 2425,323;   -0,545;    1,318
1059,415; 2147,596;   -0,818;   -0,045
1059,958; 2407,687;    1,455;    2,591
1060,502; 2100,505;   -1,000;   -0,773
1061,046; 2002,323;    0,364;   -0,955
1061,589; 1991,960;   -3,000;   -1,136
1062,133; 1867,141;   -1,273;    1,864
1062,676; 1817,960;    1,182;    0,864
1063,220; 1817,232;    1,091;    0,500
1063,763; 1844,232;    0,909;    1,136
1064,306; 1910,232;   -0,909;    1,864
1064,849; 1804,596;   -0,909;    0,591
1065,393; 1808,141;    2,000;   -1,500
1065,936; 1914,414;    0,182;   -0,409
1066,479; 1794,141;   -1,455;    1,318
1067,022; 1821,960;   -0,273;   -0,227
1067,565; 1732,141;   -0,091;   -1,318
1068,108; 1749,505;    0,727;   -0,591
1068,651; 1728,596;   -0,636;    1,409
1069,194; 1667,051;   -0,455;   -1,682
1069,736; 1651,141;   -1,273;    0,955
1070,279; 1629,051;   -1,364;   -0,500
1070,822; 1673,778;   -2,000;   -0,318
1071,364; 1778,869;   -0,364;    1,318
1071,907; 1596,960;   -0,727;    3,227
1072,450; 1499,596;    0,000;   -0,045
1072,992; 1497,232;   -0,273;    3,136
1073,535; 1640,414;    2,091;    2,136
1074,077; 1412,505;   -0,727;    2,045
1074,619; 1380,778;   -1,364;    0,591
1075,161; 1419,141;   -1,091;    1,500
1075,704; 1618,232;    1,545;    1,227
1076,246; 1407,687;   -0,182;    0,682
1076,788; 1330,232;   -0,364;    1,773
1077,330; 1412,323;    1,273;    2,136
1077,872; 1376,869;    0,909;    0,955
1078,414; 1602,505;    2,727;    0,773
1078,956; 1325,414;    1,273;   -0,227
1079,498; 1580,141;    1,636;    0,318
1080,040; 1284,778;    1,909;   -1,318
1080,581; 1230,687;    1,636;   -0,318
1081,123; 1153,596;    0,091;   -0,773
1081,665; 1195,323;   -1,182;   -0,955
1082,206; 1510,960;    1,364;   -0,500
1082,748; 1367,687;    0,727;    2,045
1083,289; 1227,505;   -2,000;    1,318
1083,831; 1133,141;   -0,545;    0,227
1084,372; 1173,141;    0,000;    0,591
1084,913; 1186,778;    1,091;    0,864
1085,455; 1151,323;   -1,909;   -2,045
1085,996; 1131,051;   -2,273;    0,136
1086,537; 1155,323;   -0,091;    0,864
1087,078; 1180,596;   -0,909;   -2,136
1087,619; 1228,505;   -1,273;    0,227
1088,160; 1133,051;    0,000;    1,318
1088,701; 1120,141;   -1,091;    0,682
1089,242; 1050,141;    1,364;   -2,227
1089,783; 1155,505;   -0,273;    1,409
1090,324; 1130,687;    0,455;    0,682
1090,865; 1003,869;    2,727;   -0,409
1091,405;  967,596;    0,727;    2,227
1091,946;  997,960;    0,182;   -0,955
1092,487;  916,778;    0,818;   -1,409
1093,027; 1101,232;   -1,364;   -1,500
1093,568;  945,505;   -0,364;    1,227
1094,108; 1041,505;    0,273;    1,773
1094,649;  973,505;   -1,182;    0,136
1095,189;  913,323;   -0,636;   -0,682
1095,729;  860,960;   -0,091;    0,955
1096,269;  874,687;    0,727;   -0,955
1096,810; 1196,414;   -1,364;    0,500
1097,350; 1012,051;    1,364;   -0,773
1097,890;  918,141;    0,364;    1,227
1098,430; 1173,323;    2,364;    2,864
1098,970; 1044,778;    2,182;    1,682
1099,510;  898,323;    0,545;   -2,318
1100,050;  824,414;    1,000;   -1,591
1100,589;  802,414;   -0,727;   -0,318
1101,129;  925,323;    0,818;   -0,955
1101,669; 1075,778;    1,727;    2,136
1102,209;  894,596;   -0,091;    2,227
1102,748;  850,414;    0,000;    0,955
1103,288;  836,141;    1,273;   -1,227
1103,827;  867,687;    3,091;   -2,227
1104,367;  739,414;   -0,091;   -2,409
1104,906;  700,414;    1,364;   -1,136
1105,445;  775,778;    0,636;   -1,136
1105,985;  719,323;   -0,727;    1,500
1106,524;  770,414;   -1,727;   -0,682
1107,063;  743,960;   -2,727;    1,409
1107,602;  722,414;   -1,909;   -1,500
1108,141;  646,232;   -1,909;    1,500
1108,680;  746,232;   -3,455;   -0,591
1109,219;  685,869;   -0,909;   -0,500
1109,758;  674,232;    0,455;    0,682
1110,297;  653,505;    1,000;   -0,682
1110,836;  597,141;   -0,727;    0,955
1111,375;  768,960;   -2,545;    0,409
1111,913;  780,141;   -1,000;    0,773
1112,452;  719,323;   -0,273;    0,136
1112,991;  591,960;    1,091;    1,955
1113,529;  548,505;   -0,818;   -0,045
1114,068;  627,232;   -0,273;    2,955
1114,606;  524,414;   -0,364;   -0,955
1115,144;  693,596;   -1,273;    1,045
1115,683;  620,051;   -0,727;    0,318
1116,221;  673,596;   -0,455;   -0,864
1116,759;  578,869;    0,636;   -0,864
1117,297;  781,414;    0,000;    1,864
1117,836;  581,323;   -2,182;   -1,227
1118,374;  599,323;    0,182;   -0,682
1118,912;  534,778;    0,909;    2,682
1119,450;  515,596;    1,000;    0,864
1119,988;  580,141;    1,545;    2,136
1120,525; 1046,141;    5,091;    3,318
1121,063;  736,051;    1,182;    1,864
1121,601;  542,505;   -0,909;   -1,227
1122,139;  488,596;   -0,727;   -2,045
1122,676;  693,232;   -0,727;    2,773
1123,214;  626,596;   -1,182;    4,409
1123,751;  434,869;    1,727;    2,227
1124,289;  578,687;   -0,091;   -0,409
1124,826;  431,141;    1,727;    0,227
1125,364;  359,051;    1,727;   -0,955
1125,901;  551,414;    1,182;    1,227
1126,438;  662,232;    0,818;    0,955
1126,975;  377,505;   -0,727;   -0,773
1127,513;  448,596;    0,273;    2,136
1128,050;  354,869;    1,636;   -0,682
1128,587;  461,505;    2,000;   -0,227
1129,124;  513,414;    0,091;    1,318
1129,661;  367,051;    0,273;    0,227
1130,198;  535,596;    1,636;    0,773
1130,734;  483,869;    0,182;    1,409
1131,271;  340,778;   -0,909;    0,864
1131,808;  509,960;    2,909;    3,045
1132,345;  376,051;    1,545;    0,318
1132,881;  251,141;   -1,545;   -1,864
1133,418;  389,051;    0,727;   -1,136
1133,954;  317,051;    2,455;   -2,682
1134,491;  405,778;    1,364;   -0,773
1135,027;  300,960;    2,364;    0,864
1135,564;  397,960;    0,273;    2,955
1136,100;  376,414;    0,364;    2,136
1136,636;  251,778;   -1,273;   -1,045
1137,172;  357,687;    0,000;   -1,045
1137,708;  276,687;   -1,364;   -1,045
1138,245;  285,778;    1,273;   -1,227
1138,781;  233,596;    1,091;   -3,318
1139,317;  317,414;    1,273;   -1,409
1139,852;  293,960;    3,091;    0,136
1140,388;  413,778;   -1,182;   -0,409
1140,924;  289,778;   -1,091;   -2,227
1141,460;  226,141;   -1,636;    0,136
1141,996;  157,505;   -1,364;    2,682
1142,531;  211,687;    1,364;    3,318
1143,067;  437,778;    1,182;    1,045
1143,602;  498,960;   -0,091;   -0,318
1144,138;  338,596;   -2,636;    1,045
1144,673;  202,687;   -1,455;    1,409
1145,209;  278,414;   -1,909;   -0,318
1145,744;  190,141;   -0,727;    0,864
1146,279;  329,596;    1,818;   -0,136
1146,815;  237,505;    1,545;   -2,682
1147,350;  284,596;   -1,364;    0,045
1147,885;  191,414;   -0,818;   -1,318
1148,420;  192,323;   -2,273;    0,773
1148,955;  167,596;   -1,727;    1,864
1149,490;  193,141;   -0,909;   -1,591
1150,025;  182,141;    0,455;   -1,773
1150,560;  298,051;    1,091;   -0,955
1151,094;  260,596;    1,455;   -0,591
1151,629;  270,232;    1,636;    0,864
1152,164;  191,323;    1,364;    1,318
1152,698;  151,505;   -0,182;   -0,136
1153,233;  115,323;    0,091;   -0,682
1153,767;  156,323;   -3,000;   -2,318
1154,302;  203,778;   -1,455;    1,773
1154,836;  205,596;   -0,455;   -2,136
1155,371;  255,323;   -1,364;    3,682
1155,905;  202,414;   -0,636;    1,682
1156,439;  177,869;   -0,636;   -0,500
1156,973;  220,051;    0,364;    0,318
1157,507;  141,232;   -0,364;    0,682
1158,042;  173,778;   -0,727;    1,045
1158,576;  227,596;    0,182;    1,773
1159,110;  221,596;   -0,818;    2,409
1159,643;  187,323;    0,636;   -0,045
1160,177;  118,869;   -1,545;    1,500

