
Integration time [ms]:   0,040
Averaging Nr. [scans]: 11
Smoothing Nr. [pixels]: 0
Data measured with spectrometer [name]: 7318044SP
Wave   ;Sample   ;Dark     ;Reference
[nm]   ;[counts] ;[counts] ;[counts] 

186,757;    5,725;   31,551;    1,318
187,357;   41,661;   22,551;    0,955
187,958;   18,656;   15,460;   -1,591
188,558;   46,711;    8,915;   -1,227
189,159;   17,046;    6,733;   -4,500
189,759;   -9,358;    7,278;   -3,591
190,360;  -10,962;    2,824;   -2,136
190,960;   13,817;    2,915;   -4,136
191,560;   22,533;    3,189;   -6,591
192,161;  237,785;    4,372;   -3,500
192,761;   96,906;    4,010;   -3,227
193,361;   42,898;    1,556;   -3,773
193,962;   75,785;    2,010;   -2,682
194,562;   11,050;    1,189;   -3,955
195,162;   32,932;   -2,448;   -2,227
195,762;  132,556;   -3,176;   -0,045
196,362;   85,730;    1,370;   -2,500
196,963;   -3,937;    2,006;   -0,864
197,563;   43,082;    1,551;   -0,955
198,163;   -0,097;    0,096;   -0,682
198,763;   15,726;    1,733;   -0,500
199,363;   59,351;    3,096;   -0,500
199,963;   39,937;    0,369;    0,409
200,563;   23,878;    2,823;   -1,409
201,163;    4,113;    3,277;   -0,227
201,763;   41,714;    3,732;    0,318
202,363;    0,835;    1,459;    1,500
202,963;   38,557;    1,459;    1,045
203,563;   83,422;    0,277;    0,500
204,162;   13,995;    2,096;   -1,864
204,762;   15,476;    0,550;    0,591
205,362;   -0,857;    3,004;    1,955
205,962;   29,106;    3,096;    1,955
206,562;   21,659;    1,823;    2,318
207,161;   -0,117;   -0,087;    0,318
207,761;   72,237;    1,277;    2,409
208,361;    9,737;   -0,268;    1,409
208,960;   39,326;    0,459;    1,500
209,560;   25,406;    1,277;    1,591
210,160;   36,036;    0,550;    1,864
210,759;    9,635;    4,186;    1,227
211,359;   -4,490;    1,459;    1,045
211,958;  101,602;    1,277;    2,045
212,558;  108,197;    1,732;    1,864
213,157;   35,014;    1,822;    1,500
213,757;  187,461;    3,822;   -0,227
214,356;   68,655;    1,277;   -0,409
214,956;  160,603;    3,095;    0,409
215,555;   42,677;    2,095;    2,136
216,154;   10,982;   -2,723;   -0,591
216,754;    5,423;    0,277;    0,773
217,353;   33,699;   -0,268;   -1,045
217,952;  -15,301;   -0,178;    0,318
218,552;   44,797;    1,368;   -0,773
219,151;    8,550;    0,277;    0,955
219,750;   -0,253;    0,004;   -0,227
220,349;   -3,837;   -0,451;    1,045
220,948;   61,806;   -1,360;    1,136
221,548;    6,574;    0,913;    1,227
222,147;   16,299;   -0,087;   -0,409
222,746;   85,876;   -0,451;   -0,955
223,345;   32,820;    0,731;    0,500
223,944;   28,837;   -0,451;    0,773
224,543;   36,928;    1,004;   -1,409
225,142;   28,744;    0,094;    0,136
225,741;   31,307;   -0,814;    1,045
226,340;   15,193;   -0,451;   -0,955
226,939;   80,467;   -0,996;   -0,136
227,538;   20,501;   -0,360;   -0,773
228,137;   85,106;   -0,814;    0,864
228,735;   50,917;   -0,541;    1,227
229,334;  -11,006;   -0,905;   -0,227
229,933;   75,255;    0,459;    0,591
230,532;   80,808;    1,186;   -0,409
231,131;  127,422;    1,732;    0,318
231,729;   57,493;   -2,450;   -2,318
232,328;   12,803;   -0,723;   -1,500
232,927;   33,529;    1,004;   -0,500
233,525;   22,126;    3,640;    0,045
234,124;   34,776;    2,368;   -1,591
234,723;    5,286;    0,913;   -1,045
235,321;   -2,363;    2,277;    0,136
235,920;    7,773;    1,186;   -1,227
236,518;   88,851;    3,459;    0,318
237,117;   15,184;    0,004;   -0,227
237,715;   23,332;    0,640;   -0,500
238,314;   26,829;   -0,087;   -2,318
238,912;   81,044;   -0,723;   -1,409
239,510;   42,107;    0,459;   -1,227
240,109;   99,597;    0,004;    3,773
240,707;   69,145;   -0,996;    1,227
241,305;    1,317;    0,550;    0,136
241,904;   47,681;   -0,178;   -2,045
242,502;  105,429;   -0,632;   -0,227
243,100;   57,773;   -0,087;   -0,955
243,698;   11,557;    0,732;    1,682
244,297;   24,819;   -0,632;    0,682
244,895;   25,259;   -0,269;   -2,318
245,493;   97,751;    2,186;   -0,591
246,091;  103,054;    1,368;   -1,318
246,689;   60,411;    1,004;    0,591
247,287;   42,644;    0,822;   -1,136
247,885;   23,328;   -1,451;    1,227
248,483;    7,332;    1,822;   -0,500
249,081;   57,064;    0,185;    1,591
249,679;   58,432;   -0,178;    1,682
250,277;    7,098;   -1,723;    0,864
250,875;   58,325;   -1,087;   -1,045
251,473;   18,224;   -1,178;    0,500
252,071;   67,877;    1,459;    1,045
252,669;   26,837;   -1,814;    0,318
253,267;   11,255;   -0,087;    0,773
253,864;   25,189;   -0,360;    0,682
254,462;   82,944;    1,640;    1,591
255,060;    5,909;   -0,269;    1,318
255,658;   12,200;    0,822;   -0,136
256,255;   21,910;    0,186;   -2,045
256,853;   45,692;   -0,269;    1,409
257,451;   27,191;    0,822;    1,864
258,048;  217,793;    1,822;    1,864
258,646;   93,210;    1,731;   -1,045
259,243;  138,692;   -0,087;    2,227
259,841;   80,266;   -0,814;    0,318
260,438;   21,030;   -0,087;    0,864
261,036;   64,586;   -1,905;    1,409
261,633;   19,305;   -0,087;    2,227
262,231;    8,940;    2,731;   -0,045
262,828;   -2,190;   -0,905;    1,136
263,425;   22,688;    0,913;   -0,591
264,023;   26,273;    0,186;    0,045
264,620;   96,741;   -0,360;   -0,318
265,217;  157,298;   -2,087;    3,136
265,815;   45,232;   -1,905;    2,136
266,412;   96,494;    0,731;    0,136
267,009;   87,912;   -1,451;    0,773
267,606;  136,119;    0,822;   -0,955
268,203;   59,374;   -0,269;   -0,591
268,801;   57,863;    1,731;    0,591
269,398;   23,563;   -0,360;    2,500
269,995;  103,992;    0,277;    1,591
270,592;   82,572;   -0,632;   -0,500
271,189;   28,414;    0,186;    0,409
271,786;   19,637;   -0,632;    1,227
272,383;  128,509;   -1,087;    0,227
272,980;   62,529;    0,277;    0,318
273,577;   39,671;    0,004;    1,227
274,174;   32,913;    0,822;    2,591
274,771;  102,473;   -0,814;   -0,773
275,367;  308,846;    2,277;    1,409
275,964;  175,540;    0,731;   -0,500
276,561;   78,403;    1,549;   -1,045
277,158;   26,523;    0,095;   -1,773
277,755;  159,700;    2,185;    0,409
278,351;  108,657;   -0,451;   -1,500
278,948;  137,479;   -0,815;    0,045
279,545;  106,428;   -1,360;    2,318
280,141;  175,436;   -1,723;   -2,045
280,738;  178,187;   -0,451;   -0,136
281,334;   74,382;   -1,633;    0,591
281,931;   62,851;   -0,087;   -1,318
282,528;  141,576;    0,822;   -0,500
283,124;  169,216;   -1,087;   -0,500
283,721;  158,641;   -0,451;    1,409
284,317;   99,105;    0,185;    2,500
284,913;  189,077;   -1,360;    0,591
285,510;  297,714;    0,640;   -0,318
286,106;  207,500;   -2,269;   -0,955
286,703;  129,153;   -0,360;    1,955
287,299;   89,811;   -1,451;   -0,591
287,895;   69,865;    0,822;   -1,045
288,491;   64,563;    0,186;    2,136
289,088;  136,139;   -2,360;    2,409
289,684;  177,291;   -1,723;    1,500
290,280;  297,416;    0,368;    0,682
290,876;  256,520;    1,822;    5,500
291,472;  221,920;    1,276;    2,227
292,068;  249,150;    1,367;    0,227
292,665;  177,448;    2,095;    0,773
293,261;  121,065;    0,276;    2,136
293,857;  275,493;    2,913;    2,136
294,453;  211,976;    3,550;    0,955
295,049;  410,477;   -0,268;    1,955
295,644;  296,366;    0,095;    0,136
296,240;  184,852;   -0,905;   -0,136
296,836;  309,790;   -0,995;    0,318
297,432;  443,425;    1,096;   -0,500
298,028;  499,126;    0,732;    0,773
298,624;  388,720;    1,459;    1,864
299,220;  379,898;    2,368;    0,591
299,815;  396,592;    1,005;   -0,409
300,411;  510,295;    0,914;    1,773
301,007;  651,924;    1,368;    0,227
301,602;  506,408;   -0,541;   -2,318
302,198;  640,763;    0,732;   -0,773
302,794;  489,480;    1,187;   -0,500
303,389;  452,774;   -1,177;    1,045
303,985;  536,944;    0,550;    1,409
304,580;  677,564;    1,459;    1,591
305,176;  595,808;   -3,086;    0,136
305,771;  476,812;   -1,268;   -1,227
306,367;  895,646;    4,095;    0,136
306,962;  645,499;    0,641;    1,500
307,558;  694,161;   -0,450;    0,136
308,153;  771,451;    1,095;   -1,136
308,748;  533,650;   -0,814;    1,682
309,344;  942,315;   -0,632;   -1,318
309,939;  953,467;   -1,905;   -1,318
310,534;  590,346;   -0,086;   -1,682
311,130;  537,267;    0,459;   -2,500
311,725;  485,414;    1,004;   -0,500
312,320;  538,389;    2,459;    0,045
312,915;  648,989;    1,459;   -1,045
313,510;  856,908;    1,550;   -0,500
314,105;  535,952;    1,096;    1,409
314,700;  375,644;   -3,086;   -1,045
315,295;  446,837;   -0,904;    0,045
315,890;  364,666;    1,277;    0,864
316,485;  469,791;   -0,359;   -0,318
317,080;  350,785;   -3,086;    1,591
317,675;  656,669;    2,005;   -0,682
318,270;  843,980;    5,550;    3,318
318,865;  718,246;    3,278;    3,045
319,460;  543,648;   -0,904;    0,591
320,055;  360,878;   -0,541;   -1,227
320,650;  357,356;   -1,995;   -0,591
321,244;  345,185;   -0,177;   -1,409
321,839;  347,028;   -1,541;   -0,227
322,434;  407,934;   -1,086;   -1,591
323,029;  325,138;    1,732;    1,591
323,623;  289,104;    1,550;    0,773
324,218;  464,908;    2,368;    1,409
324,812;  404,578;    1,096;    1,591
325,407;  410,920;   -0,814;    2,045
326,002;  539,356;    0,277;   -0,409
326,596;  476,714;    0,914;    1,318
327,191;  327,322;    0,823;   -1,045
327,785;  330,259;   -0,813;   -0,227
328,379;  349,900;    1,368;    0,136
328,974;  423,569;    0,914;   -3,955
329,568;  452,527;    0,186;   -2,409
330,163;  549,003;    2,096;    1,045
330,757;  399,689;    2,459;    1,591
331,351;  355,463;    0,459;    0,682
331,945;  383,110;    0,914;    1,409
332,540;  570,106;   -1,723;   -0,591
333,134;  581,579;   -1,086;    0,773
333,728;  594,074;    0,005;    0,318
334,322;  515,009;   -1,177;   -0,864
334,916;  527,259;    0,277;    0,955
335,510;  770,027;   -0,450;   -0,136
336,105;  815,231;   -1,086;    1,591
336,699;  728,582;   -1,086;    0,591
337,293;  813,940;   -1,723;    0,318
337,887;  785,240;   -2,723;    1,955
338,481; 1023,223;    0,459;    0,591
339,074; 1232,070;   -0,359;    2,682
339,668; 1245,003;   -1,632;    1,227
340,262; 1978,619;    1,732;    3,227
340,856; 1545,387;    1,822;   -0,682
341,450; 1184,326;    1,004;    1,864
342,044; 1409,758;    1,459;    0,136
342,637; 1622,961;    0,913;   -2,136
343,231; 1736,620;   -2,360;    0,682
343,825; 1572,393;   -1,086;   -0,591
344,419; 1663,606;   -1,995;    0,500
345,012; 2313,394;    2,459;    4,045
345,606; 2197,411;    4,641;    1,591
346,199; 1950,081;   -1,813;   -0,227
346,793; 2084,286;    1,914;    2,045
347,386; 2041,721;   -0,813;   -1,136
347,980; 1993,872;   -0,268;   -0,045
348,573; 2150,364;    2,278;    0,409
349,167; 2371,116;    5,278;    4,773
349,760; 2535,799;    2,914;    2,682
350,354; 2469,414;   -0,813;    1,136
350,947; 2507,229;    1,096;    1,682
351,540; 2316,520;   -0,358;   -1,409
352,134; 2230,468;    1,096;    1,136
352,727; 2362,382;   -0,086;    1,136
353,320; 2365,808;    0,005;    0,591
353,913; 2240,155;   -1,995;    1,864
354,507; 2523,099;    0,823;   -1,227
355,100; 2520,784;    0,460;    0,864
355,693; 2611,164;    2,005;    2,409
356,286; 2402,006;    0,823;    2,773
356,879; 2410,085;   -0,722;    1,227
357,472; 2248,866;   -0,904;    1,500
358,065; 2386,540;   -0,722;    2,500
358,658; 2282,078;   -0,540;    2,318
359,251; 2121,456;   -1,631;   -0,591
359,844; 2128,338;   -1,904;   -1,136
360,437; 2271,584;   -2,995;    0,045
361,030; 2239,878;    1,369;   -0,682
361,623; 2060,450;    2,824;    0,318
362,215; 2212,734;   -0,086;    2,045
362,808; 2030,412;   -2,358;   -1,682
363,401; 2034,817;   -2,449;    0,136
363,994; 2165,994;   -0,631;   -1,500
364,586; 1940,371;    0,824;   -1,500
365,179; 1938,733;   -0,449;   -1,136
365,772; 1648,264;   -1,995;    2,045
366,364; 1769,471;    1,915;   -3,227
366,957; 1947,970;    2,279;   -0,045
367,549; 1826,101;    2,188;   -0,864
368,142; 1751,746;    1,825;   -1,500
368,734; 1724,886;    0,734;   -2,136
369,327; 1649,663;    1,643;   -0,500
369,919; 1654,765;   -1,538;    0,409
370,512; 1697,737;   -1,083;   -0,500
371,104; 1818,289;   -0,901;    1,591
371,696; 1883,068;    1,191;   -0,955
372,289; 1752,234;    0,373;    1,136
372,881; 1695,326;   -2,080;    1,318
373,473; 1522,044;   -2,170;    1,136
374,066; 1593,017;   -0,169;    0,500
374,658; 1532,071;    0,378;    1,136
375,250; 1533,836;    0,653;   -1,409
375,842; 1531,946;    0,473;   -0,045
376,434; 1457,930;   -0,435;   -0,409
377,026; 1600,538;    0,204;   -2,500
377,618; 1556,618;   -0,158;   -0,682
378,210; 1440,809;   -0,338;   -1,955
378,802; 1319,854;    0,754;   -0,591
379,394; 1762,431;    1,846;    0,682
379,986; 1639,354;    1,393;   -0,955
380,578; 1565,946;   -0,153;    0,773
381,170; 1652,470;   -0,972;    0,045
381,762; 1507,911;    0,755;    1,409
382,354; 1492,720;   -0,065;   -1,318
382,945; 1446,492;   -2,976;    0,318
383,537; 1449,279;   -2,705;   -1,955
384,129; 1497,677;   -2,160;   -1,136
384,721; 1598,040;   -0,252;    0,955
385,312; 1474,253;   -0,161;   -0,955
385,904; 1646,103;   -2,706;    1,591
386,496; 1359,048;   -0,979;    1,045
387,087; 1533,897;    1,022;    2,500
387,679; 1456,423;   -1,160;    0,045
388,270; 1519,809;    2,840;    2,045
388,862; 1472,862;    1,295;   -0,318
389,453; 1339,247;   -0,887;    1,045
390,045; 1478,578;   -0,705;   -2,682
390,636; 1412,722;    0,204;   -0,591
391,227; 1369,049;   -0,523;   -0,045
391,819; 1450,258;    0,204;    0,773
392,410; 1675,210;    1,022;    0,045
393,001; 1505,917;   -0,979;   -1,591
393,593; 1607,599;    1,930;   -0,045
394,184; 1633,840;    1,385;   -0,409
394,775; 1394,880;    1,839;    2,136
395,366; 1480,143;    1,385;    0,773
395,957; 1617,074;    0,113;    0,136
396,548; 1558,891;   -0,342;    2,682
397,139; 1765,159;   -2,433;    0,591
397,730; 1607,187;   -1,888;    0,955
398,321; 1598,899;   -1,252;    0,955
398,912; 1518,624;   -0,615;    0,136
399,503; 1611,551;   -3,524;   -1,409
400,094; 1492,604;    0,294;    1,682
400,685; 1455,631;   -0,433;    0,045
401,276; 1366,485;    0,930;   -0,955
401,867; 1432,253;   -0,888;    0,773
402,458; 1423,347;   -2,251;   -2,318
403,048; 1535,120;    1,112;    0,591
403,639; 1355,541;    0,840;    0,864
404,230; 1611,803;    2,476;    0,318
404,821; 1620,370;   -0,615;    0,045
405,411; 1507,345;    1,203;   -2,591
406,002; 1297,530;   -1,252;   -1,136
406,592; 1564,522;    2,294;    0,045
407,183; 1409,874;    0,566;   -1,500
407,774; 1301,752;    3,475;   -0,136
408,364; 1299,020;    0,930;    0,409
408,954; 1358,609;    0,384;    1,227
409,545; 1348,225;    1,021;    1,045
410,135; 1174,692;    1,293;    0,500
410,726; 1129,981;    1,838;    0,318
411,316; 1366,880;    0,111;    0,773
411,906; 1077,156;   -0,253;   -0,409
412,497;  988,932;   -1,070;   -0,045
413,087;  954,557;   -1,980;   -0,227
413,677;  945,741;   -0,707;    3,864
414,267;  857,862;    0,656;    1,409
414,857;  777,904;   -2,980;    4,227
415,448;  774,260;    0,839;    0,500
416,038;  751,055;    0,020;   -0,591
416,628;  760,720;   -0,889;    0,409
417,218;  823,694;    0,565;    3,318
417,808;  999,008;    0,202;   -0,409
418,398;  773,138;    0,020;    2,682
418,988;  586,504;    2,020;    0,591
419,578;  663,204;   -0,707;    1,409
420,168;  622,261;   -1,343;   -0,955
420,757;  777,475;   -1,343;   -1,500
421,347;  589,021;    0,111;   -0,227
421,937;  501,396;    2,292;    1,409
422,527;  644,486;    0,838;   -0,773
423,116;  804,346;   -0,253;   -0,045
423,706;  416,949;   -1,889;    0,318
424,296;  312,117;    1,384;    0,682
424,885;  493,662;   -0,071;   -3,045
425,475;  450,585;    1,474;   -2,864
426,065;  265,876;   -0,980;   -0,318
426,654;  229,772;   -0,435;   -0,318
427,244;  567,918;    0,020;    1,409
427,833;  509,869;    1,383;   -0,500
428,423;  323,117;   -0,526;    1,136
429,012;  297,487;   -0,344;   -1,136
429,601;  446,071;   -1,344;    0,136
430,191;  302,468;    1,292;    4,318
430,780;  148,917;   -0,344;   -0,409
431,369;  382,078;    0,746;   -0,045
431,959;  242,236;   -1,254;    0,500
432,548;  148,562;   -1,163;   -0,045
433,137;   56,646;   -1,254;   -1,318
433,726;  142,674;    0,292;    0,500
434,315;  149,158;   -0,526;    2,409
434,905;  274,105;   -1,254;    1,409
435,494;  264,544;    0,746;    0,955
436,083;   87,403;   -0,981;   -0,955
436,672;  180,305;    0,110;    0,500
437,261;  115,334;    0,292;   -1,955
437,850;  376,868;    1,383;    0,682
438,439;  427,365;    3,291;    1,955
439,027;  529,876;    3,655;    1,773
439,616;  444,047;    2,927;    1,227
440,205;  195,337;    0,200;   -2,136
440,794;  131,445;    2,109;   -0,045
441,383;   51,041;   -1,346;   -0,591
441,971;   11,104;   -2,436;    0,591
442,560;   18,576;    0,563;   -1,773
443,149;  -80,797;    0,379;   -1,318
443,737;  -36,500;   -0,074;   -2,318
444,326;   -7,494;    0,018;    0,318
444,915;   45,140;   -1,982;    0,864
445,503;   46,700;   -2,891;   -0,318
446,092;  311,119;    0,382;    2,136
446,680;  228,678;    0,382;    0,318
447,269;  137,617;   -0,346;   -0,318
447,857;  120,210;    0,018;   -1,773
448,445;   68,564;    0,563;    1,318
449,034;    8,646;   -1,528;   -1,136
449,622;   12,381;   -1,073;    3,500
450,210;  294,406;    2,017;    2,227
450,799;  210,091;    0,290;   -0,591
451,387;  169,361;    1,381;   -0,591
451,975;  138,830;    2,654;    0,864
452,563;  221,218;    3,472;    2,318
453,151;   53,420;   -0,528;   -1,227
453,739;   92,581;   -1,347;    0,136
454,328;  204,549;    2,381;   -2,136
454,916;  133,602;    2,562;   -0,136
455,504;  155,166;    1,017;    1,227
456,092;   37,200;    0,017;   -1,591
456,679;   -8,721;    1,472;    0,682
457,267;  410,872;    4,017;    1,045
457,855;   86,650;    1,017;    1,409
458,443;  -44,638;   -0,165;    1,682
459,031;  116,622;    0,108;    2,409
459,619;   73,681;   -1,801;    2,864
460,206;  -23,315;    0,835;    2,045
460,794;  -25,822;   -2,983;   -0,227
461,382;   34,238;   -0,529;   -0,864
461,970;   21,991;    1,198;    1,864
462,557;  -53,900;   -0,711;   -0,682
463,145;   70,264;   -3,165;   -1,682
463,732;  318,850;    2,016;   -1,045
464,320;   85,231;   -0,075;   -3,045
464,907;  229,408;    2,743;   -0,773
465,495;  147,345;    0,743;   -1,227
466,082;   60,970;   -1,984;   -0,045
466,670;   77,270;   -2,529;    1,227
467,257;  -21,933;   -1,711;    2,045
467,844;   89,435;   -0,075;    0,045
468,432;   51,586;    0,834;    3,500
469,019;   17,112;    0,925;   -1,773
469,606;   98,241;    0,470;    3,682
470,193;  130,822;   -1,439;    0,227
470,780;   85,951;   -2,075;    0,864
471,368;   15,018;   -1,257;   -0,773
471,955;  120,774;    1,379;   -0,682
472,542;   75,532;    0,652;   -1,136
473,129;  -40,035;   -0,166;    0,136
473,716;  -24,935;    1,470;    0,591
474,303;   10,897;    0,652;   -0,864
474,890;   16,620;   -1,439;   -0,500
475,477;  116,314;   -1,621;    0,409
476,064;   12,424;    1,106;   -1,591
476,650;  142,880;    0,288;    0,318
477,237;   54,062;   -0,258;    0,955
477,824;   26,500;   -1,076;    0,864
478,411;  -54,801;   -1,894;   -0,318
478,997;  -59,095;    0,560;   -0,773
479,584; -113,738;    1,196;   -0,409
480,171;   65,815;   -0,440;   -0,773
480,757;  122,944;    2,651;    0,773
481,344;    9,342;    0,469;    0,409
481,931;  -76,856;    1,105;    1,045
482,517;   57,272;   -1,258;    0,318
483,104;  136,684;    1,106;    2,864
483,690;    5,432;   -1,804;    0,045
484,276;  -14,746;   -0,895;    0,227
484,863;  203,618;    2,469;    1,136
485,449;   49,288;   -0,077;    0,318
486,035;    2,166;   -1,986;   -0,136
486,622;   94,475;   -0,895;    0,045
487,208;   13,540;    1,378;    1,500
487,794;  -65,932;    0,741;    0,318
488,380;  -69,058;    0,105;   -1,409
488,967;  -57,697;   -1,168;   -0,409
489,553;  -48,139;   -1,895;   -1,409
490,139;   37,479;    1,559;    0,773
490,725;  -45,759;    0,741;   -0,227
491,311;   -0,008;    3,287;    3,045
491,897;  -18,806;   -0,986;    1,500
492,483;   -5,172;    0,105;    1,227
493,069;  439,644;    3,923;    0,864
493,655;  143,354;    1,650;    0,682
494,241;   21,378;    1,377;   -0,955
494,826;   20,582;    0,287;   -1,045
495,412;   88,705;    2,559;   -0,682
495,998;    1,787;   -0,805;   -0,318
496,584;   59,547;    0,377;    1,045
497,169;   79,591;    1,014;   -0,682
497,755;   14,990;    0,650;    1,227
498,341;  152,311;    0,559;    0,318
498,926;  273,935;    1,832;    1,955
499,512;    6,062;    1,286;    2,955
500,097;   11,553;    0,195;   -0,318
500,683;   38,651;   -0,350;    2,136
501,268;  -17,120;   -0,169;   -0,955
501,854;    6,749;   -0,169;    1,227
502,439;    0,398;   -0,624;   -1,773
503,024;   19,863;    0,195;    0,500
503,610;   52,511;   -0,078;   -0,682
504,195;   -0,926;    0,558;    1,955
504,780;   92,908;    2,922;    1,227
505,366;  177,502;    3,013;    2,864
505,951;  107,448;    0,740;    1,045
506,536;   26,530;   -3,260;   -3,682
507,121;   84,024;    0,285;   -0,318
507,706;   39,682;    2,376;    1,045
508,291;  -14,364;    2,649;    1,136
508,876;   -5,949;   -0,988;    2,591
509,461;   56,814;   -0,169;   -0,773
510,046;  116,092;    0,194;    0,318
510,631;  140,610;   -0,351;   -0,773
511,216;   62,584;    2,467;   -0,500
511,801;  169,245;   -0,442;    2,591
512,386;  233,360;    0,740;    0,500
512,971;  298,918;   -2,988;    0,955
513,555;  409,663;   -0,897;   -1,500
514,140;  404,290;   -0,442;   -3,136
514,725;  637,661;   -0,715;   -1,136
515,309;  598,619;   -0,533;    0,318
515,894;  566,671;   -0,624;   -2,227
516,479;  735,286;   -0,624;   -0,955
517,063;  874,223;    0,376;    1,227
517,648; 1012,705;    1,012;   -1,136
518,232; 1113,260;   -0,261;   -1,409
518,817; 1475,151;   -0,079;    1,682
519,401; 1932,622;    2,194;    0,591
519,985; 1934,657;    1,103;    1,136
520,570; 2159,087;    0,830;   -1,955
521,154; 2688,879;    2,102;    0,591
521,738; 3257,437;   -2,352;    2,409
522,323; 3882,201;   -0,170;    1,682
522,907; 4129,020;    0,466;   -0,136
523,491; 4447,041;    0,557;    0,955
524,075; 4896,477;    2,284;    0,591
524,659; 5460,937;    1,466;    0,591
525,243; 5627,270;    1,739;    0,409
525,827; 6217,360;    0,648;   -0,045
526,411; 7262,664;   -1,989;   -0,136
526,995; 7921,246;   -0,352;    1,409
527,579; 8073,049;   -0,443;   -1,045
528,163; 8736,829;    0,375;   -1,500
528,747; 9111,794;    2,466;   -0,773
529,331; 9742,701;   -0,080;   -1,409
529,915;10286,057;    1,738;    0,955
530,499;10637,388;   -0,807;    1,227
531,082;10735,035;   -0,534;    1,591
531,666;10552,315;    1,374;    0,773
532,250;11424,321;    1,284;    2,682
532,833;12015,702;    0,920;    2,773
533,417;12134,567;   -1,807;    0,864
534,001;12318,640;    1,647;   -0,318
534,584;13202,728;    0,374;    0,500
535,168;13261,532;    0,465;    1,409
535,751;13525,627;    0,647;    0,045
536,334;13133,599;   -0,898;   -0,409
536,918;13867,792;    0,011;    1,591
537,501;14133,435;   -0,899;    1,318
538,085;14281,484;   -0,444;    1,045
538,668;14581,647;    0,829;    2,409
539,251;15020,082;    1,829;    3,773
539,834;15122,600;    0,101;    0,773
540,418;15198,373;   -1,990;    4,318
541,001;15371,375;   -0,990;    1,773
541,584;15448,305;    2,101;    2,227
542,167;15251,069;    1,374;    2,955
542,750;15456,437;    1,919;   -0,773
543,333;15104,270;    0,555;    2,136
543,916;15938,150;    0,192;    2,500
544,499;16586,914;   -1,354;    0,227
545,082;16621,811;    1,374;    3,591
545,665;16846,788;    1,919;    1,500
546,248;17269,179;    1,010;   -0,318
546,830;17000,839;   -0,445;    1,955
547,413;17439,057;    1,010;   -0,773
547,996;17995,842;    0,555;    0,500
548,579;17815,564;    0,919;    0,955
549,161;17625,188;    1,828;    2,682
549,744;17469,910;   -0,809;    0,409
550,326;18013,015;   -0,809;   -1,136
550,909;17796,625;    2,737;    0,591
551,492;18188,701;   -0,263;    0,227
552,074;18047,259;   -0,173;   -1,318
552,657;18591,506;    2,373;    0,045
553,239;18338,268;   -0,173;   -0,773
553,821;18317,493;   -1,082;    1,045
554,404;17812,648;    1,282;    1,136
554,986;18221,550;    0,464;    1,045
555,568;18857,675;    1,191;   -0,955
556,151;18064,202;    1,191;   -0,227
556,733;18268,060;   -0,264;   -0,864
557,315;18820,919;    0,100;    0,500
557,897;18656,404;    0,554;   -0,500
558,479;18769,996;   -1,991;    1,318
559,061;18886,295;   -0,719;   -0,864
559,643;19255,620;   -0,264;    0,045
560,225;19637,845;    1,645;    2,864
560,807;19646,983;    0,918;    0,318
561,389;19114,083;    0,554;    2,318
561,971;19923,256;    0,463;    2,136
562,553;19720,698;   -1,628;    1,591
563,135;19860,801;   -0,537;    1,136
563,717;19471,943;    3,372;    1,136
564,298;20240,409;    3,645;   -0,045
564,880;19963,675;    0,645;   -1,409
565,462;20167,675;    0,645;    1,318
566,043;21356,478;   -0,446;    2,318
566,625;20864,017;    1,918;    1,227
567,207;20716,142;    1,099;    1,682
567,788;21881,904;   -1,264;    1,500
568,370;22718,227;    1,917;   -0,500
568,951;22606,829;    0,190;    0,227
569,533;23499,688;   -0,628;   -0,500
570,114;23991,028;   -0,446;    0,682
570,695;24498,662;   -0,174;   -1,318
571,277;25077,109;   -0,265;   -1,682
571,858;25817,345;    2,008;   -1,136
572,439;26806,859;    1,554;   -1,045
573,021;26976,714;    2,099;   -2,773
573,602;27462,624;   -1,265;    0,318
574,183;28405,954;   -2,083;    2,227
574,764;28615,628;   -1,629;    0,409
575,345;29197,977;    0,917;   -0,136
575,926;29773,803;   -0,356;    0,136
576,507;29771,617;    1,099;   -0,227
577,088;31004,311;    3,099;    1,682
577,669;30971,047;    0,735;    1,955
578,250;31805,045;    0,644;   -1,045
578,831;32525,430;   -1,356;   -2,227
579,412;32738,847;   -0,810;    0,955
579,993;33613,289;    1,008;    0,227
580,573;33958,420;   -0,629;   -0,955
581,154;32945,087;    0,735;   -0,591
581,735;33869,553;    0,644;    0,773
582,315;33386,917;   -0,629;    2,136
582,896;33654,355;   -0,174;    1,227
583,477;33065,613;    0,189;    1,227
584,057;33260,257;    0,553;    0,955
584,638;33577,108;    2,553;    2,318
585,218;33597,516;   -0,538;    2,682
585,799;33723,311;    0,281;   -0,227
586,379;33674,039;    0,372;    1,591
586,959;32390,565;    0,735;    0,318
587,540;31643,766;   -0,629;    2,227
588,120;31158,902;    1,007;   -0,045
588,700;30186,593;    2,553;    2,136
589,281;30570,445;    0,462;   -0,955
589,861;30468,065;    0,099;   -1,682
590,441;30248,096;    2,371;   -2,682
591,021;29231,737;   -0,265;   -2,591
591,601;29414,477;   -0,537;    0,500
592,181;29452,937;   -0,719;   -0,773
592,761;28715,915;    0,007;    1,409
593,341;28599,525;   -0,901;    0,045
593,921;28661,006;   -0,265;    1,591
594,501;28567,143;   -0,538;    1,318
595,081;28370,479;    0,917;   -0,318
595,661;28748,432;   -1,447;    0,955
596,240;29267,055;   -0,537;    0,136
596,820;28956,683;    0,372;    1,955
597,400;29173,989;    2,008;    0,773
597,980;29372,123;    2,008;    1,045
598,559;29321,787;    2,735;   -0,227
599,139;28973,919;   -0,174;   -1,227
599,718;28919,919;   -0,174;   -0,409
600,298;29229,819;    0,735;    0,682
600,877;29469,235;    2,917;    1,409
601,457;29708,954;    2,281;    1,136
602,036;29638,289;    0,190;    2,045
602,616;29904,116;    0,644;    1,682
603,195;30250,220;   -0,355;    3,500
603,774;29794,592;   -0,901;    2,045
604,354;29674,665;    0,826;   -0,500
604,933;29146,184;    0,463;    1,864
605,512;29212,107;    3,554;    0,591
606,091;29245,048;   -0,537;    3,773
606,671;30085,383;    0,281;    0,773
607,250;29223,124;    1,644;    3,136
607,829;29461,055;    2,372;    3,227
608,408;29265,092;    1,190;    2,591
608,987;28230,331;    1,281;    3,409
609,566;28604,076;   -1,265;   -2,500
610,145;28737,690;   -1,082;    0,682
610,723;29090,114;    4,372;    6,864
611,302;28372,814;   -0,446;    1,682
611,881;27849,779;    5,008;   11,227
612,460;28734,313;    1,645;    3,955
613,039;29077,206;   -0,082;    2,045
613,617;27800,297;    1,736;    4,773
614,196;28056,800;    1,099;    1,227
614,775;28341,705;    1,009;    2,409
615,353;28324,414;    0,736;    0,864
615,932;28016,766;    0,100;    2,409
616,510;28627,426;    0,554;    0,591
617,089;28096,482;    7,100;   17,591
617,667;27824,864;    2,372;    6,136
618,246;27742,632;   -1,537;    1,318
618,824;27910,263;   -3,355;   -0,955
619,402;27487,543;   -2,900;   -1,773
619,981;27984,089;   -0,173;   -1,045
620,559;27770,085;    0,009;    1,682
621,137;27259,912;   -0,718;    1,864
621,715;27343,336;   -1,173;   -0,682
622,293;27238,418;   -0,537;   -0,773
622,871;27659,919;   -0,718;    0,500
623,450;27242,850;    0,373;   -0,864
624,028;27099,747;    0,191;   -0,955
624,606;26772,339;   -1,718;    1,682
625,183;27222,300;   -1,536;   -1,136
625,761;26775,930;    1,009;    1,136
626,339;27110,614;    1,373;    2,591
626,917;27480,148;   -0,172;   -0,045
627,495;27504,110;   -0,354;    1,318
628,073;26994,039;   -0,263;    2,864
628,650;26659,173;    0,100;    2,136
629,228;27095,128;    0,373;    4,409
629,806;26498,277;    2,282;    1,136
630,383;26749,763;    1,464;   -0,318
630,961;26526,765;    2,555;   -0,955
631,539;26290,444;    2,464;    0,227
632,116;25630,037;   11,373;   15,409
632,694;26189,777;    2,555;    6,500
633,271;26511,587;    0,828;    2,682
633,848;26430,048;    1,828;    2,045
634,426;26422,031;   -1,081;    1,773
635,003;25520,476;    1,101;   -0,409
635,580;25836,175;    1,192;    3,682
636,158;26463,700;    3,737;    1,227
636,735;26465,256;    0,555;   -0,500
637,312;26575,232;   -0,809;   -0,682
637,889;26677,600;   -4,354;   -0,682
638,466;26105,497;   -3,990;   -0,409
639,043;26138,056;    2,101;   -1,136
639,620;26471,289;   -2,262;   -0,955
640,197;26822,019;    1,100;    1,682
640,774;26939,809;   -0,172;    1,136
641,351;27345,326;    0,737;    1,136
641,928;26740,570;   -0,627;    1,409
642,505;26331,996;    0,828;   -0,500
643,082;26476,150;   -1,718;    1,227
643,658;25522,940;   -0,718;    1,500
644,235;26229,002;    1,191;    2,500
644,812;26608,338;    1,918;    0,773
645,388;26336,400;   -0,991;    1,409
645,965;26415,917;   -0,809;    1,682
646,542;26488,616;   -1,445;   -0,227
647,118;26456,133;    1,009;   -0,955
647,695;26784,741;   -0,263;    1,136
648,271;26693,713;   -0,536;    0,500
648,848;27002,594;    0,736;    2,227
649,424;26828,474;    0,827;    1,318
650,000;26643,628;   -0,354;   -1,045
650,577;26432,872;   -0,627;   -0,955
651,153;26869,935;   -1,809;    0,955
651,729;27961,543;    1,191;    0,864
652,305;28363,333;    0,645;    2,773
652,881;33424,304;   -0,082;    1,136
653,458;40527,185;    1,100;    0,227
654,034;44188,430;    0,282;    1,591
654,610;45631,128;    0,554;    0,773
655,186;46913,009;    0,645;    3,045
655,762;46497,890;   -0,991;    0,409
656,338;46545,225;    0,100;    0,136
656,913;47531,470;   -0,082;    0,409
657,489;46798,714;    0,827;   -0,318
658,065;46770,777;   -0,173;   -1,591
658,641;47445,294;   -0,900;   -0,864
659,217;46750,902;   -0,991;    0,409
659,792;46170,419;    0,645;   -0,409
660,368;46406,027;   -2,173;   -0,682
660,944;45790,726;   -2,082;    1,227
661,519;40550,607;   -0,628;    0,409
662,095;34326,669;   -1,719;    0,591
662,670;29832,550;    1,281;   -0,136
663,246;28806,612;    1,009;   -0,409
663,821;28162,311;    0,281;    1,682
664,396;27698,738;    0,009;    1,864
664,972;28017,073;    0,009;   -0,500
665,547;28315,499;    1,372;    0,136
666,122;28328,562;   -1,082;    0,318
666,698;28620,897;   -0,173;    0,318
667,273;27924,141;   -0,173;    0,136
667,848;28748,113;    2,372;    1,500
668,423;28622,448;    2,190;    2,318
668,998;29140,420;    2,827;   -0,682
669,573;29707,937;   -3,264;   -1,500
670,148;29534,636;   -1,446;   -0,682
670,723;29339,608;   -1,810;    0,318
671,298;29757,943;    2,372;    1,045
671,873;29881,278;   -0,082;   -0,136
672,448;29801,523;    0,645;    0,136
673,023;30127,949;   -1,992;   -0,227
673,597;30536,648;    0,827;    2,318
674,172;30274,165;   -0,355;    0,318
674,747;29729,227;    0,372;   -1,045
675,321;29582,108;   -0,628;    3,318
675,896;29125,534;    0,645;    1,045
676,471;30224,415;    2,645;    1,591
677,045;29941,296;   -1,264;    0,682
677,620;29983,995;    0,190;    1,136
678,194;30250,966;   -2,628;    1,136
678,769;29861,120;   -1,083;   -0,318
679,343;30166,092;   -0,628;    1,773
679,917;29995,972;   -1,446;    1,955
680,492;30107,853;    0,826;    3,227
681,066;30178,643;    3,372;    0,409
681,640;30211,069;    1,463;   -0,318
682,214;31090,768;    0,735;    0,500
682,788;30627,831;   -1,356;   -0,773
683,363;30625,166;   -1,810;    1,682
683,937;30320,228;   -1,719;   -0,318
684,511;31050,655;    0,463;   -0,591
685,085;30717,535;   -1,356;    0,318
685,659;30476,325;   -2,538;    0,864
686,232;30803,388;   -0,356;   -0,318
686,806;30467,450;   -0,901;    0,409
687,380;31124,695;   -0,174;    0,591
687,954;31339,939;   -1,174;    1,136
688,528;30994,820;   -0,719;    1,955
689,101;31819,519;   -3,992;    1,045
689,675;31388,581;   -0,356;   -0,136
690,249;30768,644;   -0,719;    0,409
690,822;31107,434;    0,280;    0,318
691,396;31177,678;   -0,265;    1,227
691,969;30620,286;    1,280;    0,136
692,543;31033,712;   -0,447;   -1,955
693,116;30681,139;   -0,265;   -1,409
693,690;30579,201;    0,099;    0,500
694,263;31143,355;   -1,083;    2,955
694,836;31192,417;    1,371;    3,591
695,410;29749,843;   -0,265;    1,773
695,983;30255,361;    0,189;    0,591
696,556;30173,060;   -0,447;   -1,045
697,129;30608,849;   -0,356;    1,409
697,703;30291,094;   -1,629;    1,955
698,276;30247,520;    1,462;   -0,773
698,849;30080,128;    1,280;    1,409
699,422;30466,554;   -1,083;    0,591
699,995;30110,889;    0,007;    0,136
700,568;30647,134;   -0,629;    3,045
701,140;30652,287;   -2,811;    1,682
701,713;30440,986;   -0,174;    2,409
702,286;30164,322;   -0,538;    0,864
702,859;30051,748;   -0,902;   -0,591
703,432;29125,901;    0,825;    0,682
704,004;29652,418;    0,462;    0,318
704,577;29526,117;   -0,629;    0,136
705,150;30084,362;    0,189;    2,500
705,722;29903,061;   -0,356;   -3,227
706,295;29721,032;   -0,175;   -0,591
706,867;29566,640;   -0,175;    1,955
707,440;29723,157;   -1,720;   -0,409
708,012;30008,493;    0,462;    0,591
708,584;29907,555;    2,462;    0,227
709,157;30183,163;    1,825;   -0,591
709,729;29843,862;    2,280;    2,045
710,301;30697,198;    0,734;    0,045
710,874;30692,987;   -1,447;   -0,227
711,446;29530,686;    0,371;    0,864
712,018;29383,567;    0,098;    0,500
712,590;29165,084;   -1,993;    1,682
713,162;29691,965;    0,825;    1,318
713,734;29978,118;    1,825;   -2,045
714,306;29847,908;   -1,902;   -0,409
714,878;28534,516;    0,825;    0,864
715,450;29351,852;    0,643;    0,864
716,022;29593,187;    1,552;    1,318
716,593;29717,340;    0,189;    0,591
717,165;29638,130;   -3,175;   -1,227
717,737;29344,375;    0,280;    0,409
718,309;29006,073;    0,280;   -0,045
718,880;28998,045;   -0,539;   -1,409
719,452;29242,562;   -0,175;   -1,591
720,024;28799,988;    0,734;   -0,591
720,595;29412,233;   -2,902;    0,955
721,167;28929,386;    0,370;   -2,045
721,738;28422,267;   -0,812;   -1,045
722,309;28444,602;   -0,993;   -1,227
722,881;28178,756;   -1,357;    0,773
723,452;28802,455;   -2,630;    2,864
724,023;28981,336;   -0,721;    2,682
724,595;28744,762;    0,007;    0,682
725,166;28470,824;    0,007;   -0,409
725,737;28154,887;    1,734;    0,227
726,308;28221,495;   -0,266;    0,318
726,879;28662,376;   -1,630;    1,227
727,450;28482,802;    0,552;   -0,045
728,021;28483,592;    3,097;    0,682
728,592;28286,836;    0,734;    0,500
729,163;28602,717;    0,643;   -0,136
729,734;28627,234;    0,188;   -0,227
730,305;28991,842;    1,734;    0,136
730,876;29330,995;    0,188;    2,955
731,447;29114,240;    2,188;    2,682
732,017;29198,030;    1,097;    1,864
732,588;28652,274;    0,734;    1,227
733,159;28854,700;    0,643;   -1,045
733,729;28671,399;    0,006;    0,409
734,300;27908,371;    0,915;    0,864
734,870;28385,433;    3,461;    0,591
735,441;28929,041;    0,370;   -0,591
736,011;28723,377;    0,643;   -1,591
736,582;28623,803;   -0,812;    0,045
737,152;28095,593;   -1,721;   -2,045
737,722;28537,110;   -0,267;   -0,682
738,293;28226,900;   -1,358;    1,318
738,863;28131,962;    2,461;    2,318
739,433;27963,843;    5,279;    0,318
740,003;28570,178;   -0,994;   -0,682
740,573;27957,786;    2,097;   -1,591
741,143;27882,213;   -1,085;    0,318
741,713;28703,548;    1,188;   -0,500
742,283;28396,519;    0,915;    1,591
742,853;28192,037;    1,915;    1,591
743,423;27612,190;    1,733;    0,045
743,993;27723,434;   -0,358;    1,500
744,563;27123,588;    0,097;   -0,864
745,133;27141,105;   -0,812;   -0,864
745,702;27806,349;   -0,267;    1,773
746,272;26977,776;   -0,176;    0,591
746,842;26758,747;   -1,358;   -0,591
747,411;27153,628;   -0,267;   -0,318
747,981;27383,691;    0,097;    0,500
748,551;27390,662;    2,278;   -1,045
749,120;27217,088;    0,642;   -0,227
749,690;27615,878;   -0,631;    2,409
750,259;27945,759;    1,369;    2,955
750,828;27864,276;    1,551;   -1,955
751,398;28154,521;    1,278;   -0,045
751,967;27690,947;    2,187;    0,409
752,536;27859,918;   -0,813;   -0,227
753,105;28358,617;    0,096;    0,227
753,675;28156,044;    0,096;    1,773
754,244;28011,379;   -0,904;    3,591
754,813;28021,169;    0,551;    1,227
755,382;27592,413;    0,460;    0,955
755,951;28192,021;    1,551;    3,682
756,520;27718,447;   -0,085;    1,864
757,089;28316,419;    0,278;    0,500
757,658;28501,027;    1,733;    1,227
758,227;28444,180;    1,096;    0,318
758,795;28730,334;    1,187;    1,136
759,364;29015,942;   -0,086;   -0,591
759,933;28004,277;   -1,176;   -0,045
760,501;27527,158;    0,733;   -1,318
761,070;27969,221;   -2,813;   -1,409
761,639;28589,647;   -1,904;    1,318
762,207;28053,255;    1,551;   -0,955
762,776;27949,045;    0,369;    0,864
763,344;27909,107;   -0,995;    0,591
763,913;26977,624;   -0,722;    1,409
764,481;27735,778;    1,005;   -0,136
765,049;27506,022;   -1,358;    1,409
765,618;27354,903;   -0,086;    0,318
766,186;27415,875;    0,278;    0,136
766,754;27640,937;    0,005;    1,864
767,322;26678,909;   -1,995;    0,409
767,890;26733,608;   -0,722;   -1,773
768,459;27080,761;   -2,177;   -0,318
769,027;27293,187;    1,641;    3,409
769,595;26215,977;    3,278;    2,591
770,163;26671,131;    3,823;    2,955
770,730;26402,739;    0,732;   -0,136
771,298;26227,165;    0,187;   -1,409
771,866;26277,318;   -1,541;    4,955
772,434;26645,199;   -0,631;   -1,864
773,002;26836,716;    0,005;    0,682
773,569;26459,688;    0,914;    1,682
774,137;26232,478;   -0,268;   -0,045
774,705;27051,904;    0,278;   -0,136
775,272;26540,512;    0,641;    0,682
775,840;26258,393;   -0,177;    2,682
776,407;25784,455;    0,277;    1,955
776,975;25394,972;   -0,632;    0,318
777,542;26419,853;   -1,086;   -0,045
778,110;26245,461;   -1,268;   -0,045
778,677;25909,069;   -2,359;   -0,864
779,244;25676,405;    2,186;    1,045
779,812;25811,922;    1,823;    0,864
780,379;25636,257;    0,005;    1,136
780,946;25908,592;    1,005;   -0,773
781,513;26190,564;   -1,450;    0,318
782,080;25579,536;   -0,086;    2,864
782,647;26355,871;   -0,268;    3,045
783,214;25876,388;   -0,177;    3,864
783,781;25522,814;   -0,723;   -0,682
784,348;25364,968;   -0,632;    1,500
784,915;25876,303;   -3,177;    0,318
785,482;25621,184;    1,368;    2,591
786,049;26065,701;    0,186;   -0,591
786,615;26187,673;    0,277;   -0,955
787,182;25889,099;    0,186;   -0,682
787,749;25559,616;   -2,814;    1,409
788,315;24867,315;   -1,632;   -0,409
788,882;25144,105;    1,550;   -1,227
789,448;25909,167;    1,732;   -0,955
790,015;25904,502;    1,095;    3,227
790,581;25499,565;    1,459;    0,227
791,148;25404,900;    0,641;    1,045
791,714;25638,236;   -0,541;    3,136
792,280;25255,025;    0,186;    1,591
792,847;24842,815;    0,550;    2,500
793,413;25406,787;   -0,269;   -0,318
793,979;24924,850;    3,459;   -1,318
794,545;24996,639;    4,459;    2,682
795,111;24405,156;    2,186;    1,318
795,678;24613,946;    0,731;   -1,682
796,244;24235,009;    3,368;    0,136
796,810;24803,253;    1,731;    0,773
797,375;24461,952;    0,549;   -2,136
797,941;24516,197;   -0,541;    0,591
798,507;24626,259;   -0,451;   -0,955
799,073;24212,322;   -0,360;    0,591
799,639;24243,021;   -2,632;    3,136
800,205;24219,083;    0,095;    2,682
800,770;23797,691;    0,640;    1,773
801,336;23903,754;    1,368;   -0,955
801,901;23610,816;    4,549;    3,136
802,467;24182,879;   -0,542;    2,045
803,033;23469,760;   -0,087;    0,864
803,598;23743,459;    1,913;   -1,045
804,163;23743,703;    1,095;   -0,318
804,729;23672,766;   -0,178;    1,136
805,294;24098,010;    0,822;    2,227
805,859;23901,254;    0,731;   -0,409
806,425;23332,044;    1,186;    2,682
806,990;22979,289;    2,186;    4,318
807,555;23489,169;   -1,451;    2,591
808,120;23355,232;    0,822;   -0,409
808,685;23430,840;    0,185;   -2,500
809,250;22949,357;    0,004;   -0,500
809,815;23224,420;    1,913;    0,682
810,380;23755,119;   -0,269;    1,591
810,945;24347,272;   -1,087;    2,045
811,510;23459,335;    2,094;    1,591
812,075;23164,397;   -0,633;   -1,409
812,640;23234,369;    2,003;    1,409
813,204;23252,340;    0,822;   -0,227
813,769;23768,767;    2,094;   -0,045
814,334;23164,284;    0,458;    0,864
814,898;23201,801;    0,367;    0,591
815,463;23136,318;    1,276;   -0,773
816,027;23066,290;   -0,724;   -2,318
816,592;23088,716;    0,640;   -2,045
817,156;22605,597;    2,094;    1,136
817,721;22516,659;    4,276;    2,318
818,285;22429,358;    2,912;    1,500
818,849;23071,693;   -1,451;    1,682
819,414;22982,938;   -0,269;    2,955
819,978;22571,546;   -1,269;    1,773
820,542;23168,699;    2,003;    0,500
821,106;22837,853;   -0,815;    0,682
821,670;22934,552;   -0,815;    2,591
822,234;22680,796;   -0,270;    1,409
822,798;22023,404;    0,003;    0,500
823,362;22008,285;   -0,633;    4,227
823,926;21244,438;    0,094;    1,136
824,490;21488,319;   -0,997;   -0,682
825,054;21960,473;   -0,088;   -1,136
825,618;21608,535;   -1,542;   -1,500
826,181;21599,961;    0,458;   -1,318
826,745;21492,297;    1,367;   -1,045
827,309;21846,996;    1,185;    1,318
827,872;21231,785;    1,367;    0,955
828,436;22263,848;    1,185;   -0,773
828,999;22278,547;   -0,997;    1,227
829,563;21063,791;   -0,179;    1,136
830,126;20845,036;   -0,179;   -0,591
830,690;20874,280;   -1,997;    2,864
831,253;20418,706;   -0,543;    2,227
831,816;20559,223;   -1,906;    0,500
832,380;20546,195;    0,185;    0,864
832,943;20746,439;   -1,361;   -0,500
833,506;20208,138;    2,639;   -1,227
834,069;20974,928;    3,912;   -0,955
834,632;20996,991;    1,730;    1,318
835,195;20887,962;    1,003;    0,955
835,758;20070,480;   -0,997;    1,955
836,321;19999,633;    0,730;   -1,045
836,884;20039,423;   -0,725;   -0,955
837,447;20062,395;   -2,816;    1,773
838,010;20341,093;    0,366;    3,227
838,573;20632,792;   -1,179;    0,773
839,135;20584,946;   -1,361;   -0,955
839,698;20005,008;    1,275;    0,409
840,261;19526,889;    1,003;   -0,227
840,823;19405,315;   -0,543;    0,864
841,386;19665,651;   -0,452;   -2,409
841,948;19552,986;   -1,361;    1,773
842,511;19278,321;    0,912;    1,682
843,073;19446,475;    1,912;    0,227
843,636;19191,719;   -0,361;   -0,227
844,198;19172,509;    0,911;    0,591
844,760;19297,572;    1,093;    1,955
845,322;18951,089;    0,548;    1,136
845,885;19379,060;    0,730;    0,591
846,447;19796,123;   -1,998;    0,227
847,009;19353,458;    1,911;   -0,682
847,571;19713,066;    0,820;   -2,045
848,133;19844,765;   -1,089;   -1,864
848,695;19618,828;   -0,543;    1,409
849,257;19190,163;   -1,089;   -1,682
849,819;19360,044;   -0,998;   -0,409
850,381;19418,197;   -0,725;   -0,864
850,942;19776,169;    1,093;   -0,591
851,504;19751,777;    1,184;    0,227
852,066;19764,294;    1,275;   -1,591
852,628;19222,357;   -0,180;    1,955
853,189;18798,783;    1,638;    2,682
853,751;18918,482;   -0,907;    1,409
854,312;18748,181;   -0,453;   -1,682
854,874;19261,061;   -2,089;   -0,773
855,435;19688,760;   -0,907;   -1,682
855,997;19883,187;   -1,816;   -0,136
856,558;19236,795;    0,366;    1,773
857,119;19328,948;    0,820;    2,864
857,681;19019,465;    0,002;    0,318
858,242;19079,528;    1,911;   -2,136
858,803;19519,863;    0,456;   -0,773
859,364;20136,016;    0,184;   -4,773
859,925;19430,352;   -2,453;   -0,955
860,486;19289,414;   -0,453;   -0,955
861,047;19003,568;   -0,544;   -1,227
861,608;18807,903;   -1,089;   -0,773
862,169;18937,511;    0,638;   -0,045
862,730;18685,574;    0,456;    1,409
863,291;18937,091;   -0,635;   -0,500
863,852;19324,517;   -0,635;    1,955
864,412;18810,489;   -0,271;   -0,864
864,973;17375,279;   -0,089;    0,500
865,534;17218,614;   -1,726;    0,227
866,094;18751,222;    1,820;    0,227
866,655;18422,012;    1,274;    3,318
867,215;18645,802;    0,274;    0,136
867,776;18471,955;    0,547;   -0,136
868,336;18589,472;   -1,453;    0,136
868,897;18041,535;    2,638;    1,682
869,457;17774,052;    1,365;    0,318
870,017;17995,933;    0,547;   -1,227
870,578;18534,086;   -0,817;    0,773
871,138;18234,694;   -2,089;   -0,955
871,698;17751,302;   -0,817;   -1,318
872,258;17623,092;   -0,453;   -2,864
872,818;17984,064;    2,729;    0,045
873,378;17964,763;    0,638;    1,045
873,938;17532,007;    0,547;    0,500
874,498;17844,069;    0,274;   -1,955
875,058;17755,223;    2,183;    1,773
875,618;17575,922;    1,910;   -2,682
876,177;17530,439;    1,274;    0,136
876,737;17128,320;   -0,090;    1,955
877,297;17180,019;    0,183;    1,955
877,856;17147,081;   -0,362;    0,318
878,416;17100,962;    1,183;   -0,136
878,976;17349,752;   -1,817;    0,409
879,535;17498,269;    0,092;    3,136
880,095;17245,968;   -0,544;    0,045
880,654;17355,576;   -1,090;    1,318
881,213;17475,184;    2,456;    1,500
881,773;17081,337;    2,637;    2,682
882,332;17473,673;    3,365;    5,136
882,891;17293,826;    3,092;    2,136
883,451;17792,252;   -1,272;    1,682
884,010;17192,769;   -2,908;   -0,409
884,569;17310,014;   -0,999;   -0,045
885,128;17450,167;    2,819;   -1,864
885,687;17547,866;    4,455;    0,682
886,246;17214,747;    1,455;    2,136
886,805;16981,082;    2,455;    2,045
887,364;17261,145;   -0,999;   -0,500
887,922;17642,026;   -1,181;    0,045
888,481;17147,997;   -1,545;    0,591
889,040;17473,514;    1,183;    2,136
889,599;18150,486;    2,455;    1,409
890,157;18161,276;    1,455;    2,409
890,716;17812,338;   -0,090;    0,227
891,274;17656,310;    0,092;   -1,136
891,833;18105,373;    1,546;    0,864
892,391;17981,163;   -0,454;    0,500
892,950;18047,861;    1,819;   -0,773
893,508;18443,015;    0,455;   -0,409
894,067;17792,714;    0,637;    0,136
894,625;17671,867;   -0,636;   -1,500
895,183;17922,021;   -0,363;   -0,682
895,741;17789,356;    1,728;   -1,773
896,299;17620,782;   -0,545;   -2,409
896,858;17821,481;    0,819;   -1,591
897,416;17980,544;    2,728;   -1,318
897,974;17677,606;    1,819;    0,318
898,532;17852,942;    6,091;    2,682
899,089;17737,368;    2,091;   -0,682
899,647;17771,430;   -1,454;    1,318
900,205;17487,948;    1,182;    1,045
900,763;17699,465;   -0,454;    0,227
901,321;17676,436;    2,364;   -1,409
901,878;17103,590;   -1,000;   -0,773
902,436;16936,471;   -1,363;    1,318
902,994;17344,988;    4,728;    3,682
903,551;16763,505;    0,728;    0,409
904,109;17177,113;    0,182;   -1,409
904,666;16720,175;    2,455;    1,045
905,224;16577,329;    0,182;   -0,409
905,781;16321,846;    0,727;   -0,318
906,338;16369,999;   -1,363;    1,045
906,895;16293,062;    0,637;    2,045
907,453;16287,306;    1,727;    1,136
908,010;16336,914;   -0,909;    0,409
908,567;15941,068;    1,273;    0,591
909,124;15435,949;    0,364;   -1,500
909,681;15489,557;   -2,909;    0,682
910,238;15624,437;    0,636;   -1,318
910,795;15934,591;   -0,273;   -1,136
911,352;15568,864;   -2,909;   -2,682
911,909;14968,500;   -1,364;   -0,864
912,466;15465,045;   -3,182;    1,500
913,022;15044,409;   -1,636;    0,500
913,579;15351,227;   -0,909;    2,045
914,136;15038,955;    1,636;    0,955
914,692;15358,682;    0,091;   -1,227
915,249;14984,682;    1,455;    0,409
915,806;15239,409;    0,182;    1,955
916,362;14977,318;    1,909;    1,864
916,918;14574,864;    2,000;    1,045
917,475;14505,773;   -1,182;    0,955
918,031;14552,500;    3,364;   -0,045
918,587;14015,227;   -0,909;   -0,318
919,144;14259,318;   -2,273;    0,227
919,700;14548,318;    1,727;    0,773
920,256;14103,955;    0,727;    0,045
920,812;13719,136;   -0,727;   -1,045
921,368;13740,682;   -1,727;   -1,045
921,924;13369,773;    0,182;   -0,136
922,480;12939,955;   -0,545;    1,227
923,036;13562,864;    1,273;    1,955
923,592;13492,682;    0,455;    0,318
924,148;13434,591;    0,455;   -0,955
924,704;12749,682;   -1,364;   -0,409
925,259;12970,227;   -0,273;    0,591
925,815;12755,318;    1,455;    0,500
926,371;12227,955;    2,909;    1,409
926,926;12116,682;    2,091;    0,591
927,482;11776,864;   -1,364;    0,773
928,037;11636,591;    0,909;    2,045
928,593;11913,227;    1,636;    1,045
929,148;11734,955;   -1,818;   -1,500
929,704;11242,682;   -1,455;   -0,500
930,259;11445,227;    0,091;   -0,136
930,814;10504,864;   -0,818;    1,955
931,369;10171,318;    1,091;   -0,773
931,925;10042,136;   -0,091;    0,136
932,480; 9940,773;   -2,818;   -2,591
933,035; 9819,136;    0,545;   -0,318
933,590; 9609,500;    0,364;   -1,773
934,145; 9239,409;   -1,364;   -0,318
934,700; 9577,500;    0,455;   -0,591
935,255; 9375,136;   -0,091;    0,045
935,809; 8602,227;    3,182;    0,864
936,364; 7726,136;   -0,455;   -0,136
936,919; 7676,773;    0,455;   -1,773
937,474; 7565,409;    1,455;    0,136
938,028; 7322,773;   -1,636;    1,136
938,583; 6819,864;    1,818;    4,682
939,138; 7066,409;    2,091;    2,136
939,692; 6505,318;    1,636;   -1,136
940,247; 6207,591;   -0,727;   -1,045
940,801; 5739,955;   -0,636;    0,227
941,355; 5610,773;   -0,364;    2,591
941,910; 5243,227;   -0,273;   -2,136
942,464; 5361,500;   -0,818;   -0,318
943,018; 5145,136;    1,000;   -0,227
943,572; 5103,591;    2,545;   -0,682
944,126; 4496,409;    0,091;   -0,409
944,681; 4384,136;    3,091;    0,227
945,235; 4372,045;    1,000;   -0,591
945,789; 4319,682;    0,364;   -1,864
946,342; 4406,864;    0,455;   -0,591
946,896; 4227,227;   -2,273;    0,955
947,450; 3953,682;    1,545;   -0,227
948,004; 4143,136;    1,727;   -0,045
948,558; 4143,955;    0,273;   -0,864
949,111; 4090,682;   -0,273;   -0,318
949,665; 4116,955;    1,636;   -0,682
950,219; 3975,591;   -0,091;   -1,045
950,772; 4069,318;   -1,909;    1,864
951,326; 3955,591;    0,545;   -0,955
951,879; 4083,682;    0,727;   -2,318
952,433; 4109,682;    0,000;    2,227
952,986; 3915,864;    2,909;    0,682
953,539; 3884,045;   -0,273;    0,591
954,093; 3810,227;    0,545;   -1,318
954,646; 3938,136;    0,909;    1,318
955,199; 3743,409;    0,000;   -0,500
955,752; 3637,591;   -0,455;    1,773
956,305; 3589,773;   -0,091;    2,955
956,858; 3768,864;    0,818;   -0,318
957,411; 3938,045;   -0,545;    2,136
957,964; 3783,500;    1,364;    2,136
958,517; 3755,955;   -1,545;    3,136
959,070; 3572,955;   -0,455;    1,955
959,623; 3647,591;    1,091;    1,500
960,176; 3423,591;    1,727;    2,045
960,728; 3416,773;   -2,727;    0,773
961,281; 3473,045;    0,545;    0,500
961,834; 3499,227;   -0,909;    0,864
962,386; 3415,318;    1,727;    1,045
962,939; 3345,682;    0,364;   -0,318
963,491; 3502,227;    0,455;    1,136
964,043; 3371,773;    1,182;    2,409
964,596; 3495,409;   -1,000;    2,227
965,148; 3333,591;   -1,000;    1,773
965,700; 3237,864;    1,091;   -0,227
966,253; 3393,864;   -0,636;    0,318
966,805; 3224,318;   -2,273;    0,773
967,357; 3287,045;    1,091;   -1,500
967,909; 3242,045;    0,455;   -1,227
968,461; 3354,955;    0,545;    3,136
969,013; 3281,500;   -0,182;   -0,864
969,565; 3348,500;   -0,455;   -1,136
970,117; 3382,409;   -0,364;    1,045
970,669; 3248,591;    0,182;   -0,136
971,220; 3114,227;   -0,455;   -1,500
971,772; 3027,500;   -0,636;   -0,318
972,324; 3159,136;    0,091;   -0,500
972,876; 3101,591;    0,818;   -0,045
973,427; 3261,136;    1,909;   -1,045
973,979; 3222,864;   -0,727;   -2,500
974,530; 3261,227;    1,818;    1,318
975,082; 3267,136;   -0,545;    1,682
975,633; 3142,318;    1,091;    1,682
976,184; 3291,045;    0,909;    0,773
976,736; 3060,500;    0,091;    0,227
977,287; 2869,864;   -0,909;   -0,500
977,838; 3058,591;    0,909;   -0,318
978,389; 3113,409;   -1,000;   -0,500
978,940; 2983,227;    0,545;   -0,409
979,491; 3004,227;    0,091;   -0,500
980,042; 2967,318;    0,182;    3,045
980,593; 3040,864;   -2,545;    0,227
981,144; 3083,591;    2,545;   -0,500
981,695; 3037,318;    1,455;    1,500
982,246; 3025,591;   -0,273;    1,045
982,797; 3169,773;   -1,727;    0,682
983,347; 3267,864;    0,364;    0,591
983,898; 3437,955;    3,091;    0,409
984,449; 3246,227;    2,182;    0,773
984,999; 3176,773;    1,455;   -1,136
985,550; 2942,409;    0,182;   -0,318
986,100; 2963,045;   -0,455;   -0,318
986,651; 3007,227;   -0,818;    0,045
987,201; 2991,045;   -1,000;   -0,591
987,751; 3062,409;    0,818;    2,864
988,302; 3053,136;    2,636;    1,500
988,852; 3067,682;    0,455;   -1,136
989,402; 3108,682;    0,091;    0,682
989,952; 3028,045;   -2,182;    0,864
990,502; 3129,500;   -0,091;    0,682
991,052; 3088,864;   -0,727;    0,045
991,602; 2970,864;   -2,909;    1,318
992,152; 2961,864;    0,455;    0,682
992,702; 2937,682;    1,364;   -0,045
993,252; 2875,773;   -3,000;   -0,500
993,802; 2957,773;   -0,273;    1,318
994,352; 3182,227;   -1,545;    1,136
994,901; 3281,773;   -0,182;    3,227
995,451; 3180,591;   -0,182;    0,318
996,000; 3280,318;    1,636;    0,318
996,550; 3002,045;    2,273;    0,227
997,100; 3006,409;    1,273;   -0,045
997,649; 3281,136;    2,182;    0,955
998,198; 2895,955;    1,727;   -1,500
998,748; 3091,591;    1,091;   -2,318
999,297; 3005,682;   -0,818;   -0,409
999,846; 3073,955;    1,000;   -0,773
1000,395; 3119,591;   -0,818;    0,500
1000,945; 3060,227;    1,818;   -0,773
1001,494; 3164,045;    2,364;    0,682
1002,043; 3150,591;    4,636;    0,864
1002,592; 2992,591;   -1,091;    1,955
1003,141; 3127,045;   -0,455;   -0,682
1003,690; 2991,773;    1,727;    0,500
1004,238; 3099,318;    1,455;   -0,045
1004,787; 2717,955;    1,364;    1,227
1005,336; 2930,864;    0,364;    0,682
1005,885; 3071,045;    1,364;   -2,773
1006,433; 3249,045;    0,545;    0,955
1006,982; 3280,318;    0,455;    1,682
1007,531; 3193,318;   -1,818;   -0,227
1008,079; 3143,864;   -2,273;    0,500
1008,627; 3279,409;   -1,455;    0,409
1009,176; 3032,864;    0,000;   -1,955
1009,724; 3075,773;    1,091;    0,864
1010,273; 3126,773;    1,273;    0,500
1010,821; 3236,227;    0,091;    1,409
1011,369; 2966,136;   -1,364;    1,318
1011,917; 2950,318;   -1,364;   -0,591
1012,465; 3240,045;    1,273;   -1,591
1013,013; 3362,955;    2,091;   -1,682
1013,561; 3218,318;    0,455;   -0,773
1014,109; 3258,136;   -1,909;    1,682
1014,657; 3144,227;    0,364;    0,591
1015,205; 3281,136;    1,636;   -0,955
1015,753; 3298,682;   -0,545;   -1,409
1016,301; 3343,318;   -2,636;    3,045
1016,848; 3338,409;   -1,273;    0,409
1017,396; 3380,773;    2,545;    0,045
1017,944; 3510,955;    1,182;    1,864
1018,491; 3262,591;    0,273;    1,409
1019,039; 3390,682;    0,455;    0,591
1019,586; 3314,045;   -1,364;    1,682
1020,134; 3406,227;    0,455;    1,500
1020,681; 3447,227;    0,182;   -1,136
1021,228; 3462,955;    2,909;   -2,227
1021,776; 3278,955;    1,182;   -1,136
1022,323; 3493,682;    0,455;    0,773
1022,870; 3432,500;   -1,000;   -0,045
1023,417; 3330,591;    2,636;    1,864
1023,964; 3476,409;    2,636;    1,227
1024,511; 3312,591;    1,000;    0,773
1025,058; 3095,136;    3,182;   -0,045
1025,605; 3170,227;   -2,273;    3,136
1026,152; 3393,955;    1,727;   -0,591
1026,699; 3113,045;    1,818;    1,318
1027,245; 3266,591;   -0,091;    0,318
1027,792; 3493,045;   -1,000;    1,409
1028,339; 3369,591;    2,364;   -0,045
1028,885; 3218,500;    1,000;   -0,227
1029,432; 3150,773;   -0,091;    0,227
1029,978; 3204,136;   -1,000;   -1,591
1030,525; 3123,773;    1,000;    0,409
1031,071; 3386,682;   -1,364;    1,136
1031,618; 3471,500;    0,364;    1,682
1032,164; 3240,864;   -0,091;    3,045
1032,710; 3308,682;    1,636;   -1,500
1033,256; 3214,318;   -0,636;   -0,136
1033,803; 3225,318;   -0,545;    1,500
1034,349; 2922,136;   -1,364;    0,136
1034,895; 3075,045;    0,000;   -0,318
1035,441; 3037,773;   -0,818;    0,318
1035,987; 3044,409;   -2,364;   -0,682
1036,533; 3050,409;   -1,455;   -0,955
1037,078; 3251,591;    1,455;    1,682
1037,624; 3051,500;    2,455;   -0,955
1038,170; 3096,500;    0,455;   -0,318
1038,716; 3029,409;    1,636;   -0,409
1039,261; 2918,955;   -2,273;   -0,773
1039,807; 2850,682;   -0,091;    3,409
1040,352; 2917,864;   -1,909;   -0,318
1040,898; 2945,045;   -1,545;   -0,682
1041,443; 2851,500;   -1,455;   -2,591
1041,989; 2893,227;    1,091;    1,591
1042,534; 2763,045;   -0,364;    2,591
1043,079; 2890,227;    2,909;    0,955
1043,625; 2687,500;    1,818;    0,500
1044,170; 2718,773;   -1,364;    1,045
1044,715; 2972,227;    2,455;    0,955
1045,260; 2784,045;    2,182;   -0,955
1045,805; 2838,227;    1,182;   -0,591
1046,350; 2765,591;    1,364;   -0,409
1046,895; 2716,955;    2,909;    1,591
1047,440; 2666,591;    5,364;    0,409
1047,985; 2568,773;    2,818;   -0,955
1048,530; 2496,409;    1,545;    1,227
1049,074; 2559,318;    0,000;    0,318
1049,619; 2549,227;   -1,364;    1,955
1050,164; 2339,864;    0,455;    0,227
1050,708; 2374,409;   -0,455;    0,045
1051,253; 2749,591;    1,273;   -2,227
1051,797; 2453,773;    0,818;   -1,318
1052,342; 2470,500;   -1,182;    1,045
1052,886; 2457,591;    0,364;   -1,409
1053,430; 2342,591;   -1,364;    0,136
1053,975; 2358,500;   -0,818;   -0,318
1054,519; 2349,318;   -0,727;    3,227
1055,063; 2350,682;    0,909;    1,318
1055,607; 2239,682;   -0,182;    0,227
1056,151; 2273,591;    2,909;    1,682
1056,695; 2193,409;    2,273;   -1,136
1057,239; 2241,318;   -1,727;   -0,682
1057,783; 2258,773;    0,818;   -1,500
1058,327; 2203,409;    0,000;    1,409
1058,871; 2428,045;   -0,545;    1,318
1059,415; 2139,500;   -0,818;   -0,045
1059,958; 2401,500;    1,455;    2,591
1060,502; 2120,500;   -1,000;   -0,773
1061,046; 2014,318;    0,364;   -0,955
1061,589; 1995,136;   -3,000;   -1,136
1062,133; 1881,682;   -1,273;    1,864
1062,676; 1831,955;    1,182;    0,864
1063,220; 1827,136;    1,091;    0,500
1063,763; 1853,773;    0,909;    1,136
1064,306; 1943,045;   -0,909;    1,864
1064,849; 1799,955;   -0,909;    0,591
1065,393; 1818,227;    2,000;   -1,500
1065,936; 1938,136;    0,182;   -0,409
1066,479; 1821,500;   -1,455;    1,318
1067,022; 1834,682;   -0,273;   -0,227
1067,565; 1732,955;   -0,091;   -1,318
1068,108; 1743,045;    0,727;   -0,591
1068,651; 1724,864;   -0,636;    1,409
1069,194; 1660,227;   -0,455;   -1,682
1069,736; 1674,045;   -1,273;    0,955
1070,279; 1649,955;   -1,364;   -0,500
1070,822; 1698,409;   -2,000;   -0,318
1071,364; 1774,955;   -0,364;    1,318
1071,907; 1589,045;   -0,727;    3,227
1072,450; 1492,682;    0,000;   -0,045
1072,992; 1485,955;   -0,273;    3,136
1073,535; 1640,136;    2,091;    2,136
1074,077; 1430,955;   -0,727;    2,045
1074,619; 1401,682;   -1,364;    0,591
1075,161; 1429,500;   -1,091;    1,500
1075,704; 1601,045;    1,545;    1,227
1076,246; 1411,318;   -0,182;    0,682
1076,788; 1342,682;   -0,364;    1,773
1077,330; 1401,227;    1,273;    2,136
1077,872; 1366,773;    0,909;    0,955
1078,414; 1601,500;    2,727;    0,773
1078,956; 1332,864;    1,273;   -0,227
1079,498; 1594,045;    1,636;    0,318
1080,040; 1293,409;    1,909;   -1,318
1080,581; 1235,955;    1,636;   -0,318
1081,123; 1168,864;    0,091;   -0,773
1081,665; 1214,045;   -1,182;   -0,955
1082,206; 1510,409;    1,364;   -0,500
1082,748; 1356,773;    0,727;    2,045
1083,289; 1236,136;   -2,000;    1,318
1083,831; 1156,045;   -0,545;    0,227
1084,372; 1189,409;    0,000;    0,591
1084,913; 1208,500;    1,091;    0,864
1085,455; 1146,591;   -1,909;   -2,045
1085,996; 1114,045;   -2,273;    0,136
1086,537; 1141,318;   -0,091;    0,864
1087,078; 1184,773;   -0,909;   -2,136
1087,619; 1234,682;   -1,273;    0,227
1088,160; 1132,864;    0,000;    1,318
1088,701; 1122,318;   -1,091;    0,682
1089,242; 1067,136;    1,364;   -2,227
1089,783; 1173,136;   -0,273;    1,409
1090,324; 1133,136;    0,455;    0,682
1090,865; 1009,318;    2,727;   -0,409
1091,405;  962,318;    0,727;    2,227
1091,946; 1000,500;    0,182;   -0,955
1092,487;  912,136;    0,818;   -1,409
1093,027; 1090,773;   -1,364;   -1,500
1093,568;  935,136;   -0,364;    1,227
1094,108; 1053,864;    0,273;    1,773
1094,649;  974,773;   -1,182;    0,136
1095,189;  915,227;   -0,636;   -0,682
1095,729;  868,773;   -0,091;    0,955
1096,269;  875,682;    0,727;   -0,955
1096,810; 1194,955;   -1,364;    0,500
1097,350; 1021,045;    1,364;   -0,773
1097,890;  922,136;    0,364;    1,227
1098,430; 1178,864;    2,364;    2,864
1098,970; 1047,773;    2,182;    1,682
1099,510;  904,955;    0,545;   -2,318
1100,050;  838,864;    1,000;   -1,591
1100,589;  798,773;   -0,727;   -0,318
1101,129;  921,045;    0,818;   -0,955
1101,669; 1083,955;    1,727;    2,136
1102,209;  892,773;   -0,091;    2,227
1102,748;  850,591;    0,000;    0,955
1103,288;  845,864;    1,273;   -1,227
1103,827;  861,227;    3,091;   -2,227
1104,367;  742,500;   -0,091;   -2,409
1104,906;  714,318;    1,364;   -1,136
1105,445;  790,500;    0,636;   -1,136
1105,985;  729,318;   -0,727;    1,500
1106,524;  767,045;   -1,727;   -0,682
1107,063;  752,773;   -2,727;    1,409
1107,602;  729,591;   -1,909;   -1,500
1108,141;  650,045;   -1,909;    1,500
1108,680;  752,136;   -3,455;   -0,591
1109,219;  687,864;   -0,909;   -0,500
1109,758;  689,318;    0,455;    0,682
1110,297;  660,045;    1,000;   -0,682
1110,836;  605,136;   -0,727;    0,955
1111,375;  778,227;   -2,545;    0,409
1111,913;  788,500;   -1,000;    0,773
1112,452;  719,318;   -0,273;    0,136
1112,991;  599,227;    1,091;    1,955
1113,529;  554,409;   -0,818;   -0,045
1114,068;  625,864;   -0,273;    2,955
1114,606;  527,318;   -0,364;   -0,955
1115,144;  695,864;   -1,273;    1,045
1115,683;  632,773;   -0,727;    0,318
1116,221;  682,318;   -0,455;   -0,864
1116,759;  583,591;    0,636;   -0,864
1117,297;  789,864;    0,000;    1,864
1117,836;  592,409;   -2,182;   -1,227
1118,374;  593,955;    0,182;   -0,682
1118,912;  545,045;    0,909;    2,682
1119,450;  528,227;    1,000;    0,864
1119,988;  580,409;    1,545;    2,136
1120,525; 1035,136;    5,091;    3,318
1121,063;  736,409;    1,182;    1,864
1121,601;  547,227;   -0,909;   -1,227
1122,139;  494,227;   -0,727;   -2,045
1122,676;  705,136;   -0,727;    2,773
1123,214;  631,227;   -1,182;    4,409
1123,751;  434,227;    1,727;    2,227
1124,289;  565,591;   -0,091;   -0,409
1124,826;  434,864;    1,727;    0,227
1125,364;  353,500;    1,727;   -0,955
1125,901;  552,682;    1,182;    1,227
1126,438;  671,682;    0,818;    0,955
1126,975;  384,409;   -0,727;   -0,773
1127,513;  458,591;    0,273;    2,136
1128,050;  359,955;    1,636;   -0,682
1128,587;  458,773;    2,000;   -0,227
1129,124;  501,500;    0,091;    1,318
1129,661;  368,318;    0,273;    0,227
1130,198;  529,955;    1,636;    0,773
1130,734;  484,500;    0,182;    1,409
1131,271;  341,227;   -0,909;    0,864
1131,808;  528,136;    2,909;    3,045
1132,345;  396,318;    1,545;    0,318
1132,881;  252,045;   -1,545;   -1,864
1133,418;  397,955;    0,727;   -1,136
1133,954;  328,045;    2,455;   -2,682
1134,491;  416,773;    1,364;   -0,773
1135,027;  304,955;    2,364;    0,864
1135,564;  409,773;    0,273;    2,955
1136,100;  386,409;    0,364;    2,136
1136,636;  269,682;   -1,273;   -1,045
1137,172;  364,864;    0,000;   -1,045
1137,708;  279,500;   -1,364;   -1,045
1138,245;  283,318;    1,273;   -1,227
1138,781;  238,136;    1,091;   -3,318
1139,317;  314,591;    1,273;   -1,409
1139,852;  294,045;    3,091;    0,136
1140,388;  419,773;   -1,182;   -0,409
1140,924;  299,773;   -1,091;   -2,227
1141,460;  235,136;   -1,636;    0,136
1141,996;  167,136;   -1,364;    2,682
1142,531;  217,955;    1,364;    3,318
1143,067;  445,682;    1,182;    1,045
1143,602;  509,864;   -0,091;   -0,318
1144,138;  341,955;   -2,636;    1,045
1144,673;  207,136;   -1,455;    1,409
1145,209;  268,045;   -1,909;   -0,318
1145,744;  184,318;   -0,727;    0,864
1146,279;  333,045;    1,818;   -0,136
1146,815;  242,864;    1,545;   -2,682
1147,350;  287,955;   -1,364;    0,045
1147,885;  195,045;   -0,818;   -1,318
1148,420;  185,409;   -2,273;    0,773
1148,955;  173,864;   -1,727;    1,864
1149,490;  205,136;   -0,909;   -1,591
1150,025;  176,864;    0,455;   -1,773
1150,560;  303,773;    1,091;   -0,955
1151,094;  267,045;    1,455;   -0,591
1151,629;  276,318;    1,636;    0,864
1152,164;  202,773;    1,364;    1,318
1152,698;  152,136;   -0,182;   -0,136
1153,233;  108,227;    0,091;   -0,682
1153,767;  160,955;   -3,000;   -2,318
1154,302;  209,045;   -1,455;    1,773
1154,836;  209,682;   -0,455;   -2,136
1155,371;  274,045;   -1,364;    3,682
1155,905;  218,409;   -0,636;    1,682
1156,439;  186,318;   -0,636;   -0,500
1156,973;  219,318;    0,364;    0,318
1157,507;  145,136;   -0,364;    0,682
1158,042;  176,136;   -0,727;    1,045
1158,576;  237,773;    0,182;    1,773
1159,110;  219,591;   -0,818;    2,409
1159,643;  190,045;    0,636;   -0,045
1160,177;  119,955;   -1,545;    1,500

