
Integration time [ms]:   0,040
Averaging Nr. [scans]: 11
Smoothing Nr. [pixels]: 0
Data measured with spectrometer [name]: 7318044SP
Wave   ;Sample   ;Dark     ;Reference
[nm]   ;[counts] ;[counts] ;[counts] 

186,757;    8,759;   31,551;    1,318
187,357;   31,522;   22,551;    0,955
187,958;    7,880;   15,460;   -1,591
188,558;   49,746;    8,915;   -1,227
189,159;    6,178;    6,733;   -4,500
189,759;   -7,225;    7,278;   -3,591
190,360;   -7,360;    2,824;   -2,136
190,960;   22,977;    2,915;   -4,136
191,560;   27,087;    3,189;   -6,591
192,161;  236,858;    4,372;   -3,500
192,761;   94,220;    4,010;   -3,227
193,361;   50,672;    1,556;   -3,773
193,962;   82,162;    2,010;   -2,682
194,562;   12,892;    1,189;   -3,955
195,162;   24,826;   -2,448;   -2,227
195,762;  147,704;   -3,176;   -0,045
196,362;   95,056;    1,370;   -2,500
196,963;    1,292;    2,006;   -0,864
197,563;   50,480;    1,551;   -0,955
198,163;    9,381;    0,096;   -0,682
198,763;   16,665;    1,733;   -0,500
199,363;   70,925;    3,096;   -0,500
199,963;   42,864;    0,369;    0,409
200,563;   17,347;    2,823;   -1,409
201,163;    0,940;    3,277;   -0,227
201,763;   43,634;    3,732;    0,318
202,363;   12,934;    1,459;    1,500
202,963;   53,832;    1,459;    1,045
203,563;  105,519;    0,277;    0,500
204,162;   24,636;    2,096;   -1,864
204,762;   19,649;    0,550;    0,591
205,362;   -9,769;    3,004;    1,955
205,962;   28,569;    3,096;    1,955
206,562;   15,295;    1,823;    2,318
207,161;    1,871;   -0,087;    0,318
207,761;   82,782;    1,277;    2,409
208,361;   15,013;   -0,268;    1,409
208,960;   47,326;    0,459;    1,500
209,560;   43,396;    1,277;    1,591
210,160;   58,121;    0,550;    1,864
210,759;   33,360;    4,186;    1,227
211,359;   21,041;    1,459;    1,045
211,958;  135,959;    1,277;    2,045
212,558;  143,920;    1,732;    1,864
213,157;   64,097;    1,822;    1,500
213,757;  222,535;    3,822;   -0,227
214,356;   99,007;    1,277;   -0,409
214,956;  216,146;    3,095;    0,409
215,555;   73,750;    2,095;    2,136
216,154;   35,783;   -2,723;   -0,591
216,754;   36,042;    0,277;    0,773
217,353;   57,780;   -0,268;   -1,045
217,952;   -1,961;   -0,178;    0,318
218,552;   94,500;    1,368;   -0,773
219,151;   43,885;    0,277;    0,955
219,750;   31,621;    0,004;   -0,227
220,349;   10,864;   -0,451;    1,045
220,948;  103,594;   -1,360;    1,136
221,548;   32,551;    0,913;    1,227
222,147;   58,823;   -0,087;   -0,409
222,746;  163,483;   -0,451;   -0,955
223,345;   79,698;    0,731;    0,500
223,944;   83,630;   -0,451;    0,773
224,543;   90,635;    1,004;   -1,409
225,142;   93,343;    0,094;    0,136
225,741;   88,735;   -0,814;    1,045
226,340;   66,164;   -0,451;   -0,955
226,939;  151,446;   -0,996;   -0,136
227,538;   55,475;   -0,360;   -0,773
228,137;  160,634;   -0,814;    0,864
228,735;  116,536;   -0,541;    1,227
229,334;   24,068;   -0,905;   -0,227
229,933;  150,783;    0,459;    0,591
230,532;  164,521;    1,186;   -0,409
231,131;  225,774;    1,732;    0,318
231,729;  124,113;   -2,450;   -2,318
232,328;   65,879;   -0,723;   -1,500
232,927;   78,338;    1,004;   -0,500
233,525;   67,649;    3,640;    0,045
234,124;   80,580;    2,368;   -1,591
234,723;   37,269;    0,913;   -1,045
235,321;   25,343;    2,277;    0,136
235,920;   50,393;    1,186;   -1,227
236,518;  162,466;    3,459;    0,318
237,117;   54,616;    0,004;   -0,227
237,715;   62,497;    0,640;   -0,500
238,314;   84,087;   -0,087;   -2,318
238,912;  178,119;   -0,723;   -1,409
239,510;  103,638;    0,459;   -1,227
240,109;  182,135;    0,004;    3,773
240,707;  158,409;   -0,996;    1,227
241,305;   54,851;    0,550;    0,136
241,904;  128,488;   -0,178;   -2,045
242,502;  226,871;   -0,632;   -0,227
243,100;  159,120;   -0,087;   -0,955
243,698;  102,910;    0,732;    1,682
244,297;  141,620;   -0,632;    0,682
244,895;  143,875;   -0,269;   -2,318
245,493;  306,272;    2,186;   -0,591
246,091;  322,213;    1,368;   -1,318
246,689;  278,480;    1,004;    0,591
247,287;  261,895;    0,822;   -1,136
247,885;  236,482;   -1,451;    1,227
248,483;  213,310;    1,822;   -0,500
249,081;  320,485;    0,185;    1,591
249,679;  379,218;   -0,178;    1,682
250,277;  255,254;   -1,723;    0,864
250,875;  412,217;   -1,087;   -1,045
251,473;  320,564;   -1,178;    0,500
252,071;  443,310;    1,459;    1,045
252,669;  369,448;   -1,814;    0,318
253,267;  331,492;   -0,087;    0,773
253,864;  401,804;   -0,360;    0,682
254,462;  595,190;    1,640;    1,591
255,060;  363,156;   -0,269;    1,318
255,658;  370,812;    0,822;   -0,136
256,255;  491,797;    0,186;   -2,045
256,853;  542,209;   -0,269;    1,409
257,451;  528,986;    0,822;    1,864
258,048; 1011,408;    1,822;    1,864
258,646;  690,819;    1,731;   -1,045
259,243;  834,482;   -0,087;    2,227
259,841;  705,059;   -0,814;    0,318
260,438;  537,274;   -0,087;    0,864
261,036;  718,205;   -1,905;    1,409
261,633;  625,553;   -0,087;    2,227
262,231;  579,643;    2,731;   -0,045
262,828;  608,795;   -0,905;    1,136
263,425;  677,576;    0,913;   -0,591
264,023;  717,884;    0,186;    0,045
264,620;  898,079;   -0,360;   -0,318
265,217; 1071,819;   -2,087;    3,136
265,815;  773,744;   -1,905;    2,136
266,412;  939,741;    0,731;    0,136
267,009; 1000,525;   -1,451;    0,773
267,606; 1142,728;    0,822;   -0,955
268,203;  880,355;   -0,269;   -0,591
268,801;  963,656;    1,731;    0,591
269,398;  888,262;   -0,360;    2,500
269,995; 1072,522;    0,277;    1,591
270,592;  976,737;   -0,632;   -0,500
271,189;  907,476;    0,186;    0,409
271,786;  908,252;   -0,632;    1,227
272,383; 1200,218;   -1,087;    0,227
272,980; 1020,870;    0,277;    0,318
273,577; 1003,203;    0,004;    1,227
274,174;  899,717;    0,822;    2,591
274,771; 1046,176;   -0,814;   -0,773
275,367; 1528,742;    2,277;    1,409
275,964; 1325,523;    0,731;   -0,500
276,561; 1090,195;    1,549;   -1,045
277,158; 1009,127;    0,095;   -1,773
277,755; 1303,212;    2,185;    0,409
278,351; 1077,540;   -0,451;   -1,500
278,948; 1199,809;   -0,815;    0,045
279,545; 1075,126;   -1,360;    2,318
280,141; 1430,051;   -1,723;   -2,045
280,738; 1269,799;   -0,451;   -0,136
281,334; 1073,989;   -1,633;    0,591
281,931; 1081,630;   -0,087;   -1,318
282,528; 1192,448;    0,822;   -0,500
283,124; 1380,099;   -1,087;   -0,500
283,721; 1366,422;   -0,451;    1,409
284,317; 1185,429;    0,185;    2,500
284,913; 1473,130;   -1,360;    0,591
285,510; 1838,675;    0,640;   -0,318
286,106; 1646,920;   -2,269;   -0,955
286,703; 1277,120;   -0,360;    1,955
287,299; 1277,786;   -1,451;   -0,591
287,895; 1354,748;    0,822;   -1,045
288,491; 1488,716;    0,186;    2,136
289,088; 1616,107;   -2,360;    2,409
289,684; 1677,630;   -1,723;    1,500
290,280; 1891,849;    0,368;    0,682
290,876; 1941,767;    1,822;    5,500
291,472; 1859,523;    1,276;    2,227
292,068; 1949,388;    1,367;    0,227
292,665; 1818,241;    2,095;    0,773
293,261; 1773,399;    0,276;    2,136
293,857; 2027,654;    2,913;    2,136
294,453; 2049,049;    3,550;    0,955
295,049; 2258,204;   -0,268;    1,955
295,644; 2228,902;    0,095;    0,136
296,240; 2226,666;   -0,905;   -0,136
296,836; 2453,702;   -0,995;    0,318
297,432; 2716,524;    1,096;   -0,500
298,028; 2898,498;    0,732;    0,773
298,624; 2957,086;    1,459;    1,864
299,220; 3104,903;    2,368;    0,591
299,815; 3022,593;    1,005;   -0,409
300,411; 3140,022;    0,914;    1,773
301,007; 3283,933;    1,368;    0,227
301,602; 3204,410;   -0,541;   -2,318
302,198; 3405,230;    0,732;   -0,773
302,794; 3587,214;    1,187;   -0,500
303,389; 3716,325;   -1,177;    1,045
303,985; 3840,676;    0,550;    1,409
304,580; 3904,662;    1,459;    1,591
305,176; 3867,353;   -3,086;    0,136
305,771; 3785,082;   -1,268;   -1,227
306,367; 4031,914;    4,095;    0,136
306,962; 4073,137;    0,641;    1,500
307,558; 3831,345;   -0,450;    0,136
308,153; 3857,996;    1,095;   -1,136
308,748; 3897,924;   -0,814;    1,682
309,344; 4041,946;   -0,632;   -1,318
309,939; 4165,828;   -1,905;   -1,318
310,534; 4092,887;   -0,086;   -1,682
311,130; 3919,904;    0,459;   -2,500
311,725; 3698,685;    1,004;   -0,500
312,320; 3896,482;    2,459;    0,045
312,915; 3899,257;    1,459;   -1,045
313,510; 3987,815;    1,550;   -0,500
314,105; 4028,141;    1,096;    1,409
314,700; 3544,194;   -3,086;   -1,045
315,295; 3402,571;   -0,904;    0,045
315,890; 3148,851;    1,277;    0,864
316,485; 3261,971;   -0,359;   -0,318
317,080; 3226,605;   -3,086;    1,591
317,675; 3512,307;    2,005;   -0,682
318,270; 3415,991;    5,550;    3,318
318,865; 3327,075;    3,278;    3,045
319,460; 3071,378;   -0,904;    0,591
320,055; 3054,347;   -0,541;   -1,227
320,650; 2887,917;   -1,995;   -0,591
321,244; 2889,107;   -0,177;   -1,409
321,839; 3272,487;   -1,541;   -0,227
322,434; 3213,391;   -1,086;   -1,591
323,029; 3022,784;    1,732;    1,591
323,623; 2923,196;    1,550;    0,773
324,218; 2927,101;    2,368;    1,409
324,812; 2852,493;    1,096;    1,591
325,407; 2822,196;   -0,814;    2,045
326,002; 2855,813;    0,277;   -0,409
326,596; 2979,811;    0,914;    1,318
327,191; 3010,689;    0,823;   -1,045
327,785; 2866,265;   -0,813;   -0,227
328,379; 3096,358;    1,368;    0,136
328,974; 2961,027;    0,914;   -3,955
329,568; 3229,623;    0,186;   -2,409
330,163; 3264,284;    2,096;    1,045
330,757; 3439,958;    2,459;    1,591
331,351; 3221,736;    0,459;    0,682
331,945; 3461,571;    0,914;    1,409
332,540; 3469,015;   -1,723;   -0,591
333,134; 3591,303;   -1,086;    0,773
333,728; 3744,165;    0,005;    0,318
334,322; 4007,922;   -1,177;   -0,864
334,916; 3680,252;    0,277;    0,955
335,510; 4056,028;   -0,450;   -0,136
336,105; 4354,871;   -1,086;    1,591
336,699; 4247,035;   -1,086;    0,591
337,293; 4335,934;   -1,723;    0,318
337,887; 4479,060;   -2,723;    1,955
338,481; 4750,587;    0,459;    0,591
339,074; 5082,791;   -0,359;    2,682
339,668; 5091,816;   -1,632;    1,227
340,262; 5602,614;    1,732;    3,227
340,856; 5240,104;    1,822;   -0,682
341,450; 4885,131;    1,004;    1,864
342,044; 5603,206;    1,459;    0,136
342,637; 5606,499;    0,913;   -2,136
343,231; 5670,688;   -2,360;    0,682
343,825; 5722,301;   -1,086;   -0,591
344,419; 5839,520;   -1,995;    0,500
345,012; 5993,674;    2,459;    4,045
345,606; 6061,056;    4,641;    1,591
346,199; 5994,457;   -1,813;   -0,227
346,793; 5796,846;    1,914;    2,045
347,386; 5998,181;   -0,813;   -1,136
347,980; 6066,345;   -0,268;   -0,045
348,573; 6035,479;    2,278;    0,409
349,167; 5971,963;    5,278;    4,773
349,760; 6342,373;    2,914;    2,682
350,354; 6317,911;   -0,813;    1,136
350,947; 6174,629;    1,096;    1,682
351,540; 5988,103;   -0,358;   -1,409
352,134; 5970,405;    1,096;    1,136
352,727; 6073,857;   -0,086;    1,136
353,320; 5961,471;    0,005;    0,591
353,913; 5830,088;   -1,995;    1,864
354,507; 6049,667;    0,823;   -1,227
355,100; 6095,264;    0,460;    0,864
355,693; 5586,291;    2,005;    2,409
356,286; 5598,035;    0,823;    2,773
356,879; 5846,113;   -0,722;    1,227
357,472; 5540,256;   -0,904;    1,500
358,065; 5734,936;   -0,722;    2,500
358,658; 5652,106;   -0,540;    2,318
359,251; 5337,938;   -1,631;   -0,591
359,844; 5006,552;   -1,904;   -1,136
360,437; 5208,608;   -2,995;    0,045
361,030; 5362,451;    1,369;   -0,682
361,623; 5016,759;    2,824;    0,318
362,215; 5064,585;   -0,086;    2,045
362,808; 4892,443;   -2,358;   -1,682
363,401; 5049,310;   -2,449;    0,136
363,994; 4906,036;   -0,631;   -1,500
364,586; 4767,239;    0,824;   -1,500
365,179; 4886,516;   -0,449;   -1,136
365,772; 4458,753;   -1,995;    2,045
366,364; 4667,979;    1,915;   -3,227
366,957; 4839,764;    2,279;   -0,045
367,549; 4787,536;    2,188;   -0,864
368,142; 4540,552;    1,825;   -1,500
368,734; 4677,434;    0,734;   -2,136
369,327; 4609,581;    1,643;   -0,500
369,919; 4543,330;   -1,538;    0,409
370,512; 4452,862;   -1,083;   -0,500
371,104; 4278,441;   -0,901;    1,591
371,696; 4407,069;    1,191;   -0,955
372,289; 4410,892;    0,373;    1,136
372,881; 4471,110;   -2,080;    1,318
373,473; 4352,766;   -2,170;    1,136
374,066; 4250,975;   -0,169;    0,500
374,658; 4176,008;    0,378;    1,136
375,250; 4371,115;    0,653;   -1,409
375,842; 4231,119;    0,473;   -0,045
376,434; 4135,527;   -0,435;   -0,409
377,026; 4556,036;    0,204;   -2,500
377,618; 4439,013;   -0,158;   -0,682
378,210; 4289,638;   -0,338;   -1,955
378,802; 4131,733;    0,754;   -0,591
379,394; 4241,987;    1,846;    0,682
379,986; 4559,668;    1,393;   -0,955
380,578; 4588,723;   -0,153;    0,773
381,170; 4192,126;   -0,972;    0,045
381,762; 4122,072;    0,755;    1,409
382,354; 4236,916;   -0,065;   -1,318
382,945; 4282,812;   -2,976;    0,318
383,537; 4373,626;   -2,705;   -1,955
384,129; 4432,064;   -2,160;   -1,136
384,721; 4536,955;   -0,252;    0,955
385,312; 4437,246;   -0,161;   -0,955
385,904; 4545,015;   -2,706;    1,591
386,496; 4053,335;   -0,979;    1,045
387,087; 4223,203;    1,022;    2,500
387,679; 4185,556;   -1,160;    0,045
388,270; 4312,404;    2,840;    2,045
388,862; 4368,724;    1,295;   -0,318
389,453; 4220,749;   -0,887;    1,045
390,045; 4455,443;   -0,705;   -2,682
390,636; 4386,777;    0,204;   -0,591
391,227; 4270,821;   -0,523;   -0,045
391,819; 4365,479;    0,204;    0,773
392,410; 4440,424;    1,022;    0,045
393,001; 4407,018;   -0,979;   -1,591
393,593; 4608,514;    1,930;   -0,045
394,184; 4494,941;    1,385;   -0,409
394,775; 4333,616;    1,839;    2,136
395,366; 4532,072;    1,385;    0,773
395,957; 4492,652;    0,113;    0,136
396,548; 4701,460;   -0,342;    2,682
397,139; 4975,468;   -2,433;    0,591
397,730; 4739,663;   -1,888;    0,955
398,321; 4763,004;   -1,252;    0,955
398,912; 4736,635;   -0,615;    0,136
399,503; 4833,927;   -3,524;   -1,409
400,094; 4432,793;    0,294;    1,682
400,685; 4335,373;   -0,433;    0,045
401,276; 4327,593;    0,930;   -0,955
401,867; 4532,719;   -0,888;    0,773
402,458; 4592,093;   -2,251;   -2,318
403,048; 4588,311;    1,112;    0,591
403,639; 4273,833;    0,840;    0,864
404,230; 4536,175;    2,476;    0,318
404,821; 4466,290;   -0,615;    0,045
405,411; 4507,260;    1,203;   -2,591
406,002; 4168,538;   -1,252;   -1,136
406,592; 4179,341;    2,294;    0,045
407,183; 4261,410;    0,566;   -1,500
407,774; 4138,564;    3,475;   -0,136
408,364; 4319,199;    0,930;    0,409
408,954; 4067,512;    0,384;    1,227
409,545; 4041,493;    1,021;    1,045
410,135; 3641,496;    1,293;    0,500
410,726; 3715,679;    1,838;    0,318
411,316; 3963,680;    0,111;    0,773
411,906; 3659,404;   -0,253;   -0,409
412,497; 3292,191;   -1,070;   -0,045
413,087; 3611,451;   -1,980;   -0,227
413,677; 3786,711;   -0,707;    3,864
414,267; 3607,107;    0,656;    1,409
414,857; 3476,328;   -2,980;    4,227
415,448; 3588,062;    0,839;    0,500
416,038; 3348,401;    0,020;   -0,591
416,628; 3239,419;   -0,889;    0,409
417,218; 3032,388;    0,565;    3,318
417,808; 3134,155;    0,202;   -0,409
418,398; 3154,831;    0,020;    2,682
418,988; 3030,377;    2,020;    0,591
419,578; 3037,809;   -0,707;    1,409
420,168; 3165,417;   -1,343;   -0,955
420,757; 2965,822;   -1,343;   -1,500
421,347; 2626,886;    0,111;   -0,227
421,937; 2615,263;    2,292;    1,409
422,527; 2658,712;    0,838;   -0,773
423,116; 2571,402;   -0,253;   -0,045
423,706; 2470,910;   -1,889;    0,318
424,296; 2278,352;    1,384;    0,682
424,885; 2532,533;   -0,071;   -3,045
425,475; 2521,815;    1,474;   -2,864
426,065; 2317,198;   -0,980;   -0,318
426,654; 2165,353;   -0,435;   -0,318
427,244; 2374,692;    0,020;    1,409
427,833; 2115,191;    1,383;   -0,500
428,423; 2008,975;   -0,526;    1,136
429,012; 2197,881;   -0,344;   -1,136
429,601; 2082,734;   -1,344;    0,136
430,191; 1940,412;    1,292;    4,318
430,780; 1656,501;   -0,344;   -0,409
431,369; 1920,104;    0,746;   -0,045
431,959; 1916,897;   -1,254;    0,500
432,548; 1679,586;   -1,163;   -0,045
433,137; 1544,756;   -1,254;   -1,318
433,726; 1717,151;    0,292;    0,500
434,315; 1530,269;   -0,526;    2,409
434,905; 1625,930;   -1,254;    1,409
435,494; 1660,921;    0,746;    0,955
436,083; 1458,515;   -0,981;   -0,955
436,672; 1416,958;    0,110;    0,500
437,261; 1312,254;    0,292;   -1,955
437,850; 1660,700;    1,383;    0,682
438,439; 1635,095;    3,291;    1,955
439,027; 1701,421;    3,655;    1,773
439,616; 1607,859;    2,927;    1,227
440,205; 1229,246;    0,200;   -2,136
440,794; 1047,892;    2,109;   -0,045
441,383;  914,661;   -1,346;   -0,591
441,971;  761,817;   -2,436;    0,591
442,560;  768,463;    0,563;   -1,773
443,149;  623,457;    0,379;   -1,318
443,737;  680,636;   -0,074;   -2,318
444,326;  648,210;    0,018;    0,318
444,915;  709,209;   -1,982;    0,864
445,503;  695,864;   -2,891;   -0,318
446,092; 1019,917;    0,382;    2,136
446,680;  912,016;    0,382;    0,318
447,269;  786,498;   -0,346;   -0,318
447,857;  686,903;    0,018;   -1,773
448,445;  575,710;    0,563;    1,318
449,034;  500,339;   -1,528;   -1,136
449,622;  452,800;   -1,073;    3,500
450,210;  899,722;    2,017;    2,227
450,799;  759,222;    0,290;   -0,591
451,387;  631,944;    1,381;   -0,591
451,975;  593,781;    2,654;    0,864
452,563;  703,265;    3,472;    2,318
453,151;  391,366;   -0,528;   -1,227
453,739;  456,879;   -1,347;    0,136
454,328;  623,124;    2,381;   -2,136
454,916;  489,989;    2,562;   -0,136
455,504;  476,741;    1,017;    1,227
456,092;  314,141;    0,017;   -1,591
456,679;  239,220;    1,472;    0,682
457,267;  808,716;    4,017;    1,045
457,855;  350,581;    1,017;    1,409
458,443;  131,377;   -0,165;    1,682
459,031;  399,277;    0,108;    2,409
459,619;  316,613;   -1,801;    2,864
460,206;  161,069;    0,835;    2,045
460,794;  163,649;   -2,983;   -0,227
461,382;  233,608;   -0,529;   -0,864
461,970;  206,997;    1,198;    1,864
462,557;   93,835;   -0,711;   -0,682
463,145;  271,456;   -3,165;   -1,682
463,732;  587,669;    2,016;   -1,045
464,320;  273,042;   -0,075;   -3,045
464,907;  462,405;    2,743;   -0,773
465,495;  341,418;    0,743;   -1,227
466,082;  222,237;   -1,984;   -0,045
466,670;  248,627;   -2,529;    1,227
467,257;   93,239;   -1,711;    2,045
467,844;  226,513;   -0,075;    0,045
468,432;  195,299;    0,834;    3,500
469,019;  137,088;    0,925;   -1,773
469,606;  236,950;    0,470;    3,682
470,193;  273,520;   -1,439;    0,227
470,780;  222,295;   -2,075;    0,864
471,368;  123,083;   -1,257;   -0,773
471,955;  250,023;    1,379;   -0,682
472,542;  194,410;    0,652;   -1,136
473,129;   39,758;   -0,166;    0,136
473,716;   52,406;    1,470;    0,591
474,303;   91,783;    0,652;   -0,864
474,890;   96,127;   -1,439;   -0,500
475,477;  204,090;   -1,621;    0,409
476,064;   86,646;    1,106;   -1,591
476,650;  218,656;    0,288;    0,318
477,237;  111,565;   -0,258;    0,955
477,824;   77,092;   -1,076;    0,864
478,411;  -24,571;   -1,894;   -0,318
478,997;  -25,328;    0,560;   -0,773
479,584;  -86,889;    1,196;   -0,409
480,171;  117,850;   -0,440;   -0,773
480,757;  190,607;    2,651;    0,773
481,344;   57,194;    0,469;    0,409
481,931;  -47,028;    1,105;    1,045
482,517;   98,019;   -1,258;    0,318
483,104;  188,170;    1,106;    2,864
483,690;   39,644;   -1,804;    0,045
484,276;   11,004;   -0,895;    0,227
484,863;  233,100;    2,469;    1,136
485,449;   73,851;   -0,077;    0,318
486,035;   19,274;   -1,986;   -0,136
486,622;  119,135;   -0,895;    0,045
487,208;   27,377;    1,378;    1,500
487,794;  -54,374;    0,741;    0,318
488,380;  -54,412;    0,105;   -1,409
488,967;  -40,335;   -1,168;   -0,409
489,553;  -31,408;   -1,895;   -1,409
490,139;   57,209;    1,559;    0,773
490,725;  -32,122;    0,741;   -0,227
491,311;   20,176;    3,287;    3,045
491,897;    5,469;   -0,986;    1,500
492,483;   17,100;    0,105;    1,227
493,069;  484,463;    3,923;    0,864
493,655;  177,349;    1,650;    0,682
494,241;   46,556;    1,377;   -0,955
494,826;   55,494;    0,287;   -1,045
495,412;  137,617;    2,559;   -0,682
495,998;   38,592;   -0,805;   -0,318
496,584;  105,356;    0,377;    1,045
497,169;  120,670;    1,014;   -0,682
497,755;   43,240;    0,650;    1,227
498,341;  219,299;    0,559;    0,318
498,926;  370,464;    1,832;    1,955
499,512;   61,293;    1,286;    2,955
500,097;   77,249;    0,195;   -0,318
500,683;  115,079;   -0,350;    2,136
501,268;   55,125;   -0,169;   -0,955
501,854;  100,263;   -0,169;    1,227
502,439;   96,267;   -0,624;   -1,773
503,024;  181,647;    0,195;    0,500
503,610;  252,387;   -0,078;   -0,682
504,195;  164,310;    0,558;    1,955
504,780;  341,151;    2,922;    1,227
505,366;  511,021;    3,013;    2,864
505,951;  445,309;    0,740;    1,045
506,536;  369,847;   -3,260;   -3,682
507,121;  520,618;    0,285;   -0,318
507,706;  512,365;    2,376;    1,045
508,291;  502,407;    2,649;    1,136
508,876;  599,077;   -0,988;    2,591
509,461;  786,483;   -0,169;   -0,773
510,046; 1004,125;    0,194;    0,318
510,631; 1122,376;   -0,351;   -0,773
511,216; 1169,709;    2,467;   -0,500
511,801; 1551,289;   -0,442;    2,591
512,386; 1761,487;    0,740;    0,500
512,971; 2035,673;   -2,988;    0,955
513,555; 2305,606;   -0,897;   -1,500
514,140; 2822,503;   -0,442;   -3,136
514,725; 3135,591;   -0,715;   -1,136
515,309; 3523,370;   -0,533;    0,318
515,894; 3739,785;   -0,624;   -2,227
516,479; 4361,670;   -0,624;   -0,955
517,063; 4611,156;    0,376;    1,227
517,648; 5191,364;    1,012;   -1,136
518,232; 5297,540;   -0,261;   -1,409
518,817; 6059,975;   -0,079;    1,682
519,401; 6741,903;    2,194;    0,591
519,985; 6711,577;    1,103;    1,136
520,570; 7045,456;    0,830;   -1,955
521,154; 7748,062;    2,102;    0,591
521,738; 8322,520;   -2,352;    2,409
522,323; 9229,749;   -0,170;    1,682
522,907; 9373,650;    0,466;   -0,136
523,491; 9502,215;    0,557;    0,955
524,075; 9851,468;    2,284;    0,591
524,659;10251,570;    1,466;    0,591
525,243;10120,720;    1,739;    0,409
525,827;10587,806;    0,648;   -0,045
526,411;11610,752;   -1,989;   -0,136
526,995;12110,149;   -0,352;    1,409
527,579;11964,576;   -0,443;   -1,045
528,163;12506,170;    0,375;   -1,500
528,747;12614,137;    2,466;   -0,773
529,331;13076,227;   -0,080;   -1,409
529,915;13447,125;    1,738;    0,955
530,499;13567,910;   -0,807;    1,227
531,082;13434,927;   -0,534;    1,591
531,666;13034,375;    1,374;    0,773
532,250;13815,026;    1,284;    2,682
532,833;14272,400;    0,920;    2,773
533,417;14192,264;   -1,807;    0,864
534,001;14281,059;    1,647;   -0,318
534,584;15063,958;    0,374;    0,500
535,168;14958,945;    0,465;    1,409
535,751;15116,868;    0,647;    0,045
536,334;14638,019;   -0,898;   -0,409
536,918;15257,213;    0,011;    1,591
537,501;15426,306;   -0,899;    1,318
538,085;15466,807;   -0,444;    1,045
538,668;15681,970;    0,829;    2,409
539,251;16057,041;    1,829;    3,773
539,834;16079,651;    0,101;    0,773
540,418;16037,688;   -1,990;    4,318
541,001;16202,329;   -0,990;    1,773
541,584;16243,790;    2,101;    2,227
542,167;15983,474;    1,374;    2,955
542,750;16170,930;    1,919;   -0,773
543,333;15763,934;    0,555;    2,136
543,916;16555,366;    0,192;    2,500
544,499;17256,400;   -1,354;    0,227
545,082;17278,206;    1,374;    3,591
545,665;17419,549;    1,919;    1,500
546,248;17814,662;    1,010;   -0,318
546,830;17501,960;   -0,445;    1,955
547,413;17887,989;    1,010;   -0,773
547,996;18403,042;    0,555;    0,500
548,579;18225,850;    0,919;    0,955
549,161;18032,837;    1,828;    2,682
549,744;17829,190;   -0,809;    0,409
550,326;18328,294;   -0,809;   -1,136
550,909;18145,718;    2,737;    0,591
551,492;18571,709;   -0,263;    0,227
552,074;18355,168;   -0,173;   -1,318
552,657;18940,233;    2,373;    0,045
553,239;18672,720;   -0,173;   -0,773
553,821;18559,133;   -1,082;    1,045
554,404;18066,648;    1,282;    1,136
554,986;18480,819;    0,464;    1,045
555,568;19127,852;    1,191;   -0,955
556,151;18297,378;    1,191;   -0,227
556,733;18502,513;   -0,264;   -0,864
557,315;19011,543;    0,100;    0,500
557,897;18824,666;    0,554;   -0,500
558,479;18937,439;   -1,991;    1,318
559,061;19127,183;   -0,719;   -0,864
559,643;19411,967;   -0,264;    0,045
560,225;19782,112;    1,645;    2,864
560,807;19820,876;    0,918;    0,318
561,389;19284,247;    0,554;    2,318
561,971;20093,681;    0,463;    2,136
562,553;19853,041;   -1,628;    1,591
563,135;20001,235;   -0,537;    1,136
563,717;19604,105;    3,372;    1,136
564,298;20377,113;    3,645;   -0,045
564,880;20096,729;    0,645;   -1,409
565,462;20260,184;    0,645;    1,318
566,043;21481,907;   -0,446;    2,318
566,625;21022,082;    1,918;    1,227
567,207;20903,474;    1,099;    1,682
567,788;22052,325;   -1,264;    1,500
568,370;22901,095;    1,917;   -0,500
568,951;22776,976;    0,190;    0,227
569,533;23692,551;   -0,628;   -0,500
570,114;24162,544;   -0,446;    0,682
570,695;24659,439;   -0,174;   -1,318
571,277;25184,064;   -0,265;   -1,682
571,858;25982,576;    2,008;   -1,136
572,439;26924,730;    1,554;   -1,045
573,021;27124,660;    2,099;   -2,773
573,602;27578,755;   -1,265;    0,318
574,183;28600,718;   -2,083;    2,227
574,764;28750,938;   -1,629;    0,409
575,345;29353,648;    0,917;   -0,136
575,926;29940,118;   -0,356;    0,136
576,507;29920,294;    1,099;   -0,227
577,088;31083,443;    3,099;    1,682
577,669;31095,173;    0,735;    1,955
578,250;31995,354;    0,644;   -1,045
578,831;32635,275;   -1,356;   -2,227
579,412;32836,336;   -0,810;    0,955
579,993;33786,414;    1,008;    0,227
580,573;34138,908;   -0,629;   -0,955
581,154;33103,667;    0,735;   -0,591
581,735;33972,316;    0,644;    0,773
582,315;33444,770;   -0,629;    2,136
582,896;33714,756;   -0,174;    1,227
583,477;33090,188;    0,189;    1,227
584,057;33286,018;    0,553;    0,955
584,638;33670,959;    2,553;    2,318
585,218;33652,368;   -0,538;    2,682
585,799;33910,620;    0,281;   -0,227
586,379;33848,443;    0,372;    1,591
586,959;32502,874;    0,735;    0,318
587,540;31755,884;   -0,629;    2,227
588,120;31324,830;    1,007;   -0,045
588,700;30236,892;    2,553;    2,136
589,281;30583,661;    0,462;   -0,955
589,861;30546,824;    0,099;   -1,682
590,441;30364,401;    2,371;   -2,682
591,021;29287,407;   -0,265;   -2,591
591,601;29470,702;   -0,537;    0,500
592,181;29501,708;   -0,719;   -0,773
592,761;28764,211;    0,007;    1,409
593,341;28648,653;   -0,901;    0,045
593,921;28685,138;   -0,265;    1,591
594,501;28604,270;   -0,538;    1,318
595,081;28445,612;    0,917;   -0,318
595,661;28779,925;   -1,447;    0,955
596,240;29279,007;   -0,537;    0,136
596,820;28986,550;    0,372;    1,955
597,400;29197,392;    2,008;    0,773
597,980;29332,805;    2,008;    1,045
598,559;29359,281;    2,735;   -0,227
599,139;29069,503;   -0,174;   -1,227
599,718;28977,230;   -0,174;   -0,409
600,298;29214,587;    0,735;    0,682
600,877;29467,916;    2,917;    1,409
601,457;29710,186;    2,281;    1,136
602,036;29633,604;    0,190;    2,045
602,616;29882,980;    0,644;    1,682
603,195;30229,725;   -0,355;    3,500
603,774;29729,914;   -0,901;    2,045
604,354;29645,622;    0,826;   -0,500
604,933;29146,137;    0,463;    1,864
605,512;29257,609;    3,554;    0,591
606,091;29308,464;   -0,537;    3,773
606,671;30090,342;    0,281;    0,773
607,250;29236,355;    1,644;    3,136
607,829;29384,930;    2,372;    3,227
608,408;29269,145;    1,190;    2,591
608,987;28296,485;    1,281;    3,409
609,566;28573,750;   -1,265;   -2,500
610,145;28727,752;   -1,082;    0,682
610,723;29134,993;    4,372;    6,864
611,302;28363,516;   -0,446;    1,682
611,881;27828,297;    5,008;   11,227
612,460;28696,830;    1,645;    3,955
613,039;29126,002;   -0,082;    2,045
613,617;27795,989;    1,736;    4,773
614,196;28016,135;    1,099;    1,227
614,775;28394,956;    1,009;    2,409
615,353;28292,487;    0,736;    0,864
615,932;28060,838;    0,100;    2,409
616,510;28616,859;    0,554;    0,591
617,089;28113,917;    7,100;   17,591
617,667;27866,300;    2,372;    6,136
618,246;27749,071;   -1,537;    1,318
618,824;27906,246;   -3,355;   -0,955
619,402;27455,162;   -2,900;   -1,773
619,981;27934,440;   -0,173;   -1,045
620,559;27763,893;    0,009;    1,682
621,137;27277,173;   -0,718;    1,864
621,715;27335,232;   -1,173;   -0,682
622,293;27237,861;   -0,537;   -0,773
622,871;27685,634;   -0,718;    0,500
623,450;27263,754;    0,373;   -0,864
624,028;27130,828;    0,191;   -0,955
624,606;26737,878;   -1,718;    1,682
625,183;27166,753;   -1,536;   -1,136
625,761;26823,928;    1,009;    1,136
626,339;27134,152;    1,373;    2,591
626,917;27467,698;   -0,172;   -0,045
627,495;27468,750;   -0,354;    1,318
628,073;26899,865;   -0,263;    2,864
628,650;26609,719;    0,100;    2,136
629,228;27060,124;    0,373;    4,409
629,806;26421,641;    2,282;    1,136
630,383;26677,496;    1,464;   -0,318
630,961;26499,583;    2,555;   -0,955
631,539;26247,632;    2,464;    0,227
632,116;25645,583;   11,373;   15,409
632,694;26184,419;    2,555;    6,500
633,271;26464,602;    0,828;    2,682
633,848;26357,786;    1,828;    2,045
634,426;26403,231;   -1,081;    1,773
635,003;25558,414;    1,101;   -0,409
635,580;25859,388;    1,192;    3,682
636,158;26445,541;    3,737;    1,227
636,735;26373,635;    0,555;   -0,500
637,312;26536,241;   -0,809;   -0,682
637,889;26654,256;   -4,354;   -0,682
638,466;26091,348;   -3,990;   -0,409
639,043;26072,733;    2,101;   -1,136
639,620;26423,149;   -2,262;   -0,955
640,197;26821,758;    1,100;    1,682
640,774;26860,365;   -0,172;    1,136
641,351;27297,973;    0,737;    1,136
641,928;26719,035;   -0,627;    1,409
642,505;26362,642;    0,828;   -0,500
643,082;26430,158;   -1,718;    1,227
643,658;25484,674;   -0,718;    1,500
644,235;26214,827;    1,191;    2,500
644,812;26562,253;    1,918;    0,773
645,388;26275,678;   -0,991;    1,409
645,965;26370,376;   -0,809;    1,682
646,542;26463,256;   -1,445;   -0,227
647,118;26394,682;    1,009;   -0,955
647,695;26717,289;   -0,263;    1,136
648,271;26608,987;   -0,536;    0,500
648,848;26929,685;    0,736;    2,227
649,424;26790,111;    0,827;    1,318
650,000;26550,354;   -0,354;   -1,045
650,577;26325,870;   -0,627;   -0,955
651,153;26841,296;   -1,809;    0,955
651,729;27885,721;    1,191;    0,864
652,305;28300,601;    0,645;    2,773
652,881;33352,209;   -0,082;    1,136
653,458;40454,543;    1,100;    0,227
654,034;44088,514;    0,282;    1,591
654,610;45511,212;    0,554;    0,773
655,186;46849,365;    0,645;    3,045
655,762;46487,063;   -0,991;    0,409
656,338;46511,125;    0,100;    0,136
656,913;47436,550;   -0,082;    0,409
657,489;46706,885;    0,827;   -0,318
658,065;46702,037;   -0,173;   -1,591
658,641;47383,099;   -0,900;   -0,864
659,217;46678,434;   -0,991;    0,409
659,792;46076,405;    0,645;   -0,409
660,368;46267,194;   -2,173;   -0,682
660,944;45703,528;   -2,082;    1,227
661,519;40507,590;   -0,628;    0,409
662,095;34309,197;   -1,719;    0,591
662,670;29805,168;    1,281;   -0,136
663,246;28754,775;    1,009;   -0,409
663,821;28136,019;    0,281;    1,682
664,396;27628,263;    0,009;    1,864
664,972;27948,142;    0,009;   -0,500
665,547;28236,022;    1,372;    0,136
666,122;28257,084;   -1,082;    0,318
666,698;28512,601;   -0,173;    0,318
667,273;27883,662;   -0,173;    0,136
667,848;28715,997;    2,372;    1,500
668,423;28573,422;    2,190;    2,318
668,998;29164,393;    2,827;   -0,682
669,573;29636,637;   -3,264;   -1,500
670,148;29418,880;   -1,446;   -0,682
670,723;29260,942;   -1,810;    0,318
671,298;29665,549;    2,372;    1,045
671,873;29823,975;   -0,082;   -0,136
672,448;29758,309;    0,645;    0,136
673,023;30102,553;   -1,992;   -0,227
673,597;30432,797;    0,827;    2,318
674,172;30167,404;   -0,355;    0,318
674,747;29656,193;    0,372;   -1,045
675,321;29480,527;   -0,628;    3,318
675,896;29065,862;    0,645;    1,045
676,471;30083,015;    2,645;    1,591
677,045;29929,349;   -1,264;    0,682
677,620;29962,411;    0,190;    1,136
678,194;30232,745;   -2,628;    1,136
678,769;29789,716;   -1,083;   -0,318
679,343;30078,778;   -0,628;    1,773
679,917;29935,113;   -1,446;    1,955
680,492;29981,993;    0,826;    3,227
681,066;30141,418;    3,372;    0,409
681,640;30202,207;    1,463;   -0,318
682,214;31020,269;    0,735;    0,500
682,788;30573,149;   -1,356;   -0,773
683,363;30513,756;   -1,810;    1,682
683,937;30223,636;   -1,719;   -0,318
684,511;30945,152;    0,463;   -0,591
685,085;30639,487;   -1,356;    0,318
685,659;30417,185;   -2,538;    0,864
686,232;30665,429;   -0,356;   -0,318
686,806;30359,763;   -0,901;    0,409
687,380;31022,098;   -0,174;    0,591
687,954;31233,705;   -1,174;    1,136
688,528;30966,676;   -0,719;    1,955
689,101;31732,374;   -3,992;    1,045
689,675;31304,527;   -0,356;   -0,136
690,249;30709,498;   -0,719;    0,409
690,822;31023,650;    0,280;    0,318
691,396;31109,985;   -0,265;    1,227
691,969;30540,956;    1,280;    0,136
692,543;30971,745;   -0,447;   -1,955
693,116;30608,352;   -0,265;   -1,409
693,690;30481,232;    0,099;    0,500
694,263;31085,385;   -1,083;    2,955
694,836;31090,901;    1,371;    3,591
695,410;29733,326;   -0,265;    1,773
695,983;30230,661;    0,189;    0,591
696,556;30178,177;   -0,447;   -1,045
697,129;30551,057;   -0,356;    1,409
697,703;30213,210;   -1,629;    1,955
698,276;30152,090;    1,462;   -0,773
698,849;29991,970;    1,280;    1,409
699,422;30339,759;   -1,083;    0,591
699,995;30039,366;    0,007;    0,136
700,568;30508,883;   -0,629;    3,045
701,140;30549,399;   -2,811;    1,682
701,713;30305,279;   -0,174;    2,409
702,286;30066,341;   -0,538;    0,864
702,859;29972,766;   -0,902;   -0,591
703,432;29060,010;    0,825;    0,682
704,004;29531,344;    0,462;    0,318
704,577;29415,770;   -0,629;    0,136
705,150;30025,741;    0,189;    2,500
705,722;29786,530;   -0,356;   -3,227
706,295;29577,046;   -0,175;   -0,591
706,867;29460,290;   -0,175;    1,955
707,440;29634,897;   -1,720;   -0,409
708,012;29917,413;    0,462;    0,591
708,584;29867,020;    2,462;    0,227
709,157;30106,446;    1,825;   -0,591
709,729;29728,144;    2,280;    2,045
710,301;30593,388;    0,734;    0,045
710,874;30575,449;   -1,447;   -0,227
711,446;29449,057;    0,371;    0,864
712,018;29361,937;    0,098;    0,500
712,590;29065,817;   -1,993;    1,682
713,162;29577,878;    0,825;    1,318
713,734;29846,304;    1,825;   -2,045
714,306;29777,820;   -1,902;   -0,409
714,878;28424,973;    0,825;    0,864
715,450;29285,307;    0,643;    0,864
716,022;29522,915;    1,552;    1,318
716,593;29641,795;    0,189;    0,591
717,165;29600,856;   -3,175;   -1,227
717,737;29312,009;    0,280;    0,409
718,309;28931,798;    0,280;   -0,045
718,880;28917,405;   -0,539;   -1,409
719,452;29133,194;   -0,175;   -1,591
720,024;28728,438;    0,734;   -0,591
720,595;29275,318;   -2,902;    0,955
721,167;28836,289;    0,370;   -2,045
721,738;28406,896;   -0,812;   -1,045
722,309;28357,049;   -0,993;   -1,227
722,881;28108,929;   -1,357;    0,773
723,452;28749,263;   -2,630;    2,864
724,023;28903,234;   -0,721;    2,682
724,595;28641,205;    0,007;    0,682
725,166;28396,721;    0,007;   -0,409
725,737;28051,692;    1,734;    0,227
726,308;28146,936;   -0,266;    0,318
726,879;28562,634;   -1,630;    1,227
727,450;28516,787;    0,552;   -0,045
728,021;28456,303;    3,097;    0,682
728,592;28236,183;    0,734;    0,500
729,163;28515,699;    0,643;   -0,136
729,734;28548,488;    0,188;   -0,227
730,305;28937,914;    1,734;    0,136
730,876;29311,157;    0,188;    2,955
731,447;29048,128;    2,188;    2,682
732,017;29123,917;    1,097;    1,864
732,588;28586,161;    0,734;    1,227
733,159;28821,677;    0,643;   -1,045
733,729;28591,921;    0,006;    0,409
734,300;27863,710;    0,915;    0,864
734,870;28343,681;    3,461;    0,591
735,441;28879,834;    0,370;   -0,591
736,011;28598,259;    0,643;   -1,591
736,582;28569,775;   -0,812;    0,045
737,152;28046,019;   -1,721;   -2,045
737,722;28469,081;   -0,267;   -0,682
738,293;28171,597;   -1,358;    1,318
738,863;28048,023;    2,461;    2,318
739,433;27846,812;    5,279;    0,318
740,003;28470,328;   -0,994;   -0,682
740,573;27845,844;    2,097;   -1,591
741,143;27767,815;   -1,085;    0,318
741,713;28598,332;    1,188;   -0,500
742,283;28358,484;    0,915;    1,591
742,853;28116,819;    1,915;    1,591
743,423;27513,153;    1,733;    0,045
743,993;27631,579;   -0,358;    1,500
744,563;26985,640;    0,097;   -0,864
745,133;26966,248;   -0,812;   -0,864
745,702;27648,037;   -0,267;    1,773
746,272;26904,280;   -0,176;    0,591
746,842;26637,615;   -1,358;   -0,591
747,411;27080,404;   -0,267;   -0,318
747,981;27266,466;    0,097;    0,500
748,551;27280,073;    2,278;   -1,045
749,120;27152,044;    0,642;   -0,227
749,690;27568,924;   -0,631;    2,409
750,259;27903,895;    1,369;    2,955
750,828;27791,411;    1,551;   -1,955
751,398;28082,655;    1,278;   -0,045
751,967;27560,535;    2,187;    0,409
752,536;27764,687;   -0,813;   -0,227
753,105;28185,840;    0,096;    0,227
753,675;28015,720;    0,096;    1,773
754,244;27959,236;   -0,904;    3,591
754,813;27948,389;    0,551;    1,227
755,382;27537,724;    0,460;    0,955
755,951;28143,785;    1,551;    3,682
756,520;27624,029;   -0,085;    1,864
757,089;28300,818;    0,278;    0,500
757,658;28432,971;    1,733;    1,227
758,227;28384,669;    1,096;    0,318
758,795;28700,367;    1,187;    1,136
759,364;28870,974;   -0,086;   -0,591
759,933;27878,491;   -1,176;   -0,045
760,501;27393,280;    0,733;   -1,318
761,070;27844,887;   -2,813;   -1,409
761,639;28562,403;   -1,904;    1,318
762,207;27962,465;    1,551;   -0,955
762,776;27873,163;    0,369;    0,864
763,344;27842,498;   -0,995;    0,591
763,913;26958,923;   -0,722;    1,409
764,481;27608,440;    1,005;   -0,136
765,049;27381,047;   -1,358;    1,409
765,618;27276,290;   -0,086;    0,318
766,186;27371,989;    0,278;    0,136
766,754;27544,505;    0,005;    1,864
767,322;26540,294;   -1,995;    0,409
767,890;26580,992;   -0,722;   -1,773
768,459;26976,417;   -2,177;   -0,318
769,027;27192,570;    1,641;    3,409
769,595;26124,177;    3,278;    2,591
770,163;26574,967;    3,823;    2,955
770,730;26311,756;    0,732;   -0,136
771,298;26159,363;    0,187;   -1,409
771,866;26242,516;   -1,541;    4,955
772,434;26545,123;   -0,631;   -1,864
773,002;26752,185;    0,005;    0,682
773,569;26369,337;    0,914;    1,682
774,137;26182,944;   -0,268;   -0,045
774,705;26979,279;    0,278;   -0,136
775,272;26479,977;    0,641;    0,682
775,840;26182,221;   -0,177;    2,682
776,407;25773,192;    0,277;    1,955
776,975;25392,890;   -0,632;    0,318
777,542;26349,952;   -1,086;   -0,045
778,110;26119,559;   -1,268;   -0,045
778,677;25841,802;   -2,359;   -0,864
779,244;25625,319;    2,186;    1,045
779,812;25735,835;    1,823;    0,864
780,379;25540,533;    0,005;    1,136
780,946;25809,050;    1,005;   -0,773
781,513;26160,839;   -1,450;    0,318
782,080;25557,264;   -0,086;    2,864
782,647;26277,780;   -0,268;    3,045
783,214;25850,479;   -0,177;    3,864
783,781;25475,268;   -0,723;   -0,682
784,348;25314,057;   -0,632;    1,500
784,915;25799,846;   -3,177;    0,318
785,482;25528,271;    1,368;    2,591
786,049;25946,878;    0,186;   -0,591
786,615;26124,486;    0,277;   -0,955
787,182;25806,638;    0,186;   -0,682
787,749;25519,064;   -2,814;    1,409
788,315;24850,398;   -1,632;   -0,409
788,882;25096,824;    1,550;   -1,227
789,448;25845,340;    1,732;   -0,955
790,015;25851,402;    1,095;    3,227
790,581;25386,100;    1,459;    0,227
791,148;25307,071;    0,641;    1,045
791,714;25546,496;   -0,541;    3,136
792,280;25147,831;    0,186;    1,591
792,847;24729,802;    0,550;    2,500
793,413;25332,682;   -0,269;   -0,318
793,979;24878,107;    3,459;   -1,318
794,545;24983,987;    4,459;    2,682
795,111;24376,958;    2,186;    1,318
795,678;24563,747;    0,731;   -1,682
796,244;24149,991;    3,368;    0,136
796,810;24696,780;    1,731;    0,773
797,375;24356,296;    0,549;   -2,136
797,941;24448,903;   -0,541;    0,591
798,507;24602,874;   -0,451;   -0,955
799,073;24122,936;   -0,360;    0,591
799,639;24163,907;   -2,632;    3,136
800,205;24183,150;    0,095;    2,682
800,770;23718,849;    0,640;    1,773
801,336;23812,365;    1,368;   -0,955
801,901;23504,336;    4,549;    3,136
802,467;24060,761;   -0,542;    2,045
803,033;23424,823;   -0,087;    0,864
803,598;23662,976;    1,913;   -1,045
804,163;23669,401;    1,095;   -0,318
804,729;23603,463;   -0,178;    1,136
805,294;24024,616;    0,822;    2,227
805,859;23767,768;    0,731;   -0,409
806,425;23247,103;    1,186;    2,682
806,990;22938,801;    2,186;    4,318
807,555;23468,226;   -1,451;    2,591
808,120;23306,379;    0,822;   -0,409
808,685;23323,532;    0,185;   -2,500
809,250;22811,230;    0,004;   -0,500
809,815;23156,928;    1,913;    0,682
810,380;23759,626;   -0,269;    1,591
810,945;24296,325;   -1,087;    2,045
811,510;23413,841;    2,094;    1,591
812,075;23131,175;   -0,633;   -1,409
812,640;23173,510;    2,003;    1,409
813,204;23225,299;    0,822;   -0,227
813,769;23713,543;    2,094;   -0,045
814,334;23094,150;    0,458;    0,864
814,898;23143,393;    0,367;    0,591
815,463;22979,910;    1,276;   -0,773
816,027;22945,062;   -0,724;   -2,318
816,592;23018,215;    0,640;   -2,045
817,156;22563,368;    2,094;    1,136
817,721;22459,793;    4,276;    2,318
818,285;22353,764;    2,912;    1,500
818,849;23072,826;   -1,451;    1,682
819,414;22925,342;   -0,269;    2,955
819,978;22508,768;   -1,269;    1,773
820,542;23087,648;    2,003;    0,500
821,106;22757,073;   -0,815;    0,682
821,670;22887,771;   -0,815;    2,591
822,234;22606,924;   -0,270;    1,409
822,798;21985,440;    0,003;    0,500
823,362;21943,320;   -0,633;    4,227
823,926;21234,928;    0,094;    1,136
824,490;21497,898;   -0,997;   -0,682
825,054;21888,597;   -0,088;   -1,136
825,618;21543,022;   -1,542;   -1,500
826,181;21512,447;    0,458;   -1,318
826,745;21442,146;    1,367;   -1,045
827,309;21799,935;    1,185;    1,318
827,872;21156,996;    1,367;    0,955
828,436;22174,967;    1,185;   -0,773
828,999;22242,393;   -0,997;    1,227
829,563;20975,909;   -0,179;    1,136
830,126;20803,789;   -0,179;   -0,591
830,690;20865,396;   -1,997;    2,864
831,253;20353,458;   -0,543;    2,227
831,816;20510,883;   -1,906;    0,500
832,380;20418,309;    0,185;    0,864
832,943;20662,643;   -1,361;   -0,500
833,506;20102,887;    2,639;   -1,227
834,069;20922,767;    3,912;   -0,955
834,632;20982,102;    1,730;    1,318
835,195;20894,982;    1,003;    0,955
835,758;20078,589;   -0,997;    1,955
836,321;19904,378;    0,730;   -1,045
836,884;19992,712;   -0,725;   -0,955
837,447;19952,501;   -2,816;    1,773
838,010;20277,836;    0,366;    3,227
838,573;20563,534;   -1,179;    0,773
839,135;20502,050;   -1,361;   -0,955
839,698;19989,476;    1,275;    0,409
840,261;19502,810;    1,003;   -0,227
840,823;19302,872;   -0,543;    0,864
841,386;19612,025;   -0,452;   -2,409
841,948;19469,087;   -1,361;    1,773
842,511;19217,421;    0,912;    1,682
843,073;19381,483;    1,912;    0,227
843,636;19136,090;   -0,361;   -0,227
844,198;19066,516;    0,911;    0,591
844,760;19211,850;    1,093;    1,955
845,322;18885,366;    0,548;    1,136
845,885;19260,337;    0,730;    0,591
846,447;19735,126;   -1,998;    0,227
847,009;19330,734;    1,911;   -0,682
847,571;19678,523;    0,820;   -2,045
848,133;19777,130;   -1,089;   -1,864
848,695;19593,464;   -0,543;    1,409
849,257;19141,072;   -1,089;   -1,682
849,819;19257,315;   -0,998;   -0,409
850,381;19337,832;   -0,725;   -0,864
850,942;19723,621;    1,093;   -0,591
851,504;19678,046;    1,184;    0,227
852,066;19678,290;    1,275;   -1,591
852,628;19181,897;   -0,180;    1,955
853,189;18744,504;    1,638;    2,682
853,751;18862,839;   -0,907;    1,409
854,312;18639,628;   -0,453;   -1,682
854,874;19192,690;   -2,089;   -0,773
855,435;19720,206;   -0,907;   -1,682
855,997;19880,631;   -1,816;   -0,136
856,558;19166,511;    0,366;    1,773
857,119;19243,210;    0,820;    2,864
857,681;18932,180;    0,002;    0,318
858,242;19010,969;    1,911;   -2,136
858,803;19479,031;    0,456;   -0,773
859,364;20023,729;    0,184;   -4,773
859,925;19366,064;   -2,453;   -0,955
860,486;19230,944;   -0,453;   -0,955
861,047;18917,551;   -0,544;   -1,227
861,608;18751,795;   -1,089;   -0,773
862,169;18912,857;    0,638;   -0,045
862,730;18667,191;    0,456;    1,409
863,291;18896,162;   -0,635;   -0,500
863,852;19266,860;   -0,635;    1,955
864,412;18702,831;   -0,271;   -0,864
864,973;17283,893;   -0,089;    0,500
865,534;17150,318;   -1,726;    0,227
866,094;18680,289;    1,820;    0,227
866,655;18303,715;    1,274;    3,318
867,215;18573,049;    0,274;    0,136
867,776;18388,838;    0,547;   -0,136
868,336;18558,445;   -1,453;    0,136
868,897;18033,234;    2,638;    1,682
869,457;17729,296;    1,365;    0,318
870,017;17954,540;    0,547;   -1,227
870,578;18495,056;   -0,817;    0,773
871,138;18184,663;   -2,089;   -0,955
871,698;17715,998;   -0,817;   -1,318
872,258;17570,332;   -0,453;   -2,864
872,818;17980,303;    2,729;    0,045
873,378;17966,547;    0,638;    1,045
873,938;17475,700;    0,547;    0,500
874,498;17807,398;    0,274;   -1,955
875,058;17733,369;    2,183;    1,773
875,618;17546,249;    1,910;   -2,682
876,177;17503,219;    1,274;    0,136
876,737;17079,463;   -0,090;    1,955
877,297;17118,434;    0,183;    1,955
877,856;17138,314;   -0,362;    0,318
878,416;17057,648;    1,183;   -0,136
878,976;17256,892;   -1,817;    0,409
879,535;17385,045;    0,092;    3,136
880,095;17150,834;   -0,544;    0,045
880,654;17296,441;   -1,090;    1,318
881,213;17389,594;    2,456;    1,500
881,773;17022,292;    2,637;    2,682
882,332;17421,263;    3,365;    5,136
882,891;17250,597;    3,092;    2,136
883,451;17687,750;   -1,272;    1,682
884,010;17126,448;   -2,908;   -0,409
884,569;17246,601;   -0,999;   -0,045
885,128;17371,117;    2,819;   -1,864
885,687;17468,543;    4,455;    0,682
886,246;17154,786;    1,455;    2,136
886,805;16919,030;    2,455;    2,045
887,364;17195,183;   -0,999;   -0,500
887,922;17574,153;   -1,181;    0,045
888,481;17065,215;   -1,545;    0,591
889,040;17360,913;    1,183;    2,136
889,599;18075,339;    2,455;    1,409
890,157;18149,492;    1,455;    2,409
890,716;17801,008;   -0,090;    0,227
891,274;17599,342;    0,092;   -1,136
891,833;18055,859;    1,546;    0,864
892,391;17909,739;   -0,454;    0,500
892,950;17967,437;    1,819;   -0,773
893,508;18328,499;    0,455;   -0,409
894,067;17664,197;    0,637;    0,136
894,625;17580,622;   -0,636;   -1,500
895,183;17850,320;   -0,363;   -0,682
895,741;17719,382;    1,728;   -1,773
896,299;17563,353;   -0,545;   -2,409
896,858;17773,142;    0,819;   -1,591
897,416;17861,658;    2,728;   -1,318
897,974;17586,448;    1,819;    0,318
898,532;17791,055;    6,091;    2,682
899,089;17626,662;    2,091;   -0,682
899,647;17697,633;   -1,454;    1,318
900,205;17417,876;    1,182;    1,045
900,763;17583,120;   -0,454;    0,227
901,321;17590,636;    2,364;   -1,409
901,878;17006,516;   -1,000;   -0,773
902,436;16890,305;   -1,363;    1,318
902,994;17283,549;    4,728;    3,682
903,551;16686,065;    0,728;    0,409
904,109;17095,309;    0,182;   -1,409
904,666;16644,007;    2,455;    1,045
905,224;16480,614;    0,182;   -0,409
905,781;16265,222;    0,727;   -0,318
906,338;16336,829;   -1,363;    1,045
906,895;16245,436;    0,637;    2,045
907,453;16201,952;    1,727;    1,136
908,010;16238,014;   -0,909;    0,409
908,567;15864,440;    1,273;    0,591
909,124;15364,592;    0,364;   -1,500
909,681;15425,200;   -2,909;    0,682
910,238;15569,898;    0,636;   -1,318
910,795;15880,232;   -0,273;   -1,136
911,352;15498,414;   -2,909;   -2,682
911,909;14917,869;   -1,364;   -0,864
912,466;15414,232;   -3,182;    1,500
913,022;14963,960;   -1,636;    0,500
913,579;15307,687;   -0,909;    2,045
914,136;15012,051;    1,636;    0,955
914,692;15360,687;    0,091;   -1,227
915,249;14988,232;    1,455;    0,409
915,806;15211,051;    0,182;    1,955
916,362;14945,869;    1,909;    1,864
916,918;14469,960;    2,000;    1,045
917,475;14446,778;   -1,182;    0,955
918,031;14515,141;    3,364;   -0,045
918,587;14007,869;   -0,909;   -0,318
919,144;14220,960;   -2,273;    0,227
919,700;14538,505;    1,727;    0,773
920,256;14091,778;    0,727;    0,045
920,812;13693,232;   -0,727;   -1,045
921,368;13676,414;   -1,727;   -1,045
921,924;13331,414;    0,182;   -0,136
922,480;12913,323;   -0,545;    1,227
923,036;13521,232;    1,273;    1,955
923,592;13446,505;    0,455;    0,318
924,148;13409,051;    0,455;   -0,955
924,704;12717,869;   -1,364;   -0,409
925,259;12939,505;   -0,273;    0,591
925,815;12692,414;    1,455;    0,500
926,371;12207,687;    2,909;    1,409
926,926;12111,414;    2,091;    0,591
927,482;11732,869;   -1,364;    0,773
928,037;11586,687;    0,909;    2,045
928,593;11891,232;    1,636;    1,045
929,148;11688,960;   -1,818;   -1,500
929,704;11188,596;   -1,455;   -0,500
930,259;11444,687;    0,091;   -0,136
930,814;10481,778;   -0,818;    1,955
931,369;10125,687;    1,091;   -0,773
931,925;10003,232;   -0,091;    0,136
932,480; 9948,141;   -2,818;   -2,591
933,035; 9797,141;    0,545;   -0,318
933,590; 9552,232;    0,364;   -1,773
934,145; 9193,778;   -1,364;   -0,318
934,700; 9522,687;    0,455;   -0,591
935,255; 9320,505;   -0,091;    0,045
935,809; 8592,141;    3,182;    0,864
936,364; 7715,051;   -0,455;   -0,136
936,919; 7667,869;    0,455;   -1,773
937,474; 7540,232;    1,455;    0,136
938,028; 7290,869;   -1,636;    1,136
938,583; 6778,778;    1,818;    4,682
939,138; 7053,414;    2,091;    2,136
939,692; 6487,141;    1,636;   -1,136
940,247; 6182,596;   -0,727;   -1,045
940,801; 5712,141;   -0,636;    0,227
941,355; 5586,414;   -0,364;    2,591
941,910; 5220,505;   -0,273;   -2,136
942,464; 5350,778;   -0,818;   -0,318
943,018; 5137,505;    1,000;   -0,227
943,572; 5062,505;    2,545;   -0,682
944,126; 4471,414;    0,091;   -0,409
944,681; 4385,869;    3,091;    0,227
945,235; 4361,869;    1,000;   -0,591
945,789; 4310,505;    0,364;   -1,864
946,342; 4392,414;    0,455;   -0,591
946,896; 4176,141;   -2,273;    0,955
947,450; 3915,414;    1,545;   -0,227
948,004; 4124,505;    1,727;   -0,045
948,558; 4105,414;    0,273;   -0,864
949,111; 4051,778;   -0,273;   -0,318
949,665; 4099,414;    1,636;   -0,682
950,219; 3952,232;   -0,091;   -1,045
950,772; 4040,051;   -1,909;    1,864
951,326; 3940,505;    0,545;   -0,955
951,879; 4052,960;    0,727;   -2,318
952,433; 4075,323;    0,000;    2,227
952,986; 3930,869;    2,909;    0,682
953,539; 3877,323;   -0,273;    0,591
954,093; 3813,051;    0,545;   -1,318
954,646; 3962,414;    0,909;    1,318
955,199; 3773,687;    0,000;   -0,500
955,752; 3634,960;   -0,455;    1,773
956,305; 3583,505;   -0,091;    2,955
956,858; 3759,141;    0,818;   -0,318
957,411; 3928,960;   -0,545;    2,136
957,964; 3766,141;    1,364;    2,136
958,517; 3761,505;   -1,545;    3,136
959,070; 3566,687;   -0,455;    1,955
959,623; 3627,687;    1,091;    1,500
960,176; 3404,960;    1,727;    2,045
960,728; 3407,778;   -2,727;    0,773
961,281; 3436,141;    0,545;    0,500
961,834; 3477,323;   -0,909;    0,864
962,386; 3397,323;    1,727;    1,045
962,939; 3310,051;    0,364;   -0,318
963,491; 3486,141;    0,455;    1,136
964,043; 3376,323;    1,182;    2,409
964,596; 3473,505;   -1,000;    2,227
965,148; 3312,414;   -1,000;    1,773
965,700; 3233,869;    1,091;   -0,227
966,253; 3396,141;   -0,636;    0,318
966,805; 3226,414;   -2,273;    0,773
967,357; 3270,869;    1,091;   -1,500
967,909; 3221,505;    0,455;   -1,227
968,461; 3328,596;    0,545;    3,136
969,013; 3249,778;   -0,182;   -0,864
969,565; 3341,505;   -0,455;   -1,136
970,117; 3381,323;   -0,364;    1,045
970,669; 3246,323;    0,182;   -0,136
971,220; 3106,232;   -0,455;   -1,500
971,772; 3033,323;   -0,636;   -0,318
972,324; 3134,505;    0,091;   -0,500
972,876; 3094,778;    0,818;   -0,045
973,427; 3228,687;    1,909;   -1,045
973,979; 3178,687;   -0,727;   -2,500
974,530; 3236,323;    1,818;    1,318
975,082; 3243,232;   -0,545;    1,682
975,633; 3119,505;    1,091;    1,682
976,184; 3274,051;    0,909;    0,773
976,736; 3081,869;    0,091;    0,227
977,287; 2870,596;   -0,909;   -0,500
977,838; 3047,051;    0,909;   -0,318
978,389; 3106,323;   -1,000;   -0,500
978,940; 2973,232;    0,545;   -0,409
979,491; 3001,051;    0,091;   -0,500
980,042; 2964,778;    0,182;    3,045
980,593; 3026,414;   -2,545;    0,227
981,144; 3081,414;    2,545;   -0,500
981,695; 3037,869;    1,455;    1,500
982,246; 2996,232;   -0,273;    1,045
982,797; 3174,505;   -1,727;    0,682
983,347; 3252,141;    0,364;    0,591
983,898; 3408,051;    3,091;    0,409
984,449; 3246,323;    2,182;    0,773
984,999; 3151,687;    1,455;   -1,136
985,550; 2930,323;    0,182;   -0,318
986,100; 2956,141;   -0,455;   -0,318
986,651; 2997,051;   -0,818;    0,045
987,201; 2980,051;   -1,000;   -0,591
987,751; 3077,687;    0,818;    2,864
988,302; 3049,687;    2,636;    1,500
988,852; 3074,596;    0,455;   -1,136
989,402; 3096,960;    0,091;    0,682
989,952; 3010,778;   -2,182;    0,864
990,502; 3109,141;   -0,091;    0,682
991,052; 3085,687;   -0,727;    0,045
991,602; 2962,414;   -2,909;    1,318
992,152; 2947,323;    0,455;    0,682
992,702; 2935,505;    1,364;   -0,045
993,252; 2851,869;   -3,000;   -0,500
993,802; 2956,414;   -0,273;    1,318
994,352; 3173,505;   -1,545;    1,136
994,901; 3260,323;   -0,182;    3,227
995,451; 3170,505;   -0,182;    0,318
996,000; 3273,505;    1,636;    0,318
996,550; 2982,232;    2,273;    0,227
997,100; 2968,596;    1,273;   -0,045
997,649; 3246,414;    2,182;    0,955
998,198; 2880,414;    1,727;   -1,500
998,748; 3083,687;    1,091;   -2,318
999,297; 2994,141;   -0,818;   -0,409
999,846; 3045,505;    1,000;   -0,773
1000,395; 3095,960;   -0,818;    0,500
1000,945; 3053,778;    1,818;   -0,773
1001,494; 3148,687;    2,364;    0,682
1002,043; 3121,596;    4,636;    0,864
1002,592; 2987,051;   -1,091;    1,955
1003,141; 3142,051;   -0,455;   -0,682
1003,690; 2978,687;    1,727;    0,500
1004,238; 3057,960;    1,455;   -0,045
1004,787; 2691,778;    1,364;    1,227
1005,336; 2925,323;    0,364;    0,682
1005,885; 3095,414;    1,364;   -2,773
1006,433; 3229,778;    0,545;    0,955
1006,982; 3275,960;    0,455;    1,682
1007,531; 3179,869;   -1,818;   -0,227
1008,079; 3112,414;   -2,273;    0,500
1008,627; 3272,232;   -1,455;    0,409
1009,176; 3008,414;    0,000;   -1,955
1009,724; 3054,505;    1,091;    0,864
1010,273; 3109,141;    1,273;    0,500
1010,821; 3221,687;    0,091;    1,409
1011,369; 2956,687;   -1,364;    1,318
1011,917; 2946,051;   -1,364;   -0,591
1012,465; 3227,687;    1,273;   -1,591
1013,013; 3308,141;    2,091;   -1,682
1013,561; 3206,232;    0,455;   -0,773
1014,109; 3271,869;   -1,909;    1,682
1014,657; 3129,869;    0,364;    0,591
1015,205; 3233,960;    1,636;   -0,955
1015,753; 3282,869;   -0,545;   -1,409
1016,301; 3318,960;   -2,636;    3,045
1016,848; 3327,505;   -1,273;    0,409
1017,396; 3368,141;    2,545;    0,045
1017,944; 3494,323;    1,182;    1,864
1018,491; 3258,687;    0,273;    1,409
1019,039; 3393,960;    0,455;    0,591
1019,586; 3315,505;   -1,364;    1,682
1020,134; 3415,778;    0,455;    1,500
1020,681; 3445,778;    0,182;   -1,136
1021,228; 3457,505;    2,909;   -2,227
1021,776; 3277,960;    1,182;   -1,136
1022,323; 3502,414;    0,455;    0,773
1022,870; 3414,232;   -1,000;   -0,045
1023,417; 3316,051;    2,636;    1,864
1023,964; 3450,141;    2,636;    1,227
1024,511; 3290,596;    1,000;    0,773
1025,058; 3109,687;    3,182;   -0,045
1025,605; 3139,323;   -2,273;    3,136
1026,152; 3367,869;    1,727;   -0,591
1026,699; 3091,323;    1,818;    1,318
1027,245; 3255,051;   -0,091;    0,318
1027,792; 3454,051;   -1,000;    1,409
1028,339; 3352,051;    2,364;   -0,045
1028,885; 3206,414;    1,000;   -0,227
1029,432; 3134,323;   -0,091;    0,227
1029,978; 3197,596;   -1,000;   -1,591
1030,525; 3117,232;    1,000;    0,409
1031,071; 3378,778;   -1,364;    1,136
1031,618; 3466,687;    0,364;    1,682
1032,164; 3235,232;   -0,091;    3,045
1032,710; 3289,960;    1,636;   -1,500
1033,256; 3200,414;   -0,636;   -0,136
1033,803; 3193,232;   -0,545;    1,500
1034,349; 2911,141;   -1,364;    0,136
1034,895; 3062,051;    0,000;   -0,318
1035,441; 3047,687;   -0,818;    0,318
1035,987; 3069,414;   -2,364;   -0,682
1036,533; 3053,596;   -1,455;   -0,955
1037,078; 3239,778;    1,455;    1,682
1037,624; 3040,869;    2,455;   -0,955
1038,170; 3075,141;    0,455;   -0,318
1038,716; 2985,051;    1,636;   -0,409
1039,261; 2914,141;   -2,273;   -0,773
1039,807; 2838,960;   -0,091;    3,409
1040,352; 2905,687;   -1,909;   -0,318
1040,898; 2955,960;   -1,545;   -0,682
1041,443; 2852,505;   -1,455;   -2,591
1041,989; 2864,778;    1,091;    1,591
1042,534; 2760,687;   -0,364;    2,591
1043,079; 2868,141;    2,909;    0,955
1043,625; 2665,141;    1,818;    0,500
1044,170; 2705,687;   -1,364;    1,045
1044,715; 2969,323;    2,455;    0,955
1045,260; 2783,323;    2,182;   -0,955
1045,805; 2819,414;    1,182;   -0,591
1046,350; 2756,778;    1,364;   -0,409
1046,895; 2728,687;    2,909;    1,591
1047,440; 2668,687;    5,364;    0,409
1047,985; 2552,596;    2,818;   -0,955
1048,530; 2476,596;    1,545;    1,227
1049,074; 2542,869;    0,000;    0,318
1049,619; 2519,505;   -1,364;    1,955
1050,164; 2325,505;    0,455;    0,227
1050,708; 2366,051;   -0,455;    0,045
1051,253; 2732,505;    1,273;   -2,227
1051,797; 2438,141;    0,818;   -1,318
1052,342; 2457,051;   -1,182;    1,045
1052,886; 2458,960;    0,364;   -1,409
1053,430; 2328,687;   -1,364;    0,136
1053,975; 2339,869;   -0,818;   -0,318
1054,519; 2320,687;   -0,727;    3,227
1055,063; 2334,141;    0,909;    1,318
1055,607; 2221,596;   -0,182;    0,227
1056,151; 2251,141;    2,909;    1,682
1056,695; 2169,687;    2,273;   -1,136
1057,239; 2240,687;   -1,727;   -0,682
1057,783; 2250,505;    0,818;   -1,500
1058,327; 2185,414;    0,000;    1,409
1058,871; 2420,596;   -0,545;    1,318
1059,415; 2124,960;   -0,818;   -0,045
1059,958; 2388,596;    1,455;    2,591
1060,502; 2102,778;   -1,000;   -0,773
1061,046; 2009,778;    0,364;   -0,955
1061,589; 1978,778;   -3,000;   -1,136
1062,133; 1867,596;   -1,273;    1,864
1062,676; 1819,687;    1,182;    0,864
1063,220; 1822,141;    1,091;    0,500
1063,763; 1835,141;    0,909;    1,136
1064,306; 1917,232;   -0,909;    1,864
1064,849; 1796,141;   -0,909;    0,591
1065,393; 1810,778;    2,000;   -1,500
1065,936; 1918,323;    0,182;   -0,409
1066,479; 1808,960;   -1,455;    1,318
1067,022; 1831,869;   -0,273;   -0,227
1067,565; 1722,414;   -0,091;   -1,318
1068,108; 1751,596;    0,727;   -0,591
1068,651; 1729,414;   -0,636;    1,409
1069,194; 1655,960;   -0,455;   -1,682
1069,736; 1650,869;   -1,273;    0,955
1070,279; 1624,869;   -1,364;   -0,500
1070,822; 1662,869;   -2,000;   -0,318
1071,364; 1756,869;   -0,364;    1,318
1071,907; 1579,505;   -0,727;    3,227
1072,450; 1482,960;    0,000;   -0,045
1072,992; 1490,505;   -0,273;    3,136
1073,535; 1624,414;    2,091;    2,136
1074,077; 1424,232;   -0,727;    2,045
1074,619; 1387,960;   -1,364;    0,591
1075,161; 1412,596;   -1,091;    1,500
1075,704; 1602,141;    1,545;    1,227
1076,246; 1401,323;   -0,182;    0,682
1076,788; 1323,687;   -0,364;    1,773
1077,330; 1393,232;    1,273;    2,136
1077,872; 1367,869;    0,909;    0,955
1078,414; 1598,869;    2,727;    0,773
1078,956; 1300,414;    1,273;   -0,227
1079,498; 1566,869;    1,636;    0,318
1080,040; 1282,869;    1,909;   -1,318
1080,581; 1227,869;    1,636;   -0,318
1081,123; 1149,869;    0,091;   -0,773
1081,665; 1199,869;   -1,182;   -0,955
1082,206; 1507,323;    1,364;   -0,500
1082,748; 1352,687;    0,727;    2,045
1083,289; 1225,687;   -2,000;    1,318
1083,831; 1127,051;   -0,545;    0,227
1084,372; 1172,051;    0,000;    0,591
1084,913; 1180,778;    1,091;    0,864
1085,455; 1144,051;   -1,909;   -2,045
1085,996; 1130,051;   -2,273;    0,136
1086,537; 1132,869;   -0,091;    0,864
1087,078; 1177,687;   -0,909;   -2,136
1087,619; 1224,414;   -1,273;    0,227
1088,160; 1135,232;    0,000;    1,318
1088,701; 1118,596;   -1,091;    0,682
1089,242; 1060,141;    1,364;   -2,227
1089,783; 1157,778;   -0,273;    1,409
1090,324; 1128,414;    0,455;    0,682
1090,865;  995,596;    2,727;   -0,409
1091,405;  977,596;    0,727;    2,227
1091,946; 1003,869;    0,182;   -0,955
1092,487;  921,869;    0,818;   -1,409
1093,027; 1092,687;   -1,364;   -1,500
1093,568;  940,596;   -0,364;    1,227
1094,108; 1036,323;    0,273;    1,773
1094,649;  979,232;   -1,182;    0,136
1095,189;  910,687;   -0,636;   -0,682
1095,729;  869,596;   -0,091;    0,955
1096,269;  869,505;    0,727;   -0,955
1096,810; 1193,414;   -1,364;    0,500
1097,350; 1004,141;    1,364;   -0,773
1097,890;  897,323;    0,364;    1,227
1098,430; 1177,414;    2,364;    2,864
1098,970; 1047,414;    2,182;    1,682
1099,510;  902,960;    0,545;   -2,318
1100,050;  829,869;    1,000;   -1,591
1100,589;  789,141;   -0,727;   -0,318
1101,129;  924,141;    0,818;   -0,955
1101,669; 1070,051;    1,727;    2,136
1102,209;  897,051;   -0,091;    2,227
1102,748;  840,505;    0,000;    0,955
1103,288;  829,232;    1,273;   -1,227
1103,827;  859,687;    3,091;   -2,227
1104,367;  742,051;   -0,091;   -2,409
1104,906;  711,051;    1,364;   -1,136
1105,445;  776,596;    0,636;   -1,136
1105,985;  715,687;   -0,727;    1,500
1106,524;  762,596;   -1,727;   -0,682
1107,063;  745,960;   -2,727;    1,409
1107,602;  715,051;   -1,909;   -1,500
1108,141;  632,778;   -1,909;    1,500
1108,680;  748,323;   -3,455;   -0,591
1109,219;  680,232;   -0,909;   -0,500
1109,758;  670,141;    0,455;    0,682
1110,297;  663,505;    1,000;   -0,682
1110,836;  602,232;   -0,727;    0,955
1111,375;  762,687;   -2,545;    0,409
1111,913;  782,869;   -1,000;    0,773
1112,452;  708,414;   -0,273;    0,136
1112,991;  594,414;    1,091;    1,955
1113,529;  549,687;   -0,818;   -0,045
1114,068;  626,051;   -0,273;    2,955
1114,606;  524,869;   -0,364;   -0,955
1115,144;  685,232;   -1,273;    1,045
1115,683;  619,778;   -0,727;    0,318
1116,221;  666,232;   -0,455;   -0,864
1116,759;  577,505;    0,636;   -0,864
1117,297;  777,596;    0,000;    1,864
1117,836;  574,960;   -2,182;   -1,227
1118,374;  590,687;    0,182;   -0,682
1118,912;  535,323;    0,909;    2,682
1119,450;  522,960;    1,000;    0,864
1119,988;  578,141;    1,545;    2,136
1120,525; 1041,323;    5,091;    3,318
1121,063;  734,141;    1,182;    1,864
1121,601;  531,051;   -0,909;   -1,227
1122,139;  487,596;   -0,727;   -2,045
1122,676;  688,596;   -0,727;    2,773
1123,214;  626,960;   -1,182;    4,409
1123,751;  433,778;    1,727;    2,227
1124,289;  566,596;   -0,091;   -0,409
1124,826;  429,869;    1,727;    0,227
1125,364;  351,505;    1,727;   -0,955
1125,901;  548,505;    1,182;    1,227
1126,438;  661,596;    0,818;    0,955
1126,975;  383,414;   -0,727;   -0,773
1127,513;  452,960;    0,273;    2,136
1128,050;  360,687;    1,636;   -0,682
1128,587;  456,778;    2,000;   -0,227
1129,124;  508,414;    0,091;    1,318
1129,661;  359,323;    0,273;    0,227
1130,198;  538,323;    1,636;    0,773
1130,734;  479,960;    0,182;    1,409
1131,271;  327,778;   -0,909;    0,864
1131,808;  510,505;    2,909;    3,045
1132,345;  377,687;    1,545;    0,318
1132,881;  254,687;   -1,545;   -1,864
1133,418;  402,687;    0,727;   -1,136
1133,954;  330,869;    2,455;   -2,682
1134,491;  402,596;    1,364;   -0,773
1135,027;  298,414;    2,364;    0,864
1135,564;  392,596;    0,273;    2,955
1136,100;  380,232;    0,364;    2,136
1136,636;  263,141;   -1,273;   -1,045
1137,172;  370,232;    0,000;   -1,045
1137,708;  285,869;   -1,364;   -1,045
1138,245;  289,323;    1,273;   -1,227
1138,781;  234,687;    1,091;   -3,318
1139,317;  307,414;    1,273;   -1,409
1139,852;  292,232;    3,091;    0,136
1140,388;  418,051;   -1,182;   -0,409
1140,924;  295,687;   -1,091;   -2,227
1141,460;  231,414;   -1,636;    0,136
1141,996;  158,778;   -1,364;    2,682
1142,531;  216,505;    1,364;    3,318
1143,067;  439,141;    1,182;    1,045
1143,602;  499,596;   -0,091;   -0,318
1144,138;  334,323;   -2,636;    1,045
1144,673;  200,505;   -1,455;    1,409
1145,209;  263,505;   -1,909;   -0,318
1145,744;  180,141;   -0,727;    0,864
1146,279;  328,687;    1,818;   -0,136
1146,815;  246,505;    1,545;   -2,682
1147,350;  282,596;   -1,364;    0,045
1147,885;  183,687;   -0,818;   -1,318
1148,420;  185,596;   -2,273;    0,773
1148,955;  163,960;   -1,727;    1,864
1149,490;  190,414;   -0,909;   -1,591
1150,025;  174,596;    0,455;   -1,773
1150,560;  299,505;    1,091;   -0,955
1151,094;  266,323;    1,455;   -0,591
1151,629;  270,778;    1,636;    0,864
1152,164;  182,232;    1,364;    1,318
1152,698;  142,232;   -0,182;   -0,136
1153,233;  116,778;    0,091;   -0,682
1153,767;  156,505;   -3,000;   -2,318
1154,302;  206,232;   -1,455;    1,773
1154,836;  205,505;   -0,455;   -2,136
1155,371;  267,596;   -1,364;    3,682
1155,905;  217,051;   -0,636;    1,682
1156,439;  174,869;   -0,636;   -0,500
1156,973;  213,414;    0,364;    0,318
1157,507;  146,960;   -0,364;    0,682
1158,042;  170,505;   -0,727;    1,045
1158,576;  229,960;    0,182;    1,773
1159,110;  214,141;   -0,818;    2,409
1159,643;  180,414;    0,636;   -0,045
1160,177;  116,051;   -1,545;    1,500

