
Integration time [ms]:   0,040
Averaging Nr. [scans]: 11
Smoothing Nr. [pixels]: 0
Data measured with spectrometer [name]: 7318044SP
Wave   ;Sample   ;Dark     ;Reference
[nm]   ;[counts] ;[counts] ;[counts] 

186,757;   36,898;   31,551;    1,318
187,357;   57,569;   22,551;    0,955
187,958;   42,752;   15,460;   -1,591
188,558;   77,799;    8,915;   -1,227
189,159;   47,628;    6,733;   -4,500
189,759;   17,288;    7,278;   -3,591
190,360;   18,583;    2,824;   -2,136
190,960;   54,248;    2,915;   -4,136
191,560;   65,561;    3,189;   -6,591
192,161;  276,772;    4,372;   -3,500
192,761;  155,564;    4,010;   -3,227
193,361;  102,088;    1,556;   -3,773
193,962;  148,861;    2,010;   -2,682
194,562;   72,549;    1,189;   -3,955
195,162;   92,880;   -2,448;   -2,227
195,762;  244,201;   -3,176;   -0,045
196,362;  189,709;    1,370;   -2,500
196,963;   68,482;    2,006;   -0,864
197,563;  140,576;    1,551;   -0,955
198,163;   84,246;    0,096;   -0,682
198,763;  107,688;    1,733;   -0,500
199,363;  201,094;    3,096;   -0,500
199,963;  157,144;    0,369;    0,409
200,563;  139,808;    2,823;   -1,409
201,163;  112,895;    3,277;   -0,227
201,763;  190,464;    3,732;    0,318
202,363;  135,987;    1,459;    1,500
202,963;  231,091;    1,459;    1,045
203,563;  329,650;    0,277;    0,500
204,162;  188,849;    2,096;   -1,864
204,762;  178,902;    0,550;    0,591
205,362;  144,674;    3,004;    1,955
205,962;  232,300;    3,096;    1,955
206,562;  227,061;    1,823;    2,318
207,161;  189,343;   -0,087;    0,318
207,761;  340,077;    1,277;    2,409
208,361;  225,222;   -0,268;    1,409
208,960;  313,572;    0,459;    1,500
209,560;  359,052;    1,277;    1,591
210,160;  353,081;    0,550;    1,864
210,759;  309,417;    4,186;    1,227
211,359;  312,254;    1,459;    1,045
211,958;  551,594;    1,277;    2,045
212,558;  619,568;    1,732;    1,864
213,157;  463,761;    1,822;    1,500
213,757;  864,462;    3,822;   -0,227
214,356;  579,863;    1,277;   -0,409
214,956;  885,583;    3,095;    0,409
215,555;  529,075;    2,095;    2,136
216,154;  464,001;   -2,723;   -0,591
216,754;  462,174;    0,277;    0,773
217,353;  580,019;   -0,268;   -1,045
217,952;  430,105;   -0,178;    0,318
218,552;  654,973;    1,368;   -0,773
219,151;  535,770;    0,277;    0,955
219,750;  544,660;    0,004;   -0,227
220,349;  584,752;   -0,451;    1,045
220,948;  703,449;   -1,360;    1,136
221,548;  644,492;    0,913;    1,227
222,147;  737,533;   -0,087;   -0,409
222,746; 1012,391;   -0,451;   -0,955
223,345;  861,186;    0,731;    0,500
223,944;  869,858;   -0,451;    0,773
224,543;  980,937;    1,004;   -1,409
225,142; 1094,802;    0,094;    0,136
225,741;  987,463;   -0,814;    1,045
226,340;  991,365;   -0,451;   -0,955
226,939; 1349,887;   -0,996;   -0,136
227,538; 1160,148;   -0,360;   -0,773
228,137; 1377,654;   -0,814;    0,864
228,735; 1376,149;   -0,541;    1,227
229,334; 1165,868;   -0,905;   -0,227
229,933; 1537,637;    0,459;    0,591
230,532; 1631,948;    1,186;   -0,409
231,131; 1706,475;    1,732;    0,318
231,729; 1676,661;   -2,450;   -2,318
232,328; 1668,404;   -0,723;   -1,500
232,927; 1662,523;    1,004;   -0,500
233,525; 1718,542;    3,640;    0,045
234,124; 1873,659;    2,368;   -1,591
234,723; 1843,694;    0,913;   -1,045
235,321; 1922,020;    2,277;    0,136
235,920; 2050,711;    1,186;   -1,227
236,518; 2292,673;    3,459;    0,318
237,117; 2257,253;    0,004;   -0,227
237,715; 2376,992;    0,640;   -0,500
238,314; 2423,734;   -0,087;   -2,318
238,912; 2562,296;   -0,723;   -1,409
239,510; 2488,006;    0,459;   -1,227
240,109; 2654,413;    0,004;    3,773
240,707; 2613,282;   -0,996;    1,227
241,305; 2758,466;    0,550;    0,136
241,904; 2931,557;   -0,178;   -2,045
242,502; 2937,979;   -0,632;   -0,227
243,100; 2823,983;   -0,087;   -0,955
243,698; 2984,904;    0,732;    1,682
244,297; 3077,736;   -0,632;    0,682
244,895; 2989,648;   -0,269;   -2,318
245,493; 3251,221;    2,186;   -0,591
246,091; 3203,459;    1,368;   -1,318
246,689; 3124,228;    1,004;    0,591
247,287; 3213,525;    0,822;   -1,136
247,885; 3397,704;   -1,451;    1,227
248,483; 3431,640;    1,822;   -0,500
249,081; 3503,089;    0,185;    1,591
249,679; 3631,542;   -0,178;    1,682
250,277; 3762,355;   -1,723;    0,864
250,875; 3731,215;   -1,087;   -1,045
251,473; 3725,047;   -1,178;    0,500
252,071; 3870,822;    1,459;    1,045
252,669; 3946,131;   -1,814;    0,318
253,267; 4068,008;   -0,087;    0,773
253,864; 3970,070;   -0,360;    0,682
254,462; 4013,100;    1,640;    1,591
255,060; 3872,214;   -0,269;    1,318
255,658; 4070,949;    0,822;   -0,136
256,255; 4408,020;    0,186;   -2,045
256,853; 4313,067;   -0,269;    1,409
257,451; 4257,576;    0,822;    1,864
258,048; 4620,963;    1,822;    1,864
258,646; 4294,141;    1,731;   -1,045
259,243; 4408,976;   -0,087;    2,227
259,841; 4427,528;   -0,814;    0,318
260,438; 4343,282;   -0,087;    0,864
261,036; 4810,893;   -1,905;    1,409
261,633; 4748,685;   -0,087;    2,227
262,231; 4556,998;    2,731;   -0,045
262,828; 4633,544;   -0,905;    1,136
263,425; 4632,227;    0,913;   -0,591
264,023; 4838,759;    0,186;    0,045
264,620; 4514,495;   -0,360;   -0,318
265,217; 4762,544;   -2,087;    3,136
265,815; 4771,898;   -1,905;    2,136
266,412; 4705,280;    0,731;    0,136
267,009; 4728,980;   -1,451;    0,773
267,606; 4735,413;    0,822;   -0,955
268,203; 4630,109;   -0,269;   -0,591
268,801; 4807,643;    1,731;    0,591
269,398; 5006,506;   -0,360;    2,500
269,995; 5000,181;    0,277;    1,591
270,592; 4833,794;   -0,632;   -0,500
271,189; 4930,159;    0,186;    0,409
271,786; 5023,202;   -0,632;    1,227
272,383; 5027,084;   -1,087;    0,227
272,980; 5044,336;    0,277;    0,318
273,577; 5358,559;    0,004;    1,227
274,174; 5019,866;    0,822;    2,591
274,771; 4999,222;   -0,814;   -0,773
275,367; 5252,055;    2,277;    1,409
275,964; 5179,686;    0,731;   -0,500
276,561; 5210,735;    1,549;   -1,045
277,158; 5297,179;    0,095;   -1,773
277,755; 5446,543;    2,185;    0,409
278,351; 4964,091;   -0,451;   -1,500
278,948; 5221,477;   -0,815;    0,045
279,545; 5160,168;   -1,360;    2,318
280,141; 5735,013;   -1,723;   -2,045
280,738; 5547,758;   -0,451;   -0,136
281,334; 5583,233;   -1,633;    0,591
281,931; 5151,407;   -0,087;   -1,318
282,528; 5268,993;    0,822;   -0,500
283,124; 5788,736;   -1,087;   -0,500
283,721; 5660,663;   -0,451;    1,409
284,317; 5529,218;    0,185;    2,500
284,913; 5974,291;   -1,360;    0,591
285,510; 6181,291;    0,640;   -0,318
286,106; 6153,172;   -2,269;   -0,955
286,703; 5712,583;   -0,360;    1,955
287,299; 5886,891;   -1,451;   -0,591
287,895; 6039,057;    0,822;   -1,045
288,491; 6432,143;    0,186;    2,136
289,088; 6270,575;   -2,360;    2,409
289,684; 6329,313;   -1,723;    1,500
290,280; 6305,772;    0,368;    0,682
290,876; 6380,793;    1,822;    5,500
291,472; 6305,650;    1,276;    2,227
292,068; 6398,726;    1,367;    0,227
292,665; 6112,346;    2,095;    0,773
293,261; 5894,168;    0,276;    2,136
293,857; 6141,763;    2,913;    2,136
294,453; 6092,678;    3,550;    0,955
295,049; 6054,333;   -0,268;    1,955
295,644; 6065,803;    0,095;    0,136
296,240; 5971,848;   -0,905;   -0,136
296,836; 6071,843;   -0,995;    0,318
297,432; 6290,053;    1,096;   -0,500
298,028; 6364,904;    0,732;    0,773
298,624; 6596,719;    1,459;    1,864
299,220; 6717,163;    2,368;    0,591
299,815; 6442,249;    1,005;   -0,409
300,411; 6367,788;    0,914;    1,773
301,007; 6368,573;    1,368;    0,227
301,602; 6324,380;   -0,541;   -2,318
302,198; 6474,711;    0,732;   -0,773
302,794; 6699,906;    1,187;   -0,500
303,389; 6763,965;   -1,177;    1,045
303,985; 6829,825;    0,550;    1,409
304,580; 6837,674;    1,459;    1,591
305,176; 6746,226;   -3,086;    0,136
305,771; 6677,873;   -1,268;   -1,227
306,367; 6729,842;    4,095;    0,136
306,962; 6884,017;    0,641;    1,500
307,558; 6634,892;   -0,450;    0,136
308,153; 6576,912;    1,095;   -1,136
308,748; 6736,778;   -0,814;    1,682
309,344; 6765,949;   -0,632;   -1,318
309,939; 6894,608;   -1,905;   -1,318
310,534; 7008,824;   -0,086;   -1,682
311,130; 6911,770;    0,459;   -2,500
311,725; 6659,624;    1,004;   -0,500
312,320; 6955,281;    2,459;    0,045
312,915; 6914,692;    1,459;   -1,045
313,510; 6997,781;    1,550;   -0,500
314,105; 7283,227;    1,096;    1,409
314,700; 6734,807;   -3,086;   -1,045
315,295; 6537,402;   -0,904;    0,045
315,890; 6210,735;    1,277;    0,864
316,485; 6455,087;   -0,359;   -0,318
317,080; 6539,753;   -3,086;    1,591
317,675; 6936,240;    2,005;   -0,682
318,270; 6617,324;    5,550;    3,318
318,865; 6617,546;    3,278;    3,045
319,460; 6435,909;   -0,904;    0,591
320,055; 6582,354;   -0,541;   -1,227
320,650; 6340,815;   -1,995;   -0,591
321,244; 6410,512;   -0,177;   -1,409
321,839; 7098,139;   -1,541;   -0,227
322,434; 7014,645;   -1,086;   -1,591
323,029; 6764,771;    1,732;    1,591
323,623; 6649,869;    1,550;    0,773
324,218; 6535,877;    2,368;    1,409
324,812; 6460,774;    1,096;    1,591
325,407; 6298,091;   -0,814;    2,045
326,002; 6254,447;    0,277;   -0,409
326,596; 6515,840;    0,914;    1,318
327,191; 6603,288;    0,823;   -1,045
327,785; 6291,112;   -0,813;   -0,227
328,379; 6515,305;    1,368;    0,136
328,974; 6301,958;    0,914;   -3,955
329,568; 6532,750;    0,186;   -2,409
330,163; 6410,524;    2,096;    1,045
330,757; 6670,765;    2,459;    1,591
331,351; 6165,506;    0,459;    0,682
331,945; 6427,129;    0,914;    1,409
332,540; 6193,102;   -1,723;   -0,591
333,134; 6302,667;   -1,086;    0,773
333,728; 6438,085;    0,005;    0,318
334,322; 6700,404;   -1,177;   -0,864
334,916; 6115,017;    0,277;    0,955
335,510; 6422,150;   -0,450;   -0,136
336,105; 6617,379;   -1,086;    1,591
336,699; 6341,342;   -1,086;    0,591
337,293; 6325,991;   -1,723;    0,318
337,887; 6359,844;   -2,723;    1,955
338,481; 6503,432;    0,459;    0,591
339,074; 6684,967;   -0,359;    2,682
339,668; 6533,155;   -1,632;    1,227
340,262; 6851,733;    1,732;    3,227
340,856; 6390,498;    1,822;   -0,682
341,450; 5916,840;    1,004;    1,864
342,044; 6554,355;    1,459;    0,136
342,637; 6432,686;    0,913;   -2,136
343,231; 6325,063;   -2,360;    0,682
343,825; 6226,838;   -1,086;   -0,591
344,419; 6274,428;   -1,995;    0,500
345,012; 6297,723;    2,459;    4,045
345,606; 6239,589;    4,641;    1,591
346,199; 6061,594;   -1,813;   -0,227
346,793; 5797,510;    1,914;    2,045
347,386; 5903,980;   -0,813;   -1,136
347,980; 5858,747;   -0,268;   -0,045
348,573; 5758,569;    2,278;    0,409
349,167; 5642,746;    5,278;    4,773
349,760; 5933,862;    2,914;    2,682
350,354; 5846,445;   -0,813;    1,136
350,947; 5685,327;    1,096;    1,682
351,540; 5450,425;   -0,358;   -1,409
352,134; 5391,879;    1,096;    1,136
352,727; 5438,952;   -0,086;    1,136
353,320; 5351,781;    0,005;    0,591
353,913; 5189,006;   -1,995;    1,864
354,507; 5388,164;    0,823;   -1,227
355,100; 5408,138;    0,460;    0,864
355,693; 4999,021;    2,005;    2,409
356,286; 4976,465;    0,823;    2,773
356,879; 5190,507;   -0,722;    1,227
357,472; 4865,583;   -0,904;    1,500
358,065; 5094,223;   -0,722;    2,500
358,658; 5017,912;   -0,540;    2,318
359,251; 4730,375;   -1,631;   -0,591
359,844; 4454,437;   -1,904;   -1,136
360,437; 4650,494;   -2,995;    0,045
361,030; 4829,541;    1,369;   -0,682
361,623; 4533,120;    2,824;    0,318
362,215; 4608,181;   -0,086;    2,045
362,808; 4454,662;   -2,358;   -1,682
363,401; 4602,796;   -2,449;    0,136
363,994; 4524,603;   -0,631;   -1,500
364,586; 4405,810;    0,824;   -1,500
365,179; 4533,930;   -0,449;   -1,136
365,772; 4143,939;   -1,995;    2,045
366,364; 4351,809;    1,915;   -3,227
366,957; 4556,697;    2,279;   -0,045
367,549; 4484,570;    2,188;   -0,864
368,142; 4295,596;    1,825;   -1,500
368,734; 4425,030;    0,734;   -2,136
369,327; 4394,719;    1,643;   -0,500
369,919; 4327,239;   -1,538;    0,409
370,512; 4271,408;   -1,083;   -0,500
371,104; 4151,468;   -0,901;    1,591
371,696; 4314,218;    1,191;   -0,955
372,289; 4298,969;    0,373;    1,136
372,881; 4391,501;   -2,080;    1,318
373,473; 4296,865;   -2,170;    1,136
374,066; 4213,827;   -0,169;    0,500
374,658; 4134,734;    0,378;    1,136
375,250; 4322,916;    0,653;   -1,409
375,842; 4235,561;    0,473;   -0,045
376,434; 4153,782;   -0,435;   -0,409
377,026; 4531,976;    0,204;   -2,500
377,618; 4456,099;   -0,158;   -0,682
378,210; 4345,485;   -0,338;   -1,955
378,802; 4197,906;    0,754;   -0,591
379,394; 4328,210;    1,846;    0,682
379,986; 4639,308;    1,393;   -0,955
380,578; 4683,622;   -0,153;    0,773
381,170; 4301,020;   -0,972;    0,045
381,762; 4204,724;    0,755;    1,409
382,354; 4340,342;   -0,065;   -1,318
382,945; 4381,582;   -2,976;    0,318
383,537; 4477,801;   -2,705;   -1,955
384,129; 4515,786;   -2,160;   -1,136
384,721; 4643,430;   -0,252;    0,955
385,312; 4537,209;   -0,161;   -0,955
385,904; 4663,878;   -2,706;    1,591
386,496; 4183,456;   -0,979;    1,045
387,087; 4330,142;    1,022;    2,500
387,679; 4313,878;   -1,160;    0,045
388,270; 4463,732;    2,840;    2,045
388,862; 4534,637;    1,295;   -0,318
389,453; 4375,138;   -0,887;    1,045
390,045; 4580,304;   -0,705;   -2,682
390,636; 4534,668;    0,204;   -0,591
391,227; 4416,181;   -0,523;   -0,045
391,819; 4510,211;    0,204;    0,773
392,410; 4584,845;    1,022;    0,045
393,001; 4530,038;   -0,979;   -1,591
393,593; 4721,529;    1,930;   -0,045
394,184; 4628,410;    1,385;   -0,409
394,775; 4465,113;    1,839;    2,136
395,366; 4684,211;    1,385;    0,773
395,957; 4662,780;    0,113;    0,136
396,548; 4866,348;   -0,342;    2,682
397,139; 5111,627;   -2,433;    0,591
397,730; 4860,822;   -1,888;    0,955
398,321; 4889,563;   -1,252;    0,955
398,912; 4879,524;   -0,615;    0,136
399,503; 5024,532;   -3,524;   -1,409
400,094; 4594,256;    0,294;    1,682
400,685; 4492,744;   -0,433;    0,045
401,276; 4526,618;    0,930;   -0,955
401,867; 4746,111;   -0,888;    0,773
402,458; 4802,047;   -2,251;   -2,318
403,048; 4829,914;    1,112;    0,591
403,639; 4520,642;    0,840;    0,864
404,230; 4812,122;    2,476;    0,318
404,821; 4774,169;   -0,615;    0,045
405,411; 4845,810;    1,203;   -2,591
406,002; 4495,849;   -1,252;   -1,136
406,592; 4508,459;    2,294;    0,045
407,183; 4652,939;    0,566;   -1,500
407,774; 4564,820;    3,475;   -0,136
408,364; 4776,172;    0,930;    0,409
408,954; 4557,522;    0,384;    1,227
409,545; 4610,009;    1,021;    1,045
410,135; 4231,223;    1,293;    0,500
410,726; 4329,732;    1,838;    0,318
411,316; 4661,467;    0,111;    0,773
411,906; 4388,762;   -0,253;   -0,409
412,497; 4064,025;   -1,070;   -0,045
413,087; 4467,521;   -1,980;   -0,227
413,677; 4731,204;   -0,707;    3,864
414,267; 4640,897;    0,656;    1,409
414,857; 4581,196;   -2,980;    4,227
415,448; 4770,696;    0,839;    0,500
416,038; 4586,235;    0,020;   -0,591
416,628; 4542,690;   -0,889;    0,409
417,218; 4255,463;    0,565;    3,318
417,808; 4456,307;    0,202;   -0,409
418,398; 4693,101;    0,020;    2,682
418,988; 4667,970;    2,020;    0,591
419,578; 4824,032;   -0,707;    1,409
420,168; 5085,407;   -1,343;   -0,955
420,757; 4848,077;   -1,343;   -1,500
421,347; 4582,339;    0,111;   -0,227
421,937; 4673,661;    2,292;    1,409
422,527; 4713,855;    0,838;   -0,773
423,116; 4564,340;   -0,253;   -0,045
423,706; 4739,336;   -1,889;    0,318
424,296; 4661,781;    1,384;    0,682
424,885; 5030,781;   -0,071;   -3,045
425,475; 5213,075;    1,474;   -2,864
426,065; 5094,446;   -0,980;   -0,318
426,654; 4859,341;   -0,435;   -0,318
427,244; 5042,381;    0,020;    1,409
427,833; 4630,760;    1,383;   -0,500
428,423; 4894,504;   -0,526;    1,136
429,012; 5418,941;   -0,344;   -1,136
429,601; 5052,201;   -1,344;    0,136
430,191; 5206,648;    1,292;    4,318
430,780; 4915,950;   -0,344;   -0,409
431,369; 4970,432;    0,746;   -0,045
431,959; 5394,334;   -1,254;    0,500
432,548; 5188,410;   -1,163;   -0,045
433,137; 5234,372;   -1,254;   -1,318
433,726; 5645,014;    0,292;    0,500
434,315; 5186,446;   -0,526;    2,409
434,905; 5278,457;   -1,254;    1,409
435,494; 5268,022;    0,746;    0,955
436,083; 5527,337;   -0,981;   -0,955
436,672; 5409,572;    0,110;    0,500
437,261; 5159,925;    0,292;   -1,955
437,850; 5334,410;    1,383;    0,682
438,439; 5304,510;    3,291;    1,955
439,027; 5227,091;    3,655;    1,773
439,616; 5446,196;    2,927;    1,227
440,205; 5275,323;    0,200;   -2,136
440,794; 5231,627;    2,109;   -0,045
441,383; 5411,674;   -1,346;   -0,591
441,971; 5276,839;   -2,436;    0,591
442,560; 5154,506;    0,563;   -1,773
443,149; 4938,672;    0,379;   -1,318
443,737; 5095,221;   -0,074;   -2,318
444,326; 5290,201;    0,018;    0,318
444,915; 5318,332;   -1,982;    0,864
445,503; 5560,238;   -2,891;   -0,318
446,092; 5122,819;    0,382;    2,136
446,680; 5497,112;    0,382;    0,318
447,269; 5592,272;   -0,346;   -0,318
447,857; 5403,451;    0,018;   -1,773
448,445; 5462,452;    0,563;    1,318
449,034; 5650,897;   -1,528;   -1,136
449,622; 5704,674;   -1,073;    3,500
450,210; 5319,454;    2,017;    2,227
450,799; 5697,531;    0,290;   -0,591
451,387; 5563,855;    1,381;   -0,591
451,975; 5360,125;    2,654;    0,864
452,563; 5495,484;    3,472;    2,318
453,151; 5429,202;   -0,528;   -1,227
453,739; 5387,411;   -1,347;    0,136
454,328; 5338,292;    2,381;   -2,136
454,916; 5110,925;    2,562;   -0,136
455,504; 5248,193;    1,017;    1,227
456,092; 5363,198;    0,017;   -1,591
456,679; 5264,331;    1,472;    0,682
457,267; 5467,874;    4,017;    1,045
457,855; 5432,910;    1,017;    1,409
458,443; 5143,561;   -0,165;    1,682
459,031; 5382,268;    0,108;    2,409
459,619; 5668,603;   -1,801;    2,864
460,206; 5645,705;    0,835;    2,045
460,794; 5718,419;   -2,983;   -0,227
461,382; 5897,204;   -0,529;   -0,864
461,970; 5561,989;    1,198;    1,864
462,557; 5617,270;   -0,711;   -0,682
463,145; 5784,432;   -3,165;   -1,682
463,732; 5892,300;    2,016;   -1,045
464,320; 5760,331;   -0,075;   -3,045
464,907; 5572,411;    2,743;   -0,773
465,495; 5456,333;    0,743;   -1,227
466,082; 5574,016;   -1,984;   -0,045
466,670; 5438,125;   -2,529;    1,227
467,257; 5772,078;   -1,711;    2,045
467,844; 5945,907;   -0,075;    0,045
468,432; 5964,668;    0,834;    3,500
469,019; 5605,411;    0,925;   -1,773
469,606; 5928,779;    0,470;    3,682
470,193; 5811,557;   -1,439;    0,227
470,780; 5567,367;   -2,075;    0,864
471,368; 5765,917;   -1,257;   -0,773
471,955; 5635,287;    1,379;   -0,682
472,542; 5370,236;    0,652;   -1,136
473,129; 5505,479;   -0,166;    0,136
473,716; 5323,840;    1,470;    0,591
474,303; 5424,213;    0,652;   -0,864
474,890; 5626,481;   -1,439;   -0,500
475,477; 5709,658;   -1,621;    0,409
476,064; 5619,831;    1,106;   -1,591
476,650; 5520,899;    0,288;    0,318
477,237; 5382,990;   -0,258;    0,955
477,824; 5502,578;   -1,076;    0,864
478,411; 5479,288;   -1,894;   -0,318
478,997; 5618,980;    0,560;   -0,773
479,584; 5661,004;    1,196;   -0,409
480,171; 6197,315;   -0,440;   -0,773
480,757; 5987,314;    2,651;    0,773
481,344; 6135,216;    0,469;    0,409
481,931; 5696,420;    1,105;    1,045
482,517; 6440,543;   -1,258;    0,318
483,104; 6786,260;    1,106;    2,864
483,690; 6904,501;   -1,804;    0,045
484,276; 7079,887;   -0,895;    0,227
484,863; 6912,875;    2,469;    1,136
485,449; 7266,057;   -0,077;    0,318
486,035; 7203,364;   -1,986;   -0,136
486,622; 7590,499;   -0,895;    0,045
487,208; 7471,726;    1,378;    1,500
487,794; 7360,235;    0,741;    0,318
488,380; 7473,725;    0,105;   -1,409
488,967; 7506,033;   -1,168;   -0,409
489,553; 7557,706;   -1,895;   -1,409
490,139; 7735,971;    1,559;    0,773
490,725; 7332,493;    0,741;   -0,227
491,311; 7038,409;    3,287;    3,045
491,897; 6558,831;   -0,986;    1,500
492,483; 6517,065;    0,105;    1,227
493,069; 6685,378;    3,923;    0,864
493,655; 6485,523;    1,650;    0,682
494,241; 6406,166;    1,377;   -0,955
494,826; 6680,747;    0,287;   -1,045
495,412; 6244,673;    2,559;   -0,682
495,998; 6371,306;   -0,805;   -0,318
496,584; 6384,493;    0,377;    1,045
497,169; 6339,843;    1,014;   -0,682
497,755; 6329,803;    0,650;    1,227
498,341; 6839,611;    0,559;    0,318
498,926; 6537,392;    1,832;    1,955
499,512; 6587,893;    1,286;    2,955
500,097; 6542,834;    0,195;   -0,318
500,683; 6558,327;   -0,350;    2,136
501,268; 6854,988;   -0,169;   -0,955
501,854; 6675,116;   -0,169;    1,227
502,439; 6586,693;   -0,624;   -1,773
503,024; 6731,680;    0,195;    0,500
503,610; 6766,092;   -0,078;   -0,682
504,195; 6680,203;    0,558;    1,955
504,780; 6833,915;    2,922;    1,227
505,366; 6775,798;    3,013;    2,864
505,951; 6569,105;    0,740;    1,045
506,536; 6578,186;   -3,260;   -3,682
507,121; 6523,150;    0,285;   -0,318
507,706; 6883,299;    2,376;    1,045
508,291; 7137,336;    2,649;    1,136
508,876; 6700,731;   -0,988;    2,591
509,461; 6325,321;   -0,169;   -0,773
510,046; 6665,592;    0,194;    0,318
510,631; 6838,109;   -0,351;   -0,773
511,216; 6557,790;    2,467;   -0,500
511,801; 6875,682;   -0,442;    2,591
512,386; 7042,218;    0,740;    0,500
512,971; 6980,341;   -2,988;    0,955
513,555; 6677,923;   -0,897;   -1,500
514,140; 7235,107;   -0,442;   -3,136
514,725; 7210,231;   -0,715;   -1,136
515,309; 7267,295;   -0,533;    0,318
515,894; 6924,047;   -0,624;   -2,227
516,479; 7234,182;   -0,624;   -0,955
517,063; 7044,097;    0,376;    1,227
517,648; 7182,205;    1,012;   -1,136
518,232; 6834,210;   -0,261;   -1,409
518,817; 7141,475;   -0,079;    1,682
519,401; 7341,250;    2,194;    0,591
519,985; 6884,124;    1,103;    1,136
520,570; 6792,220;    0,830;   -1,955
521,154; 7031,174;    2,102;    0,591
521,738; 7168,661;   -2,352;    2,409
522,323; 7635,784;   -0,170;    1,682
522,907; 7362,040;    0,466;   -0,136
523,491; 7154,917;    0,557;    0,955
524,075; 7126,818;    2,284;    0,591
524,659; 7243,896;    1,466;    0,591
525,243; 6905,840;    1,739;    0,409
525,827; 7002,397;    0,648;   -0,045
526,411; 7530,442;   -1,989;   -0,136
526,995; 7750,196;   -0,352;    1,409
527,579; 7426,859;   -0,443;   -1,045
528,163; 7623,401;    0,375;   -1,500
528,747; 7654,970;    2,466;   -0,773
529,331; 7851,282;   -0,080;   -1,409
529,915; 7943,517;    1,738;    0,955
530,499; 7897,228;   -0,807;    1,227
531,082; 7657,396;   -0,534;    1,591
531,666; 7268,350;    1,374;    0,773
532,250; 7727,871;    1,284;    2,682
532,833; 7968,993;    0,920;    2,773
533,417; 7842,473;   -1,807;    0,864
534,001; 7761,982;    1,647;   -0,318
534,584; 8303,137;    0,374;    0,500
535,168; 8137,855;    0,465;    1,409
535,751; 8194,507;    0,647;    0,045
536,334; 7705,683;   -0,898;   -0,409
536,918; 8181,459;    0,011;    1,591
537,501; 8215,248;   -0,899;    1,318
538,085; 8190,870;   -0,444;    1,045
538,668; 8269,589;    0,829;    2,409
539,251; 8545,945;    1,829;    3,773
539,834; 8575,746;    0,101;    0,773
540,418; 8542,340;   -1,990;    4,318
541,001; 8586,925;   -0,990;    1,773
541,584; 8534,524;    2,101;    2,227
542,167; 8283,192;    1,374;    2,955
542,750; 8316,112;    1,919;   -0,773
543,333; 7956,923;    0,555;    2,136
543,916; 8583,388;    0,192;    2,500
544,499; 8934,233;   -1,354;    0,227
545,082; 8971,548;    1,374;    3,591
545,665; 9082,075;    1,919;    1,500
546,248; 9230,559;    1,010;   -0,318
546,830; 8990,020;   -0,445;    1,955
547,413; 9315,332;    1,010;   -0,773
547,996; 9709,145;    0,555;    0,500
548,579; 9445,885;    0,919;    0,955
549,161; 9280,291;    1,828;    2,682
549,744; 9079,485;   -0,809;    0,409
550,326; 9460,676;   -0,809;   -1,136
550,909; 9342,266;    2,737;    0,591
551,492; 9635,195;   -0,263;    0,227
552,074; 9467,773;   -0,173;   -1,318
552,657; 9890,079;    2,373;    0,045
553,239; 9745,055;   -0,173;   -0,773
553,821; 9641,967;   -1,082;    1,045
554,404; 9225,740;    1,282;    1,136
554,986; 9540,611;    0,464;    1,045
555,568; 9987,678;    1,191;   -0,955
556,151; 9435,852;    1,191;   -0,227
556,733; 9526,361;   -0,264;   -0,864
557,315; 9861,775;    0,100;    0,500
557,897; 9585,104;    0,554;   -0,500
558,479; 9711,402;   -1,991;    1,318
559,061; 9850,898;   -0,719;   -0,864
559,643;10105,638;   -0,264;    0,045
560,225;10315,175;    1,645;    2,864
560,807;10309,183;    0,918;    0,318
561,389; 9940,284;    0,554;    2,318
561,971;10428,451;    0,463;    2,136
562,553;10311,601;   -1,628;    1,591
563,135;10409,831;   -0,537;    1,136
563,717;10096,401;    3,372;    1,136
564,298;10614,371;    3,645;   -0,045
564,880;10306,862;    0,645;   -1,409
565,462;10394,043;    0,645;    1,318
566,043;11252,779;   -0,446;    2,318
566,625;10848,274;    1,918;    1,227
567,207;10683,172;    1,099;    1,682
567,788;11427,966;   -1,264;    1,500
568,370;11976,014;    1,917;   -0,500
568,951;11695,299;    0,190;    0,227
569,533;12303,712;   -0,628;   -0,500
570,114;12637,062;   -0,446;    0,682
570,695;12909,915;   -0,174;   -1,318
571,277;13057,514;   -0,265;   -1,682
571,858;13627,123;    2,008;   -1,136
572,439;14161,822;    1,554;   -1,045
573,021;14159,935;    2,099;   -2,773
573,602;14470,469;   -1,265;    0,318
574,183;15113,827;   -2,083;    2,227
574,764;15042,116;   -1,629;    0,409
575,345;15297,846;    0,917;   -0,136
575,926;15657,600;   -0,356;    0,136
576,507;15648,692;    1,099;   -0,227
577,088;16444,311;    3,099;    1,682
577,669;16465,878;    0,735;    1,955
578,250;16989,555;    0,644;   -1,045
578,831;17256,324;   -1,356;   -2,227
579,412;17328,325;   -0,810;    0,955
579,993;18049,822;    1,008;    0,227
580,573;18278,161;   -0,629;   -0,955
581,154;17343,126;    0,735;   -0,591
581,735;18081,812;    0,644;    0,773
582,315;17659,903;   -0,629;    2,136
582,896;17867,479;   -0,174;    1,227
583,477;17441,403;    0,189;    1,227
584,057;17625,078;    0,553;    0,955
584,638;17857,822;    2,553;    2,318
585,218;17896,705;   -0,538;    2,682
585,799;17953,687;    0,281;   -0,227
586,379;17975,402;    0,372;    1,591
586,959;17165,497;    0,735;    0,318
587,540;16736,215;   -0,629;    2,227
588,120;16437,901;    1,007;   -0,045
588,700;15804,952;    2,553;    2,136
589,281;16117,673;    0,462;   -0,955
589,861;16033,989;    0,099;   -1,682
590,441;15860,045;    2,371;   -2,682
591,021;15108,317;   -0,265;   -2,591
591,601;15429,615;   -0,537;    0,500
592,181;15574,160;   -0,719;   -0,773
592,761;14948,483;    0,007;    1,409
593,341;14977,521;   -0,901;    0,045
593,921;14960,204;   -0,265;    1,591
594,501;14883,786;   -0,538;    1,318
595,081;14731,575;    0,917;   -0,318
595,661;15077,743;   -1,447;    0,955
596,240;15466,359;   -0,537;    0,136
596,820;15123,792;    0,372;    1,955
597,400;15064,974;    2,008;    0,773
597,980;15309,522;    2,008;    1,045
598,559;15379,188;    2,735;   -0,227
599,139;15201,396;   -0,174;   -1,227
599,718;15026,396;   -0,174;   -0,409
600,298;15315,387;    0,735;    0,682
600,877;15576,217;    2,917;    1,409
601,457;15704,287;    2,281;    1,136
602,036;15651,202;    0,190;    2,045
602,616;15725,109;    0,644;    1,682
603,195;16020,419;   -0,355;    3,500
603,774;15584,610;   -0,901;    2,045
604,354;15483,330;    0,826;   -0,500
604,933;15197,557;    0,463;    1,864
605,512;15316,281;    3,554;    0,591
606,091;15363,053;   -0,537;    3,773
606,671;15935,866;    0,281;    0,773
607,250;15345,874;    1,644;    3,136
607,829;15485,273;    2,372;    3,227
608,408;15390,391;    1,190;    2,591
608,987;14678,210;    1,281;    3,409
609,566;14858,157;   -1,265;   -2,500
610,145;15028,574;   -1,082;    0,682
610,723;15389,699;    4,372;    6,864
611,302;14760,488;   -0,446;    1,682
611,881;14378,614;    5,008;   11,227
612,460;14986,656;    1,645;    3,955
613,039;15333,858;   -0,082;    2,045
613,617;14320,398;    1,736;    4,773
614,196;14441,218;    1,099;    1,227
614,775;14776,469;    1,009;    2,409
615,353;14722,995;    0,736;    0,864
615,932;14607,037;    0,100;    2,409
616,510;15049,783;    0,554;    0,591
617,089;14718,988;    7,100;   17,591
617,667;14575,905;    2,372;    6,136
618,246;14457,323;   -1,537;    1,318
618,824;14595,142;   -3,355;   -0,955
619,402;14208,738;   -2,900;   -1,773
619,981;14570,271;   -0,173;   -1,045
620,559;14502,442;    0,009;    1,682
621,137;14165,634;   -0,718;    1,864
621,715;14080,214;   -1,173;   -0,682
622,293;14038,113;   -0,537;   -0,773
622,871;14493,229;   -0,718;    0,500
623,450;14190,083;    0,373;   -0,864
624,028;14146,409;    0,191;   -0,955
624,606;13847,514;   -1,718;    1,682
625,183;14091,527;   -1,536;   -1,136
625,761;13869,022;    1,009;    1,136
626,339;14197,383;    1,373;    2,591
626,917;14386,521;   -0,172;   -0,045
627,495;14435,505;   -0,354;    1,318
628,073;13995,410;   -0,263;    2,864
628,650;13752,045;    0,100;    2,136
629,228;14113,627;    0,373;    4,409
629,806;13629,781;    2,282;    1,136
630,383;13819,371;    1,464;   -0,318
630,961;13764,252;    2,555;   -0,955
631,539;13515,437;    2,464;    0,227
632,116;13137,888;   11,373;   15,409
632,694;13557,016;    2,555;    6,500
633,271;13596,892;    0,828;    2,682
633,848;13671,317;    1,828;    2,045
634,426;13639,195;   -1,081;    1,773
635,003;13026,657;    1,101;   -0,409
635,580;13274,639;    1,192;    3,682
636,158;13670,836;    3,737;    1,227
636,735;13630,272;    0,555;   -0,500
637,312;13684,186;   -0,809;   -0,682
637,889;13718,020;   -4,354;   -0,682
638,466;13421,794;   -3,990;   -0,409
639,043;13425,274;    2,101;   -1,136
639,620;13626,026;   -2,262;   -0,955
640,197;13838,707;    1,100;    1,682
640,774;14009,377;   -0,172;    1,136
641,351;14227,774;    0,737;    1,136
641,928;13909,899;   -0,627;    1,409
642,505;13634,387;    0,828;   -0,500
643,082;13700,057;   -1,718;    1,227
643,658;13008,909;   -0,718;    1,500
644,235;13510,579;    1,191;    2,500
644,812;13680,158;    1,918;    0,773
645,388;13488,737;   -0,991;    1,409
645,965;13519,498;   -0,809;    1,682
646,542;13557,531;   -1,445;   -0,227
647,118;13703,110;    1,009;   -0,955
647,695;13883,235;   -0,263;    1,136
648,271;13784,268;   -0,536;    0,500
648,848;13950,484;    0,736;    2,227
649,424;13903,881;    0,827;    1,318
650,000;13643,187;   -0,354;   -1,045
650,577;13552,494;   -0,627;   -0,955
651,153;13836,709;   -1,809;    0,955
651,729;14494,924;    1,191;    0,864
652,305;14682,776;    0,645;    2,773
652,881;17383,264;   -0,082;    1,136
653,458;21449,116;    1,100;    0,227
654,034;23454,423;    0,282;    1,591
654,610;24088,274;    0,554;    0,773
655,186;25011,490;    0,645;    3,045
655,762;24640,705;   -0,991;    0,409
656,338;24645,375;    0,100;    0,136
656,913;25411,227;   -0,082;    0,409
657,489;24786,079;    0,827;   -0,318
658,065;24851,385;   -0,173;   -1,591
658,641;25463,055;   -0,900;   -0,864
659,217;24883,088;   -0,991;    0,409
659,792;24419,213;    0,645;   -0,409
660,368;24690,519;   -2,173;   -0,682
660,944;24709,553;   -2,082;    1,227
661,519;21710,496;   -0,628;    0,409
662,095;18187,438;   -1,719;    0,591
662,670;15562,745;    1,281;   -0,136
663,246;15051,051;    1,009;   -0,409
663,821;14692,357;    0,281;    1,682
664,396;14201,845;    0,009;    1,864
664,972;14382,515;    0,009;   -0,500
665,547;14677,185;    1,372;    0,136
666,122;14714,219;   -1,082;    0,318
666,698;14928,798;   -0,173;    0,318
667,273;14335,195;   -0,173;    0,136
667,848;14966,320;    2,372;    1,500
668,423;14767,717;    2,190;    2,318
668,998;15039,932;    2,827;   -0,682
669,573;15455,875;   -3,264;   -1,500
670,148;15365,818;   -1,446;   -0,682
670,723;15090,579;   -1,810;    0,318
671,298;15434,339;    2,372;    1,045
671,873;15435,100;   -0,082;   -0,136
672,448;15411,588;    0,645;    0,136
673,023;15692,440;   -1,992;   -0,227
673,597;15976,019;    0,827;    2,318
674,172;15817,144;   -0,355;    0,318
674,747;15402,086;    0,372;   -1,045
675,321;15110,302;   -0,628;    3,318
675,896;14839,063;    0,645;    1,045
676,471;15580,824;    2,645;    1,591
677,045;15380,857;   -1,264;    0,682
677,620;15392,800;    0,190;    1,136
678,194;15688,197;   -2,628;    1,136
678,769;15416,776;   -1,083;   -0,318
679,343;15622,719;   -0,628;    1,773
679,917;15529,480;   -1,446;    1,955
680,492;15467,695;    0,826;    3,227
681,066;15548,456;    3,372;    0,409
681,640;15615,399;    1,463;   -0,318
682,214;16225,978;    0,735;    0,500
682,788;15852,830;   -1,356;   -0,773
683,363;15776,590;   -1,810;    1,682
683,937;15487,533;   -1,719;   -0,318
684,511;16032,567;    0,463;   -0,591
685,085;15852,509;   -1,356;    0,318
685,659;15649,179;   -2,538;    0,864
686,232;15903,668;   -0,356;   -0,318
686,806;15659,065;   -0,901;    0,409
687,380;16110,098;   -0,174;    0,591
687,954;16310,223;   -1,174;    1,136
688,528;16035,802;   -0,719;    1,955
689,101;16660,745;   -3,992;    1,045
689,675;16308,505;   -0,356;   -0,136
690,249;15776,812;   -0,719;    0,409
690,822;16107,300;    0,280;    0,318
691,396;16205,334;   -0,265;    1,227
691,969;15750,458;    1,280;    0,136
692,543;16138,855;   -0,447;   -1,955
693,116;15856,434;   -0,265;   -1,409
693,690;15770,832;    0,099;    0,500
694,263;16191,956;   -1,083;    2,955
694,836;16224,990;    1,371;    3,591
695,410;15191,841;   -0,265;    1,773
695,983;15527,420;    0,189;    0,591
696,556;15538,545;   -0,447;   -1,045
697,129;15839,579;   -0,356;    1,409
697,703;15553,158;   -1,629;    1,955
698,276;15601,646;    1,462;   -0,773
698,849;15439,770;    1,280;    1,409
699,422;15705,349;   -1,083;    0,591
699,995;15556,747;    0,007;    0,136
700,568;15908,507;   -0,629;    3,045
701,140;15890,632;   -2,811;    1,682
701,713;15733,938;   -0,174;    2,409
702,286;15544,245;   -0,538;    0,864
702,859;15360,824;   -0,902;   -0,591
703,432;14850,584;    0,825;    0,682
704,004;15108,618;    0,462;    0,318
704,577;14994,197;   -0,629;    0,136
705,150;15490,958;    0,189;    2,500
705,722;15356,537;   -0,356;   -3,227
706,295;15196,934;   -0,175;   -0,591
706,867;15103,786;   -0,175;    1,955
707,440;15308,729;   -1,720;   -0,409
708,012;15502,399;    0,462;    0,591
708,584;15401,705;    2,462;    0,227
709,157;15576,920;    1,825;   -0,591
709,729;15392,681;    2,280;    2,045
710,301;16037,169;    0,734;    0,045
710,874;16071,567;   -1,447;   -0,227
711,446;15109,600;    0,371;    0,864
712,018;15005,088;    0,098;    0,500
712,590;14814,667;   -1,993;    1,682
713,162;15218,974;    0,825;    1,318
713,734;15447,644;    1,825;   -2,045
714,306;15377,768;   -1,902;   -0,409
714,878;14357,620;    0,825;    0,864
715,450;15032,472;    0,643;    0,864
716,022;15271,687;    1,552;    1,318
716,593;15403,448;    0,189;    0,591
717,165;15355,573;   -3,175;   -1,227
717,737;15166,243;    0,280;    0,409
718,309;14922,822;    0,280;   -0,045
718,880;14927,037;   -0,539;   -1,409
719,452;15069,980;   -0,175;   -1,591
720,024;14827,559;    0,734;   -0,591
720,595;15218,501;   -2,902;    0,955
721,167;14900,808;    0,370;   -2,045
721,738;14534,932;   -0,812;   -1,045
722,309;14586,511;   -0,993;   -1,227
722,881;14400,181;   -1,357;    0,773
723,452;14887,488;   -2,630;    2,864
724,023;15084,885;   -0,721;    2,682
724,595;14900,191;    0,007;    0,682
725,166;14656,952;    0,007;   -0,409
725,737;14424,167;    1,734;    0,227
726,308;14527,383;   -0,266;    0,318
726,879;14820,053;   -1,630;    1,227
727,450;14678,632;    0,552;   -0,045
728,021;14638,575;    3,097;    0,682
728,592;14514,245;    0,734;    0,500
729,163;14805,005;    0,643;   -0,136
729,734;14755,766;    0,188;   -0,227
730,305;15027,527;    1,734;    0,136
730,876;15266,924;    0,188;    2,955
731,447;15090,322;    2,188;    2,682
732,017;15134,810;    1,097;    1,864
732,588;14846,389;    0,734;    1,227
733,159;14903,150;    0,643;   -1,045
733,729;14685,274;    0,006;    0,409
734,300;14185,217;    0,915;    0,864
734,870;14525,341;    3,461;    0,591
735,441;14938,011;    0,370;   -0,591
736,011;14790,045;    0,643;   -1,591
736,582;14700,169;   -0,812;    0,045
737,152;14230,112;   -1,721;   -2,045
737,722;14667,237;   -0,267;   -0,682
738,293;14384,634;   -1,358;    1,318
738,863;14375,486;    2,461;    2,318
739,433;14288,156;    5,279;    0,318
740,003;14786,644;   -0,994;   -0,682
740,573;14349,495;    2,097;   -1,591
741,143;14377,802;   -1,085;    0,318
741,713;14863,290;    1,188;   -0,500
742,283;14679,233;    0,915;    1,591
742,853;14536,266;    1,915;    1,591
743,423;14109,754;    1,733;    0,045
743,993;14154,606;   -0,358;    1,500
744,563;13715,640;    0,097;   -0,864
745,133;13687,401;   -0,812;   -0,864
745,702;14250,252;   -0,267;    1,773
746,272;13619,741;   -0,176;    0,591
746,842;13493,501;   -1,358;   -0,591
747,411;13855,535;   -0,267;   -0,318
747,981;13958,205;    0,097;    0,500
748,551;13996,329;    2,278;   -1,045
749,120;13935,181;    0,642;   -0,227
749,690;14229,760;   -0,631;    2,409
750,259;14453,612;    1,369;    2,955
750,828;14342,827;    1,551;   -1,955
751,398;14544,225;    1,278;   -0,045
751,967;14193,986;    2,187;    0,409
752,536;14361,292;   -0,813;   -0,227
753,105;14753,235;    0,096;    0,227
753,675;14467,541;    0,096;    1,773
754,244;14407,302;   -0,904;    3,591
754,813;14416,881;    0,551;    1,227
755,382;14046,005;    0,460;    0,955
755,951;14413,312;    1,551;    3,682
756,520;14188,527;   -0,085;    1,864
757,089;14605,924;    0,278;    0,500
757,658;14622,140;    1,733;    1,227
758,227;14667,082;    1,096;    0,318
758,795;14859,661;    1,187;    1,136
759,364;15129,786;   -0,086;   -0,591
759,933;14308,274;   -1,176;   -0,045
760,501;13976,671;    0,733;   -1,318
761,070;14290,523;   -2,813;   -1,409
761,639;14916,011;   -1,904;    1,318
762,207;14381,318;    1,551;   -0,955
762,776;14293,624;    0,369;    0,864
763,344;14302,294;   -0,995;    0,591
763,913;13450,237;   -0,722;    1,409
764,481;14146,452;    1,005;   -0,136
765,049;14066,758;   -1,358;    1,409
765,618;13965,519;   -0,086;    0,318
766,186;14043,007;    0,278;    0,136
766,754;14253,132;    0,005;    1,864
767,322;13473,256;   -1,995;    0,409
767,890;13428,654;   -0,722;   -1,773
768,459;13818,687;   -2,177;   -0,318
769,027;14004,812;    1,641;    3,409
769,595;13172,572;    3,278;    2,591
770,163;13484,970;    3,823;    2,955
770,730;13383,640;    0,732;   -0,136
771,298;13286,219;    0,187;   -1,409
771,866;13361,252;   -1,541;    4,955
772,434;13623,013;   -0,631;   -1,864
773,002;13787,501;    0,005;    0,682
773,569;13523,899;    0,914;    1,682
774,137;13358,387;   -0,268;   -0,045
774,705;13999,057;    0,278;   -0,136
775,272;13637,181;    0,641;    0,682
775,840;13541,397;   -0,177;    2,682
776,407;13100,157;    0,277;    1,955
776,975;12732,282;   -0,632;    0,318
777,542;13572,043;   -1,086;   -0,045
778,110;13477,895;   -1,268;   -0,045
778,677;13170,655;   -2,359;   -0,864
779,244;12997,780;    2,186;    1,045
779,812;13123,904;    1,823;    0,864
780,379;13001,574;    0,005;    1,136
780,946;13196,426;    1,005;   -0,773
781,513;13429,369;   -1,450;    0,318
782,080;12949,766;   -0,086;    2,864
782,647;13482,982;   -0,268;    3,045
783,214;13233,742;   -0,177;    3,864
783,781;12934,776;   -0,723;   -0,682
784,348;12859,082;   -0,632;    1,500
784,915;13155,570;   -3,177;    0,318
785,482;13035,877;    1,368;    2,591
786,049;13406,456;    0,186;   -0,591
786,615;13499,489;    0,277;   -0,955
787,182;13267,069;    0,186;   -0,682
787,749;13047,011;   -2,814;    1,409
788,315;12501,318;   -1,632;   -0,409
788,882;12770,987;    1,550;   -1,227
789,448;13336,567;    1,732;   -0,955
790,015;13350,327;    1,095;    3,227
790,581;13027,816;    1,459;    0,227
791,148;12898,122;    0,641;    1,045
791,714;13036,883;   -0,541;    3,136
792,280;12879,189;    0,186;    1,591
792,847;12652,314;    0,550;    2,500
793,413;12940,074;   -0,269;   -0,318
793,979;12674,381;    3,459;   -1,318
794,545;12795,051;    4,459;    2,682
795,111;12350,357;    2,186;    1,318
795,678;12461,482;    0,731;   -1,682
796,244;12226,606;    3,368;    0,136
796,810;12631,821;    1,731;    0,773
797,375;12448,128;    0,549;   -2,136
797,941;12370,707;   -0,541;    0,591
798,507;12446,559;   -0,451;   -0,955
799,073;12127,774;   -0,360;    0,591
799,639;12239,262;   -2,632;    3,136
800,205;12309,659;    0,095;    2,682
800,770;11941,693;    0,640;    1,773
801,336;11928,727;    1,368;   -0,955
801,901;11829,306;    4,549;    3,136
802,467;12315,339;   -0,542;    2,045
803,033;11712,282;   -0,087;    0,864
803,598;11895,861;    1,913;   -1,045
804,163;11936,167;    1,095;   -0,318
804,729;11940,201;   -0,178;    1,136
805,294;12143,962;    0,822;    2,227
805,859;12026,904;    0,731;   -0,409
806,425;11739,483;    1,186;    2,682
806,990;11457,699;    2,186;    4,318
807,555;11750,187;   -1,451;    2,591
808,120;11751,948;    0,822;   -0,409
808,685;11750,891;    0,185;   -2,500
809,250;11397,561;    0,004;   -0,500
809,815;11631,958;    1,913;    0,682
810,380;12026,082;   -0,269;    1,591
810,945;12389,934;   -1,087;    2,045
811,510;11830,968;    2,094;    1,591
812,075;11593,274;   -0,633;   -1,409
812,640;11622,580;    2,003;    1,409
813,204;11714,523;    0,822;   -0,227
813,769;12083,557;    2,094;   -0,045
814,334;11673,227;    0,458;    0,864
814,898;11709,897;    0,367;    0,591
815,463;11535,112;    1,276;   -0,773
816,027;11534,600;   -0,724;   -2,318
816,592;11674,088;    0,640;   -2,045
817,156;11362,940;    2,094;    1,136
817,721;11297,519;    4,276;    2,318
818,285;11294,916;    2,912;    1,500
818,849;11732,677;   -1,451;    1,682
819,414;11609,074;   -0,269;    2,955
819,978;11293,472;   -1,269;    1,773
820,542;11794,596;    2,003;    0,500
821,106;11623,993;   -0,815;    0,682
821,670;11683,027;   -0,815;    2,591
822,234;11424,515;   -0,270;    1,409
822,798;11023,640;    0,003;    0,500
823,362;11120,855;   -0,633;    4,227
823,926;10612,980;    0,094;    1,136
824,490;10767,831;   -0,997;   -0,682
825,054;11100,865;   -0,088;   -1,136
825,618;10894,989;   -1,542;   -1,500
826,181;10845,387;    0,458;   -1,318
826,745;10762,147;    1,367;   -1,045
827,309;11072,727;    1,185;    1,318
827,872;10629,124;    1,367;    0,955
828,436;11345,976;    1,185;   -0,773
828,999;11471,827;   -0,997;    1,227
829,563;10633,134;   -0,179;    1,136
830,126;10470,258;   -0,179;   -0,591
830,690;10514,383;   -1,997;    2,864
831,253;10105,325;   -0,543;    2,227
831,816;10234,086;   -1,906;    0,500
832,380;10222,393;    0,185;    0,864
832,943;10433,244;   -1,361;   -0,500
833,506;10009,460;    2,639;   -1,227
834,069;10658,675;    3,912;   -0,955
834,632;10725,618;    1,730;    1,318
835,195;10658,561;    1,003;    0,955
835,758;10093,685;   -0,997;    1,955
836,321; 9923,173;    0,730;   -1,045
836,884;10024,934;   -0,725;   -0,955
837,447;10094,604;   -2,816;    1,773
838,010;10292,910;    0,366;    3,227
838,573;10547,489;   -1,179;    0,773
839,135;10531,159;   -1,361;   -0,955
839,698;10073,375;    1,275;    0,409
840,261; 9742,227;    1,003;   -0,227
840,823; 9627,896;   -0,543;    0,864
841,386; 9832,021;   -0,452;   -2,409
841,948; 9871,873;   -1,361;    1,773
842,511; 9637,815;    0,912;    1,682
843,073; 9732,122;    1,912;    0,227
843,636; 9537,337;   -0,361;   -0,227
844,198; 9541,734;    0,911;    0,591
844,760; 9669,768;    1,093;    1,955
845,322; 9343,256;    0,548;    1,136
845,885; 9693,926;    0,730;    0,591
846,447;10029,596;   -1,998;    0,227
847,009; 9791,721;    1,911;   -0,682
847,571; 9953,027;    0,820;   -2,045
848,133;10014,424;   -1,089;   -1,864
848,695; 9848,912;   -0,543;    1,409
849,257; 9562,673;   -1,089;   -1,682
849,819; 9748,434;   -0,998;   -0,409
850,381; 9705,468;   -0,725;   -0,864
850,942; 9928,956;    1,093;   -0,591
851,504; 9861,535;    1,184;    0,227
852,066; 9919,750;    1,275;   -1,591
852,628; 9695,147;   -0,180;    1,955
853,189; 9259,454;    1,638;    2,682
853,751; 9435,215;   -0,907;    1,409
854,312; 9270,521;   -0,453;   -1,682
854,874; 9678,191;   -2,089;   -0,773
855,435;10003,315;   -0,907;   -1,682
855,997;10165,531;   -1,816;   -0,136
856,558; 9603,110;    0,366;    1,773
857,119; 9667,325;    0,820;    2,864
857,681; 9388,268;    0,002;    0,318
858,242; 9437,756;    1,911;   -2,136
858,803; 9811,881;    0,456;   -0,773
859,364;10244,005;    0,184;   -4,773
859,925; 9829,766;   -2,453;   -0,955
860,486; 9718,254;   -0,453;   -0,955
861,047; 9454,288;   -0,544;   -1,227
861,608; 9339,503;   -1,089;   -0,773
862,169; 9498,173;    0,638;   -0,045
862,730; 9265,116;    0,456;    1,409
863,291; 9529,513;   -0,635;   -0,500
863,852; 9754,819;   -0,635;    1,955
864,412; 9348,308;   -0,271;   -0,864
864,973; 8394,068;   -0,089;    0,500
865,534; 8322,011;   -1,726;    0,227
866,094; 9334,045;    1,820;    0,227
866,655; 9073,169;    1,274;    3,318
867,215; 9353,839;    0,274;    0,136
867,776; 9272,236;    0,547;   -0,136
868,336; 9314,906;   -1,453;    0,136
868,897; 9054,667;    2,638;    1,682
869,457; 8881,610;    1,365;    0,318
870,017; 9086,371;    0,547;   -1,227
870,578; 9425,313;   -0,817;    0,773
871,138; 9042,165;   -2,089;   -0,955
871,698; 8740,653;   -0,817;   -1,318
872,258; 8647,323;   -0,453;   -2,864
872,818; 9008,175;    2,729;    0,045
873,378; 8986,118;    0,638;    1,045
873,938; 8653,424;    0,547;    0,500
874,498; 8860,185;    0,274;   -1,955
875,058; 8829,037;    2,183;    1,773
875,618; 8701,343;    1,910;   -2,682
876,177; 8637,468;    1,274;    0,136
876,737; 8374,683;   -0,090;    1,955
877,297; 8505,717;    0,183;    1,955
877,856; 8516,841;   -0,362;    0,318
878,416; 8425,784;    1,183;   -0,136
878,976; 8565,636;   -1,817;    0,409
879,535; 8751,669;    0,092;    3,136
880,095; 8612,885;   -0,544;    0,045
880,654; 8629,736;   -1,090;    1,318
881,213; 8784,588;    2,456;    1,500
881,773; 8470,167;    2,637;    2,682
882,332; 8847,110;    3,365;    5,136
882,891; 8663,962;    3,092;    2,136
883,451; 8982,359;   -1,272;    1,682
884,010; 8520,392;   -2,908;   -0,409
884,569; 8622,699;   -0,999;   -0,045
885,128; 8753,823;    2,819;   -1,864
885,687; 8855,857;    4,455;    0,682
886,246; 8684,436;    1,455;    2,136
886,805; 8383,742;    2,455;    2,045
887,364; 8532,958;   -0,999;   -0,500
887,922; 8815,082;   -1,181;    0,045
888,481; 8432,752;   -1,545;    0,591
889,040; 8662,786;    1,183;    2,136
889,599; 9079,456;    2,455;    1,409
890,157; 9152,762;    1,455;    2,409
890,716; 8793,796;   -0,090;    0,227
891,274; 8669,738;    0,092;   -1,136
891,833; 8981,590;    1,546;    0,864
892,391; 8838,715;   -0,454;    0,500
892,950; 8929,748;    1,819;   -0,773
893,508; 9178,509;    0,455;   -0,409
894,067; 8632,724;    0,637;    0,136
894,625; 8603,031;   -0,636;   -1,500
895,183; 8770,337;   -0,363;   -0,682
895,741; 8786,825;    1,728;   -1,773
896,299; 8613,495;   -0,545;   -2,409
896,858; 8739,802;    0,819;   -1,591
897,416; 8878,381;    2,728;   -1,318
897,974; 8689,505;    1,819;    0,318
898,532; 8928,357;    6,091;    2,682
899,089; 8810,027;    2,091;   -0,682
899,647; 8811,788;   -1,454;    1,318
900,205; 8706,458;    1,182;    1,045
900,763; 8826,400;   -0,454;    0,227
901,321; 8858,707;    2,364;   -1,409
901,878; 8375,104;   -1,000;   -0,773
902,436; 8363,228;   -1,363;    1,318
902,994; 8834,717;    4,728;    3,682
903,551; 8355,023;    0,728;    0,409
904,109; 8650,238;    0,182;   -1,409
904,666; 8386,817;    2,455;    1,045
905,224; 8246,215;    0,182;   -0,409
905,781; 8118,248;    0,727;   -0,318
906,338; 8129,191;   -1,363;    1,045
906,895; 8108,224;    0,637;    2,045
907,453; 8075,167;    1,727;    1,136
908,010; 8053,837;   -0,909;    0,409
908,567; 7827,416;    1,273;    0,591
909,124; 7453,086;    0,364;   -1,500
909,681; 7494,301;   -2,909;    0,682
910,238; 7741,244;    0,636;   -1,318
910,795; 8030,641;   -0,273;   -1,136
911,352; 7726,732;   -2,909;   -2,682
911,909; 7345,278;   -1,364;   -0,864
912,466; 7711,096;   -3,182;    1,500
913,022; 7339,641;   -1,636;    0,500
913,579; 7646,096;   -0,909;    2,045
914,136; 7478,187;    1,636;    0,955
914,692; 7764,641;    0,091;   -1,227
915,249; 7408,096;    1,455;    0,409
915,806; 7551,732;    0,182;    1,955
916,362; 7463,460;    1,909;    1,864
916,918; 7107,187;    2,000;    1,045
917,475; 7159,460;   -1,182;    0,955
918,031; 7169,278;    3,364;   -0,045
918,587; 6864,460;   -0,909;   -0,318
919,144; 7094,641;   -2,273;    0,227
919,700; 7237,823;    1,727;    0,773
920,256; 6944,369;    0,727;    0,045
920,812; 6750,460;   -0,727;   -1,045
921,368; 6797,278;   -1,727;   -1,045
921,924; 6506,732;    0,182;   -0,136
922,480; 6242,096;   -0,545;    1,227
923,036; 6757,187;    1,273;    1,955
923,592; 6703,551;    0,455;    0,318
924,148; 6681,005;    0,455;   -0,955
924,704; 6247,187;   -1,364;   -0,409
925,259; 6509,278;   -0,273;    0,591
925,815; 6330,005;    1,455;    0,500
926,371; 5974,551;    2,909;    1,409
926,926; 5966,369;    2,091;    0,591
927,482; 5742,005;   -1,364;    0,773
928,037; 5703,096;    0,909;    2,045
928,593; 6027,096;    1,636;    1,045
929,148; 5871,551;   -1,818;   -1,500
929,704; 5548,460;   -1,455;   -0,500
930,259; 5660,096;    0,091;   -0,136
930,814; 5122,278;   -0,818;    1,955
931,369; 4939,278;    1,091;   -0,773
931,925; 4847,096;   -0,091;    0,136
932,480; 4806,641;   -2,818;   -2,591
933,035; 4908,551;    0,545;   -0,318
933,590; 4764,187;    0,364;   -1,773
934,145; 4501,369;   -1,364;   -0,318
934,700; 4704,187;    0,455;   -0,591
935,255; 4606,369;   -0,091;    0,045
935,809; 4320,732;    3,182;    0,864
936,364; 3721,914;   -0,455;   -0,136
936,919; 3796,005;    0,455;   -1,773
937,474; 3719,641;    1,455;    0,136
938,028; 3614,096;   -1,636;    1,136
938,583; 3466,460;    1,818;    4,682
939,138; 3539,732;    2,091;    2,136
939,692; 3164,914;    1,636;   -1,136
940,247; 3029,187;   -0,727;   -1,045
940,801; 2908,641;   -0,636;    0,227
941,355; 2831,278;   -0,364;    2,591
941,910; 2542,005;   -0,273;   -2,136
942,464; 2664,005;   -0,818;   -0,318
943,018; 2716,278;    1,000;   -0,227
943,572; 2616,096;    2,545;   -0,682
944,126; 2327,096;    0,091;   -0,409
944,681; 2219,005;    3,091;    0,227
945,235; 2168,551;    1,000;   -0,591
945,789; 2115,460;    0,364;   -1,864
946,342; 2398,369;    0,455;   -0,591
946,896; 2123,187;   -2,273;    0,955
947,450; 1937,278;    1,545;   -0,227
948,004; 2252,641;    1,727;   -0,045
948,558; 2119,823;    0,273;   -0,864
949,111; 2073,096;   -0,273;   -0,318
949,665; 2266,096;    1,636;   -0,682
950,219; 2167,551;   -0,091;   -1,045
950,772; 2140,278;   -1,909;    1,864
951,326; 2099,005;    0,545;   -0,955
951,879; 2067,641;    0,727;   -2,318
952,433; 2179,278;    0,000;    2,227
952,986; 1995,096;    2,909;    0,682
953,539; 1928,732;   -0,273;    0,591
954,093; 1882,551;    0,545;   -1,318
954,646; 2059,278;    0,909;    1,318
955,199; 1883,187;    0,000;   -0,500
955,752; 1978,005;   -0,455;    1,773
956,305; 1855,278;   -0,091;    2,955
956,858; 1970,551;    0,818;   -0,318
957,411; 2099,096;   -0,545;    2,136
957,964; 1922,551;    1,364;    2,136
958,517; 1876,187;   -1,545;    3,136
959,070; 1778,460;   -0,455;    1,955
959,623; 2036,278;    1,091;    1,500
960,176; 1871,641;    1,727;    2,045
960,728; 1840,096;   -2,727;    0,773
961,281; 1860,914;    0,545;    0,500
961,834; 1819,551;   -0,909;    0,864
962,386; 1773,369;    1,727;    1,045
962,939; 1709,187;    0,364;   -0,318
963,491; 1803,641;    0,455;    1,136
964,043; 1707,278;    1,182;    2,409
964,596; 1876,096;   -1,000;    2,227
965,148; 1733,096;   -1,000;    1,773
965,700; 1648,187;    1,091;   -0,227
966,253; 1821,369;   -0,636;    0,318
966,805; 1743,460;   -2,273;    0,773
967,357; 1695,096;    1,091;   -1,500
967,909; 1771,732;    0,455;   -1,227
968,461; 1703,732;    0,545;    3,136
969,013; 1652,914;   -0,182;   -0,864
969,565; 1793,460;   -0,455;   -1,136
970,117; 2068,641;   -0,364;    1,045
970,669; 1750,096;    0,182;   -0,136
971,220; 1538,732;   -0,455;   -1,500
971,772; 1564,823;   -0,636;   -0,318
972,324; 1698,096;    0,091;   -0,500
972,876; 1598,460;    0,818;   -0,045
973,427; 1788,732;    1,909;   -1,045
973,979; 1797,914;   -0,727;   -2,500
974,530; 1645,914;    1,818;    1,318
975,082; 1680,005;   -0,545;    1,682
975,633; 1620,096;    1,091;    1,682
976,184; 1778,551;    0,909;    0,773
976,736; 1673,551;    0,091;    0,227
977,287; 1567,369;   -0,909;   -0,500
977,838; 1625,641;    0,909;   -0,318
978,389; 1660,914;   -1,000;   -0,500
978,940; 1500,732;    0,545;   -0,409
979,491; 1521,096;    0,091;   -0,500
980,042; 1566,187;    0,182;    3,045
980,593; 1552,641;   -2,545;    0,227
981,144; 1693,823;    2,545;   -0,500
981,695; 1750,914;    1,455;    1,500
982,246; 1665,096;   -0,273;    1,045
982,797; 1629,823;   -1,727;    0,682
983,347; 1790,096;    0,364;    0,591
983,898; 2028,369;    3,091;    0,409
984,449; 1894,369;    2,182;    0,773
984,999; 1674,732;    1,455;   -1,136
985,550; 1584,096;    0,182;   -0,318
986,100; 1483,460;   -0,455;   -0,318
986,651; 1509,096;   -0,818;    0,045
987,201; 1526,732;   -1,000;   -0,591
987,751; 1579,096;    0,818;    2,864
988,302; 1605,641;    2,636;    1,500
988,852; 1608,914;    0,455;   -1,136
989,402; 1716,187;    0,091;    0,682
989,952; 1701,914;   -2,182;    0,864
990,502; 1636,096;   -0,091;    0,682
991,052; 1527,914;   -0,727;    0,045
991,602; 1500,096;   -2,909;    1,318
992,152; 1558,096;    0,455;    0,682
992,702; 1544,096;    1,364;   -0,045
993,252; 1486,641;   -3,000;   -0,500
993,802; 1610,460;   -0,273;    1,318
994,352; 1685,914;   -1,545;    1,136
994,901; 1652,005;   -0,182;    3,227
995,451; 1618,551;   -0,182;    0,318
996,000; 1695,096;    1,636;    0,318
996,550; 1534,278;    2,273;    0,227
997,100; 1568,641;    1,273;   -0,045
997,649; 1797,823;    2,182;    0,955
998,198; 1523,732;    1,727;   -1,500
998,748; 1712,369;    1,091;   -2,318
999,297; 1577,732;   -0,818;   -0,409
999,846; 1724,823;    1,000;   -0,773
1000,395; 1667,460;   -0,818;    0,500
1000,945; 1754,096;    1,818;   -0,773
1001,494; 1794,551;    2,364;    0,682
1002,043; 1761,005;    4,636;    0,864
1002,592; 1540,914;   -1,091;    1,955
1003,141; 1641,278;   -0,455;   -0,682
1003,690; 1656,823;    1,727;    0,500
1004,238; 1588,369;    1,455;   -0,045
1004,787; 1349,914;    1,364;    1,227
1005,336; 1648,823;    0,364;    0,682
1005,885; 1646,823;    1,364;   -2,773
1006,433; 1677,096;    0,545;    0,955
1006,982; 1914,551;    0,455;    1,682
1007,531; 1726,732;   -1,818;   -0,227
1008,079; 1622,823;   -2,273;    0,500
1008,627; 1671,460;   -1,455;    0,409
1009,176; 1548,278;    0,000;   -1,955
1009,724; 1543,005;    1,091;    0,864
1010,273; 1710,369;    1,273;    0,500
1010,821; 1682,823;    0,091;    1,409
1011,369; 1498,005;   -1,364;    1,318
1011,917; 1507,369;   -1,364;   -0,591
1012,465; 1711,187;    1,273;   -1,591
1013,013; 1735,096;    2,091;   -1,682
1013,561; 1763,369;    0,455;   -0,773
1014,109; 1873,823;   -1,909;    1,682
1014,657; 1713,096;    0,364;    0,591
1015,205; 1686,914;    1,636;   -0,955
1015,753; 1650,551;   -0,545;   -1,409
1016,301; 1737,551;   -2,636;    3,045
1016,848; 1764,732;   -1,273;    0,409
1017,396; 1824,005;    2,545;    0,045
1017,944; 1877,732;    1,182;    1,864
1018,491; 1653,551;    0,273;    1,409
1019,039; 2016,278;    0,455;    0,591
1019,586; 1759,914;   -1,364;    1,682
1020,134; 1780,551;    0,455;    1,500
1020,681; 1841,278;    0,182;   -1,136
1021,228; 1764,005;    2,909;   -2,227
1021,776; 1668,641;    1,182;   -1,136
1022,323; 1968,914;    0,455;    0,773
1022,870; 1878,641;   -1,000;   -0,045
1023,417; 1878,460;    2,636;    1,864
1023,964; 1794,460;    2,636;    1,227
1024,511; 1738,460;    1,000;    0,773
1025,058; 1623,732;    3,182;   -0,045
1025,605; 1643,551;   -2,273;    3,136
1026,152; 1927,732;    1,727;   -0,591
1026,699; 1664,096;    1,818;    1,318
1027,245; 1723,732;   -0,091;    0,318
1027,792; 1797,278;   -1,000;    1,409
1028,339; 1899,551;    2,364;   -0,045
1028,885; 1732,641;    1,000;   -0,227
1029,432; 1657,641;   -0,091;    0,227
1029,978; 1769,460;   -1,000;   -1,591
1030,525; 1691,641;    1,000;    0,409
1031,071; 1731,460;   -1,364;    1,136
1031,618; 2023,732;    0,364;    1,682
1032,164; 1780,641;   -0,091;    3,045
1032,710; 1833,369;    1,636;   -1,500
1033,256; 1730,278;   -0,636;   -0,136
1033,803; 1613,005;   -0,545;    1,500
1034,349; 1418,641;   -1,364;    0,136
1034,895; 1532,278;    0,000;   -0,318
1035,441; 1552,005;   -0,818;    0,318
1035,987; 1603,460;   -2,364;   -0,682
1036,533; 1679,551;   -1,455;   -0,955
1037,078; 1917,732;    1,455;    1,682
1037,624; 1694,823;    2,455;   -0,955
1038,170; 1623,823;    0,455;   -0,318
1038,716; 1645,096;    1,636;   -0,409
1039,261; 1499,096;   -2,273;   -0,773
1039,807; 1484,551;   -0,091;    3,409
1040,352; 1571,914;   -1,909;   -0,318
1040,898; 1583,823;   -1,545;   -0,682
1041,443; 1461,187;   -1,455;   -2,591
1041,989; 1721,732;    1,091;    1,591
1042,534; 1495,641;   -0,364;    2,591
1043,079; 1452,187;    2,909;    0,955
1043,625; 1442,551;    1,818;    0,500
1044,170; 1513,641;   -1,364;    1,045
1044,715; 1777,278;    2,455;    0,955
1045,260; 1591,278;    2,182;   -0,955
1045,805; 1506,278;    1,182;   -0,591
1046,350; 1434,914;    1,364;   -0,409
1046,895; 1584,551;    2,909;    1,591
1047,440; 1582,369;    5,364;    0,409
1047,985; 1400,369;    2,818;   -0,955
1048,530; 1332,823;    1,545;    1,227
1049,074; 1436,823;    0,000;    0,318
1049,619; 1356,914;   -1,364;    1,955
1050,164; 1252,278;    0,455;    0,227
1050,708; 1332,187;   -0,455;    0,045
1051,253; 1738,096;    1,273;   -2,227
1051,797; 1441,369;    0,818;   -1,318
1052,342; 1315,823;   -1,182;    1,045
1052,886; 1388,641;    0,364;   -1,409
1053,430; 1221,096;   -1,364;    0,136
1053,975; 1277,732;   -0,818;   -0,318
1054,519; 1307,369;   -0,727;    3,227
1055,063; 1390,460;    0,909;    1,318
1055,607; 1323,823;   -0,182;    0,227
1056,151; 1331,096;    2,909;    1,682
1056,695; 1188,914;    2,273;   -1,136
1057,239; 1243,732;   -1,727;   -0,682
1057,783; 1286,914;    0,818;   -1,500
1058,327; 1324,732;    0,000;    1,409
1058,871; 1553,551;   -0,545;    1,318
1059,415; 1294,460;   -0,818;   -0,045
1059,958; 1576,732;    1,455;    2,591
1060,502; 1267,914;   -1,000;   -0,773
1061,046; 1121,551;    0,364;   -0,955
1061,589; 1078,005;   -3,000;   -1,136
1062,133; 1001,460;   -1,273;    1,864
1062,676; 1013,732;    1,182;    0,864
1063,220; 1059,732;    1,091;    0,500
1063,763; 1099,096;    0,909;    1,136
1064,306; 1171,641;   -0,909;    1,864
1064,849; 1105,005;   -0,909;    0,591
1065,393; 1088,914;    2,000;   -1,500
1065,936; 1149,278;    0,182;   -0,409
1066,479; 1003,823;   -1,455;    1,318
1067,022; 1047,369;   -0,273;   -0,227
1067,565;  978,369;   -0,091;   -1,318
1068,108;  953,823;    0,727;   -0,591
1068,651;  919,914;   -0,636;    1,409
1069,194;  892,641;   -0,455;   -1,682
1069,736;  925,005;   -1,273;    0,955
1070,279;  874,732;   -1,364;   -0,500
1070,822;  998,187;   -2,000;   -0,318
1071,364; 1157,278;   -0,364;    1,318
1071,907;  936,551;   -0,727;    3,227
1072,450;  771,641;    0,000;   -0,045
1072,992;  841,096;   -0,273;    3,136
1073,535;  998,732;    2,091;    2,136
1074,077;  805,096;   -0,727;    2,045
1074,619;  798,460;   -1,364;    0,591
1075,161;  836,187;   -1,091;    1,500
1075,704; 1033,732;    1,545;    1,227
1076,246;  800,369;   -0,182;    0,682
1076,788;  714,369;   -0,364;    1,773
1077,330;  748,823;    1,273;    2,136
1077,872;  783,005;    0,909;    0,955
1078,414; 1039,187;    2,727;    0,773
1078,956;  789,641;    1,273;   -0,227
1079,498; 1049,278;    1,636;    0,318
1080,040;  784,732;    1,909;   -1,318
1080,581;  717,005;    1,636;   -0,318
1081,123;  627,732;    0,091;   -0,773
1081,665;  657,187;   -1,182;   -0,955
1082,206;  967,096;    1,364;   -0,500
1082,748;  835,005;    0,727;    2,045
1083,289;  687,187;   -2,000;    1,318
1083,831;  651,914;   -0,545;    0,227
1084,372;  723,551;    0,000;    0,591
1084,913;  710,823;    1,091;    0,864
1085,455;  639,005;   -1,909;   -2,045
1085,996;  651,460;   -2,273;    0,136
1086,537;  697,823;   -0,091;    0,864
1087,078;  709,641;   -0,909;   -2,136
1087,619;  772,914;   -1,273;    0,227
1088,160;  687,187;    0,000;    1,318
1088,701;  657,005;   -1,091;    0,682
1089,242;  617,823;    1,364;   -2,227
1089,783;  720,369;   -0,273;    1,409
1090,324;  694,460;    0,455;    0,682
1090,865;  579,641;    2,727;   -0,409
1091,405;  525,732;    0,727;    2,227
1091,946;  569,914;    0,182;   -0,955
1092,487;  496,278;    0,818;   -1,409
1093,027;  682,369;   -1,364;   -1,500
1093,568;  556,641;   -0,364;    1,227
1094,108;  650,732;    0,273;    1,773
1094,649;  590,823;   -1,182;    0,136
1095,189;  523,460;   -0,636;   -0,682
1095,729;  500,460;   -0,091;    0,955
1096,269;  481,460;    0,727;   -0,955
1096,810;  782,641;   -1,364;    0,500
1097,350;  647,823;    1,364;   -0,773
1097,890;  554,732;    0,364;    1,227
1098,430;  806,823;    2,364;    2,864
1098,970;  695,005;    2,182;    1,682
1099,510;  525,369;    0,545;   -2,318
1100,050;  479,732;    1,000;   -1,591
1100,589;  471,096;   -0,727;   -0,318
1101,129;  581,278;    0,818;   -0,955
1101,669;  728,551;    1,727;    2,136
1102,209;  575,460;   -0,091;    2,227
1102,748;  535,278;    0,000;    0,955
1103,288;  529,732;    1,273;   -1,227
1103,827;  542,551;    3,091;   -2,227
1104,367;  439,641;   -0,091;   -2,409
1104,906;  423,641;    1,364;   -1,136
1105,445;  495,732;    0,636;   -1,136
1105,985;  456,278;   -0,727;    1,500
1106,524;  496,641;   -1,727;   -0,682
1107,063;  465,551;   -2,727;    1,409
1107,602;  421,005;   -1,909;   -1,500
1108,141;  373,369;   -1,909;    1,500
1108,680;  488,005;   -3,455;   -0,591
1109,219;  428,641;   -0,909;   -0,500
1109,758;  413,460;    0,455;    0,682
1110,297;  402,096;    1,000;   -0,682
1110,836;  347,641;   -0,727;    0,955
1111,375;  478,914;   -2,545;    0,409
1111,913;  506,096;   -1,000;    0,773
1112,452;  456,460;   -0,273;    0,136
1112,991;  351,823;    1,091;    1,955
1113,529;  321,914;   -0,818;   -0,045
1114,068;  389,096;   -0,273;    2,955
1114,606;  307,005;   -0,364;   -0,955
1115,144;  447,823;   -1,273;    1,045
1115,683;  392,460;   -0,727;    0,318
1116,221;  437,641;   -0,455;   -0,864
1116,759;  355,369;    0,636;   -0,864
1117,297;  534,369;    0,000;    1,864
1117,836;  367,914;   -2,182;   -1,227
1118,374;  372,460;    0,182;   -0,682
1118,912;  337,005;    0,909;    2,682
1119,450;  328,823;    1,000;    0,864
1119,988;  362,551;    1,545;    2,136
1120,525;  784,278;    5,091;    3,318
1121,063;  511,823;    1,182;    1,864
1121,601;  343,823;   -0,909;   -1,227
1122,139;  309,914;   -0,727;   -2,045
1122,676;  488,187;   -0,727;    2,773
1123,214;  427,460;   -1,182;    4,409
1123,751;  265,187;    1,727;    2,227
1124,289;  377,823;   -0,091;   -0,409
1124,826;  272,460;    1,727;    0,227
1125,364;  203,187;    1,727;   -0,955
1125,901;  378,641;    1,182;    1,227
1126,438;  456,551;    0,818;    0,955
1126,975;  220,005;   -0,727;   -0,773
1127,513;  279,187;    0,273;    2,136
1128,050;  209,823;    1,636;   -0,682
1128,587;  301,641;    2,000;   -0,227
1129,124;  342,732;    0,091;    1,318
1129,661;  231,823;    0,273;    0,227
1130,198;  370,460;    1,636;    0,773
1130,734;  318,823;    0,182;    1,409
1131,271;  201,278;   -0,909;    0,864
1131,808;  345,641;    2,909;    3,045
1132,345;  243,732;    1,545;    0,318
1132,881;  127,096;   -1,545;   -1,864
1133,418;  261,187;    0,727;   -1,136
1133,954;  208,641;    2,455;   -2,682
1134,491;  274,641;    1,364;   -0,773
1135,027;  182,187;    2,364;    0,864
1135,564;  265,551;    0,273;    2,955
1136,100;  247,641;    0,364;    2,136
1136,636;  156,460;   -1,273;   -1,045
1137,172;  235,551;    0,000;   -1,045
1137,708;  182,460;   -1,364;   -1,045
1138,245;  174,369;    1,273;   -1,227
1138,781;  136,369;    1,091;   -3,318
1139,317;  193,187;    1,273;   -1,409
1139,852;  193,732;    3,091;    0,136
1140,388;  280,187;   -1,182;   -0,409
1140,924;  190,187;   -1,091;   -2,227
1141,460;  133,551;   -1,636;    0,136
1141,996;   91,005;   -1,364;    2,682
1142,531;  127,096;    1,364;    3,318
1143,067;  307,914;    1,182;    1,045
1143,602;  354,823;   -0,091;   -0,318
1144,138;  220,641;   -2,636;    1,045
1144,673;  115,096;   -1,455;    1,409
1145,209;  173,914;   -1,909;   -0,318
1145,744;  109,460;   -0,727;    0,864
1146,279;  222,551;    1,818;   -0,136
1146,815;  148,460;    1,545;   -2,682
1147,350;  187,369;   -1,364;    0,045
1147,885;  116,914;   -0,818;   -1,318
1148,420;  111,278;   -2,273;    0,773
1148,955;   99,914;   -1,727;    1,864
1149,490;  125,005;   -0,909;   -1,591
1150,025;  107,551;    0,455;   -1,773
1150,560;  205,551;    1,091;   -0,955
1151,094;  172,914;    1,455;   -0,591
1151,629;  176,732;    1,636;    0,864
1152,164;  117,278;    1,364;    1,318
1152,698;   85,005;   -0,182;   -0,136
1153,233;   61,369;    0,091;   -0,682
1153,767;   96,551;   -3,000;   -2,318
1154,302;  128,187;   -1,455;    1,773
1154,836;  131,278;   -0,455;   -2,136
1155,371;  175,914;   -1,364;    3,682
1155,905;  133,914;   -0,636;    1,682
1156,439;  107,096;   -0,636;   -0,500
1156,973;  129,278;    0,364;    0,318
1157,507;   83,914;   -0,364;    0,682
1158,042;  110,005;   -0,727;    1,045
1158,576;  146,460;    0,182;    1,773
1159,110;  138,460;   -0,818;    2,409
1159,643;  118,551;    0,636;   -0,045
1160,177;   60,641;   -1,545;    1,500

