
Integration time [ms]:   0,040
Averaging Nr. [scans]: 11
Smoothing Nr. [pixels]: 0
Data measured with spectrometer [name]: 7318044SP
Wave   ;Sample   ;Dark     ;Reference
[nm]   ;[counts] ;[counts] ;[counts] 

186,757;   33,829;   31,551;    1,318
187,357;   56,183;   22,551;    0,955
187,958;   43,252;   15,460;   -1,591
188,558;   82,783;    8,915;   -1,227
189,159;   47,934;    6,733;   -4,500
189,759;    9,024;    7,278;   -3,591
190,360;   14,598;    2,824;   -2,136
190,960;   51,877;    2,915;   -4,136
191,560;   72,180;    3,189;   -6,591
192,161;  292,124;    4,372;   -3,500
192,761;  158,142;    4,010;   -3,227
193,361;  113,498;    1,556;   -3,773
193,962;  157,972;    2,010;   -2,682
194,562;   82,366;    1,189;   -3,955
195,162;  108,347;   -2,448;   -2,227
195,762;  268,688;   -3,176;   -0,045
196,362;  221,601;    1,370;   -2,500
196,963;   88,154;    2,006;   -0,864
197,563;  158,670;    1,551;   -0,955
198,163;  106,910;    0,096;   -0,682
198,763;  129,313;    1,733;   -0,500
199,363;  226,132;    3,096;   -0,500
199,963;  189,781;    0,369;    0,409
200,563;  165,877;    2,823;   -1,409
201,163;  138,542;    3,277;   -0,227
201,763;  239,109;    3,732;    0,318
202,363;  172,339;    1,459;    1,500
202,963;  275,755;    1,459;    1,045
203,563;  385,660;    0,277;    0,500
204,162;  234,116;    2,096;   -1,864
204,762;  222,155;    0,550;    0,591
205,362;  184,603;    3,004;    1,955
205,962;  275,928;    3,096;    1,955
206,562;  278,736;    1,823;    2,318
207,161;  246,341;   -0,087;    0,318
207,761;  397,304;    1,277;    2,409
208,361;  279,708;   -0,268;    1,409
208,960;  384,621;    0,459;    1,500
209,560;  440,633;    1,277;    1,591
210,160;  419,674;    0,550;    1,864
210,759;  386,193;    4,186;    1,227
211,359;  391,935;    1,459;    1,045
211,958;  642,152;    1,277;    2,045
212,558;  732,104;    1,732;    1,864
213,157;  576,632;    1,822;    1,500
213,757; 1002,164;    3,822;   -0,227
214,356;  694,545;    1,277;   -0,409
214,956; 1026,806;    3,095;    0,409
215,555;  644,598;    2,095;    2,136
216,154;  593,075;   -2,723;   -0,591
216,754;  594,302;    0,277;    0,773
217,353;  718,839;   -0,268;   -1,045
217,952;  562,833;   -0,178;    0,318
218,552;  800,629;    1,368;   -0,773
219,151;  688,020;    0,277;    0,955
219,750;  688,096;    0,004;   -0,227
220,349;  776,040;   -0,451;    1,045
220,948;  870,545;   -1,360;    1,136
221,548;  854,490;    0,913;    1,227
222,147;  946,261;   -0,087;   -0,409
222,746; 1241,067;   -0,451;   -0,955
223,345; 1093,773;    0,731;    0,500
223,944; 1100,720;   -0,451;    0,773
224,543; 1244,920;    1,004;   -1,409
225,142; 1370,304;    0,094;    0,136
225,741; 1254,632;   -0,814;    1,045
226,340; 1267,725;   -0,451;   -0,955
226,939; 1676,488;   -0,996;   -0,136
227,538; 1557,722;   -0,360;   -0,773
228,137; 1734,189;   -0,814;    0,864
228,735; 1821,484;   -0,541;    1,227
229,334; 1575,620;   -0,905;   -0,227
229,933; 1963,348;    0,459;    0,591
230,532; 2065,162;    1,186;   -0,409
231,131; 2121,091;    1,732;    0,318
231,729; 2187,733;   -2,450;   -2,318
232,328; 2236,231;   -0,723;   -1,500
232,927; 2270,111;    1,004;   -0,500
233,525; 2358,832;    3,640;    0,045
234,124; 2555,139;    2,368;   -1,591
234,723; 2529,415;    0,913;   -1,045
235,321; 2650,125;    2,277;    0,136
235,920; 2828,892;    1,186;   -1,227
236,518; 3065,148;    3,459;    0,318
237,117; 3155,900;    0,004;   -0,227
237,715; 3291,029;    0,640;   -0,500
238,314; 3345,913;   -0,087;   -2,318
238,912; 3444,027;   -0,723;   -1,409
239,510; 3429,661;    0,459;   -1,227
240,109; 3590,403;    0,004;    3,773
240,707; 3592,269;   -0,996;    1,227
241,305; 3863,681;    0,550;    0,136
241,904; 4039,135;   -0,178;   -2,045
242,502; 4015,341;   -0,632;   -0,227
243,100; 3927,165;   -0,087;   -0,955
243,698; 4115,112;    0,732;    1,682
244,297; 4269,325;   -0,632;    0,682
244,895; 4131,534;   -0,269;   -2,318
245,493; 4420,196;    2,186;   -0,591
246,091; 4405,445;    1,368;   -1,318
246,689; 4334,012;    1,004;    0,591
247,287; 4475,467;    0,822;   -1,136
247,885; 4726,474;   -1,451;    1,227
248,483; 4775,011;    1,822;   -0,500
249,081; 4885,572;    0,185;    1,591
249,679; 5011,866;   -0,178;    1,682
250,277; 5223,267;   -1,723;    0,864
250,875; 5166,961;   -1,087;   -1,045
251,473; 5193,355;   -1,178;    0,500
252,071; 5372,102;    1,459;    1,045
252,669; 5490,357;   -1,814;    0,318
253,267; 5682,597;   -0,087;    0,773
253,864; 5604,285;   -0,360;    0,682
254,462; 5560,996;    1,640;    1,591
255,060; 5458,289;   -0,269;    1,318
255,658; 5720,630;    0,822;   -0,136
256,255; 6112,125;    0,186;   -2,045
256,853; 5963,656;   -0,269;    1,409
257,451; 5940,696;    0,822;    1,864
258,048; 6257,353;    1,822;    1,864
258,646; 5962,473;    1,731;   -1,045
259,243; 6131,383;   -0,087;    2,227
259,841; 6150,675;   -0,814;    0,318
260,438; 6061,793;   -0,087;    0,864
261,036; 6656,325;   -1,905;    1,409
261,633; 6569,312;   -0,087;    2,227
262,231; 6342,992;    2,731;   -0,045
262,828; 6415,482;   -0,905;    1,136
263,425; 6464,852;    0,913;   -0,591
264,023; 6700,198;    0,186;    0,045
264,620; 6284,972;   -0,360;   -0,318
265,217; 6609,516;   -2,087;    3,136
265,815; 6671,799;   -1,905;    2,136
266,412; 6522,108;    0,731;    0,136
267,009; 6527,536;   -1,451;    0,773
267,606; 6481,018;    0,822;   -0,955
268,203; 6418,804;   -0,269;   -0,591
268,801; 6674,129;    1,731;    0,591
269,398; 6888,066;   -0,360;    2,500
269,995; 6884,936;    0,277;    1,591
270,592; 6689,915;   -0,632;   -0,500
271,189; 6840,180;    0,186;    0,409
271,786; 6961,943;   -0,632;    1,227
272,383; 6862,462;   -1,087;    0,227
272,980; 6978,105;    0,277;    0,318
273,577; 7361,911;    0,004;    1,227
274,174; 6944,390;    0,822;    2,591
274,771; 6955,539;   -0,814;   -0,773
275,367; 7123,388;    2,277;    1,409
275,964; 7104,438;    0,731;   -0,500
276,561; 7144,744;    1,549;   -1,045
277,158; 7297,775;    0,095;   -1,773
277,755; 7448,663;    2,185;    0,409
278,351; 6912,768;   -0,451;   -1,500
278,948; 7181,754;   -0,815;    0,045
279,545; 7161,045;   -1,360;    2,318
280,141; 7754,694;   -1,723;   -2,045
280,738; 7606,492;   -0,451;   -0,136
281,334; 7761,157;   -1,633;    0,591
281,931; 7246,670;   -0,087;   -1,318
282,528; 7317,441;    0,822;   -0,500
283,124; 7957,996;   -1,087;   -0,500
283,721; 7814,577;   -0,451;    1,409
284,317; 7631,693;    0,185;    2,500
284,913; 8161,419;   -1,360;    0,591
285,510; 8338,237;    0,640;   -0,318
286,106; 8339,596;   -2,269;   -0,955
286,703; 7944,616;   -0,360;    1,955
287,299; 8148,584;   -1,451;   -0,591
287,895; 8319,631;    0,822;   -1,045
288,491; 8813,521;    0,186;    2,136
289,088; 8592,842;   -2,360;    2,409
289,684; 8697,084;   -1,723;    1,500
290,280; 8708,216;    0,368;    0,682
290,876; 8770,153;    1,822;    5,500
291,472; 8644,798;    1,276;    2,227
292,068; 8738,005;    1,367;    0,227
292,665; 8468,403;    2,095;    0,773
293,261; 8174,590;    0,276;    2,136
293,857; 8528,078;    2,913;    2,136
294,453; 8454,916;    3,550;    0,955
295,049; 8370,100;   -0,268;    1,955
295,644; 8394,724;    0,095;    0,136
296,240; 8306,354;   -0,905;   -0,136
296,836; 8368,754;   -0,995;    0,318
297,432; 8628,816;    1,096;   -0,500
298,028; 8686,770;    0,732;    0,773
298,624; 8979,778;    1,459;    1,864
299,220; 9175,775;    2,368;    0,591
299,815; 8829,916;    1,005;   -0,409
300,411; 8710,281;    0,914;    1,773
301,007; 8694,928;    1,368;    0,227
301,602; 8683,414;   -0,541;   -2,318
302,198; 8842,879;    0,732;   -0,773
302,794; 9144,910;    1,187;   -0,500
303,389; 9236,206;   -1,177;    1,045
303,985; 9281,844;    0,550;    1,409
304,580; 9289,205;    1,459;    1,591
305,176; 9232,440;   -3,086;    0,136
305,771; 9141,080;   -1,268;   -1,227
306,367; 9092,083;    4,095;    0,136
306,962; 9347,778;    0,641;    1,500
307,558; 9072,914;   -0,450;    0,136
308,153; 9036,691;    1,095;   -1,136
308,748; 9192,984;   -0,814;    1,682
309,344; 9192,560;   -0,632;   -1,318
309,939; 9331,966;   -1,905;   -1,318
310,534; 9534,990;   -0,086;   -1,682
311,130; 9417,462;    0,459;   -2,500
311,725; 9185,828;    1,004;   -0,500
312,320; 9478,619;    2,459;    0,045
312,915; 9368,695;    1,459;   -1,045
313,510; 9453,283;    1,550;   -0,500
314,105; 9869,475;    1,096;    1,409
314,700; 9289,933;   -3,086;   -1,045
315,295; 8993,841;   -0,904;    0,045
315,890; 8572,731;    1,277;    0,864
316,485; 8875,693;   -0,359;   -0,318
317,080; 8979,915;   -3,086;    1,591
317,675; 9470,779;    2,005;   -0,682
318,270; 9007,586;    5,550;    3,318
318,865; 8961,790;    3,278;    3,045
319,460; 8823,482;   -0,904;    0,591
320,055; 9017,604;   -0,541;   -1,227
320,650; 8725,966;   -1,995;   -0,591
321,244; 8762,129;   -0,177;   -1,409
321,839; 9603,957;   -1,541;   -0,227
322,434; 9493,437;   -1,086;   -1,591
323,029; 9232,406;    1,732;    1,591
323,623; 9090,620;    1,550;    0,773
324,218; 8888,289;    2,368;    1,409
324,812; 8791,251;    1,096;    1,591
325,407; 8638,755;   -0,814;    2,045
326,002; 8549,414;    0,277;   -0,409
326,596; 8841,273;    0,914;    1,318
327,191; 8996,617;    0,823;   -1,045
327,785; 8622,727;   -0,813;   -0,227
328,379; 8853,367;    1,368;    0,136
328,974; 8660,299;    0,914;   -3,955
329,568; 8897,888;    0,186;   -2,409
330,163; 8706,748;    2,096;    1,045
330,757; 9021,512;    2,459;    1,591
331,351; 8421,599;    0,459;    0,682
331,945; 8712,387;    0,914;    1,409
332,540; 8428,304;   -1,723;   -0,591
333,134; 8558,808;   -1,086;    0,773
333,728; 8768,917;    0,005;    0,318
334,322; 9052,708;   -1,177;   -0,864
334,916; 8395,630;    0,277;    0,955
335,510; 8673,666;   -0,450;   -0,136
336,105; 8931,435;   -1,086;    1,591
336,699; 8666,237;   -1,086;    0,591
337,293; 8632,561;   -1,723;    0,318
337,887; 8733,097;   -2,723;    1,955
338,481; 8831,713;    0,459;    0,591
339,074; 9018,107;   -0,359;    2,682
339,668; 8897,833;   -1,632;    1,227
340,262; 9155,809;    1,732;    3,227
340,856; 8656,748;    1,822;   -0,682
341,450; 8082,433;    1,004;    1,864
342,044; 8852,198;    1,459;    0,136
342,637; 8671,585;    0,913;   -2,136
343,231; 8556,378;   -2,360;    0,682
343,825; 8520,623;   -1,086;   -0,591
344,419; 8453,252;   -1,995;    0,500
345,012; 8373,295;    2,459;    4,045
345,606; 8386,133;    4,641;    1,591
346,199; 8203,355;   -1,813;   -0,227
346,793; 7807,535;    1,914;    2,045
347,386; 8007,069;   -0,813;   -1,136
347,980; 7976,735;   -0,268;   -0,045
348,573; 7803,615;    2,278;    0,409
349,167; 7613,722;    5,278;    4,773
349,760; 7901,700;    2,914;    2,682
350,354; 7874,591;   -0,813;    1,136
350,947; 7641,145;    1,096;    1,682
351,540; 7380,122;   -0,358;   -1,409
352,134; 7337,541;    1,096;    1,136
352,727; 7412,392;   -0,086;    1,136
353,320; 7229,634;    0,005;    0,591
353,913; 7068,159;   -1,995;    1,864
354,507; 7264,411;    0,823;   -1,227
355,100; 7301,182;    0,460;    0,864
355,693; 6691,372;    2,005;    2,409
356,286; 6723,018;    0,823;    2,773
356,879; 7022,292;   -0,722;    1,227
357,472; 6633,702;   -0,904;    1,500
358,065; 6867,219;   -0,722;    2,500
358,658; 6782,769;   -0,540;    2,318
359,251; 6490,633;   -1,631;   -0,591
359,844; 6085,740;   -1,904;   -1,136
360,437; 6290,569;   -2,995;    0,045
361,030; 6479,701;    1,369;   -0,682
361,623; 6138,964;    2,824;    0,318
362,215; 6185,309;   -0,086;    2,045
362,808; 6019,356;   -2,358;   -1,682
363,401; 6211,665;   -2,449;    0,136
363,994; 6058,752;   -0,631;   -1,500
364,586; 5951,878;    0,824;   -1,500
365,179; 6113,030;   -0,449;   -1,136
365,772; 5656,851;   -1,995;    2,045
366,364; 5935,375;    1,915;   -3,227
366,957; 6152,039;    2,279;   -0,045
367,549; 6116,148;    2,188;   -0,864
368,142; 5831,525;    1,825;   -1,500
368,734; 6006,210;    0,734;   -2,136
369,327; 5984,362;    1,643;   -0,500
369,919; 5910,895;   -1,538;    0,409
370,512; 5766,808;   -1,083;   -0,500
371,104; 5583,343;   -0,901;    1,591
371,696; 5742,373;    1,191;   -0,955
372,289; 5784,030;    0,373;    1,136
372,881; 5890,168;   -2,080;    1,318
373,473; 5801,701;   -2,170;    1,136
374,066; 5664,498;   -0,169;    0,500
374,658; 5544,228;    0,378;    1,136
375,250; 5826,531;    0,653;   -1,409
375,842; 5732,573;    0,473;   -0,045
376,434; 5621,067;   -0,435;   -0,409
377,026; 6114,647;    0,204;   -2,500
377,618; 5999,185;   -0,158;   -0,682
378,210; 5857,894;   -0,338;   -1,955
378,802; 5725,424;    0,754;   -0,591
379,394; 5754,737;    1,846;    0,682
379,986; 6278,086;    1,393;   -0,955
380,578; 6301,325;   -0,153;    0,773
381,170; 5765,544;   -0,972;    0,045
381,762; 5718,207;    0,755;    1,409
382,354; 5868,050;   -0,065;   -1,318
382,945; 5944,939;   -2,976;    0,318
383,537; 6079,904;   -2,705;   -1,955
384,129; 6088,103;   -2,160;   -1,136
384,721; 6247,352;   -0,252;    0,955
385,312; 6167,594;   -0,161;   -0,955
385,904; 6281,515;   -2,706;    1,591
386,496; 5705,729;   -0,979;    1,045
387,087; 5879,092;    1,022;    2,500
387,679; 5904,740;   -1,160;    0,045
388,270; 6008,344;    2,840;    2,045
388,862; 6106,737;    1,295;   -0,318
389,453; 5970,415;   -0,887;    1,045
390,045; 6203,029;   -0,705;   -2,682
390,636; 6132,427;    0,204;   -0,591
391,227; 6012,758;   -0,523;   -0,045
391,819; 6128,560;    0,204;    0,773
392,410; 6203,001;    1,022;    0,045
393,001; 6121,529;   -0,979;   -1,591
393,593; 6366,035;    1,930;   -0,045
394,184; 6250,302;    1,385;   -0,409
394,775; 6137,939;    1,839;    2,136
395,366; 6318,630;    1,385;    0,773
395,957; 6303,707;    0,113;    0,136
396,548; 6583,035;   -0,342;    2,682
397,139; 6858,656;   -2,433;    0,591
397,730; 6621,742;   -1,888;    0,955
398,321; 6649,206;   -1,252;    0,955
398,912; 6639,505;   -0,615;    0,136
399,503; 6758,936;   -3,524;   -1,409
400,094; 6282,965;    0,294;    1,682
400,685; 6139,500;   -0,433;    0,045
401,276; 6199,133;    0,930;   -0,955
401,867; 6471,709;   -0,888;    0,773
402,458; 6552,519;   -2,251;   -2,318
403,048; 6547,643;    1,112;    0,591
403,639; 6190,700;    0,840;    0,864
404,230; 6459,349;    2,476;    0,318
404,821; 6385,209;   -0,615;    0,045
405,411; 6488,193;    1,203;   -2,591
406,002; 6132,167;   -1,252;   -1,136
406,592; 6083,336;    2,294;    0,045
407,183; 6295,712;    0,566;   -1,500
407,774; 6201,253;    3,475;   -0,136
408,364; 6489,613;    0,930;    0,409
408,954; 6174,526;    0,384;    1,227
409,545; 6230,411;    1,021;    1,045
410,135; 5780,149;    1,293;    0,500
410,726; 5919,691;    1,838;    0,318
411,316; 6283,382;    0,111;    0,773
411,906; 5959,640;   -0,253;   -0,409
412,497; 5554,126;   -1,070;   -0,045
413,087; 6078,764;   -1,980;   -0,227
413,677; 6403,805;   -0,707;    3,864
414,267; 6252,326;    0,656;    1,409
414,857; 6246,646;   -2,980;    4,227
415,448; 6493,220;    0,839;    0,500
416,038; 6232,040;    0,020;   -0,591
416,628; 6190,417;   -0,889;    0,409
417,218; 5797,173;    0,565;    3,318
417,808; 6049,675;    0,202;   -0,409
418,398; 6385,494;    0,020;    2,682
418,988; 6370,268;    2,020;    0,591
419,578; 6583,284;   -0,707;    1,409
420,168; 6856,686;   -1,343;   -0,955
420,757; 6526,607;   -1,343;   -1,500
421,347; 6224,504;    0,111;   -0,227
421,937; 6361,321;    2,292;    1,409
422,527; 6357,849;    0,838;   -0,773
423,116; 6191,811;   -0,253;   -0,045
423,706; 6440,225;   -1,889;    0,318
424,296; 6398,452;    1,384;    0,682
424,885; 6812,816;   -0,071;   -3,045
425,475; 7053,844;    1,474;   -2,864
426,065; 6939,002;   -0,980;   -0,318
426,654; 6630,041;   -0,435;   -0,318
427,244; 6773,232;    0,020;    1,409
427,833; 6303,570;    1,383;   -0,500
428,423; 6668,719;   -0,526;    1,136
429,012; 7295,297;   -0,344;   -1,136
429,601; 6851,098;   -1,344;    0,136
430,191; 7092,611;    1,292;    4,318
430,780; 6772,378;   -0,344;   -0,409
431,369; 6724,621;    0,746;   -0,045
431,959; 7229,078;   -1,254;    0,500
432,548; 7035,579;   -1,163;   -0,045
433,137; 7155,220;   -1,254;   -1,318
433,726; 7638,512;    0,292;    0,500
434,315; 7065,288;   -0,526;    2,409
434,905; 7139,781;   -1,254;    1,409
435,494; 7092,433;    0,746;    0,955
436,083; 7444,014;   -0,981;   -0,955
436,672; 7341,564;    0,110;    0,500
437,261; 7023,050;    0,292;   -1,955
437,850; 7159,250;    1,383;    0,682
438,439; 7131,310;    3,291;    1,955
439,027; 7027,495;    3,655;    1,773
439,616; 7290,798;    2,927;    1,227
440,205; 7114,472;    0,200;   -2,136
440,794; 7146,323;    2,109;   -0,045
441,383; 7372,832;   -1,346;   -0,591
441,971; 7211,467;   -2,436;    0,591
442,560; 7111,317;    0,563;   -1,773
443,149; 6853,221;    0,379;   -1,318
443,737; 7018,005;   -0,074;   -2,318
444,326; 7263,432;    0,018;    0,318
444,915; 7281,930;   -1,982;    0,864
445,503; 7599,994;   -2,891;   -0,318
446,092; 6981,997;    0,382;    2,136
446,680; 7471,662;    0,382;    0,318
447,269; 7587,438;   -0,346;   -0,318
447,857; 7390,082;    0,018;   -1,773
448,445; 7480,948;    0,563;    1,318
449,034; 7689,014;   -1,528;   -1,136
449,622; 7779,901;   -1,073;    3,500
450,210; 7167,668;    2,017;    2,227
450,799; 7660,693;    0,290;   -0,591
451,387; 7602,901;    1,381;   -0,591
451,975; 7311,510;    2,654;    0,864
452,563; 7410,526;    3,472;    2,318
453,151; 7379,514;   -0,528;   -1,227
453,739; 7290,394;   -1,347;    0,136
454,328; 7194,025;    2,381;   -2,136
454,916; 6980,508;    2,562;   -0,136
455,504; 7104,776;    1,017;    1,227
456,092; 7267,271;    0,017;   -1,591
456,679; 7229,090;    1,472;    0,682
457,267; 7287,188;    4,017;    1,045
457,855; 7344,716;    1,017;    1,409
458,443; 7076,998;   -0,165;    1,682
459,031; 7252,696;    0,108;    2,409
459,619; 7636,146;   -1,801;    2,864
460,206; 7714,058;    0,835;    2,045
460,794; 7779,405;   -2,983;   -0,227
461,382; 7994,667;   -0,529;   -0,864
461,970; 7626,894;    1,198;    1,864
462,557; 7667,416;   -0,711;   -0,682
463,145; 7829,639;   -3,165;   -1,682
463,732; 7947,196;    2,016;   -1,045
464,320; 7856,865;   -0,075;   -3,045
464,907; 7584,316;    2,743;   -0,773
465,495; 7443,402;    0,743;   -1,227
466,082; 7584,318;   -1,984;   -0,045
466,670; 7466,411;   -2,529;    1,227
467,257; 7843,278;   -1,711;    2,045
467,844; 8028,100;   -0,075;    0,045
468,432; 8056,488;    0,834;    3,500
469,019; 7607,476;    0,925;   -1,773
469,606; 8007,629;    0,470;    3,682
470,193; 7885,529;   -1,439;    0,227
470,780; 7544,427;   -2,075;    0,864
471,368; 7832,229;   -1,257;   -0,773
471,955; 7643,067;    1,379;   -0,682
472,542; 7345,599;    0,652;   -1,136
473,129; 7501,546;   -0,166;    0,136
473,716; 7298,589;    1,470;    0,591
474,303; 7452,908;    0,652;   -0,864
474,890; 7694,335;   -1,439;   -0,500
475,477; 7753,567;   -1,621;    0,409
476,064; 7640,192;    1,106;   -1,591
476,650; 7578,136;    0,288;    0,318
477,237; 7408,954;   -0,258;    0,955
477,824; 7577,480;   -1,076;    0,864
478,411; 7566,205;   -1,894;   -0,318
478,997; 7740,419;    0,560;   -0,773
479,584; 7797,089;    1,196;   -0,409
480,171; 8430,812;   -0,440;   -0,773
480,757; 8110,595;    2,651;    0,773
481,344; 8335,744;    0,469;    0,409
481,931; 7882,275;    1,105;    1,045
482,517; 8767,490;   -1,258;    0,318
483,104; 9217,066;    1,106;    2,864
483,690; 9378,908;   -1,804;    0,045
484,276; 9618,349;   -0,895;    0,227
484,863; 9417,548;    2,469;    1,136
485,449; 9889,765;   -0,077;    0,318
486,035; 9857,062;   -1,986;   -0,136
486,622;10267,622;   -0,895;    0,045
487,208;10193,014;    1,378;    1,500
487,794;10084,703;    0,741;    0,318
488,380;10170,797;    0,105;   -1,409
488,967;10232,198;   -1,168;   -0,409
489,553;10286,397;   -1,895;   -1,409
490,139;10468,784;    1,559;    0,773
490,725; 9978,399;    0,741;   -0,227
491,311; 9637,397;    3,287;    3,045
491,897; 9044,603;   -0,986;    1,500
492,483; 8921,720;    0,105;    1,227
493,069; 8908,582;    3,923;    0,864
493,655; 8804,998;    1,650;    0,682
494,241; 8750,451;    1,377;   -0,955
494,826; 9071,783;    0,287;   -1,045
495,412; 8585,442;    2,559;   -0,682
495,998; 8751,848;   -0,805;   -0,318
496,584; 8798,979;    0,377;    1,045
497,169; 8803,802;    1,014;   -0,682
497,755; 8735,247;    0,650;    1,227
498,341; 9288,188;    0,559;    0,318
498,926; 8907,898;    1,832;    1,955
499,512; 9028,338;    1,286;    2,955
500,097; 9092,734;    0,195;   -0,318
500,683; 9047,275;   -0,350;    2,136
501,268; 9392,344;   -0,169;   -0,955
501,854; 9161,416;   -0,169;    1,227
502,439; 9045,882;   -0,624;   -1,773
503,024; 9226,488;    0,195;    0,500
503,610; 9283,850;   -0,078;   -0,682
504,195; 9254,173;    0,558;    1,955
504,780; 9388,891;    2,922;    1,227
505,366; 9270,843;    3,013;    2,864
505,951; 9037,846;    0,740;    1,045
506,536; 9045,457;   -3,260;   -3,682
507,121; 8987,203;    0,285;   -0,318
507,706; 9451,590;    2,376;    1,045
508,291; 9791,369;    2,649;    1,136
508,876; 9289,799;   -0,988;    2,591
509,461; 8825,268;   -0,169;   -0,773
510,046; 9185,653;    0,194;    0,318
510,631; 9403,488;   -0,351;   -0,773
511,216; 9103,970;    2,467;   -0,500
511,801; 9475,458;   -0,442;    2,591
512,386; 9701,741;    0,740;    0,500
512,971; 9628,479;   -2,988;    0,955
513,555; 9241,244;   -0,897;   -1,500
514,140; 9923,838;   -0,442;   -3,136
514,725; 9894,918;   -0,715;   -1,136
515,309;10000,416;   -0,533;    0,318
515,894; 9549,597;   -0,624;   -2,227
516,479; 9933,101;   -0,624;   -0,955
517,063; 9729,575;    0,376;    1,227
517,648; 9873,667;    1,012;   -1,136
518,232; 9529,777;   -0,261;   -1,409
518,817; 9881,800;   -0,079;    1,682
519,401;10086,821;    2,194;    0,591
519,985; 9596,272;    1,103;    1,136
520,570; 9476,166;    0,830;   -1,955
521,154; 9740,193;    2,102;    0,591
521,738; 9898,659;   -2,352;    2,409
522,323;10418,600;   -0,170;    1,682
522,907;10181,430;    0,466;   -0,136
523,491; 9926,090;    0,557;    0,955
524,075; 9886,023;    2,284;    0,591
524,659; 9963,062;    1,466;    0,591
525,243; 9553,905;    1,739;    0,409
525,827; 9726,069;    0,648;   -0,045
526,411;10451,607;   -1,989;   -0,136
526,995;10658,452;   -0,352;    1,409
527,579;10281,171;   -0,443;   -1,045
528,163;10539,563;    0,375;   -1,500
528,747;10467,857;    2,466;   -0,773
529,331;10708,628;   -0,080;   -1,409
529,915;10861,087;    1,738;    0,955
530,499;10812,973;   -0,807;    1,227
531,082;10574,761;   -0,534;    1,591
531,666;10106,278;    1,374;    0,773
532,250;10674,517;    1,284;    2,682
532,833;10925,731;    0,920;    2,773
533,417;10793,345;   -1,807;    0,864
534,001;10768,398;    1,647;   -0,318
534,584;11363,952;    0,374;    0,500
535,168;11171,360;    0,465;    1,409
535,751;11224,006;    0,647;    0,045
536,334;10709,078;   -0,898;   -0,409
536,918;11222,077;    0,011;    1,591
537,501;11280,764;   -0,899;    1,318
538,085;11304,971;   -0,444;    1,045
538,668;11449,358;    0,829;    2,409
539,251;11734,472;    1,829;    3,773
539,834;11767,562;    0,101;    0,773
540,418;11686,777;   -1,990;    4,318
541,001;11758,569;   -0,990;    1,773
541,584;11722,314;    2,101;    2,227
542,167;11462,165;    1,374;    2,955
542,750;11525,532;    1,919;   -0,773
543,333;11137,772;    0,555;    2,136
543,916;11858,377;    0,192;    2,500
544,499;12349,858;   -1,354;    0,227
545,082;12359,223;    1,374;    3,591
545,665;12464,243;    1,919;    1,500
546,248;12718,227;    1,010;   -0,318
546,830;12392,952;   -0,445;    1,955
547,413;12742,233;    1,010;   -0,773
547,996;13251,193;    0,555;    0,500
548,579;13015,426;    0,919;    0,955
549,161;12821,518;    1,828;    2,682
549,744;12586,206;   -0,809;    0,409
550,326;13073,162;   -0,809;   -1,136
550,909;12858,463;    2,737;    0,591
551,492;13220,296;   -0,263;    0,227
552,074;13036,216;   -0,173;   -1,318
552,657;13532,989;    2,373;    0,045
553,239;13335,241;   -0,173;   -0,773
553,821;13217,233;   -1,082;    1,045
554,404;12755,170;    1,282;    1,136
554,986;13075,266;    0,464;    1,045
555,568;13612,699;    1,191;   -0,955
556,151;12962,632;    1,191;   -0,227
556,733;13151,832;   -0,264;   -0,864
557,315;13528,117;    0,100;    0,500
557,897;13280,001;    0,554;   -0,500
558,479;13388,798;   -1,991;    1,318
559,061;13554,855;   -0,719;   -0,864
559,643;13855,690;   -0,264;    0,045
560,225;14091,064;    1,645;    2,864
560,807;14089,781;    0,918;    0,318
561,389;13676,079;    0,554;    2,318
561,971;14264,412;    0,463;    2,136
562,553;14123,492;   -1,628;    1,591
563,135;14255,218;   -0,537;    1,136
563,717;13862,308;    3,372;    1,136
564,298;14437,017;    3,645;   -0,045
564,880;14195,124;    0,645;   -1,409
565,462;14276,942;    0,645;    1,318
566,043;15280,066;   -0,446;    2,318
566,625;14899,543;    1,918;    1,227
567,207;14720,323;    1,099;    1,682
567,788;15572,756;   -1,264;    1,500
568,370;16264,720;    1,917;   -0,500
568,951;16056,668;    0,190;    0,227
569,533;16797,589;   -0,628;   -0,500
570,114;17198,524;   -0,446;    0,682
570,695;17543,289;   -0,174;   -1,318
571,277;17865,748;   -0,265;   -1,682
571,858;18494,267;    2,008;   -1,136
572,439;19161,717;    1,554;   -1,045
573,021;19266,283;    2,099;   -2,773
573,602;19681,755;   -1,265;    0,318
574,183;20444,987;   -2,083;    2,227
574,764;20447,940;   -1,629;    0,409
575,345;20860,422;    0,917;   -0,136
575,926;21291,162;   -0,356;    0,136
576,507;21254,141;    1,099;   -0,227
577,088;22232,391;    3,099;    1,682
577,669;22209,034;    0,735;    1,955
578,250;22858,351;    0,644;   -1,045
578,831;23285,568;   -1,356;   -2,227
579,412;23452,149;   -0,810;    0,955
579,993;24256,877;    1,008;    0,227
580,573;24472,787;   -0,629;   -0,955
581,154;23527,853;    0,735;   -0,591
581,735;24311,034;    0,644;    0,773
582,315;23875,125;   -0,629;    2,136
582,896;24103,759;   -0,174;    1,227
583,477;23594,404;    0,189;    1,227
584,057;23829,763;    0,553;    0,955
584,638;24092,604;    2,553;    2,318
585,218;24084,262;   -0,538;    2,682
585,799;24224,555;    0,281;   -0,227
586,379;24213,845;    0,372;    1,591
586,959;23181,760;    0,735;    0,318
587,540;22662,567;   -0,629;    2,227
588,120;22267,600;    1,007;   -0,045
588,700;21504,137;    2,553;    2,136
589,281;21866,014;    0,462;   -0,955
589,861;21774,448;    0,099;   -1,682
590,441;21604,878;    2,371;   -2,682
591,021;20693,263;   -0,265;   -2,591
591,601;20941,661;   -0,537;    0,500
592,181;21002,319;   -0,719;   -0,773
592,761;20376,163;    0,007;    1,409
593,341;20375,123;   -0,901;    0,045
593,921;20346,095;   -0,265;    1,591
594,501;20291,965;   -0,538;    1,318
595,081;20096,254;    0,917;   -0,318
595,661;20439,894;   -1,447;    0,955
596,240;20931,502;   -0,537;    0,136
596,820;20553,404;    0,372;    1,955
597,400;20614,439;    2,008;    0,773
597,980;20787,613;    2,008;    1,045
598,559;20870,233;    2,735;   -0,227
599,139;20672,735;   -0,174;   -1,227
599,718;20501,735;   -0,174;   -0,409
600,298;20785,892;    0,735;    0,682
600,877;21026,091;    2,917;    1,409
601,457;21230,266;    2,281;    1,136
602,036;21161,956;    0,190;    2,045
602,616;21296,362;    0,644;    1,682
603,195;21603,197;   -0,355;    3,500
603,774;21179,131;   -0,901;    2,045
604,354;21037,518;    0,826;   -0,500
604,933;20642,092;    0,463;    1,864
605,512;20795,701;    3,554;    0,591
606,091;20870,240;   -0,537;    3,773
606,671;21546,221;    0,281;    0,773
607,250;20784,267;    1,644;    3,136
607,829;20969,054;    2,372;    3,227
608,408;20883,171;    1,190;    2,591
608,987;20032,409;    1,281;    3,409
609,566;20258,872;   -1,265;   -2,500
610,145;20406,842;   -1,082;    0,682
610,723;20802,412;    4,372;    6,864
611,302;20110,701;   -0,446;    1,682
611,881;19687,795;    5,008;   11,227
612,460;20381,341;    1,645;    3,955
613,039;20774,448;   -0,082;    2,045
613,617;19622,351;    1,736;    4,773
614,196;19786,182;    1,099;    1,227
614,775;20147,015;    1,009;    2,409
615,353;20095,056;    0,736;    0,864
615,932;19952,148;    0,100;    2,409
616,510;20433,583;    0,554;    0,591
617,089;20018,149;    7,100;   17,591
617,667;19851,671;    2,372;    6,136
618,246;19653,144;   -1,537;    1,318
618,824;19830,941;   -3,355;   -0,955
619,402;19457,827;   -2,900;   -1,773
619,981;19867,300;   -0,173;   -1,045
620,559;19724,569;    0,009;    1,682
621,137;19348,503;   -0,718;    1,864
621,715;19272,164;   -1,173;   -0,682
622,293;19260,866;   -0,537;   -0,773
622,871;19684,753;   -0,718;    0,500
623,450;19334,267;    0,373;   -0,864
624,028;19319,069;    0,191;   -0,955
624,606;18965,519;   -1,718;    1,682
625,183;19264,445;   -1,536;   -1,136
625,761;18976,649;    1,009;    1,136
626,339;19284,475;    1,373;    2,591
626,917;19596,210;   -0,172;   -0,045
627,495;19606,620;   -0,354;    1,318
628,073;19092,887;   -0,263;    2,864
628,650;18831,055;    0,100;    2,136
629,228;19216,107;    0,373;    4,409
629,806;18686,647;    2,282;    1,136
630,383;18910,277;    1,464;   -0,318
630,961;18772,579;    2,555;   -0,955
631,539;18571,026;    2,464;    0,227
632,116;18090,215;   11,373;   15,409
632,694;18559,686;    2,555;    6,500
633,271;18751,697;    0,828;    2,682
633,848;18759,384;    1,828;    2,045
634,426;18711,807;   -1,081;    1,773
635,003;17967,315;    1,101;   -0,409
635,580;18213,314;    1,192;    3,682
636,158;18732,756;    3,737;    1,227
636,735;18718,811;    0,555;   -0,500
637,312;18836,795;   -0,809;   -0,682
637,889;18877,077;   -4,354;   -0,682
638,466;18468,357;   -3,990;   -0,409
639,043;18419,482;    2,101;   -1,136
639,620;18649,209;   -2,262;   -0,955
640,197;18979,863;    1,100;    1,682
640,774;19093,580;   -0,172;    1,136
641,351;19441,660;    0,737;    1,136
641,928;19012,195;   -0,627;    1,409
642,505;18681,730;    0,828;   -0,500
643,082;18778,083;   -1,718;    1,227
643,658;17922,618;   -0,718;    1,500
644,235;18560,698;    1,191;    2,500
644,812;18794,415;    1,918;    0,773
645,388;18583,768;   -0,991;    1,409
645,965;18640,212;   -0,809;    1,682
646,542;18722,383;   -1,445;   -0,227
647,118;18731,827;    1,009;   -0,955
647,695;18976,908;   -0,263;    1,136
648,271;18896,533;   -0,536;    0,500
648,848;19146,432;    0,736;    2,227
649,424;18987,876;    0,827;    1,318
650,000;18683,865;   -0,354;   -1,045
650,577;18578,309;   -0,627;   -0,955
651,153;19003,571;   -1,809;    0,955
651,729;19800,833;    1,191;    0,864
652,305;20087,277;    0,645;    2,773
652,881;23686,812;   -0,082;    1,136
653,458;28901,438;    1,100;    0,227
654,034;31573,882;    0,282;    1,591
654,610;32530,781;    0,554;    0,773
655,186;33540,952;    0,645;    3,045
655,762;33203,123;   -0,991;    0,409
656,338;33185,113;    0,100;    0,136
656,913;34031,920;   -0,082;    0,409
657,489;33354,091;    0,827;   -0,318
658,065;33310,172;   -0,173;   -1,591
658,641;33959,707;   -0,900;   -0,864
659,217;33344,696;   -0,991;    0,409
659,792;32831,595;    0,645;   -0,409
660,368;33050,402;   -2,173;   -0,682
660,944;32941,846;   -2,082;    1,227
661,519;29201,926;   -0,628;    0,409
662,095;24568,461;   -1,719;    0,591
662,670;21248,178;    1,281;   -0,136
663,246;20504,258;    1,009;   -0,409
663,821;20048,975;    0,281;    1,682
664,396;19585,146;    0,009;    1,864
664,972;19779,681;    0,009;   -0,500
665,547;20060,852;    1,372;    0,136
666,122;20099,205;   -1,082;    0,318
666,698;20330,649;   -0,173;    0,318
667,273;19714,275;   -0,173;    0,136
667,848;20438,719;    2,372;    1,500
668,423;20202,799;    2,190;    2,318
668,998;20599,334;    2,827;   -0,682
669,573;21112,415;   -3,264;   -1,500
670,148;20994,586;   -1,446;   -0,682
670,723;20759,121;   -1,810;    0,318
671,298;21125,110;    2,372;    1,045
671,873;21167,281;   -0,082;   -0,136
672,448;21154,362;    0,645;    0,136
673,023;21430,351;   -1,992;   -0,227
673,597;21757,341;    0,827;    2,318
674,172;21553,148;   -0,355;    0,318
674,747;21057,320;    0,372;   -1,045
675,321;20786,309;   -0,628;    3,318
675,896;20429,026;    0,645;    1,045
676,471;21347,379;    2,645;    1,591
677,045;21145,277;   -1,264;    0,682
677,620;21151,358;    0,190;    1,136
678,194;21470,892;   -2,628;    1,136
678,769;21096,609;   -1,083;   -0,318
679,343;21367,053;   -0,628;    1,773
679,917;21261,315;   -1,446;    1,955
680,492;21269,668;    0,826;    3,227
681,066;21349,203;    3,372;    0,409
681,640;21405,556;    1,463;   -0,318
682,214;22148,273;    0,735;    0,500
682,788;21687,626;   -1,356;   -0,773
683,363;21630,252;   -1,810;    1,682
683,937;21358,059;   -1,719;   -0,318
684,511;22004,958;    0,463;   -0,591
685,085;21772,129;   -1,356;    0,318
685,659;21527,119;   -2,538;    0,864
686,232;21804,744;   -0,356;   -0,318
686,806;21522,461;   -0,901;    0,409
687,380;22054,814;   -0,174;    0,591
687,954;22289,258;   -1,174;    1,136
688,528;21933,338;   -0,719;    1,955
689,101;22632,328;   -3,992;    1,045
689,675;22246,499;   -0,356;   -0,136
690,249;21692,761;   -0,719;    0,409
690,822;22018,751;    0,280;    0,318
691,396;22135,558;   -0,265;    1,227
691,969;21689,548;    1,280;    0,136
692,543;22113,173;   -0,447;   -1,955
693,116;21809,072;   -0,265;   -1,409
693,690;21694,152;    0,099;    0,500
694,263;22133,414;   -1,083;    2,955
694,836;22166,404;    1,371;    3,591
695,410;20932,757;   -0,265;    1,773
695,983;21330,474;    0,189;    0,591
696,556;21351,099;   -0,447;   -1,045
697,129;21720,725;   -0,356;    1,409
697,703;21371,987;   -1,629;    1,955
698,276;21384,431;    1,462;   -0,773
698,849;21226,875;    1,280;    1,409
699,422;21584,774;   -1,083;    0,591
699,995;21333,218;    0,007;    0,136
700,568;21753,753;   -0,629;    3,045
701,140;21746,560;   -2,811;    1,682
701,713;21523,186;   -0,174;    2,409
702,286;21327,448;   -0,538;    0,864
702,859;21172,619;   -0,902;   -0,591
703,432;20515,336;    0,825;    0,682
704,004;20842,235;    0,462;    0,318
704,577;20726,588;   -0,629;    0,136
705,150;21240,577;    0,189;    2,500
705,722;21057,748;   -0,356;   -3,227
706,295;20870,374;   -0,175;   -0,591
706,867;20760,455;   -0,175;    1,955
707,440;20977,898;   -1,720;   -0,409
708,012;21242,070;    0,462;    0,591
708,584;21102,423;    2,462;    0,227
709,157;21341,958;    1,825;   -0,591
709,729;21063,220;    2,280;    2,045
710,301;21812,300;    0,734;    0,045
710,874;21840,562;   -1,447;   -0,227
711,446;20765,370;    0,371;    0,864
712,018;20653,359;    0,098;    0,500
712,590;20466,258;   -1,993;    1,682
713,162;20902,702;    0,825;    1,318
713,734;21163,691;    1,825;   -2,045
714,306;21095,226;   -1,902;   -0,409
714,878;19930,306;    0,825;    0,864
715,450;20691,750;    0,643;    0,864
716,022;20927,558;    1,552;    1,318
716,593;21083,547;    0,189;    0,591
717,165;20994,810;   -3,175;   -1,227
717,737;20761,617;    0,280;    0,409
718,309;20487,516;    0,280;   -0,045
718,880;20465,778;   -0,539;   -1,409
719,452;20679,676;   -0,175;   -1,591
720,024;20344,484;    0,734;   -0,591
720,595;20823,473;   -2,902;    0,955
721,167;20449,826;    0,370;   -2,045
721,738;20031,634;   -0,812;   -1,045
722,309;20018,533;   -0,993;   -1,227
722,881;19796,704;   -1,357;    0,773
723,452;20347,511;   -2,630;    2,864
724,023;20524,319;   -0,721;    2,682
724,595;20342,945;    0,007;    0,682
725,166;20059,571;    0,007;   -0,409
725,737;19831,287;    1,734;    0,227
726,308;19888,549;   -0,266;    0,318
726,879;20281,084;   -1,630;    1,227
727,450;20121,619;    0,552;   -0,045
728,021;20051,245;    3,097;    0,682
728,592;19893,144;    0,734;    0,500
729,163;20222,497;    0,643;   -0,136
729,734;20224,031;    0,188;   -0,227
730,305;20548,385;    1,734;    0,136
730,876;20822,010;    0,188;    2,955
731,447;20579,545;    2,188;    2,682
732,017;20706,898;    1,097;    1,864
732,588;20269,615;    0,734;    1,227
733,159;20436,513;    0,643;   -1,045
733,729;20209,503;    0,006;    0,409
734,300;19619,220;    0,915;    0,864
734,870;19954,664;    3,461;    0,591
735,441;20480,835;    0,370;   -0,591
736,011;20231,097;    0,643;   -1,591
736,582;20222,086;   -0,812;    0,045
737,152;19708,712;   -1,721;   -2,045
737,722;20162,792;   -0,267;   -0,682
738,293;19873,236;   -1,358;    1,318
738,863;19768,135;    2,461;    2,318
739,433;19643,761;    5,279;    0,318
740,003;20167,296;   -0,994;   -0,682
740,573;19672,649;    2,097;   -1,591
741,143;19691,820;   -1,085;    0,318
741,713;20311,355;    1,188;   -0,500
742,283;20084,981;    0,915;    1,591
742,853;19894,879;    1,915;    1,591
743,423;19393,414;    1,733;    0,045
743,993;19460,040;   -0,358;    1,500
744,563;19003,756;    0,097;   -0,864
745,133;18995,110;   -0,812;   -0,864
745,702;19578,281;   -0,267;    1,773
746,272;18850,634;   -0,176;    0,591
746,842;18703,078;   -1,358;   -0,591
747,411;19121,340;   -0,267;   -0,318
747,981;19236,511;    0,097;    0,500
748,551;19259,137;    2,278;   -1,045
749,120;19088,672;    0,642;   -0,227
749,690;19413,025;   -0,631;    2,409
750,259;19722,833;    1,369;    2,955
750,828;19631,822;    1,551;   -1,955
751,398;19895,357;    1,278;   -0,045
751,967;19522,892;    2,187;    0,409
752,536;19676,608;   -0,813;   -0,227
753,105;20039,052;    0,096;    0,227
753,675;19832,133;    0,096;    1,773
754,244;19745,940;   -0,904;    3,591
754,813;19727,657;    0,551;    1,227
755,382;19351,555;    0,460;    0,955
755,951;19828,818;    1,551;    3,682
756,520;19498,171;   -0,085;    1,864
757,089;20001,796;    0,278;    0,500
757,658;20039,968;    1,733;    1,227
758,227;20048,684;    1,096;    0,318
758,795;20320,310;    1,187;    1,136
759,364;20558,300;   -0,086;   -0,591
759,933;19686,380;   -1,176;   -0,045
760,501;19288,188;    0,733;   -1,318
761,070;19651,450;   -2,813;   -1,409
761,639;20302,803;   -1,904;    1,318
762,207;19709,974;    1,551;   -0,955
762,776;19657,509;    0,369;    0,864
763,344;19618,862;   -0,995;    0,591
763,913;18726,942;   -0,722;    1,409
764,481;19469,477;    1,005;   -0,136
765,049;19328,648;   -1,358;    1,409
765,618;19229,001;   -0,086;    0,318
766,186;19296,536;    0,278;    0,136
766,754;19497,435;    0,005;    1,864
767,322;18602,879;   -1,995;    0,409
767,890;18600,505;   -0,722;   -1,773
768,459;19006,130;   -2,177;   -0,318
769,027;19166,847;    1,641;    3,409
769,595;18256,473;    3,278;    2,591
770,163;18627,281;    3,823;    2,955
770,730;18446,179;    0,732;   -0,136
771,298;18307,532;    0,187;   -1,409
771,866;18393,703;   -1,541;    4,955
772,434;18707,693;   -0,631;   -1,864
773,002;18899,682;    0,005;    0,682
773,569;18555,217;    0,914;    1,682
774,137;18403,479;   -0,268;   -0,045
774,705;19107,469;    0,278;   -0,136
775,272;18692,822;    0,641;    0,682
775,840;18513,357;   -0,177;    2,682
776,407;18092,528;    0,277;    1,955
776,975;17710,517;   -0,632;    0,318
777,542;18612,598;   -1,086;   -0,045
778,110;18446,042;   -1,268;   -0,045
778,677;18091,304;   -2,359;   -0,864
779,244;17932,293;    2,186;    1,045
779,812;18077,737;    1,823;    0,864
780,379;17942,817;    0,005;    1,136
780,946;18186,080;    1,005;   -0,773
781,513;18469,705;   -1,450;    0,318
782,080;17883,695;   -0,086;    2,864
782,647;18556,593;   -0,268;    3,045
783,214;18218,765;   -0,177;    3,864
783,781;17856,663;   -0,723;   -0,682
784,348;17784,743;   -0,632;    1,500
784,915;18194,187;   -3,177;    0,318
785,482;17953,631;    1,368;    2,591
786,049;18325,530;    0,186;   -0,591
786,615;18489,519;    0,277;   -0,955
787,182;18245,418;    0,186;   -0,682
787,749;17935,134;   -2,814;    1,409
788,315;17347,124;   -1,632;   -0,409
788,882;17657,386;    1,550;   -1,227
789,448;18276,375;    1,732;   -0,955
790,015;18259,456;    1,095;    3,227
790,581;17882,991;    1,459;    0,227
791,148;17799,526;    0,641;    1,045
791,714;17970,242;   -0,541;    3,136
792,280;17737,232;    0,186;    1,591
792,847;17369,130;    0,550;    2,500
793,413;17817,665;   -0,269;   -0,318
793,979;17490,382;    3,459;   -1,318
794,545;17554,917;    4,459;    2,682
795,111;17013,633;    2,186;    1,318
795,678;17169,986;    0,731;   -1,682
796,244;16888,339;    3,368;    0,136
796,810;17351,238;    1,731;    0,773
797,375;17107,136;    0,549;   -2,136
797,941;17135,035;   -0,541;    0,591
798,507;17232,388;   -0,451;   -0,955
799,073;16813,650;   -0,360;    0,591
799,639;16904,731;   -2,632;    3,136
800,205;16957,265;    0,095;    2,682
800,770;16578,618;    0,640;    1,773
801,336;16629,153;    1,368;   -0,955
801,901;16447,325;    4,549;    3,136
802,467;16957,950;   -0,542;    2,045
803,033;16332,576;   -0,087;    0,864
803,598;16507,929;    1,913;   -1,045
804,163;16572,282;    1,095;   -0,318
804,729;16522,454;   -0,178;    1,136
805,294;16816,897;    0,822;    2,227
805,859;16701,160;    0,731;   -0,409
806,425;16272,876;    1,186;    2,682
806,990;15951,138;    2,186;    4,318
807,555;16331,855;   -1,451;    2,591
808,120;16307,663;    0,822;   -0,409
808,685;16307,470;    0,185;   -2,500
809,250;15922,914;    0,004;   -0,500
809,815;16146,631;    1,913;    0,682
810,380;16600,802;   -0,269;    1,591
810,945;17044,519;   -1,087;    2,045
811,510;16345,418;    2,094;    1,591
812,075;16084,771;   -0,633;   -1,409
812,640;16123,215;    2,003;    1,409
813,204;16193,840;    0,822;   -0,227
813,769;16656,193;    2,094;   -0,045
814,334;16163,637;    0,458;    0,864
814,898;16225,900;    0,367;    0,591
815,463;16002,071;    1,276;   -0,773
816,027;16024,969;   -0,724;   -2,318
816,592;16119,868;    0,640;   -2,045
817,156;15730,494;    2,094;    1,136
817,721;15624,938;    4,276;    2,318
818,285;15626,109;    2,912;    1,500
818,849;16159,644;   -1,451;    1,682
819,414;16064,179;   -0,269;    2,955
819,978;15667,622;   -1,269;    1,773
820,542;16232,430;    2,003;    0,500
821,106;15985,510;   -0,815;    0,682
821,670;16124,682;   -0,815;    2,591
822,234;15847,126;   -0,270;    1,409
822,798;15339,115;    0,003;    0,500
823,362;15379,104;   -0,633;    4,227
823,926;14803,821;    0,094;    1,136
824,490;14969,265;   -0,997;   -0,682
825,054;15349,709;   -0,088;   -1,136
825,618;15061,971;   -1,542;   -1,500
826,181;15067,597;    0,458;   -1,318
826,745;14933,677;    1,367;   -1,045
827,309;15281,394;    1,185;    1,318
827,872;14791,384;    1,367;    0,955
828,436;15650,555;    1,185;   -0,773
828,999;15764,817;   -0,997;    1,227
829,563;14761,897;   -0,179;    1,136
830,126;14583,432;   -0,179;   -0,591
830,690;14620,785;   -1,997;    2,864
831,253;14136,593;   -0,543;    2,227
831,816;14293,491;   -1,906;    0,500
832,380;14263,390;    0,185;    0,864
832,943;14450,834;   -1,361;   -0,500
833,506;13986,278;    2,639;   -1,227
834,069;14716,267;    3,912;   -0,955
834,632;14767,348;    1,730;    1,318
835,195;14703,337;    1,003;    0,955
835,758;14002,690;   -0,997;    1,955
836,321;13870,498;    0,730;   -1,045
836,884;13944,396;   -0,725;   -0,955
837,447;14010,476;   -2,816;    1,773
838,010;14220,466;    0,366;    3,227
838,573;14487,728;   -1,179;    0,773
839,135;14509,536;   -1,361;   -0,955
839,698;13966,980;    1,275;    0,409
840,261;13549,060;    1,003;   -0,227
840,823;13413,049;   -0,543;    0,864
841,386;13690,221;   -0,452;   -2,409
841,948;13625,483;   -1,361;    1,773
842,511;13375,109;    0,912;    1,682
843,073;13483,462;    1,912;    0,227
843,636;13288,269;   -0,361;   -0,227
844,198;13275,531;    0,911;    0,591
844,760;13403,339;    1,093;    1,955
845,322;13063,328;    0,548;    1,136
845,885;13468,500;    0,730;    0,591
846,447;13859,034;   -1,998;    0,227
847,009;13560,206;    1,911;   -0,682
847,571;13798,468;    0,820;   -2,045
848,133;13875,003;   -1,089;   -1,864
848,695;13685,719;   -0,543;    1,409
849,257;13302,709;   -1,089;   -1,682
849,819;13500,607;   -0,998;   -0,409
850,381;13489,051;   -0,725;   -0,864
850,942;13756,677;    1,093;   -0,591
851,504;13704,757;    1,184;    0,227
852,066;13749,111;    1,275;   -1,591
852,628;13405,009;   -0,180;    1,955
853,189;12928,180;    1,638;    2,682
853,751;13112,806;   -0,907;    1,409
854,312;12915,886;   -0,453;   -1,682
854,874;13394,967;   -2,089;   -0,773
855,435;13790,593;   -0,907;   -1,682
855,997;13962,946;   -1,816;   -0,136
856,558;13324,571;    0,366;    1,773
857,119;13427,015;    0,820;    2,864
857,681;13130,914;    0,002;    0,318
858,242;13163,903;    1,911;   -2,136
858,803;13564,438;    0,456;   -0,773
859,364;14122,973;    0,184;   -4,773
859,925;13572,417;   -2,453;   -0,955
860,486;13429,134;   -0,453;   -0,955
861,047;13163,941;   -0,544;   -1,227
861,608;13049,840;   -1,089;   -0,773
862,169;13198,011;    0,638;   -0,045
862,730;12964,364;    0,456;    1,409
863,291;13240,354;   -0,635;   -0,500
863,852;13465,525;   -0,635;    1,955
864,412;13004,969;   -0,271;   -0,864
864,973;11850,685;   -0,089;    0,500
865,534;11690,402;   -1,726;    0,227
866,094;12997,482;    1,820;    0,227
866,655;12711,017;    1,274;    3,318
867,215;13000,007;    0,274;    0,136
867,776;12878,542;    0,547;   -0,136
868,336;12931,440;   -1,453;    0,136
868,897;12541,793;    2,638;    1,682
869,457;12293,146;    1,365;    0,318
870,017;12534,954;    0,547;   -1,227
870,578;12983,307;   -0,817;    0,773
871,138;12652,205;   -2,089;   -0,955
871,698;12252,831;   -0,817;   -1,318
872,258;12143,366;   -0,453;   -2,864
872,818;12522,901;    2,729;    0,045
873,378;12496,436;    0,638;    1,045
873,938;12095,516;    0,547;    0,500
874,498;12347,778;    0,274;   -1,955
875,058;12314,586;    2,183;    1,773
875,618;12199,303;    1,910;   -2,682
876,177;12098,292;    1,274;    0,136
876,737;11769,191;   -0,090;    1,955
877,297;11863,907;    0,183;    1,955
877,856;11851,169;   -0,362;    0,318
878,416;11781,159;    1,183;   -0,136
878,976;11975,239;   -1,817;    0,409
879,535;12137,138;    0,092;    3,136
880,095;11940,854;   -0,544;    0,045
880,654;12009,571;   -1,090;    1,318
881,213;12159,379;    2,456;    1,500
881,773;11841,186;    2,637;    2,682
882,332;12177,448;    3,365;    5,136
882,891;11986,983;    3,092;    2,136
883,451;12397,518;   -1,272;    1,682
884,010;11882,780;   -2,908;   -0,409
884,569;12009,406;   -0,999;   -0,045
885,128;12145,214;    2,819;   -1,864
885,687;12206,203;    4,455;    0,682
886,246;11942,374;    1,455;    2,136
886,805;11688,909;    2,455;    2,045
887,364;11888,081;   -0,999;   -0,500
887,922;12235,070;   -1,181;    0,045
888,481;11766,969;   -1,545;    0,591
889,040;12046,594;    1,183;    2,136
889,599;12588,493;    2,455;    1,409
890,157;12625,210;    1,455;    2,409
890,716;12279,108;   -0,090;    0,227
891,274;12163,188;    0,092;   -1,136
891,833;12497,451;    1,546;    0,864
892,391;12355,531;   -0,454;    0,500
892,950;12493,066;    1,819;   -0,773
893,508;12788,601;    0,455;   -0,409
894,067;12173,135;    0,637;    0,136
894,625;12120,034;   -0,636;   -1,500
895,183;12330,660;   -0,363;   -0,682
895,741;12281,013;    1,728;   -1,773
896,299;12099,548;   -0,545;   -2,409
896,858;12280,083;    0,819;   -1,591
897,416;12418,072;    2,728;   -1,318
897,974;12197,971;    1,819;    0,318
898,532;12401,415;    6,091;    2,682
899,089;12295,495;    2,091;   -0,682
899,647;12316,030;   -1,454;    1,318
900,205;12129,201;    1,182;    1,045
900,763;12265,918;   -0,454;    0,227
901,321;12283,362;    2,364;   -1,409
901,878;11779,806;   -1,000;   -0,773
902,436;11681,613;   -1,363;    1,318
902,994;12140,421;    4,728;    3,682
903,551;11635,683;    0,728;    0,409
904,109;11966,218;    0,182;   -1,409
904,666;11604,844;    2,455;    1,045
905,224;11434,288;    0,182;   -0,409
905,781;11300,822;    0,727;   -0,318
906,338;11316,903;   -1,363;    1,045
906,895;11260,801;    0,637;    2,045
907,453;11230,427;    1,727;    1,136
908,010;11279,871;   -0,909;    0,409
908,567;10981,497;    1,273;    0,591
909,124;10534,668;    0,364;   -1,500
909,681;10604,112;   -2,909;    0,682
910,238;10768,011;    0,636;   -1,318
910,795;11095,273;   -0,273;   -1,136
911,352;10752,182;   -2,909;   -2,682
911,909;10264,091;   -1,364;   -0,864
912,466;10725,273;   -3,182;    1,500
913,022;10298,818;   -1,636;    0,500
913,579;10618,818;   -0,909;    2,045
914,136;10364,364;    1,636;    0,955
914,692;10735,091;    0,091;   -1,227
915,249;10350,364;    1,455;    0,409
915,806;10534,545;    0,182;    1,955
916,362;10394,364;    1,909;    1,864
916,918; 9995,182;    2,000;    1,045
917,475; 9997,727;   -1,182;    0,955
918,031;10040,455;    3,364;   -0,045
918,587; 9610,000;   -0,909;   -0,318
919,144; 9819,091;   -2,273;    0,227
919,700;10077,818;    1,727;    0,773
920,256; 9703,455;    0,727;    0,045
920,812; 9427,455;   -0,727;   -1,045
921,368; 9483,818;   -1,727;   -1,045
921,924; 9161,091;    0,182;   -0,136
922,480; 8817,545;   -0,545;    1,227
923,036; 9386,000;    1,273;    1,955
923,592; 9359,455;    0,455;    0,318
924,148; 9302,091;    0,455;   -0,955
924,704; 8738,636;   -1,364;   -0,409
925,259; 9021,364;   -0,273;    0,591
925,815; 8819,636;    1,455;    0,500
926,371; 8382,727;    2,909;    1,409
926,926; 8349,818;    2,091;    0,591
927,482; 8066,545;   -1,364;    0,773
928,037; 7973,636;    0,909;    2,045
928,593; 8297,909;    1,636;    1,045
929,148; 8134,455;   -1,818;   -1,500
929,704; 7743,727;   -1,455;   -0,500
930,259; 7912,455;    0,091;   -0,136
930,814; 7182,909;   -0,818;    1,955
931,369; 6937,364;    1,091;   -0,773
931,925; 6859,364;   -0,091;    0,136
932,480; 6775,364;   -2,818;   -2,591
933,035; 6774,909;    0,545;   -0,318
933,590; 6591,909;    0,364;   -1,773
934,145; 6303,182;   -1,364;   -0,318
934,700; 6577,455;    0,455;   -0,591
935,255; 6439,818;   -0,091;    0,045
935,809; 5966,455;    3,182;    0,864
936,364; 5242,636;   -0,455;   -0,136
936,919; 5278,818;    0,455;   -1,773
937,474; 5196,364;    1,455;    0,136
938,028; 5011,455;   -1,636;    1,136
938,583; 4694,545;    1,818;    4,682
939,138; 4895,455;    2,091;    2,136
939,692; 4435,091;    1,636;   -1,136
940,247; 4241,273;   -0,727;   -1,045
940,801; 3946,636;   -0,636;    0,227
941,355; 3858,273;   -0,364;    2,591
941,910; 3566,364;   -0,273;   -2,136
942,464; 3680,091;   -0,818;   -0,318
943,018; 3620,545;    1,000;   -0,227
943,572; 3555,727;    2,545;   -0,682
944,126; 3142,000;    0,091;   -0,409
944,681; 3026,273;    3,091;    0,227
945,235; 3002,909;    1,000;   -0,591
945,789; 2955,000;    0,364;   -1,864
946,342; 3151,000;    0,455;   -0,591
946,896; 2892,455;   -2,273;    0,955
947,450; 2682,364;    1,545;   -0,227
948,004; 2948,364;    1,727;   -0,045
948,558; 2908,091;    0,273;   -0,864
949,111; 2821,364;   -0,273;   -0,318
949,665; 2952,818;    1,636;   -0,682
950,219; 2834,000;   -0,091;   -1,045
950,772; 2850,182;   -1,909;    1,864
951,326; 2789,818;    0,545;   -0,955
951,879; 2846,818;    0,727;   -2,318
952,433; 2905,909;    0,000;    2,227
952,986; 2708,818;    2,909;    0,682
953,539; 2658,909;   -0,273;    0,591
954,093; 2617,000;    0,545;   -1,318
954,646; 2757,000;    0,909;    1,318
955,199; 2579,182;    0,000;   -0,500
955,752; 2570,455;   -0,455;    1,773
956,305; 2495,545;   -0,091;    2,955
956,858; 2642,455;    0,818;   -0,318
957,411; 2788,909;   -0,545;    2,136
957,964; 2632,636;    1,364;    2,136
958,517; 2591,636;   -1,545;    3,136
959,070; 2460,909;   -0,455;    1,955
959,623; 2631,273;    1,091;    1,500
960,176; 2437,000;    1,727;    2,045
960,728; 2426,364;   -2,727;    0,773
961,281; 2469,909;    0,545;    0,500
961,834; 2452,727;   -0,909;    0,864
962,386; 2388,545;    1,727;    1,045
962,939; 2324,636;    0,364;   -0,318
963,491; 2425,818;    0,455;    1,136
964,043; 2336,727;    1,182;    2,409
964,596; 2479,273;   -1,000;    2,227
965,148; 2324,909;   -1,000;    1,773
965,700; 2244,000;    1,091;   -0,227
966,253; 2399,273;   -0,636;    0,318
966,805; 2278,364;   -2,273;    0,773
967,357; 2295,000;    1,091;   -1,500
967,909; 2318,818;    0,455;   -1,227
968,461; 2337,000;    0,545;    3,136
969,013; 2281,818;   -0,182;   -0,864
969,565; 2371,455;   -0,455;   -1,136
970,117; 2586,636;   -0,364;    1,045
970,669; 2315,455;    0,182;   -0,136
971,220; 2130,273;   -0,455;   -1,500
971,772; 2118,364;   -0,636;   -0,318
972,324; 2251,545;    0,091;   -0,500
972,876; 2170,455;    0,818;   -0,045
973,427; 2330,000;    1,909;   -1,045
973,979; 2318,091;   -0,727;   -2,500
974,530; 2258,000;    1,818;    1,318
975,082; 2279,636;   -0,545;    1,682
975,633; 2204,000;    1,091;    1,682
976,184; 2344,818;    0,909;    0,773
976,736; 2196,182;    0,091;    0,227
977,287; 2051,273;   -0,909;   -0,500
977,838; 2165,182;    0,909;   -0,318
978,389; 2226,455;   -1,000;   -0,500
978,940; 2058,727;    0,545;   -0,409
979,491; 2077,364;    0,091;   -0,500
980,042; 2101,182;    0,182;    3,045
980,593; 2098,364;   -2,545;    0,227
981,144; 2214,818;    2,545;   -0,500
981,695; 2225,182;    1,455;    1,500
982,246; 2158,545;   -0,273;    1,045
982,797; 2214,000;   -1,727;    0,682
983,347; 2345,727;    0,364;    0,591
983,898; 2541,273;    3,091;    0,409
984,449; 2398,545;    2,182;    0,773
984,999; 2228,182;    1,455;   -1,136
985,550; 2091,364;    0,182;   -0,318
986,100; 2050,909;   -0,455;   -0,318
986,651; 2060,636;   -0,818;    0,045
987,201; 2072,818;   -1,000;   -0,591
987,751; 2145,455;    0,818;    2,864
988,302; 2150,182;    2,636;    1,500
988,852; 2164,091;    0,455;   -1,136
989,402; 2246,636;    0,091;    0,682
989,952; 2200,364;   -2,182;    0,864
990,502; 2201,727;   -0,091;    0,682
991,052; 2119,818;   -0,727;    0,045
991,602; 2040,455;   -2,909;    1,318
992,152; 2080,182;    0,455;    0,682
992,702; 2065,909;    1,364;   -0,045
993,252; 1999,455;   -3,000;   -0,500
993,802; 2115,455;   -0,273;    1,318
994,352; 2270,273;   -1,545;    1,136
994,901; 2288,000;   -0,182;    3,227
995,451; 2235,182;   -0,182;    0,318
996,000; 2317,727;    1,636;    0,318
996,550; 2085,727;    2,273;    0,227
997,100; 2086,182;    1,273;   -0,045
997,649; 2345,727;    2,182;    0,955
998,198; 2034,636;    1,727;   -1,500
998,748; 2231,818;    1,091;   -2,318
999,297; 2111,545;   -0,818;   -0,409
999,846; 2217,455;    1,000;   -0,773
1000,395; 2203,636;   -0,818;    0,500
1000,945; 2245,091;    1,818;   -0,773
1001,494; 2295,727;    2,364;    0,682
1002,043; 2272,000;    4,636;    0,864
1002,592; 2082,545;   -1,091;    1,955
1003,141; 2211,000;   -0,455;   -0,682
1003,690; 2152,818;    1,727;    0,500
1004,238; 2151,727;    1,455;   -0,045
1004,787; 1857,000;    1,364;    1,227
1005,336; 2130,909;    0,364;    0,682
1005,885; 2187,273;    1,364;   -2,773
1006,433; 2252,091;    0,545;    0,955
1006,982; 2425,273;    0,455;    1,682
1007,531; 2285,000;   -1,818;   -0,227
1008,079; 2203,182;   -2,273;    0,500
1008,627; 2274,273;   -1,455;    0,409
1009,176; 2088,909;    0,000;   -1,955
1009,724; 2120,273;    1,091;    0,864
1010,273; 2245,273;    1,273;    0,500
1010,821; 2256,455;    0,091;    1,409
1011,369; 2047,091;   -1,364;    1,318
1011,917; 2047,455;   -1,364;   -0,591
1012,465; 2312,182;    1,273;   -1,591
1013,013; 2369,091;    2,091;   -1,682
1013,561; 2319,091;    0,455;   -0,773
1014,109; 2394,636;   -1,909;    1,682
1014,657; 2253,727;    0,364;    0,591
1015,205; 2294,273;    1,636;   -0,955
1015,753; 2279,455;   -0,545;   -1,409
1016,301; 2336,818;   -2,636;    3,045
1016,848; 2362,455;   -1,273;    0,409
1017,396; 2412,727;    2,545;    0,045
1017,944; 2494,636;    1,182;    1,864
1018,491; 2256,273;    0,273;    1,409
1019,039; 2542,727;    0,455;    0,591
1019,586; 2349,636;   -1,364;    1,682
1020,134; 2406,909;    0,455;    1,500
1020,681; 2434,818;    0,182;   -1,136
1021,228; 2394,818;    2,909;   -2,227
1021,776; 2267,091;    1,182;   -1,136
1022,323; 2541,455;    0,455;    0,773
1022,870; 2455,545;   -1,000;   -0,045
1023,417; 2410,636;    2,636;    1,864
1023,964; 2440,545;    2,636;    1,227
1024,511; 2353,545;    1,000;    0,773
1025,058; 2179,545;    3,182;   -0,045
1025,605; 2214,000;   -2,273;    3,136
1026,152; 2467,909;    1,727;   -0,591
1026,699; 2207,818;    1,818;    1,318
1027,245; 2313,909;   -0,091;    0,318
1027,792; 2452,818;   -1,000;    1,409
1028,339; 2452,273;    2,364;   -0,045
1028,885; 2305,182;    1,000;   -0,227
1029,432; 2217,000;   -0,091;    0,227
1029,978; 2309,364;   -1,000;   -1,591
1030,525; 2220,909;    1,000;    0,409
1031,071; 2358,545;   -1,364;    1,136
1031,618; 2563,909;    0,364;    1,682
1032,164; 2313,727;   -0,091;    3,045
1032,710; 2373,818;    1,636;   -1,500
1033,256; 2290,818;   -0,636;   -0,136
1033,803; 2217,182;   -0,545;    1,500
1034,349; 1979,818;   -1,364;    0,136
1034,895; 2122,636;    0,000;   -0,318
1035,441; 2114,273;   -0,818;    0,318
1035,987; 2136,909;   -2,364;   -0,682
1036,533; 2193,636;   -1,455;   -0,955
1037,078; 2430,000;    1,455;    1,682
1037,624; 2208,636;    2,455;   -0,955
1038,170; 2176,727;    0,455;   -0,318
1038,716; 2160,364;    1,636;   -0,409
1039,261; 2044,727;   -2,273;   -0,773
1039,807; 2007,455;   -0,091;    3,409
1040,352; 2091,364;   -1,909;   -0,318
1040,898; 2104,545;   -1,545;   -0,682
1041,443; 1999,727;   -1,455;   -2,591
1041,989; 2166,182;    1,091;    1,591
1042,534; 1973,909;   -0,364;    2,591
1043,079; 1998,091;    2,909;    0,955
1043,625; 1891,455;    1,818;    0,500
1044,170; 1960,273;   -1,364;    1,045
1044,715; 2227,909;    2,455;    0,955
1045,260; 2035,091;    2,182;   -0,955
1045,805; 2014,273;    1,182;   -0,591
1046,350; 1948,909;    1,364;   -0,409
1046,895; 2011,455;    2,909;    1,591
1047,440; 1994,545;    5,364;    0,409
1047,985; 1849,455;    2,818;   -0,955
1048,530; 1781,364;    1,545;    1,227
1049,074; 1853,364;    0,000;    0,318
1049,619; 1804,091;   -1,364;    1,955
1050,164; 1673,545;    0,455;    0,227
1050,708; 1734,545;   -0,455;    0,045
1051,253; 2127,182;    1,273;   -2,227
1051,797; 1821,182;    0,818;   -1,318
1052,342; 1742,818;   -1,182;    1,045
1052,886; 1792,727;    0,364;   -1,409
1053,430; 1657,455;   -1,364;    0,136
1053,975; 1692,091;   -0,818;   -0,318
1054,519; 1689,818;   -0,727;    3,227
1055,063; 1770,636;    0,909;    1,318
1055,607; 1668,091;   -0,182;    0,227
1056,151; 1674,364;    2,909;    1,682
1056,695; 1559,455;    2,273;   -1,136
1057,239; 1628,545;   -1,727;   -0,682
1057,783; 1664,273;    0,818;   -1,500
1058,327; 1669,545;    0,000;    1,409
1058,871; 1887,182;   -0,545;    1,318
1059,415; 1616,182;   -0,818;   -0,045
1059,958; 1912,000;    1,455;    2,591
1060,502; 1609,455;   -1,000;   -0,773
1061,046; 1460,182;    0,364;   -0,955
1061,589; 1430,273;   -3,000;   -1,136
1062,133; 1342,364;   -1,273;    1,864
1062,676; 1323,364;    1,182;    0,864
1063,220; 1352,000;    1,091;    0,500
1063,763; 1382,273;    0,909;    1,136
1064,306; 1459,636;   -0,909;    1,864
1064,849; 1369,818;   -0,909;    0,591
1065,393; 1357,909;    2,000;   -1,500
1065,936; 1436,545;    0,182;   -0,409
1066,479; 1306,364;   -1,455;    1,318
1067,022; 1345,364;   -0,273;   -0,227
1067,565; 1267,000;   -0,091;   -1,318
1068,108; 1267,364;    0,727;   -0,591
1068,651; 1243,091;   -0,636;    1,409
1069,194; 1189,273;   -0,455;   -1,682
1069,736; 1213,000;   -1,273;    0,955
1070,279; 1165,818;   -1,364;   -0,500
1070,822; 1268,273;   -2,000;   -0,318
1071,364; 1389,364;   -0,364;    1,318
1071,907; 1190,455;   -0,727;    3,227
1072,450; 1053,091;    0,000;   -0,045
1072,992; 1090,727;   -0,273;    3,136
1073,535; 1256,545;    2,091;    2,136
1074,077; 1035,455;   -0,727;    2,045
1074,619; 1016,818;   -1,364;    0,591
1075,161; 1074,364;   -1,091;    1,500
1075,704; 1268,182;    1,545;    1,227
1076,246; 1032,455;   -0,182;    0,682
1076,788;  945,000;   -0,364;    1,773
1077,330; 1002,636;    1,273;    2,136
1077,872; 1010,273;    0,909;    0,955
1078,414; 1270,818;    2,727;    0,773
1078,956; 1009,545;    1,273;   -0,227
1079,498; 1281,909;    1,636;    0,318
1080,040;  989,909;    1,909;   -1,318
1080,581;  920,909;    1,636;   -0,318
1081,123;  825,636;    0,091;   -0,773
1081,665;  870,091;   -1,182;   -0,955
1082,206; 1184,091;    1,364;   -0,500
1082,748; 1042,455;    0,727;    2,045
1083,289;  915,818;   -2,000;    1,318
1083,831;  848,636;   -0,545;    0,227
1084,372;  901,455;    0,000;    0,591
1084,913;  910,455;    1,091;    0,864
1085,455;  839,545;   -1,909;   -2,045
1085,996;  843,182;   -2,273;    0,136
1086,537;  881,818;   -0,091;    0,864
1087,078;  895,364;   -0,909;   -2,136
1087,619;  944,000;   -1,273;    0,227
1088,160;  872,364;    0,000;    1,318
1088,701;  836,727;   -1,091;    0,682
1089,242;  796,364;    1,364;   -2,227
1089,783;  895,364;   -0,273;    1,409
1090,324;  865,364;    0,455;    0,682
1090,865;  739,727;    2,727;   -0,409
1091,405;  695,727;    0,727;    2,227
1091,946;  743,909;    0,182;   -0,955
1092,487;  662,364;    0,818;   -1,409
1093,027;  848,182;   -1,364;   -1,500
1093,568;  717,727;   -0,364;    1,227
1094,108;  811,091;    0,273;    1,773
1094,649;  743,636;   -1,182;    0,136
1095,189;  676,000;   -0,636;   -0,682
1095,729;  633,818;   -0,091;    0,955
1096,269;  643,455;    0,727;   -0,955
1096,810;  956,818;   -1,364;    0,500
1097,350;  801,182;    1,364;   -0,773
1097,890;  696,000;    0,364;    1,227
1098,430;  959,000;    2,364;    2,864
1098,970;  843,000;    2,182;    1,682
1099,510;  680,182;    0,545;   -2,318
1100,050;  619,636;    1,000;   -1,591
1100,589;  600,182;   -0,727;   -0,318
1101,129;  727,545;    0,818;   -0,955
1101,669;  880,182;    1,727;    2,136
1102,209;  707,909;   -0,091;    2,227
1102,748;  663,545;    0,000;    0,955
1103,288;  650,182;    1,273;   -1,227
1103,827;  675,364;    3,091;   -2,227
1104,367;  557,909;   -0,091;   -2,409
1104,906;  522,000;    1,364;   -1,136
1105,445;  605,273;    0,636;   -1,136
1105,985;  563,273;   -0,727;    1,500
1106,524;  599,727;   -1,727;   -0,682
1107,063;  577,909;   -2,727;    1,409
1107,602;  544,182;   -1,909;   -1,500
1108,141;  492,909;   -1,909;    1,500
1108,680;  596,909;   -3,455;   -0,591
1109,219;  522,636;   -0,909;   -0,500
1109,758;  518,273;    0,455;    0,682
1110,297;  498,727;    1,000;   -0,682
1110,836;  454,818;   -0,727;    0,955
1111,375;  608,000;   -2,545;    0,409
1111,913;  626,364;   -1,000;    0,773
1112,452;  571,364;   -0,273;    0,136
1112,991;  451,273;    1,091;    1,955
1113,529;  416,727;   -0,818;   -0,045
1114,068;  481,636;   -0,273;    2,955
1114,606;  391,273;   -0,364;   -0,955
1115,144;  545,636;   -1,273;    1,045
1115,683;  492,909;   -0,727;    0,318
1116,221;  545,364;   -0,455;   -0,864
1116,759;  453,273;    0,636;   -0,864
1117,297;  647,636;    0,000;    1,864
1117,836;  464,818;   -2,182;   -1,227
1118,374;  466,091;    0,182;   -0,682
1118,912;  420,000;    0,909;    2,682
1119,450;  407,091;    1,000;    0,864
1119,988;  453,455;    1,545;    2,136
1120,525;  895,727;    5,091;    3,318
1121,063;  608,091;    1,182;    1,864
1121,601;  429,091;   -0,909;   -1,227
1122,139;  391,455;   -0,727;   -2,045
1122,676;  583,000;   -0,727;    2,773
1123,214;  515,000;   -1,182;    4,409
1123,751;  338,818;    1,727;    2,227
1124,289;  455,364;   -0,091;   -0,409
1124,826;  341,727;    1,727;    0,227
1125,364;  263,727;    1,727;   -0,955
1125,901;  455,273;    1,182;    1,227
1126,438;  544,909;    0,818;    0,955
1126,975;  290,091;   -0,727;   -0,773
1127,513;  365,091;    0,273;    2,136
1128,050;  271,727;    1,636;   -0,682
1128,587;  375,091;    2,000;   -0,227
1129,124;  413,455;    0,091;    1,318
1129,661;  281,545;    0,273;    0,227
1130,198;  444,545;    1,636;    0,773
1130,734;  394,818;    0,182;    1,409
1131,271;  260,455;   -0,909;    0,864
1131,808;  420,364;    2,909;    3,045
1132,345;  298,727;    1,545;    0,318
1132,881;  178,455;   -1,545;   -1,864
1133,418;  315,091;    0,727;   -1,136
1133,954;  256,182;    2,455;   -2,682
1134,491;  330,909;    1,364;   -0,773
1135,027;  235,545;    2,364;    0,864
1135,564;  314,273;    0,273;    2,955
1136,100;  309,909;    0,364;    2,136
1136,636;  201,455;   -1,273;   -1,045
1137,172;  294,273;    0,000;   -1,045
1137,708;  217,364;   -1,364;   -1,045
1138,245;  217,636;    1,273;   -1,227
1138,781;  178,000;    1,091;   -3,318
1139,317;  248,636;    1,273;   -1,409
1139,852;  232,727;    3,091;    0,136
1140,388;  340,182;   -1,182;   -0,409
1140,924;  240,182;   -1,091;   -2,227
1141,460;  179,273;   -1,636;    0,136
1141,996;  121,545;   -1,364;    2,682
1142,531;  167,545;    1,364;    3,318
1143,067;  362,273;    1,182;    1,045
1143,602;  420,455;   -0,091;   -0,318
1144,138;  269,909;   -2,636;    1,045
1144,673;  153,636;   -1,455;    1,409
1145,209;  223,273;   -1,909;   -0,318
1145,744;  140,455;   -0,727;    0,864
1146,279;  258,636;    1,818;   -0,136
1146,815;  183,364;    1,545;   -2,682
1147,350;  227,000;   -1,364;    0,045
1147,885;  144,182;   -0,818;   -1,318
1148,420;  147,909;   -2,273;    0,773
1148,955;  135,091;   -1,727;    1,864
1149,490;  160,000;   -0,909;   -1,591
1150,025;  140,273;    0,455;   -1,773
1150,560;  249,182;    1,091;   -0,955
1151,094;  212,636;    1,455;   -0,591
1151,629;  217,455;    1,636;    0,864
1152,164;  148,455;    1,364;    1,318
1152,698;  112,000;   -0,182;   -0,136
1153,233;   78,636;    0,091;   -0,682
1153,767;  117,727;   -3,000;   -2,318
1154,302;  155,909;   -1,455;    1,773
1154,836;  161,273;   -0,455;   -2,136
1155,371;  206,273;   -1,364;    3,682
1155,905;  159,545;   -0,636;    1,682
1156,439;  131,545;   -0,636;   -0,500
1156,973;  169,818;    0,364;    0,318
1157,507;  115,091;   -0,364;    0,682
1158,042;  136,364;   -0,727;    1,045
1158,576;  178,909;    0,182;    1,773
1159,110;  172,455;   -0,818;    2,409
1159,643;  149,545;    0,636;   -0,045
1160,177;   91,091;   -1,545;    1,500

