
Integration time [ms]:   0,040
Averaging Nr. [scans]: 11
Smoothing Nr. [pixels]: 0
Data measured with spectrometer [name]: 7318044SP
Wave   ;Sample   ;Dark     ;Reference
[nm]   ;[counts] ;[counts] ;[counts] 

186,757;    3,951;   31,551;    1,318
187,357;   24,645;   22,551;    0,955
187,958;    2,103;   15,460;   -1,591
188,558;   44,296;    8,915;   -1,227
189,159;   11,854;    6,733;   -4,500
189,759;  -20,552;    7,278;   -3,591
190,360;  -24,071;    2,824;   -2,136
190,960;    8,879;    2,915;   -4,136
191,560;   20,012;    3,189;   -6,591
192,161;  217,808;    4,372;   -3,500
192,761;   86,862;    4,010;   -3,227
193,361;   36,903;    1,556;   -3,773
193,962;   70,401;    2,010;   -2,682
194,562;    4,968;    1,189;   -3,955
195,162;   12,862;   -2,448;   -2,227
195,762;  122,074;   -3,176;   -0,045
196,362;   81,821;    1,370;   -2,500
196,963;   -0,172;    2,006;   -0,864
197,563;   50,669;    1,551;   -0,955
198,163;   -0,158;    0,096;   -0,682
198,763;   -0,190;    1,733;   -0,500
199,363;   63,259;    3,096;   -0,500
199,963;   30,553;    0,369;    0,409
200,563;   15,705;    2,823;   -1,409
201,163;    0,249;    3,277;   -0,227
201,763;   28,749;    3,732;    0,318
202,363;    5,434;    1,459;    1,500
202,963;   32,375;    1,459;    1,045
203,563;   82,853;    0,277;    0,500
204,162;   15,072;    2,096;   -1,864
204,762;    7,103;    0,550;    0,591
205,362;  -13,905;    3,004;    1,955
205,962;   12,967;    3,096;    1,955
206,562;    9,501;    1,823;    2,318
207,161;   -7,011;   -0,087;    0,318
207,761;   69,625;    1,277;    2,409
208,361;   10,090;   -0,268;    1,409
208,960;   22,340;    0,459;    1,500
209,560;   25,858;    1,277;    1,591
210,160;   34,548;    0,550;    1,864
210,759;   13,489;    4,186;    1,227
211,359;    3,450;    1,459;    1,045
211,958;  102,212;    1,277;    2,045
212,558;  111,156;    1,732;    1,864
213,157;   42,367;    1,822;    1,500
213,757;  176,687;    3,822;   -0,227
214,356;   59,846;    1,277;   -0,409
214,956;  153,365;    3,095;    0,409
215,555;   41,733;    2,095;    2,136
216,154;    9,312;   -2,723;   -0,591
216,754;   12,476;    0,277;    0,773
217,353;   14,795;   -0,268;   -1,045
217,952;  -21,107;   -0,178;    0,318
218,552;   41,720;    1,368;   -0,773
219,151;    1,864;    0,277;    0,955
219,750;   -4,804;    0,004;   -0,227
220,349;  -18,358;   -0,451;    1,045
220,948;   47,770;   -1,360;    1,136
221,548;   -5,517;    0,913;    1,227
222,147;    1,652;   -0,087;   -0,409
222,746;   88,288;   -0,451;   -0,955
223,345;   38,789;    0,731;    0,500
223,944;   26,763;   -0,451;    0,773
224,543;   23,734;    1,004;   -1,409
225,142;   14,757;    0,094;    0,136
225,741;   24,794;   -0,814;    1,045
226,340;   12,600;   -0,451;   -0,955
226,939;   61,907;   -0,996;   -0,136
227,538;    8,709;   -0,360;   -0,773
228,137;   70,891;   -0,814;    0,864
228,735;   38,154;   -0,541;    1,227
229,334;  -18,773;   -0,905;   -0,227
229,933;   70,948;    0,459;    0,591
230,532;   67,111;    1,186;   -0,409
231,131;  108,889;    1,732;    0,318
231,729;   48,084;   -2,450;   -2,318
232,328;   15,660;   -0,723;   -1,500
232,927;   24,528;    1,004;   -0,500
233,525;   12,492;    3,640;    0,045
234,124;   24,987;    2,368;   -1,591
234,723;   -4,485;    0,913;   -1,045
235,321;  -11,008;    2,277;    0,136
235,920;   -4,179;    1,186;   -1,227
236,518;   69,389;    3,459;    0,318
237,117;   -1,996;    0,004;   -0,227
237,715;   10,021;    0,640;   -0,500
238,314;   26,775;   -0,087;   -2,318
238,912;   75,263;   -0,723;   -1,409
239,510;   39,499;    0,459;   -1,227
240,109;   91,579;    0,004;    3,773
240,707;   68,864;   -0,996;    1,227
241,305;    2,507;    0,550;    0,136
241,904;   39,871;   -0,178;   -2,045
242,502;   96,171;   -0,632;   -0,227
243,100;   37,912;   -0,087;   -0,955
243,698;   -0,617;    0,732;    1,682
244,297;   31,963;   -0,632;    0,682
244,895;   20,246;   -0,269;   -2,318
245,493;   85,123;    2,186;   -0,591
246,091;   91,780;    1,368;   -1,318
246,689;   53,407;    1,004;    0,591
247,287;   45,365;    0,822;   -1,136
247,885;   21,730;   -1,451;    1,227
248,483;    4,959;    1,822;   -0,500
249,081;   49,144;    0,185;    1,591
249,679;   47,959;   -0,178;    1,682
250,277;   -0,607;   -1,723;    0,864
250,875;   48,194;   -1,087;   -1,045
251,473;   11,411;   -1,178;    0,500
252,071;   50,959;    1,459;    1,045
252,669;   14,763;   -1,814;    0,318
253,267;   -1,561;   -0,087;    0,773
253,864;   20,456;   -0,360;    0,682
254,462;   68,612;    1,640;    1,591
255,060;   -9,070;   -0,269;    1,318
255,658;    1,399;    0,822;   -0,136
256,255;   12,174;    0,186;   -2,045
256,853;   38,003;   -0,269;    1,409
257,451;    8,195;    0,822;    1,864
258,048;  170,968;    1,822;    1,864
258,646;   73,966;    1,731;   -1,045
259,243;  113,367;   -0,087;    2,227
259,841;   55,375;   -0,814;    0,318
260,438;    3,252;   -0,087;    0,864
261,036;   44,370;   -1,905;    1,409
261,633;    2,327;   -0,087;    2,227
262,231;  -15,686;    2,731;   -0,045
262,828;  -13,877;   -0,905;    1,136
263,425;    2,677;    0,913;   -0,591
264,023;    5,384;    0,186;    0,045
264,620;   58,584;   -0,360;   -0,318
265,217;   97,681;   -2,087;    3,136
265,815;   17,035;   -1,905;    2,136
266,412;   48,427;    0,731;    0,136
267,009;   42,368;   -1,451;    0,773
267,606;   71,966;    0,822;   -0,955
268,203;   11,985;   -0,269;   -0,591
268,801;   15,696;    1,731;    0,591
269,398;   -5,300;   -0,360;    2,500
269,995;   33,396;    0,277;    1,591
270,592;   14,897;   -0,632;   -0,500
271,189;  -14,721;    0,186;    0,409
271,786;  -26,099;   -0,632;    1,227
272,383;   50,661;   -1,087;    0,227
272,980;   11,808;    0,277;    0,318
273,577;    1,786;    0,004;    1,227
274,174;   -7,507;    0,822;    2,591
274,771;   37,035;   -0,814;   -0,773
275,367;  194,050;    2,277;    1,409
275,964;   86,318;    0,731;   -0,500
276,561;   18,518;    1,549;   -1,045
277,158;  -14,223;    0,095;   -1,773
277,755;   72,871;    2,185;    0,409
278,351;   39,866;   -0,451;   -1,500
278,948;   55,647;   -0,815;    0,045
279,545;   33,479;   -1,360;    2,318
280,141;   74,068;   -1,723;   -2,045
280,738;   80,744;   -0,451;   -0,136
281,334;   10,246;   -1,633;    0,591
281,931;    2,152;   -0,087;   -1,318
282,528;   57,230;    0,822;   -0,500
283,124;   77,248;   -1,087;   -0,500
283,721;   70,388;   -0,451;    1,409
284,317;   26,046;    0,185;    2,500
284,913;   83,282;   -1,360;    0,591
285,510;  143,918;    0,640;   -0,318
286,106;   89,766;   -2,269;   -0,955
286,703;   40,223;   -0,360;    1,955
287,299;   17,648;   -1,451;   -0,591
287,895;   16,527;    0,822;   -1,045
288,491;   -0,118;    0,186;    2,136
289,088;   43,568;   -2,360;    2,409
289,684;   45,672;   -1,723;    1,500
290,280;  105,858;    0,368;    0,682
290,876;   74,087;    1,822;    5,500
291,472;   61,265;    1,276;    2,227
292,068;   67,148;    1,367;    0,227
292,665;   25,829;    2,095;    0,773
293,261;   -4,248;    0,276;    2,136
293,857;   51,749;    2,913;    2,136
294,453;   21,303;    3,550;    0,955
295,049;   97,592;   -0,268;    1,955
295,644;   51,361;    0,095;    0,136
296,240;    8,444;   -0,905;   -0,136
296,836;   28,697;   -0,995;    0,318
297,432;   68,565;    1,096;   -0,500
298,028;   72,359;    0,732;    0,773
298,624;   38,451;    1,459;    1,864
299,220;   28,426;    2,368;    0,591
299,815;   33,967;    1,005;   -0,409
300,411;   61,955;    0,914;    1,773
301,007;   83,240;    1,368;    0,227
301,602;   16,136;   -0,541;   -2,318
302,198;   73,057;    0,732;   -0,773
302,794;   27,093;    1,187;   -0,500
303,389;   -5,243;   -1,177;    1,045
303,985;    8,023;    0,550;    1,409
304,580;   72,447;    1,459;    1,591
305,176;   30,104;   -3,086;    0,136
305,771;  -27,235;   -1,268;   -1,227
306,367;  146,796;    4,095;    0,136
306,962;   47,227;    0,641;    1,500
307,558;   77,615;   -0,450;    0,136
308,153;   60,840;    1,095;   -1,136
308,748;    0,388;   -0,814;    1,682
309,344;  139,284;   -0,632;   -1,318
309,939;  120,780;   -1,905;   -1,318
310,534;   27,668;   -0,086;   -1,682
311,130;   17,464;    0,459;   -2,500
311,725;    5,992;    1,004;   -0,500
312,320;   18,212;    2,459;    0,045
312,915;   50,405;    1,459;   -1,045
313,510;  135,125;    1,550;   -0,500
314,105;   28,731;    1,096;    1,409
314,700;   -6,922;   -3,086;   -1,045
315,295;   24,902;   -0,904;    0,045
315,890;    4,663;    1,277;    0,864
316,485;   36,919;   -0,359;   -0,318
317,080;   -1,482;   -3,086;    1,591
317,675;  132,403;    2,005;   -0,682
318,270;  235,012;    5,550;    3,318
318,865;  157,185;    3,278;    3,045
319,460;   89,648;   -0,904;    0,591
320,055;   15,796;   -0,541;   -1,227
320,650;   19,808;   -1,995;   -0,591
321,244;   20,297;   -0,177;   -1,409
321,839;   10,651;   -1,541;   -0,227
322,434;   34,485;   -1,086;   -1,591
323,029;   11,728;    1,732;    1,591
323,623;    6,570;    1,550;    0,773
324,218;  101,027;    2,368;    1,409
324,812;   60,011;    1,096;    1,591
325,407;   45,012;   -0,814;    2,045
326,002;  116,815;    0,277;   -0,409
326,596;   83,596;    0,914;    1,318
327,191;   23,133;    0,823;   -1,045
327,785;   22,959;   -0,813;   -0,227
328,379;   11,439;    1,368;    0,136
328,974;   25,654;    0,914;   -3,955
329,568;   45,235;    0,186;   -2,409
330,163;   77,507;    2,096;    1,045
330,757;   14,550;    2,459;    1,591
331,351;  -12,609;    0,459;    0,682
331,945;  -10,735;    0,914;    1,409
332,540;   41,946;   -1,723;   -0,591
333,134;   30,717;   -1,086;    0,773
333,728;   44,367;    0,005;    0,318
334,322;   -1,183;   -1,177;   -0,864
334,916;   -0,761;    0,277;    0,955
335,510;   63,588;   -0,450;   -0,136
336,105;   37,587;   -1,086;    1,591
336,699;    2,155;   -1,086;    0,591
337,293;   31,551;   -1,723;    0,318
337,887;    7,518;   -2,723;    1,955
338,481;   52,334;    0,459;    0,591
339,074;   99,412;   -0,359;    2,682
339,668;   80,242;   -1,632;    1,227
340,262;  351,578;    1,732;    3,227
340,856;  154,661;    1,822;   -0,682
341,450;   35,620;    1,004;    1,864
342,044;   55,187;    1,459;    0,136
342,637;   93,124;    0,913;   -2,136
343,231;   58,171;   -2,360;    0,682
343,825;   37,055;   -1,086;   -0,591
344,419;   31,139;   -1,995;    0,500
345,012;  309,180;    2,459;    4,045
345,606;  205,819;    4,641;    1,591
346,199;   61,187;   -1,813;   -0,227
346,793;  120,563;    1,914;    2,045
347,386;   40,150;   -0,813;   -1,136
347,980;    3,395;   -0,268;   -0,045
348,573;   44,942;    2,278;    0,409
349,167;  238,470;    5,278;    4,773
349,760;  147,340;    2,914;    2,682
350,354;  123,942;   -0,813;    1,136
350,947;  142,895;    1,096;    1,682
351,540;   92,183;   -0,358;   -1,409
352,134;   34,010;    1,096;    1,136
352,727;   37,258;   -0,086;    1,136
353,320;   43,271;    0,005;    0,591
353,913;   13,087;   -1,995;    1,864
354,507;  139,406;    0,823;   -1,227
355,100;   61,350;    0,460;    0,864
355,693;  351,738;    2,005;    2,409
356,286;  183,364;    0,823;    2,773
356,879;   88,631;   -0,722;    1,227
357,472;   93,420;   -0,904;    1,500
358,065;  114,330;   -0,722;    2,500
358,658;   30,077;   -0,540;    2,318
359,251;   21,368;   -1,631;   -0,591
359,844;  134,939;   -1,904;   -1,136
360,437;  169,426;   -2,995;    0,045
361,030;   66,516;    1,369;   -0,682
361,623;   70,938;    2,824;    0,318
362,215;  223,972;   -0,086;    2,045
362,808;  100,937;   -2,358;   -1,682
363,401;   60,740;   -2,449;    0,136
363,994;  206,988;   -0,631;   -1,500
364,586;   75,118;    0,824;   -1,500
365,179;   44,714;   -0,449;   -1,136
365,772;  -24,513;   -1,995;    2,045
366,364;   49,112;    1,915;   -3,227
366,957;   82,871;    2,279;   -0,045
367,549;   53,158;    2,188;   -0,864
368,142;   60,928;    1,825;   -1,500
368,734;   41,775;    0,734;   -2,136
369,327;    4,237;    1,643;   -0,500
369,919;   32,264;   -1,538;    0,409
370,512;   36,129;   -1,083;   -0,500
371,104;  241,669;   -0,901;    1,591
371,696;  252,947;    1,191;   -0,955
372,289;  130,426;    0,373;    1,136
372,881;  102,537;   -2,080;    1,318
373,473;   18,682;   -2,170;    1,136
374,066;   94,538;   -0,169;    0,500
374,658;   75,444;    0,378;    1,136
375,250;    8,450;    0,653;   -1,409
375,842;   45,282;    0,473;   -0,045
376,434;   11,466;   -0,435;   -0,409
377,026;   -8,978;    0,204;   -2,500
377,618;   30,804;   -0,158;   -0,682
378,210;  -34,420;   -0,338;   -1,955
378,802;  -41,278;    0,754;   -0,591
379,394;  340,734;    1,846;    0,682
379,986;   83,800;    1,393;   -0,955
380,578;   -5,763;   -0,153;    0,773
381,170;  256,707;   -0,972;    0,045
381,762;  162,710;    0,755;    1,409
382,354;  130,200;   -0,065;   -1,318
382,945;   39,660;   -2,976;    0,318
383,537;   -2,548;   -2,705;   -1,955
384,129;    1,759;   -2,160;   -1,136
384,721;  119,522;   -0,252;    0,955
385,312;   56,186;   -0,161;   -0,955
385,904;  118,150;   -2,706;    1,591
386,496;   48,838;   -0,979;    1,045
387,087;  174,459;    1,022;    2,500
387,679;  112,920;   -1,160;    0,045
388,270;   83,163;    2,840;    2,045
388,862;   59,798;    1,295;   -0,318
389,453;   44,615;   -0,887;    1,045
390,045;   46,218;   -0,705;   -2,682
390,636;  -64,154;    0,204;   -0,591
391,227;   10,976;   -0,523;   -0,045
391,819;  -12,867;    0,204;    0,773
392,410;  221,865;    1,022;    0,045
393,001;   40,005;   -0,979;   -1,591
393,593;  107,358;    1,930;   -0,045
394,184;  147,751;    1,385;   -0,409
394,775;   37,157;    1,839;    2,136
395,366;  -51,661;    1,385;    0,773
395,957;  129,281;    0,113;    0,136
396,548;   20,065;   -0,342;    2,682
397,139;  125,970;   -2,433;    0,591
397,730;   50,287;   -1,888;    0,955
398,321;   64,598;   -1,252;    0,955
398,912;   10,796;   -0,615;    0,136
399,503;    2,447;   -3,524;   -1,409
400,094;   38,991;    0,294;    1,682
400,685;   36,140;   -0,433;    0,045
401,276;  -13,660;    0,930;   -0,955
401,867;  -20,122;   -0,888;    0,773
402,458;  -67,076;   -2,251;   -2,318
403,048;   69,215;    1,112;    0,591
403,639;   15,930;    0,840;    0,864
404,230;  115,539;    2,476;    0,318
404,821;  172,811;   -0,615;    0,045
405,411;   87,464;    1,203;   -2,591
406,002;   -2,370;   -1,252;   -1,136
406,592;  214,951;    2,294;    0,045
407,183;   85,105;    0,566;   -1,500
407,774;   67,407;    3,475;   -0,136
408,364;   24,927;    0,930;    0,409
408,954;  130,541;    0,384;    1,227
409,545;  130,240;    1,021;    1,045
410,135;   94,588;    1,293;    0,500
410,726;   43,354;    1,838;    0,318
411,316;  222,081;    0,111;    0,773
411,906;   82,589;   -0,253;   -0,409
412,497;   80,919;   -1,070;   -0,045
413,087;   18,277;   -1,980;   -0,227
413,677;  -42,431;   -0,707;    3,864
414,267;  -54,410;    0,656;    1,409
414,857;  -67,900;   -2,980;    4,227
415,448;  -71,008;    0,839;    0,500
416,038;  -35,201;    0,020;   -0,591
416,628;    4,087;   -0,889;    0,409
417,218;   62,182;    0,565;    3,318
417,808;  204,055;    0,202;   -0,409
418,398;   77,825;    0,020;    2,682
418,988;  -33,708;    2,020;    0,591
419,578;   61,773;   -0,707;    1,409
420,168;  -11,029;   -1,343;   -0,955
420,757;  136,207;   -1,343;   -1,500
421,347;   39,949;    0,111;   -0,227
421,937;    8,137;    2,292;    1,409
422,527;  138,438;    0,838;   -0,773
423,116;  267,759;   -0,253;   -0,045
423,706;   -1,428;   -1,889;    0,318
424,296;  -45,083;    1,384;    0,682
424,885;   79,372;   -0,071;   -3,045
425,475;   52,419;    1,474;   -2,864
426,065;  -47,748;   -0,980;   -0,318
426,654;  -64,305;   -0,435;   -0,318
427,244;  189,216;    0,020;    1,409
427,833;  153,970;    1,383;   -0,500
428,423;   31,288;   -0,526;    1,136
429,012;   34,718;   -0,344;   -1,136
429,601;  167,334;   -1,344;    0,136
430,191;   53,583;    1,292;    4,318
430,780;  -45,272;   -0,344;   -0,409
431,369;  132,889;    0,746;   -0,045
431,959;   25,605;   -1,254;    0,500
432,548;  -30,425;   -1,163;   -0,045
433,137;  -84,951;   -1,254;   -1,318
433,726;   -5,761;    0,292;    0,500
434,315;   10,470;   -0,526;    2,409
434,905;  118,598;   -1,254;    1,409
435,494;  108,447;    0,746;    0,955
436,083;  -26,203;   -0,981;   -0,955
436,672;   74,725;    0,110;    0,500
437,261;   34,621;    0,292;   -1,955
437,850;  251,496;    1,383;    0,682
438,439;  302,166;    3,291;    1,955
439,027;  409,149;    3,655;    1,773
439,616;  330,184;    2,927;    1,227
440,205;  104,612;    0,200;   -2,136
440,794;   62,957;    2,109;   -0,045
441,383;   -7,301;   -1,346;   -0,591
441,971;  -35,883;   -2,436;    0,591
442,560;  -17,357;    0,563;   -1,773
443,149; -116,824;    0,379;   -1,318
443,737;  -68,262;   -0,074;   -2,318
444,326;  -41,238;    0,018;    0,318
444,915;   13,840;   -1,982;    0,864
445,503;   19,466;   -2,891;   -0,318
446,092;  258,358;    0,382;    2,136
446,680;  192,768;    0,382;    0,318
447,269;  109,636;   -0,346;   -0,318
447,857;   95,820;    0,018;   -1,773
448,445;   53,826;    0,563;    1,318
449,034;   -9,741;   -1,528;   -1,136
449,622;  -10,641;   -1,073;    3,500
450,210;  277,936;    2,017;    2,227
450,799;  192,909;    0,290;   -0,591
451,387;  139,653;    1,381;   -0,591
451,975;  129,733;    2,654;    0,864
452,563;  211,535;    3,472;    2,318
453,151;   30,074;   -0,528;   -1,227
453,739;   84,599;   -1,347;    0,136
454,328;  185,719;    2,381;   -2,136
454,916;  116,354;    2,562;   -0,136
455,504;  139,158;    1,017;    1,227
456,092;   19,618;    0,017;   -1,591
456,679;  -17,752;    1,472;    0,682
457,267;  395,614;    4,017;    1,045
457,855;   86,145;    1,017;    1,409
458,443;  -55,543;   -0,165;    1,682
459,031;  102,228;    0,108;    2,409
459,619;   64,984;   -1,801;    2,864
460,206;  -38,627;    0,835;    2,045
460,794;  -34,556;   -2,983;   -0,227
461,382;   19,935;   -0,529;   -0,864
461,970;   18,777;    1,198;    1,864
462,557;  -59,480;   -0,711;   -0,682
463,145;   59,294;   -3,165;   -1,682
463,732;  306,225;    2,016;   -1,045
464,320;   76,842;   -0,075;   -3,045
464,907;  218,362;    2,743;   -0,773
465,495;  128,315;    0,743;   -1,227
466,082;   44,484;   -1,984;   -0,045
466,670;   77,703;   -2,529;    1,227
467,257;  -30,660;   -1,711;    2,045
467,844;   76,365;   -0,075;    0,045
468,432;   45,981;    0,834;    3,500
469,019;    0,568;    0,925;   -1,773
469,606;   89,388;    0,470;    3,682
470,193;  123,503;   -1,439;    0,227
470,780;   77,658;   -2,075;    0,864
471,368;    2,493;   -1,257;   -0,773
471,955;  107,956;    1,379;   -0,682
472,542;   76,774;    0,652;   -1,136
473,129;  -44,931;   -0,166;    0,136
473,716;  -33,393;    1,470;    0,591
474,303;   -7,556;    0,652;   -0,864
474,890;   10,455;   -1,439;   -0,500
475,477;  117,722;   -1,621;    0,409
476,064;   24,443;    1,106;   -1,591
476,650;  141,386;    0,288;    0,318
477,237;   45,750;   -0,258;    0,955
477,824;   22,020;   -1,076;    0,864
478,411;  -69,562;   -1,894;   -0,318
478,997;  -73,078;    0,560;   -0,773
479,584; -119,836;    1,196;   -0,409
480,171;   51,418;   -0,440;   -0,773
480,757;  113,608;    2,651;    0,773
481,344;    4,403;    0,469;    0,409
481,931;  -76,432;    1,105;    1,045
482,517;   54,347;   -1,258;    0,318
483,104;  130,040;    1,106;    2,864
483,690;   -1,569;   -1,804;    0,045
484,276;  -23,151;   -0,895;    0,227
484,863;  193,729;    2,469;    1,136
485,449;   35,287;   -0,077;    0,318
486,035;   -6,371;   -1,986;   -0,136
486,622;   87,527;   -0,895;    0,045
487,208;    6,350;    1,378;    1,500
487,794;  -75,442;    0,741;    0,318
488,380;  -69,278;    0,105;   -1,409
488,967;  -63,374;   -1,168;   -0,409
489,553;  -49,488;   -1,895;   -1,409
490,139;   25,588;    1,559;    0,773
490,725;  -54,548;    0,741;   -0,227
491,311;   -8,172;    3,287;    3,045
491,897;  -22,054;   -0,986;    1,500
492,483;  -10,311;    0,105;    1,227
493,069;  425,404;    3,923;    0,864
493,655;  142,885;    1,650;    0,682
494,241;   17,987;    1,377;   -0,955
494,826;   19,503;    0,287;   -1,045
495,412;   76,264;    2,559;   -0,682
495,998;  -13,904;   -0,805;   -0,318
496,584;   54,737;    0,377;    1,045
497,169;   64,896;    1,014;   -0,682
497,755;   -0,261;    0,650;    1,227
498,341;  135,614;    0,559;    0,318
498,926;  254,637;    1,832;    1,955
499,512;   -7,422;    1,286;    2,955
500,097;   -4,553;    0,195;   -0,318
500,683;   15,519;   -0,350;    2,136
501,268;  -33,793;   -0,169;   -0,955
501,854;   -6,171;   -0,169;    1,227
502,439;  -13,005;   -0,624;   -1,773
503,024;    6,869;    0,195;    0,500
503,610;   31,420;   -0,078;   -0,682
504,195;  -22,536;    0,558;    1,955
504,780;   61,607;    2,922;    1,227
505,366;  153,006;    3,013;    2,864
505,951;   86,373;    0,740;    1,045
506,536;    9,443;   -3,260;   -3,682
507,121;   61,093;    0,285;   -0,318
507,706;   15,484;    2,376;    1,045
508,291;  -40,163;    2,649;    1,136
508,876;  -41,352;   -0,988;    2,591
509,461;    3,365;   -0,169;   -0,773
510,046;   51,361;    0,194;    0,318
510,631;   64,023;   -0,351;   -0,773
511,216;  -21,063;    2,467;   -0,500
511,801;   30,255;   -0,442;    2,591
512,386;   42,791;    0,740;    0,500
512,971;   69,230;   -2,988;    0,955
513,555;   89,567;   -0,897;   -1,500
514,140;   48,483;   -0,442;   -3,136
514,725;  169,744;   -0,715;   -1,136
515,309;   80,052;   -0,533;    0,318
515,894;   -5,627;   -0,624;   -2,227
516,479;   32,192;   -0,624;   -0,955
517,063;   27,292;    0,376;    1,227
517,648;   -8,308;    1,012;   -1,136
518,232;  -30,915;   -0,261;   -1,409
518,817;   64,251;   -0,079;    1,682
519,401;  179,527;    2,194;    0,591
519,985;  169,635;    1,103;    1,136
520,570;   53,834;    0,830;   -1,955
521,154;  175,929;    2,102;    0,591
521,738;  389,277;   -2,352;    2,409
522,323;  241,783;   -0,170;    1,682
522,907;  300,125;    0,466;   -0,136
523,491;  262,062;    0,557;    0,955
524,075;  279,138;    2,284;    0,591
524,659;  621,833;    1,466;    0,591
525,243;  626,994;    1,739;    0,409
525,827;  663,477;    0,648;   -0,045
526,411;  832,106;   -1,989;   -0,136
526,995; 1196,164;   -0,352;    1,409
527,579; 1400,595;   -0,443;   -1,045
528,163; 1577,230;    0,375;   -1,500
528,747; 2016,457;    2,466;   -0,773
529,331; 2295,262;   -0,080;   -1,409
529,915; 2450,918;    1,738;    0,955
530,499; 2865,430;   -0,807;    1,227
531,082; 3235,122;   -0,534;    1,591
531,666; 3463,320;    1,374;    0,773
532,250; 4104,987;    1,284;    2,682
532,833; 4711,332;    0,920;    2,773
533,417; 5032,202;   -1,807;    0,864
534,001; 5416,501;    1,647;   -0,318
534,584; 6348,272;    0,374;    0,500
535,168; 6680,618;    0,465;    1,409
535,751; 7205,817;    0,647;    0,045
536,334; 7171,809;   -0,898;   -0,409
536,918; 8099,997;    0,011;    1,591
537,501; 8578,944;   -0,899;    1,318
538,085; 8988,463;   -0,444;    1,045
538,668; 9472,357;    0,829;    2,409
539,251;10166,069;    1,829;    3,773
539,834;10564,396;    0,101;    0,773
540,418;10865,414;   -1,990;    4,318
541,001;11232,852;   -0,990;    1,773
541,584;11547,796;    2,101;    2,227
542,167;11534,393;    1,374;    2,955
542,750;11902,418;    1,919;   -0,773
543,333;11800,142;    0,555;    2,136
543,916;12755,064;    0,192;    2,500
544,499;13488,941;   -1,354;    0,227
545,082;13740,481;    1,374;    3,591
545,665;14044,804;    1,919;    1,500
546,248;14583,051;    1,010;   -0,318
546,830;14427,790;   -0,445;    1,955
547,413;14993,968;    1,010;   -0,773
547,996;15683,236;    0,555;    0,500
548,579;15563,359;    0,919;    0,955
549,161;15512,353;    1,828;    2,682
549,744;15464,749;   -0,809;    0,409
550,326;16075,131;   -0,809;   -1,136
550,909;16008,226;    2,737;    0,591
551,492;16462,075;   -0,263;    0,227
552,074;16370,605;   -0,173;   -1,318
552,657;17011,854;    2,373;    0,045
553,239;16891,627;   -0,173;   -0,773
553,821;16867,807;   -1,082;    1,045
554,404;16430,084;    1,282;    1,136
554,986;16936,831;    0,464;    1,045
555,568;17596,422;    1,191;   -0,955
556,151;16873,862;    1,191;   -0,227
556,733;17087,967;   -0,264;   -0,864
557,315;17601,352;    0,100;    0,500
557,897;17470,281;    0,554;   -0,500
558,479;17653,242;   -1,991;    1,318
559,061;17861,518;   -0,719;   -0,864
559,643;18202,992;   -0,264;    0,045
560,225;18634,962;    1,645;    2,864
560,807;18716,265;    0,918;    0,318
561,389;18215,105;    0,554;    2,318
561,971;19041,090;    0,463;    2,136
562,553;18926,197;   -1,628;    1,591
563,135;19066,112;   -0,537;    1,136
563,717;18645,524;    3,372;    1,136
564,298;19381,831;    3,645;   -0,045
564,880;19171,101;    0,645;   -1,409
565,462;19354,011;    0,645;    1,318
566,043;20571,923;   -0,446;    2,318
566,625;20179,822;    1,918;    1,227
567,207;20027,988;    1,099;    1,682
567,788;21186,852;   -1,264;    1,500
568,370;22031,594;    1,917;   -0,500
568,951;21880,792;    0,190;    0,227
569,533;22818,722;   -0,628;   -0,500
570,114;23276,857;   -0,446;    0,682
570,695;23855,306;   -0,174;   -1,318
571,277;24412,416;   -0,265;   -1,682
571,858;25151,085;    2,008;   -1,136
572,439;26085,569;    1,554;   -1,045
573,021;26301,452;    2,099;   -2,773
573,602;26827,969;   -1,265;    0,318
574,183;27748,328;   -2,083;    2,227
574,764;27914,631;   -1,629;    0,409
575,345;28500,550;    0,917;   -0,136
575,926;29111,684;   -0,356;    0,136
576,507;29074,506;    1,099;   -0,227
577,088;30272,109;    3,099;    1,682
577,669;30345,068;    0,735;    1,955
578,250;31148,874;    0,644;   -1,045
578,831;31838,425;   -1,356;   -2,227
579,412;32153,598;   -0,810;    0,955
579,993;32983,774;    1,008;    0,227
580,573;33414,362;   -0,629;   -0,955
581,154;32416,929;    0,735;   -0,591
581,735;33278,298;    0,644;    0,773
582,315;32877,298;   -0,629;    2,136
582,896;33095,813;   -0,174;    1,227
583,477;32572,579;    0,189;    1,227
584,057;32760,650;    0,553;    0,955
584,638;33130,411;    2,553;    2,318
585,218;33139,359;   -0,538;    2,682
585,799;33296,864;    0,281;   -0,227
586,379;33285,018;    0,372;    1,591
586,959;31986,122;    0,735;    0,318
587,540;31306,934;   -0,629;    2,227
588,120;30862,952;    1,007;   -0,045
588,700;29867,410;    2,553;    2,136
589,281;30240,205;    0,462;   -0,955
589,861;30202,202;    0,099;   -1,682
590,441;30039,678;    2,371;   -2,682
591,021;29024,947;   -0,265;   -2,591
591,601;29205,805;   -0,537;    0,500
592,181;29244,892;   -0,719;   -0,773
592,761;28510,566;    0,007;    1,409
593,341;28429,170;   -0,901;    0,045
593,921;28465,075;   -0,265;    1,591
594,501;28423,156;   -0,538;    1,318
595,081;28253,181;    0,917;   -0,318
595,661;28652,431;   -1,447;    0,955
596,240;29184,657;   -0,537;    0,136
596,820;28827,697;    0,372;    1,955
597,400;29027,073;    2,008;    0,773
597,980;29217,435;    2,008;    1,045
598,559;29240,773;    2,735;   -0,227
599,139;28957,100;   -0,174;   -1,227
599,718;28878,282;   -0,174;   -0,409
600,298;29124,351;    0,735;    0,682
600,877;29431,280;    2,917;    1,409
601,457;29661,230;    2,281;    1,136
602,036;29600,978;    0,190;    2,045
602,616;29799,880;    0,644;    1,682
603,195;30193,403;   -0,355;    3,500
603,774;29792,424;   -0,901;    2,045
604,354;29645,228;    0,826;   -0,500
604,933;29102,686;    0,463;    1,864
605,512;29249,949;    3,554;    0,591
606,091;29280,760;   -0,537;    3,773
606,671;30116,115;    0,281;    0,773
607,250;29245,042;    1,644;    3,136
607,829;29459,377;    2,372;    3,227
608,408;29307,526;    1,190;    2,591
608,987;28351,514;    1,281;    3,409
609,566;28686,440;   -1,265;   -2,500
610,145;28826,517;   -1,082;    0,682
610,723;29202,678;    4,372;    6,864
611,302;28468,340;   -0,446;    1,682
611,881;28067,868;    5,008;   11,227
612,460;28903,953;    1,645;    3,955
613,039;29301,894;   -0,082;    2,045
613,617;27978,538;    1,736;    4,773
614,196;28164,714;    1,099;    1,227
614,775;28468,024;    1,009;    2,409
615,353;28456,617;    0,736;    0,864
615,932;28187,429;    0,100;    2,409
616,510;28813,924;    0,554;    0,591
617,089;28370,514;    7,100;   17,591
617,667;28099,529;    2,372;    6,136
618,246;27918,089;   -1,537;    1,318
618,824;28149,638;   -3,355;   -0,955
619,402;27688,102;   -2,900;   -1,773
619,981;28177,437;   -0,173;   -1,045
620,559;28019,139;    0,009;    1,682
621,137;27508,251;   -0,718;    1,864
621,715;27607,140;   -1,173;   -0,682
622,293;27489,300;   -0,537;   -0,773
622,871;27924,170;   -0,718;    0,500
623,450;27487,868;    0,373;   -0,864
624,028;27387,345;    0,191;   -0,955
624,606;27036,004;   -1,718;    1,682
625,183;27451,479;   -1,536;   -1,136
625,761;27072,651;    1,009;    1,136
626,339;27390,017;    1,373;    2,591
626,917;27782,731;   -0,172;   -0,045
627,495;27809,156;   -0,354;    1,318
628,073;27225,051;   -0,263;    2,864
628,650;26890,148;    0,100;    2,136
629,228;27391,591;    0,373;    4,409
629,806;26784,893;    2,282;    1,136
630,383;27062,340;    1,464;   -0,318
630,961;26816,472;    2,555;   -0,955
631,539;26597,379;    2,464;    0,227
632,116;25944,836;   11,373;   15,409
632,694;26504,631;    2,555;    6,500
633,271;26882,643;    0,828;    2,682
633,848;26797,681;    1,828;    2,045
634,426;26827,609;   -1,081;    1,773
635,003;25888,972;    1,101;   -0,409
635,580;26212,844;    1,192;    3,682
636,158;26773,159;    3,737;    1,227
636,735;26750,586;    0,555;   -0,500
637,312;26935,603;   -0,809;   -0,682
637,889;27012,439;   -4,354;   -0,682
638,466;26488,880;   -3,990;   -0,409
639,043;26473,465;    2,101;   -1,136
639,620;26895,241;   -2,262;   -0,955
640,197;27159,004;    1,100;    1,682
640,774;27267,345;   -0,172;    1,136
641,351;27719,777;    0,737;    1,136
641,928;27138,299;   -0,627;    1,409
642,505;26775,549;    0,828;   -0,500
643,082;26919,799;   -1,718;    1,227
643,658;25850,958;   -0,718;    1,500
644,235;26665,208;    1,191;    2,500
644,812;27019,277;    1,918;    0,773
645,388;26714,345;   -0,991;    1,409
645,965;26781,413;   -0,809;    1,682
646,542;26923,299;   -1,445;   -0,227
647,118;26926,095;    1,009;   -0,955
647,695;27208,345;   -0,263;    1,136
648,271;27091,595;   -0,536;    0,500
648,848;27416,208;    0,736;    2,227
649,424;27199,004;    0,827;    1,318
650,000;27052,163;   -0,354;   -1,045
650,577;26828,595;   -0,627;   -0,955
651,153;27291,299;   -1,809;    0,955
651,729;28388,004;    1,191;    0,864
652,305;28824,617;    0,645;    2,773
652,881;33885,776;   -0,082;    1,136
653,458;41040,845;    1,100;    0,227
654,034;44706,640;    0,282;    1,591
654,610;46141,981;    0,554;    0,773
655,186;47457,504;    0,645;    3,045
655,762;47044,299;   -0,991;    0,409
656,338;47062,004;    0,100;    0,136
656,913;48129,526;   -0,082;    0,409
657,489;47362,685;    0,827;   -0,318
658,065;47310,299;   -0,173;   -1,591
658,641;47999,458;   -0,900;   -0,864
659,217;47297,617;   -0,991;    0,409
659,792;46775,594;    0,645;   -0,409
660,368;46979,844;   -2,173;   -0,682
660,944;46379,640;   -2,082;    1,227
661,519;41157,708;   -0,628;    0,409
662,095;34846,685;   -1,719;    0,591
662,670;30330,117;    1,281;   -0,136
663,246;29318,276;    1,009;   -0,409
663,821;28704,344;    0,281;    1,682
664,396;28252,776;    0,009;    1,864
664,972;28530,390;    0,009;   -0,500
665,547;28790,549;    1,372;    0,136
666,122;28831,253;   -1,082;    0,318
666,698;29161,140;   -0,173;    0,318
667,273;28502,935;   -0,173;    0,136
667,848;29302,094;    2,372;    1,500
668,423;29092,071;    2,190;    2,318
668,998;29720,867;    2,827;   -0,682
669,573;30308,208;   -3,264;   -1,500
670,148;30042,458;   -1,446;   -0,682
670,723;29886,162;   -1,810;    0,318
671,298;30342,685;    2,372;    1,045
671,873;30459,299;   -0,082;   -0,136
672,448;30431,185;    0,645;    0,136
673,023;30765,708;   -1,992;   -0,227
673,597;31086,776;    0,827;    2,318
674,172;30851,026;   -0,355;    0,318
674,747;30331,276;    0,372;   -1,045
675,321;30133,071;   -0,628;    3,318
675,896;29686,776;    0,645;    1,045
676,471;30760,389;    2,645;    1,591
677,045;30504,821;   -1,264;    0,682
677,620;30576,071;    0,190;    1,136
678,194;30811,594;   -2,628;    1,136
678,769;30444,389;   -1,083;   -0,318
679,343;30739,276;   -0,628;    1,773
679,917;30547,162;   -1,446;    1,955
680,492;30685,867;    0,826;    3,227
681,066;30837,298;    3,372;    0,409
681,640;30849,730;    1,463;   -0,318
682,214;31726,617;    0,735;    0,500
682,788;31229,776;   -1,356;   -0,773
683,363;31184,753;   -1,810;    1,682
683,937;30867,185;   -1,719;   -0,318
684,511;31623,526;    0,463;   -0,591
685,085;31291,594;   -1,356;    0,318
685,659;31062,753;   -2,538;    0,864
686,232;31357,548;   -0,356;   -0,318
686,806;31031,344;   -0,901;    0,409
687,380;31695,503;   -0,174;    0,591
687,954;31958,753;   -1,174;    1,136
688,528;31649,912;   -0,719;    1,955
689,101;32423,526;   -3,992;    1,045
689,675;31963,412;   -0,356;   -0,136
690,249;31365,662;   -0,719;    0,409
690,822;31721,548;    0,280;    0,318
691,396;31806,071;   -0,265;    1,227
691,969;31236,775;    1,280;    0,136
692,543;31717,844;   -0,447;   -1,955
693,116;31317,094;   -0,265;   -1,409
693,690;31211,525;    0,099;    0,500
694,263;31729,684;   -1,083;    2,955
694,836;31780,571;    1,371;    3,591
695,410;30471,275;   -0,265;    1,773
695,983;30935,980;    0,189;    0,591
696,556;30901,594;   -0,447;   -1,045
697,129;31274,844;   -0,356;    1,409
697,703;30857,821;   -1,629;    1,955
698,276;30874,071;    1,462;   -0,773
698,849;30666,139;    1,280;    1,409
699,422;31064,934;   -1,083;    0,591
699,995;30755,639;    0,007;    0,136
700,568;31287,707;   -0,629;    3,045
701,140;31315,957;   -2,811;    1,682
701,713;31023,662;   -0,174;    2,409
702,286;30771,912;   -0,538;    0,864
702,859;30657,162;   -0,902;   -0,591
703,432;29798,957;    0,825;    0,682
704,004;30255,662;    0,462;    0,318
704,577;30193,002;   -0,629;    0,136
705,150;30729,434;    0,189;    2,500
705,722;30470,775;   -0,356;   -3,227
706,295;30266,934;   -0,175;   -0,591
706,867;30139,639;   -0,175;    1,955
707,440;30324,343;   -1,720;   -0,409
708,012;30611,502;    0,462;    0,591
708,584;30547,480;    2,462;    0,227
709,157;30810,911;    1,825;   -0,591
709,729;30422,980;    2,280;    2,045
710,301;31306,502;    0,734;    0,045
710,874;31347,570;   -1,447;   -0,227
711,446;30198,366;    0,371;    0,864
712,018;30089,161;    0,098;    0,500
712,590;29850,866;   -1,993;    1,682
713,162;30282,570;    0,825;    1,318
713,734;30554,639;    1,825;   -2,045
714,306;30464,252;   -1,902;   -0,409
714,878;29140,502;    0,825;    0,864
715,450;29985,752;    0,643;    0,864
716,022;30235,366;    1,552;    1,318
716,593;30331,979;    0,189;    0,591
717,165;30319,502;   -3,175;   -1,227
717,737;30080,207;    0,280;    0,409
718,309;29686,275;    0,280;   -0,045
718,880;29603,888;   -0,539;   -1,409
719,452;29860,775;   -0,175;   -1,591
720,024;29409,570;    0,734;   -0,591
720,595;30007,184;   -2,902;    0,955
721,167;29527,343;    0,370;   -2,045
721,738;29028,775;   -0,812;   -1,045
722,309;29057,297;   -0,993;   -1,227
722,881;28831,638;   -1,357;    0,773
723,452;29419,979;   -2,630;    2,864
724,023;29576,866;   -0,721;    2,682
724,595;29367,116;    0,007;    0,682
725,166;29078,547;    0,007;   -0,409
725,737;28780,161;    1,734;    0,227
726,308;28868,956;   -0,266;    0,318
726,879;29322,206;   -1,630;    1,227
727,450;29127,729;    0,552;   -0,045
728,021;29098,161;    3,097;    0,682
728,592;28867,865;    0,734;    0,500
729,163;29206,206;    0,643;   -0,136
729,734;29278,820;    0,188;   -0,227
730,305;29637,252;    1,734;    0,136
730,876;29964,229;    0,188;    2,955
731,447;29700,752;    2,188;    2,682
732,017;29802,365;    1,097;    1,864
732,588;29219,615;    0,734;    1,227
733,159;29406,502;    0,643;   -1,045
733,729;29296,479;    0,006;    0,409
734,300;28608,820;    0,915;    0,864
734,870;28988,252;    3,461;    0,591
735,441;29572,593;    0,370;   -0,591
736,011;29368,297;    0,643;   -1,591
736,582;29268,274;   -0,812;    0,045
737,152;28747,161;   -1,721;   -2,045
737,722;29169,411;   -0,267;   -0,682
738,293;28891,206;   -1,358;    1,318
738,863;28766,638;    2,461;    2,318
739,433;28538,252;    5,279;    0,318
740,003;29169,229;   -0,994;   -0,682
740,573;28523,752;    2,097;   -1,591
741,143;28495,274;   -1,085;    0,318
741,713;29320,070;    1,188;   -0,500
742,283;29006,865;    0,915;    1,591
742,853;28787,933;    1,915;    1,591
743,423;28261,092;    1,733;    0,045
743,993;28392,797;   -0,358;    1,500
744,563;27707,774;    0,097;   -0,864
745,133;27663,206;   -0,812;   -0,864
745,702;28369,729;   -0,267;    1,773
746,272;27604,706;   -0,176;    0,591
746,842;27363,047;   -1,358;   -0,591
747,411;27799,842;   -0,267;   -0,318
747,981;28011,638;    0,097;    0,500
748,551;27992,797;    2,278;   -1,045
749,120;27850,956;    0,642;   -0,227
749,690;28225,842;   -0,631;    2,409
750,259;28573,910;    1,369;    2,955
750,828;28508,160;    1,551;   -1,955
751,398;28788,683;    1,278;   -0,045
751,967;28280,479;    2,187;    0,409
752,536;28441,547;   -0,813;   -0,227
753,105;28884,524;    0,096;    0,227
753,675;28711,319;    0,096;    1,773
754,244;28609,024;   -0,904;    3,591
754,813;28683,547;    0,551;    1,227
755,382;28258,615;    0,460;    0,955
755,951;28842,228;    1,551;    3,682
756,520;28333,115;   -0,085;    1,864
757,089;28915,728;    0,278;    0,500
757,658;29078,160;    1,733;    1,227
758,227;29078,228;    1,096;    0,318
758,795;29361,206;    1,187;    1,136
759,364;29564,274;   -0,086;   -0,591
759,933;28591,524;   -1,176;   -0,045
760,501;28067,137;    0,733;   -1,318
761,070;28565,387;   -2,813;   -1,409
761,639;29279,365;   -1,904;    1,318
762,207;28656,615;    1,551;   -0,955
762,776;28547,410;    0,369;    0,864
763,344;28481,387;   -0,995;    0,591
763,913;27638,910;   -0,722;    1,409
764,481;28384,796;    1,005;   -0,136
765,049;28124,228;   -1,358;    1,409
765,618;27995,206;   -0,086;    0,318
766,186;28075,365;    0,278;    0,136
766,754;28258,524;    0,005;    1,864
767,322;27253,774;   -1,995;    0,409
767,890;27323,387;   -0,722;   -1,773
768,459;27723,546;   -2,177;   -0,318
769,027;27884,524;    1,641;    3,409
769,595;26787,410;    3,278;    2,591
770,163;27240,842;    3,823;    2,955
770,730;26942,728;    0,732;   -0,136
771,298;26803,524;    0,187;   -1,409
771,866;26931,592;   -1,541;    4,955
772,434;27253,024;   -0,631;   -1,864
773,002;27412,001;    0,005;    0,682
773,569;27039,069;    0,914;    1,682
774,137;26846,228;   -0,268;   -0,045
774,705;27640,842;    0,278;   -0,136
775,272;27149,910;    0,641;    0,682
775,840;26857,796;   -0,177;    2,682
776,407;26380,592;    0,277;    1,955
776,975;25993,569;   -0,632;    0,318
777,542;27025,637;   -1,086;   -0,045
778,110;26874,978;   -1,268;   -0,045
778,677;26505,682;   -2,359;   -0,864
779,244;26260,205;    2,186;    1,045
779,812;26338,455;    1,823;    0,864
780,379;26177,160;    0,005;    1,136
780,946;26456,955;    1,005;   -0,773
781,513;26784,023;   -1,450;    0,318
782,080;26194,273;   -0,086;    2,864
782,647;26992,432;   -0,268;    3,045
783,214;26492,864;   -0,177;    3,864
783,781;26134,569;   -0,723;   -0,682
784,348;25984,091;   -0,632;    1,500
784,915;26407,341;   -3,177;    0,318
785,482;26224,682;    1,368;    2,591
786,049;26656,387;    0,186;   -0,591
786,615;26804,819;    0,277;   -0,955
787,182;26482,796;    0,186;   -0,682
787,749;26152,137;   -2,814;    1,409
788,315;25487,841;   -1,632;   -0,409
788,882;25794,364;    1,550;   -1,227
789,448;26527,978;    1,732;   -0,955
790,015;26492,228;    1,095;    3,227
790,581;26065,205;    1,459;    0,227
791,148;26011,000;    0,641;    1,045
791,714;26209,887;   -0,541;    3,136
792,280;25844,137;    0,186;    1,591
792,847;25373,750;    0,550;    2,500
793,413;25937,182;   -0,269;   -0,318
793,979;25466,705;    3,459;   -1,318
794,545;25588,955;    4,459;    2,682
795,111;24952,659;    2,186;    1,318
795,678;25179,546;    0,731;   -1,682
796,244;24783,796;    3,368;    0,136
796,810;25335,591;    1,731;    0,773
797,375;25097,296;    0,549;   -2,136
797,941;25106,182;   -0,541;    0,591
798,507;25271,341;   -0,451;   -0,955
799,073;24755,046;   -0,360;    0,591
799,639;24801,023;   -2,632;    3,136
800,205;24865,000;    0,095;    2,682
800,770;24388,159;    0,640;    1,773
801,336;24477,682;    1,368;   -0,955
801,901;24198,568;    4,549;    3,136
802,467;24729,909;   -0,542;    2,045
803,033;24028,977;   -0,087;    0,864
803,598;24282,409;    1,913;   -1,045
804,163;24313,477;    1,095;   -0,318
804,729;24260,909;   -0,178;    1,136
805,294;24670,977;    0,822;    2,227
805,859;24419,773;    0,731;   -0,409
806,425;23878,386;    1,186;    2,682
806,990;23554,000;    2,186;    4,318
807,555;24074,250;   -1,451;    2,591
808,120;23925,318;    0,822;   -0,409
808,685;23978,386;    0,185;   -2,500
809,250;23495,273;    0,004;   -0,500
809,815;23786,886;    1,913;    0,682
810,380;24349,045;   -0,269;    1,591
810,945;24900,114;   -1,087;    2,045
811,510;24040,727;    2,094;    1,591
812,075;23766,341;   -0,633;   -1,409
812,640;23776,863;    2,003;    1,409
813,204;23871,841;    0,822;   -0,227
813,769;24345,000;    2,094;   -0,045
814,334;23696,613;    0,458;    0,864
814,898;23776,318;    0,367;    0,591
815,463;23616,932;    1,276;   -0,773
816,027;23579,636;   -0,724;   -2,318
816,592;23633,068;    0,640;   -2,045
817,156;23199,500;    2,094;    1,136
817,721;23039,477;    4,276;    2,318
818,285;22938,091;    2,912;    1,500
818,849;23652,886;   -1,451;    1,682
819,414;23547,682;   -0,269;    2,955
819,978;23092,659;   -1,269;    1,773
820,542;23657,091;    2,003;    0,500
821,106;23361,704;   -0,815;    0,682
821,670;23511,772;   -0,815;    2,591
822,234;23246,659;   -0,270;    1,409
822,798;22555,000;    0,003;    0,500
823,362;22472,704;   -0,633;    4,227
823,926;21789,500;    0,094;    1,136
824,490;22014,750;   -0,997;   -0,682
825,054;22464,181;   -0,088;   -1,136
825,618;22116,886;   -1,542;   -1,500
826,181;22062,863;    0,458;   -1,318
826,745;21996,840;    1,367;   -1,045
827,309;22373,909;    1,185;    1,318
827,872;21718,795;    1,367;    0,955
828,436;22734,045;    1,185;   -0,773
828,999;22767,659;   -0,997;    1,227
829,563;21515,636;   -0,179;    1,136
830,126;21381,613;   -0,179;   -0,591
830,690;21396,772;   -1,997;    2,864
831,253;20947,931;   -0,543;    2,227
831,816;21069,999;   -1,906;    0,500
832,380;20998,613;    0,185;    0,864
832,943;21241,863;   -1,361;   -0,500
833,506;20666,022;    2,639;   -1,227
834,069;21450,999;    3,912;   -0,955
834,632;21504,795;    1,730;    1,318
835,195;21440,681;    1,003;    0,955
835,758;20621,386;   -0,997;    1,955
836,321;20485,181;    0,730;   -1,045
836,884;20523,158;   -0,725;   -0,955
837,447;20539,136;   -2,816;    1,773
838,010;20848,931;    0,366;    3,227
838,573;21125,363;   -1,179;    0,773
839,135;21079,067;   -1,361;   -0,955
839,698;20535,772;    1,275;    0,409
840,261;20042,931;    1,003;   -0,227
840,823;19828,181;   -0,543;    0,864
841,386;20146,886;   -0,452;   -2,409
841,948;20018,863;   -1,361;    1,773
842,511;19730,295;    0,912;    1,682
843,073;19922,363;    1,912;    0,227
843,636;19667,158;   -0,361;   -0,227
844,198;19610,226;    0,911;    0,591
844,760;19775,022;    1,093;    1,955
845,322;19403,908;    0,548;    1,136
845,885;19858,158;    0,730;    0,591
846,447;20245,863;   -1,998;    0,227
847,009;19874,931;    1,911;   -0,682
847,571;20181,999;    0,820;   -2,045
848,133;20291,158;   -1,089;   -1,864
848,695;20118,135;   -0,543;    1,409
849,257;19663,113;   -1,089;   -1,682
849,819;19838,908;   -0,998;   -0,409
850,381;19868,067;   -0,725;   -0,864
850,942;20242,499;    1,093;   -0,591
851,504;20230,931;    1,184;    0,227
852,066;20219,635;    1,275;   -1,591
852,628;19675,613;   -0,180;    1,955
853,189;19228,044;    1,638;    2,682
853,751;19364,749;   -0,907;    1,409
854,312;19158,908;   -0,453;   -1,682
854,874;19729,522;   -2,089;   -0,773
855,435;20255,044;   -0,907;   -1,682
855,997;20430,931;   -1,816;   -0,136
856,558;19707,090;    0,366;    1,773
857,119;19774,340;    0,820;    2,864
857,681;19455,681;    0,002;    0,318
858,242;19515,112;    1,911;   -2,136
858,803;19972,999;    0,456;   -0,773
859,364;20571,158;    0,184;   -4,773
859,925;19827,317;   -2,453;   -0,955
860,486;19757,203;   -0,453;   -0,955
861,047;19448,635;   -0,544;   -1,227
861,608;19301,521;   -1,089;   -0,773
862,169;19384,590;    0,638;   -0,045
862,730;19150,021;    0,456;    1,409
863,291;19426,453;   -0,635;   -0,500
863,852;19792,885;   -0,635;    1,955
864,412;19233,408;   -0,271;   -0,864
864,973;17768,567;   -0,089;    0,500
865,534;17645,726;   -1,726;    0,227
866,094;19193,703;    1,820;    0,227
866,655;18822,044;    1,274;    3,318
867,215;19081,203;    0,274;    0,136
867,776;18921,271;    0,547;   -0,136
868,336;19055,976;   -1,453;    0,136
868,897;18533,044;    2,638;    1,682
869,457;18262,476;    1,365;    0,318
870,017;18456,180;    0,547;   -1,227
870,578;18980,703;   -0,817;    0,773
871,138;18680,044;   -2,089;   -0,955
871,698;18226,567;   -0,817;   -1,318
872,258;18134,362;   -0,453;   -2,864
872,818;18460,248;    2,729;    0,045
873,378;18395,498;    0,638;    1,045
873,938;17946,567;    0,547;    0,500
874,498;18303,271;    0,274;   -1,955
875,058;18175,885;    2,183;    1,773
875,618;17990,771;    1,910;   -2,682
876,177;17957,566;    1,274;    0,136
876,737;17561,907;   -0,090;    1,955
877,297;17586,976;    0,183;    1,955
877,856;17561,407;   -0,362;    0,318
878,416;17532,476;    1,183;   -0,136
878,976;17740,907;   -1,817;    0,409
879,535;17888,885;    0,092;    3,136
880,095;17638,771;   -0,544;    0,045
880,654;17770,475;   -1,090;    1,318
881,213;17882,089;    2,456;    1,500
881,773;17468,794;    2,637;    2,682
882,332;17892,953;    3,365;    5,136
882,891;17728,566;    3,092;    2,136
883,451;18224,544;   -1,272;    1,682
884,010;17597,703;   -2,908;   -0,409
884,569;17734,134;   -0,999;   -0,045
885,128;17868,657;    2,819;   -1,864
885,687;17941,725;    4,455;    0,682
886,246;17654,884;    1,455;    2,136
886,805;17388,407;    2,455;    2,045
887,364;17659,112;   -0,999;   -0,500
887,922;18041,725;   -1,181;    0,045
888,481;17542,703;   -1,545;    0,591
889,040;17878,771;    1,183;    2,136
889,599;18542,748;    2,455;    1,409
890,157;18589,089;    1,455;    2,409
890,716;18258,248;   -0,090;    0,227
891,274;18096,862;    0,092;   -1,136
891,833;18580,202;    1,546;    0,864
892,391;18439,998;   -0,454;    0,500
892,950;18536,702;    1,819;   -0,773
893,508;18916,952;    0,455;   -0,409
894,067;18192,293;    0,637;    0,136
894,625;18088,271;   -0,636;   -1,500
895,183;18307,430;   -0,363;   -0,682
895,741;18212,680;    1,728;   -1,773
896,299;18042,021;   -0,545;   -2,409
896,858;18258,816;    0,819;   -1,591
897,416;18334,975;    2,728;   -1,318
897,974;18116,316;    1,819;    0,318
898,532;18264,748;    6,091;    2,682
899,089;18157,725;    2,091;   -0,682
899,647;18170,975;   -1,454;    1,318
900,205;17905,680;    1,182;    1,045
900,763;18073,202;   -0,454;    0,227
901,321;18108,089;    2,364;   -1,409
901,878;17530,884;   -1,000;   -0,773
902,436;17348,225;   -1,363;    1,318
902,994;17770,748;    4,728;    3,682
903,551;17220,270;    0,728;    0,409
904,109;17631,248;    0,182;   -1,409
904,666;17182,498;    2,455;    1,045
905,224;17038,020;    0,182;   -0,409
905,781;16733,998;    0,727;   -0,318
906,338;16792,066;   -1,363;    1,045
906,895;16726,407;    0,637;    2,045
907,453;16647,020;    1,727;    1,136
908,010;16701,088;   -0,909;    0,409
908,567;16316,066;    1,273;    0,591
909,124;15768,679;    0,364;   -1,500
909,681;15889,020;   -2,909;    0,682
910,238;16022,997;    0,636;   -1,318
910,795;16305,793;   -0,273;   -1,136
911,352;15906,520;   -2,909;   -2,682
911,909;15313,429;   -1,364;   -0,864
912,466;15861,338;   -3,182;    1,500
913,022;15415,611;   -1,636;    0,500
913,579;15743,702;   -0,909;    2,045
914,136;15423,702;    1,636;    0,955
914,692;15775,157;    0,091;   -1,227
915,249;15370,247;    1,455;    0,409
915,806;15630,702;    0,182;    1,955
916,362;15363,702;    1,909;    1,864
916,918;14912,884;    2,000;    1,045
917,475;14868,793;   -1,182;    0,955
918,031;14917,429;    3,364;   -0,045
918,587;14324,884;   -0,909;   -0,318
919,144;14603,884;   -2,273;    0,227
919,700;14960,247;    1,727;    0,773
920,256;14510,247;    0,727;    0,045
920,812;14069,157;   -0,727;   -1,045
921,368;14051,975;   -1,727;   -1,045
921,924;13710,702;    0,182;   -0,136
922,480;13257,520;   -0,545;    1,227
923,036;13903,975;    1,273;    1,955
923,592;13840,247;    0,455;    0,318
924,148;13772,702;    0,455;   -0,955
924,704;13070,975;   -1,364;   -0,409
925,259;13307,611;   -0,273;    0,591
925,815;13053,247;    1,455;    0,500
926,371;12561,247;    2,909;    1,409
926,926;12441,975;    2,091;    0,591
927,482;12041,702;   -1,364;    0,773
928,037;11926,066;    0,909;    2,045
928,593;12207,520;    1,636;    1,045
929,148;12016,157;   -1,818;   -1,500
929,704;11530,884;   -1,455;   -0,500
930,259;11728,429;    0,091;   -0,136
930,814;10786,702;   -0,818;    1,955
931,369;10457,429;    1,091;   -0,773
931,925;10324,520;   -0,091;    0,136
932,480;10226,611;   -2,818;   -2,591
933,035;10088,793;    0,545;   -0,318
933,590; 9858,884;    0,364;   -1,773
934,145; 9444,520;   -1,364;   -0,318
934,700; 9783,429;    0,455;   -0,591
935,255; 9600,247;   -0,091;    0,045
935,809; 8857,975;    3,182;    0,864
936,364; 7937,520;   -0,455;   -0,136
936,919; 7881,247;    0,455;   -1,773
937,474; 7787,520;    1,455;    0,136
938,028; 7545,157;   -1,636;    1,136
938,583; 6982,793;    1,818;    4,682
939,138; 7237,338;    2,091;    2,136
939,692; 6611,611;    1,636;   -1,136
940,247; 6352,066;   -0,727;   -1,045
940,801; 5875,611;   -0,636;    0,227
941,355; 5743,066;   -0,364;    2,591
941,910; 5389,793;   -0,273;   -2,136
942,464; 5510,157;   -0,818;   -0,318
943,018; 5268,793;    1,000;   -0,227
943,572; 5216,157;    2,545;   -0,682
944,126; 4616,793;    0,091;   -0,409
944,681; 4491,611;    3,091;    0,227
945,235; 4468,520;    1,000;   -0,591
945,789; 4430,429;    0,364;   -1,864
946,342; 4506,338;    0,455;   -0,591
946,896; 4311,157;   -2,273;    0,955
947,450; 4086,520;    1,545;   -0,227
948,004; 4273,520;    1,727;   -0,045
948,558; 4263,429;    0,273;   -0,864
949,111; 4172,157;   -0,273;   -0,318
949,665; 4214,975;    1,636;   -0,682
950,219; 4086,611;   -0,091;   -1,045
950,772; 4162,884;   -1,909;    1,864
951,326; 4043,702;    0,545;   -0,955
951,879; 4193,702;    0,727;   -2,318
952,433; 4199,520;    0,000;    2,227
952,986; 4030,429;    2,909;    0,682
953,539; 3988,520;   -0,273;    0,591
954,093; 3899,429;    0,545;   -1,318
954,646; 4033,702;    0,909;    1,318
955,199; 3847,884;    0,000;   -0,500
955,752; 3725,247;   -0,455;    1,773
956,305; 3695,247;   -0,091;    2,955
956,858; 3870,066;    0,818;   -0,318
957,411; 4027,975;   -0,545;    2,136
957,964; 3848,429;    1,364;    2,136
958,517; 3862,611;   -1,545;    3,136
959,070; 3683,884;   -0,455;    1,955
959,623; 3747,611;    1,091;    1,500
960,176; 3499,338;    1,727;    2,045
960,728; 3479,884;   -2,727;    0,773
961,281; 3540,884;    0,545;    0,500
961,834; 3599,157;   -0,909;    0,864
962,386; 3513,247;    1,727;    1,045
962,939; 3432,157;    0,364;   -0,318
963,491; 3584,066;    0,455;    1,136
964,043; 3458,975;    1,182;    2,409
964,596; 3578,429;   -1,000;    2,227
965,148; 3437,520;   -1,000;    1,773
965,700; 3331,611;    1,091;   -0,227
966,253; 3484,611;   -0,636;    0,318
966,805; 3301,702;   -2,273;    0,773
967,357; 3372,338;    1,091;   -1,500
967,909; 3323,884;    0,455;   -1,227
968,461; 3430,157;    0,545;    3,136
969,013; 3369,429;   -0,182;   -0,864
969,565; 3441,429;   -0,455;   -1,136
970,117; 3476,793;   -0,364;    1,045
970,669; 3304,247;    0,182;   -0,136
971,220; 3189,975;   -0,455;   -1,500
971,772; 3100,520;   -0,636;   -0,318
972,324; 3232,793;    0,091;   -0,500
972,876; 3180,884;    0,818;   -0,045
973,427; 3313,702;    1,909;   -1,045
973,979; 3284,611;   -0,727;   -2,500
974,530; 3317,702;    1,818;    1,318
975,082; 3326,702;   -0,545;    1,682
975,633; 3241,611;    1,091;    1,682
976,184; 3369,429;    0,909;    0,773
976,736; 3138,975;    0,091;    0,227
977,287; 2941,066;   -0,909;   -0,500
977,838; 3122,338;    0,909;   -0,318
978,389; 3161,338;   -1,000;   -0,500
978,940; 3041,975;    0,545;   -0,409
979,491; 3094,247;    0,091;   -0,500
980,042; 3060,429;    0,182;    3,045
980,593; 3110,247;   -2,545;    0,227
981,144; 3149,793;    2,545;   -0,500
981,695; 3103,793;    1,455;    1,500
982,246; 3075,793;   -0,273;    1,045
982,797; 3252,338;   -1,727;    0,682
983,347; 3338,247;    0,364;    0,591
983,898; 3502,793;    3,091;    0,409
984,449; 3312,793;    2,182;    0,773
984,999; 3220,611;    1,455;   -1,136
985,550; 2994,429;    0,182;   -0,318
986,100; 3031,793;   -0,455;   -0,318
986,651; 3078,157;   -0,818;    0,045
987,201; 3058,611;   -1,000;   -0,591
987,751; 3136,429;    0,818;    2,864
988,302; 3123,157;    2,636;    1,500
988,852; 3159,611;    0,455;   -1,136
989,402; 3200,157;    0,091;    0,682
989,952; 3089,247;   -2,182;    0,864
990,502; 3212,247;   -0,091;    0,682
991,052; 3147,611;   -0,727;    0,045
991,602; 3023,702;   -2,909;    1,318
992,152; 3031,702;    0,455;    0,682
992,702; 3025,429;    1,364;   -0,045
993,252; 2927,157;   -3,000;   -0,500
993,802; 3011,157;   -0,273;    1,318
994,352; 3277,338;   -1,545;    1,136
994,901; 3355,338;   -0,182;    3,227
995,451; 3259,702;   -0,182;    0,318
996,000; 3353,793;    1,636;    0,318
996,550; 3060,884;    2,273;    0,227
997,100; 3041,884;    1,273;   -0,045
997,649; 3341,520;    2,182;    0,955
998,198; 2969,975;    1,727;   -1,500
998,748; 3177,338;    1,091;   -2,318
999,297; 3074,066;   -0,818;   -0,409
999,846; 3134,975;    1,000;   -0,773
1000,395; 3202,247;   -0,818;    0,500
1000,945; 3149,611;    1,818;   -0,773
1001,494; 3227,066;    2,364;    0,682
1002,043; 3207,338;    4,636;    0,864
1002,592; 3052,066;   -1,091;    1,955
1003,141; 3222,884;   -0,455;   -0,682
1003,690; 3068,793;    1,727;    0,500
1004,238; 3151,157;    1,455;   -0,045
1004,787; 2765,975;    1,364;    1,227
1005,336; 3009,157;    0,364;    0,682
1005,885; 3150,702;    1,364;   -2,773
1006,433; 3306,429;    0,545;    0,955
1006,982; 3353,066;    0,455;    1,682
1007,531; 3277,793;   -1,818;   -0,227
1008,079; 3233,338;   -2,273;    0,500
1008,627; 3360,702;   -1,455;    0,409
1009,176; 3101,066;    0,000;   -1,955
1009,724; 3155,520;    1,091;    0,864
1010,273; 3200,975;    1,273;    0,500
1010,821; 3313,611;    0,091;    1,409
1011,369; 3049,520;   -1,364;    1,318
1011,917; 3018,247;   -1,364;   -0,591
1012,465; 3293,793;    1,273;   -1,591
1013,013; 3410,247;    2,091;   -1,682
1013,561; 3290,247;    0,455;   -0,773
1014,109; 3338,975;   -1,909;    1,682
1014,657; 3212,157;    0,364;    0,591
1015,205; 3350,429;    1,636;   -0,955
1015,753; 3387,338;   -0,545;   -1,409
1016,301; 3434,884;   -2,636;    3,045
1016,848; 3417,338;   -1,273;    0,409
1017,396; 3465,702;    2,545;    0,045
1017,944; 3597,975;    1,182;    1,864
1018,491; 3344,975;    0,273;    1,409
1019,039; 3490,884;    0,455;    0,591
1019,586; 3395,884;   -1,364;    1,682
1020,134; 3503,702;    0,455;    1,500
1020,681; 3525,975;    0,182;   -1,136
1021,228; 3527,702;    2,909;   -2,227
1021,776; 3361,884;    1,182;   -1,136
1022,323; 3595,793;    0,455;    0,773
1022,870; 3525,429;   -1,000;   -0,045
1023,417; 3395,884;    2,636;    1,864
1023,964; 3546,793;    2,636;    1,227
1024,511; 3395,884;    1,000;    0,773
1025,058; 3197,157;    3,182;   -0,045
1025,605; 3233,793;   -2,273;    3,136
1026,152; 3464,247;    1,727;   -0,591
1026,699; 3175,247;    1,818;    1,318
1027,245; 3349,975;   -0,091;    0,318
1027,792; 3548,702;   -1,000;    1,409
1028,339; 3441,338;    2,364;   -0,045
1028,885; 3298,884;    1,000;   -0,227
1029,432; 3240,793;   -0,091;    0,227
1029,978; 3308,975;   -1,000;   -1,591
1030,525; 3210,702;    1,000;    0,409
1031,071; 3464,884;   -1,364;    1,136
1031,618; 3547,157;    0,364;    1,682
1032,164; 3332,157;   -0,091;    3,045
1032,710; 3400,611;    1,636;   -1,500
1033,256; 3310,793;   -0,636;   -0,136
1033,803; 3283,520;   -0,545;    1,500
1034,349; 2982,247;   -1,364;    0,136
1034,895; 3131,702;    0,000;   -0,318
1035,441; 3123,884;   -0,818;    0,318
1035,987; 3127,793;   -2,364;   -0,682
1036,533; 3120,157;   -1,455;   -0,955
1037,078; 3333,429;    1,455;    1,682
1037,624; 3142,338;    2,455;   -0,955
1038,170; 3192,611;    0,455;   -0,318
1038,716; 3095,793;    1,636;   -0,409
1039,261; 2989,338;   -2,273;   -0,773
1039,807; 2926,611;   -0,091;    3,409
1040,352; 2978,520;   -1,909;   -0,318
1040,898; 3031,611;   -1,545;   -0,682
1041,443; 2944,247;   -1,455;   -2,591
1041,989; 2949,429;    1,091;    1,591
1042,534; 2822,247;   -0,364;    2,591
1043,079; 2954,338;    2,909;    0,955
1043,625; 2745,338;    1,818;    0,500
1044,170; 2785,157;   -1,364;    1,045
1044,715; 3037,611;    2,455;    0,955
1045,260; 2858,338;    2,182;   -0,955
1045,805; 2910,066;    1,182;   -0,591
1046,350; 2823,157;    1,364;   -0,409
1046,895; 2775,247;    2,909;    1,591
1047,440; 2725,793;    5,364;    0,409
1047,985; 2625,702;    2,818;   -0,955
1048,530; 2546,338;    1,545;    1,227
1049,074; 2624,975;    0,000;    0,318
1049,619; 2591,429;   -1,364;    1,955
1050,164; 2392,611;    0,455;    0,227
1050,708; 2423,520;   -0,455;    0,045
1051,253; 2791,429;    1,273;   -2,227
1051,797; 2500,066;    0,818;   -1,318
1052,342; 2525,429;   -1,182;    1,045
1052,886; 2523,702;    0,364;   -1,409
1053,430; 2392,975;   -1,364;    0,136
1053,975; 2411,247;   -0,818;   -0,318
1054,519; 2389,975;   -0,727;    3,227
1055,063; 2398,520;    0,909;    1,318
1055,607; 2290,884;   -0,182;    0,227
1056,151; 2325,157;    2,909;    1,682
1056,695; 2229,611;    2,273;   -1,136
1057,239; 2299,247;   -1,727;   -0,682
1057,783; 2301,611;    0,818;   -1,500
1058,327; 2230,611;    0,000;    1,409
1058,871; 2456,429;   -0,545;    1,318
1059,415; 2171,338;   -0,818;   -0,045
1059,958; 2441,611;    1,455;    2,591
1060,502; 2162,702;   -1,000;   -0,773
1061,046; 2063,338;    0,364;   -0,955
1061,589; 2032,884;   -3,000;   -1,136
1062,133; 1924,429;   -1,273;    1,864
1062,676; 1858,066;    1,182;    0,864
1063,220; 1861,338;    1,091;    0,500
1063,763; 1873,157;    0,909;    1,136
1064,306; 1960,975;   -0,909;    1,864
1064,849; 1838,884;   -0,909;    0,591
1065,393; 1857,429;    2,000;   -1,500
1065,936; 1980,793;    0,182;   -0,409
1066,479; 1855,884;   -1,455;    1,318
1067,022; 1868,247;   -0,273;   -0,227
1067,565; 1760,611;   -0,091;   -1,318
1068,108; 1786,702;    0,727;   -0,591
1068,651; 1771,793;   -0,636;    1,409
1069,194; 1704,429;   -0,455;   -1,682
1069,736; 1699,975;   -1,273;    0,955
1070,279; 1676,975;   -1,364;   -0,500
1070,822; 1714,975;   -2,000;   -0,318
1071,364; 1814,520;   -0,364;    1,318
1071,907; 1642,247;   -0,727;    3,227
1072,450; 1531,338;    0,000;   -0,045
1072,992; 1515,429;   -0,273;    3,136
1073,535; 1677,066;    2,091;    2,136
1074,077; 1469,429;   -0,727;    2,045
1074,619; 1430,066;   -1,364;    0,591
1075,161; 1455,520;   -1,091;    1,500
1075,704; 1653,338;    1,545;    1,227
1076,246; 1433,247;   -0,182;    0,682
1076,788; 1358,611;   -0,364;    1,773
1077,330; 1414,884;    1,273;    2,136
1077,872; 1384,066;    0,909;    0,955
1078,414; 1607,611;    2,727;    0,773
1078,956; 1344,975;    1,273;   -0,227
1079,498; 1614,702;    1,636;    0,318
1080,040; 1309,793;    1,909;   -1,318
1080,581; 1263,793;    1,636;   -0,318
1081,123; 1184,611;    0,091;   -0,773
1081,665; 1234,975;   -1,182;   -0,955
1082,206; 1543,338;    1,364;   -0,500
1082,748; 1381,884;    0,727;    2,045
1083,289; 1270,520;   -2,000;    1,318
1083,831; 1164,338;   -0,545;    0,227
1084,372; 1197,702;    0,000;    0,591
1084,913; 1213,611;    1,091;    0,864
1085,455; 1172,793;   -1,909;   -2,045
1085,996; 1143,975;   -2,273;    0,136
1086,537; 1163,702;   -0,091;    0,864
1087,078; 1199,611;   -0,909;   -2,136
1087,619; 1243,429;   -1,273;    0,227
1088,160; 1160,066;    0,000;    1,318
1088,701; 1151,702;   -1,091;    0,682
1089,242; 1085,884;    1,364;   -2,227
1089,783; 1173,338;   -0,273;    1,409
1090,324; 1138,520;    0,455;    0,682
1090,865; 1026,520;    2,727;   -0,409
1091,405;  989,157;    0,727;    2,227
1091,946; 1017,520;    0,182;   -0,955
1092,487;  934,611;    0,818;   -1,409
1093,027; 1115,884;   -1,364;   -1,500
1093,568;  957,702;   -0,364;    1,227
1094,108; 1055,611;    0,273;    1,773
1094,649; 1001,429;   -1,182;    0,136
1095,189;  937,429;   -0,636;   -0,682
1095,729;  894,338;   -0,091;    0,955
1096,269;  895,793;    0,727;   -0,955
1096,810; 1214,247;   -1,364;    0,500
1097,350; 1033,157;    1,364;   -0,773
1097,890;  933,157;    0,364;    1,227
1098,430; 1186,884;    2,364;    2,864
1098,970; 1063,066;    2,182;    1,682
1099,510;  915,520;    0,545;   -2,318
1100,050;  826,793;    1,000;   -1,591
1100,589;  800,520;   -0,727;   -0,318
1101,129;  935,066;    0,818;   -0,955
1101,669; 1096,793;    1,727;    2,136
1102,209;  903,066;   -0,091;    2,227
1102,748;  865,975;    0,000;    0,955
1103,288;  856,702;    1,273;   -1,227
1103,827;  895,066;    3,091;   -2,227
1104,367;  755,520;   -0,091;   -2,409
1104,906;  714,793;    1,364;   -1,136
1105,445;  788,793;    0,636;   -1,136
1105,985;  727,975;   -0,727;    1,500
1106,524;  791,429;   -1,727;   -0,682
1107,063;  753,520;   -2,727;    1,409
1107,602;  726,611;   -1,909;   -1,500
1108,141;  652,611;   -1,909;    1,500
1108,680;  761,884;   -3,455;   -0,591
1109,219;  697,429;   -0,909;   -0,500
1109,758;  690,793;    0,455;    0,682
1110,297;  658,702;    1,000;   -0,682
1110,836;  613,975;   -0,727;    0,955
1111,375;  782,429;   -2,545;    0,409
1111,913;  783,066;   -1,000;    0,773
1112,452;  725,520;   -0,273;    0,136
1112,991;  611,338;    1,091;    1,955
1113,529;  566,520;   -0,818;   -0,045
1114,068;  634,066;   -0,273;    2,955
1114,606;  535,611;   -0,364;   -0,955
1115,144;  698,247;   -1,273;    1,045
1115,683;  637,247;   -0,727;    0,318
1116,221;  683,884;   -0,455;   -0,864
1116,759;  583,338;    0,636;   -0,864
1117,297;  793,066;    0,000;    1,864
1117,836;  603,702;   -2,182;   -1,227
1118,374;  615,884;    0,182;   -0,682
1118,912;  547,793;    0,909;    2,682
1119,450;  532,611;    1,000;    0,864
1119,988;  588,338;    1,545;    2,136
1120,525; 1050,884;    5,091;    3,318
1121,063;  743,520;    1,182;    1,864
1121,601;  545,338;   -0,909;   -1,227
1122,139;  498,247;   -0,727;   -2,045
1122,676;  707,247;   -0,727;    2,773
1123,214;  636,611;   -1,182;    4,409
1123,751;  436,338;    1,727;    2,227
1124,289;  586,520;   -0,091;   -0,409
1124,826;  438,520;    1,727;    0,227
1125,364;  363,975;    1,727;   -0,955
1125,901;  559,975;    1,182;    1,227
1126,438;  671,338;    0,818;    0,955
1126,975;  400,157;   -0,727;   -0,773
1127,513;  464,520;    0,273;    2,136
1128,050;  355,520;    1,636;   -0,682
1128,587;  465,793;    2,000;   -0,227
1129,124;  512,520;    0,091;    1,318
1129,661;  376,793;    0,273;    0,227
1130,198;  547,338;    1,636;    0,773
1130,734;  494,702;    0,182;    1,409
1131,271;  342,066;   -0,909;    0,864
1131,808;  525,793;    2,909;    3,045
1132,345;  394,520;    1,545;    0,318
1132,881;  260,066;   -1,545;   -1,864
1133,418;  404,157;    0,727;   -1,136
1133,954;  334,975;    2,455;   -2,682
1134,491;  409,066;    1,364;   -0,773
1135,027;  306,247;    2,364;    0,864
1135,564;  404,429;    0,273;    2,955
1136,100;  380,975;    0,364;    2,136
1136,636;  267,338;   -1,273;   -1,045
1137,172;  366,338;    0,000;   -1,045
1137,708;  290,520;   -1,364;   -1,045
1138,245;  290,611;    1,273;   -1,227
1138,781;  243,429;    1,091;   -3,318
1139,317;  321,157;    1,273;   -1,409
1139,852;  299,157;    3,091;    0,136
1140,388;  424,338;   -1,182;   -0,409
1140,924;  300,429;   -1,091;   -2,227
1141,460;  237,884;   -1,636;    0,136
1141,996;  166,793;   -1,364;    2,682
1142,531;  211,884;    1,364;    3,318
1143,067;  445,520;    1,182;    1,045
1143,602;  506,520;   -0,091;   -0,318
1144,138;  340,338;   -2,636;    1,045
1144,673;  197,520;   -1,455;    1,409
1145,209;  280,157;   -1,909;   -0,318
1145,744;  194,157;   -0,727;    0,864
1146,279;  334,520;    1,818;   -0,136
1146,815;  244,429;    1,545;   -2,682
1147,350;  289,157;   -1,364;    0,045
1147,885;  197,884;   -0,818;   -1,318
1148,420;  194,520;   -2,273;    0,773
1148,955;  168,975;   -1,727;    1,864
1149,490;  199,793;   -0,909;   -1,591
1150,025;  181,611;    0,455;   -1,773
1150,560;  310,429;    1,091;   -0,955
1151,094;  275,066;    1,455;   -0,591
1151,629;  278,429;    1,636;    0,864
1152,164;  190,247;    1,364;    1,318
1152,698;  152,793;   -0,182;   -0,136
1153,233;  110,975;    0,091;   -0,682
1153,767;  162,157;   -3,000;   -2,318
1154,302;  201,066;   -1,455;    1,773
1154,836;  207,157;   -0,455;   -2,136
1155,371;  269,520;   -1,364;    3,682
1155,905;  222,793;   -0,636;    1,682
1156,439;  186,066;   -0,636;   -0,500
1156,973;  219,429;    0,364;    0,318
1157,507;  144,611;   -0,364;    0,682
1158,042;  174,884;   -0,727;    1,045
1158,576;  238,884;    0,182;    1,773
1159,110;  222,611;   -0,818;    2,409
1159,643;  191,520;    0,636;   -0,045
1160,177;  121,157;   -1,545;    1,500

