
Integration time [ms]:   0,040
Averaging Nr. [scans]: 11
Smoothing Nr. [pixels]: 0
Data measured with spectrometer [name]: 7318044SP
Wave   ;Sample   ;Dark     ;Reference
[nm]   ;[counts] ;[counts] ;[counts] 

186,757;    7,089;   31,551;    1,318
187,357;   28,331;   22,551;    0,955
187,958;    2,049;   15,460;   -1,591
188,558;   40,623;    8,915;   -1,227
189,159;   11,257;    6,733;   -4,500
189,759;  -13,054;    7,278;   -3,591
190,360;  -14,604;    2,824;   -2,136
190,960;   10,502;    2,915;   -4,136
191,560;   24,247;    3,189;   -6,591
192,161;  234,750;    4,372;   -3,500
192,761;   92,289;    4,010;   -3,227
193,361;   41,758;    1,556;   -3,773
193,962;   73,237;    2,010;   -2,682
194,562;   11,914;    1,189;   -3,955
195,162;   18,004;   -2,448;   -2,227
195,762;  134,464;   -3,176;   -0,045
196,362;   92,532;    1,370;   -2,500
196,963;   -1,520;    2,006;   -0,864
197,563;   48,629;    1,551;   -0,955
198,163;   -0,320;    0,096;   -0,682
198,763;    8,160;    1,733;   -0,500
199,363;   60,509;    3,096;   -0,500
199,963;   33,328;    0,369;    0,409
200,563;   15,707;    2,823;   -1,409
201,163;   -6,897;    3,277;   -0,227
201,763;   28,529;    3,732;    0,318
202,363;    1,367;    1,459;    1,500
202,963;   34,795;    1,459;    1,045
203,563;   83,037;    0,277;    0,500
204,162;   18,969;    2,096;   -1,864
204,762;    9,124;    0,550;    0,591
205,362;   -7,460;    3,004;    1,955
205,962;   14,189;    3,096;    1,955
206,562;    6,157;    1,823;    2,318
207,161;   -0,663;   -0,087;    0,318
207,761;   81,008;    1,277;    2,409
208,361;   13,708;   -0,268;    1,409
208,960;   26,921;    0,459;    1,500
209,560;   22,051;    1,277;    1,591
210,160;   32,243;    0,550;    1,864
210,759;   14,491;    4,186;    1,227
211,359;   -0,409;    1,459;    1,045
211,958;  104,715;    1,277;    2,045
212,558;  110,681;    1,732;    1,864
213,157;   45,119;    1,822;    1,500
213,757;  186,807;    3,822;   -0,227
214,356;   69,384;    1,277;   -0,409
214,956;  166,732;    3,095;    0,409
215,555;   47,472;    2,095;    2,136
216,154;   12,686;   -2,723;   -0,591
216,754;    9,220;    0,277;    0,773
217,353;   23,795;   -0,268;   -1,045
217,952;  -18,986;   -0,178;    0,318
218,552;   48,474;    1,368;   -0,773
219,151;    7,484;    0,277;    0,955
219,750;   -3,252;    0,004;   -0,227
220,349;  -18,529;   -0,451;    1,045
220,948;   46,551;   -1,360;    1,136
221,548;   -5,014;    0,913;    1,227
222,147;   11,535;   -0,087;   -0,409
222,746;   90,625;   -0,451;   -0,955
223,345;   35,562;    0,731;    0,500
223,944;   32,785;   -0,451;    0,773
224,543;   40,165;    1,004;   -1,409
225,142;   25,099;    0,094;    0,136
225,741;   31,247;   -0,814;    1,045
226,340;   22,217;   -0,451;   -0,955
226,939;   75,341;   -0,996;   -0,136
227,538;   12,717;   -0,360;   -0,773
228,137;   76,264;   -0,814;    0,864
228,735;   48,076;   -0,541;    1,227
229,334;  -17,754;   -0,905;   -0,227
229,933;   70,140;    0,459;    0,591
230,532;   76,163;    1,186;   -0,409
231,131;  131,604;    1,732;    0,318
231,729;   55,021;   -2,450;   -2,318
232,328;   13,972;   -0,723;   -1,500
232,927;   22,083;    1,004;   -0,500
233,525;   18,537;    3,640;    0,045
234,124;   36,403;    2,368;   -1,591
234,723;   -4,369;    0,913;   -1,045
235,321;   -7,037;    2,277;    0,136
235,920;    8,390;    1,186;   -1,227
236,518;   82,995;    3,459;    0,318
237,117;    6,777;    0,004;   -0,227
237,715;   15,947;    0,640;   -0,500
238,314;   19,089;   -0,087;   -2,318
238,912;   76,485;   -0,723;   -1,409
239,510;   44,098;    0,459;   -1,227
240,109;   93,160;    0,004;    3,773
240,707;   79,429;   -0,996;    1,227
241,305;    6,047;    0,550;    0,136
241,904;   33,865;   -0,178;   -2,045
242,502;  104,246;   -0,632;   -0,227
243,100;   47,299;   -0,087;   -0,955
243,698;    1,742;    0,732;    1,682
244,297;   29,616;   -0,632;    0,682
244,895;   24,679;   -0,269;   -2,318
245,493;   97,976;    2,186;   -0,591
246,091;  101,103;    1,368;   -1,318
246,689;   56,370;    1,004;    0,591
247,287;   54,605;    0,822;   -1,136
247,885;   31,628;   -1,451;    1,227
248,483;   12,021;    1,822;   -0,500
249,081;   62,341;    0,185;    1,591
249,679;   65,259;   -0,178;    1,682
250,277;    9,679;   -1,723;    0,864
250,875;   69,396;   -1,087;   -1,045
251,473;   25,997;   -1,178;    0,500
252,071;   75,931;    1,459;    1,045
252,669;   34,240;   -1,814;    0,318
253,267;   11,343;   -0,087;    0,773
253,864;   41,514;   -0,360;    0,682
254,462;  110,520;    1,640;    1,591
255,060;   19,492;   -0,269;    1,318
255,658;   18,331;    0,822;   -0,136
256,255;   46,145;    0,186;   -2,045
256,853;   67,265;   -0,269;    1,409
257,451;   42,419;    0,822;    1,864
258,048;  267,391;    1,822;    1,864
258,646;  129,060;    1,731;   -1,045
259,243;  184,901;   -0,087;    2,227
259,841;  115,759;   -0,814;    0,318
260,438;   38,056;   -0,087;    0,864
261,036;  106,563;   -1,905;    1,409
261,633;   40,069;   -0,087;    2,227
262,231;   21,800;    2,731;   -0,045
262,828;   20,614;   -0,905;    1,136
263,425;   60,743;    0,913;   -0,591
264,023;   65,673;    0,186;    0,045
264,620;  151,230;   -0,360;   -0,318
265,217;  227,882;   -2,087;    3,136
265,815;   88,239;   -1,905;    2,136
266,412;  153,984;    0,731;    0,136
267,009;  156,050;   -1,451;    0,773
267,606;  217,424;    0,822;   -0,955
268,203;  105,709;   -0,269;   -0,591
268,801;  123,448;    1,731;    0,591
269,398;   74,314;   -0,360;    2,500
269,995;  169,159;    0,277;    1,591
270,592;  140,369;   -0,632;   -0,500
271,189;   71,801;    0,186;    0,409
271,786;   54,508;   -0,632;    1,227
272,383;  218,938;   -1,087;    0,227
272,980;  141,029;    0,277;    0,318
273,577;   92,028;    0,004;    1,227
274,174;   77,083;    0,822;    2,591
274,771;  168,512;   -0,814;   -0,773
275,367;  446,659;    2,277;    1,409
275,964;  295,974;    0,731;   -0,500
276,561;  141,257;    1,549;   -1,045
277,158;   77,532;    0,095;   -1,773
277,755;  256,432;    2,185;    0,409
278,351;  193,509;   -0,451;   -1,500
278,948;  224,939;   -0,815;    0,045
279,545;  182,085;   -1,360;    2,318
280,141;  288,578;   -1,723;   -2,045
280,738;  270,865;   -0,451;   -0,136
281,334;  133,132;   -1,633;    0,591
281,931;  135,925;   -0,087;   -1,318
282,528;  225,474;    0,822;   -0,500
283,124;  277,066;   -1,087;   -0,500
283,721;  275,084;   -0,451;    1,409
284,317;  171,268;    0,185;    2,500
284,913;  299,427;   -1,360;    0,591
285,510;  461,790;    0,640;   -0,318
286,106;  334,775;   -2,269;   -0,955
286,703;  217,708;   -0,360;    1,955
287,299;  167,940;   -1,451;   -0,591
287,895;  156,626;    0,822;   -1,045
288,491;  144,950;    0,186;    2,136
289,088;  260,333;   -2,360;    2,409
289,684;  312,785;   -1,723;    1,500
290,280;  453,288;    0,368;    0,682
290,876;  423,374;    1,822;    5,500
291,472;  363,655;    1,276;    2,227
292,068;  405,786;    1,367;    0,227
292,665;  310,304;    2,095;    0,773
293,261;  237,630;    0,276;    2,136
293,857;  437,641;    2,913;    2,136
294,453;  370,498;    3,550;    0,955
295,049;  616,885;   -0,268;    1,955
295,644;  467,194;    0,095;    0,136
296,240;  348,247;   -0,905;   -0,136
296,836;  519,030;   -0,995;    0,318
297,432;  711,505;    1,096;   -0,500
298,028;  789,842;    0,732;    0,773
298,624;  632,047;    1,459;    1,864
299,220;  629,418;    2,368;    0,591
299,815;  649,279;    1,005;   -0,409
300,411;  799,248;    0,914;    1,773
301,007;  974,461;    1,368;    0,227
301,602;  796,464;   -0,541;   -2,318
302,198;  964,222;    0,732;   -0,773
302,794;  805,823;    1,187;   -0,500
303,389;  798,659;   -1,177;    1,045
303,985;  906,462;    0,550;    1,409
304,580; 1025,000;    1,459;    1,591
305,176;  929,580;   -3,086;    0,136
305,771;  819,027;   -1,268;   -1,227
306,367; 1282,944;    4,095;    0,136
306,962; 1028,919;    0,641;    1,500
307,558; 1018,672;   -0,450;    0,136
308,153; 1135,858;    1,095;   -1,136
308,748;  911,519;   -0,814;    1,682
309,344; 1342,885;   -0,632;   -1,318
309,939; 1356,230;   -1,905;   -1,318
310,534;  976,558;   -0,086;   -1,682
311,130;  892,862;    0,459;   -2,500
311,725;  796,726;    1,004;   -0,500
312,320;  894,716;    2,459;    0,045
312,915; 1021,018;    1,459;   -1,045
313,510; 1235,764;    1,550;   -0,500
314,105;  928,393;    1,096;    1,409
314,700;  676,439;   -3,086;   -1,045
315,295;  748,909;   -0,904;    0,045
315,890;  641,543;    1,277;    0,864
316,485;  756,283;   -0,359;   -0,318
317,080;  644,657;   -3,086;    1,591
317,675;  973,722;    2,005;   -0,682
318,270; 1168,615;    5,550;    3,318
318,865; 1039,245;    3,278;    3,045
319,460;  819,523;   -0,904;    0,591
320,055;  621,162;   -0,541;   -1,227
320,650;  607,646;   -1,995;   -0,591
321,244;  596,281;   -0,177;   -1,409
321,839;  633,911;   -1,541;   -0,227
322,434;  685,716;   -1,086;   -1,591
323,029;  572,039;    1,732;    1,591
323,623;  521,246;    1,550;    0,773
324,218;  707,272;    2,368;    1,409
324,812;  648,284;    1,096;    1,591
325,407;  658,886;   -0,814;    2,045
326,002;  789,684;    0,277;   -0,409
326,596;  722,422;    0,914;    1,318
327,191;  569,110;    0,823;   -1,045
327,785;  559,786;   -0,813;   -0,227
328,379;  621,051;    1,368;    0,136
328,974;  690,538;    0,914;   -3,955
329,568;  738,776;    0,186;   -2,409
330,163;  826,719;    2,096;    1,045
330,757;  698,995;    2,459;    1,591
331,351;  664,146;    0,459;    0,682
331,945;  691,727;    0,914;    1,409
332,540;  896,152;   -1,723;   -0,591
333,134;  901,520;   -1,086;    0,773
333,728;  936,574;    0,005;    0,318
334,322;  906,163;   -1,177;   -0,864
334,916;  871,278;    0,277;    0,955
335,510; 1153,985;   -0,450;   -0,136
336,105; 1246,655;   -1,086;    1,591
336,699; 1143,805;   -1,086;    0,591
337,293; 1236,416;   -1,723;    0,318
337,887; 1257,839;   -2,723;    1,955
338,481; 1517,360;    0,459;    0,591
339,074; 1759,363;   -0,359;    2,682
339,668; 1779,120;   -1,632;    1,227
340,262; 2525,558;    1,732;    3,227
340,856; 2083,848;    1,822;   -0,682
341,450; 1737,594;    1,004;    1,864
342,044; 2072,598;    1,459;    0,136
342,637; 2248,433;    0,913;   -2,136
343,231; 2350,120;   -2,360;    0,682
343,825; 2234,800;   -1,086;   -0,591
344,419; 2384,216;   -1,995;    0,500
345,012; 2942,196;    2,459;    4,045
345,606; 2865,766;    4,641;    1,591
346,199; 2680,270;   -1,813;   -0,227
346,793; 2748,663;    1,914;    2,045
347,386; 2800,609;   -0,813;   -1,136
347,980; 2802,536;   -0,268;   -0,045
348,573; 2922,413;    2,278;    0,409
349,167; 3056,732;    5,278;    4,773
349,760; 3310,230;    2,914;    2,682
350,354; 3246,721;   -0,813;    1,136
350,947; 3249,510;    1,096;    1,682
351,540; 3081,349;   -0,358;   -1,409
352,134; 3022,444;    1,096;    1,136
352,727; 3151,235;   -0,086;    1,136
353,320; 3127,050;    0,005;    0,591
353,913; 2982,571;   -1,995;    1,864
354,507; 3239,782;    0,823;   -1,227
355,100; 3263,020;    0,460;    0,864
355,693; 3203,082;    2,005;    2,409
356,286; 3076,893;    0,823;    2,773
356,879; 3139,151;   -0,722;    1,227
357,472; 2924,200;   -0,904;    1,500
358,065; 3097,985;   -0,722;    2,500
358,658; 2995,054;   -0,540;    2,318
359,251; 2821,884;   -1,631;   -0,591
359,844; 2717,877;   -1,904;   -1,136
360,437; 2869,818;   -2,995;    0,045
361,030; 2889,397;    1,369;   -0,682
361,623; 2680,184;    2,824;    0,318
362,215; 2791,364;   -0,086;    2,045
362,808; 2615,217;   -2,358;   -1,682
363,401; 2665,288;   -2,449;    0,136
363,994; 2739,568;   -0,631;   -1,500
364,586; 2542,707;    0,824;   -1,500
365,179; 2555,182;   -0,449;   -1,136
365,772; 2224,538;   -1,995;    2,045
366,364; 2362,635;    1,915;   -3,227
366,957; 2550,281;    2,279;   -0,045
367,549; 2429,154;    2,188;   -0,864
368,142; 2296,284;    1,825;   -1,500
368,734; 2314,848;    0,734;   -2,136
369,327; 2263,103;    1,643;   -0,500
369,919; 2222,792;   -1,538;    0,409
370,512; 2235,277;   -1,083;   -0,500
371,104; 2270,935;   -0,901;    1,591
371,696; 2356,748;    1,191;   -0,955
372,289; 2260,083;    0,373;    1,136
372,881; 2239,859;   -2,080;    1,318
373,473; 2095,237;   -2,170;    1,136
374,066; 2113,061;   -0,169;    0,500
374,658; 2048,485;    0,378;    1,136
375,250; 2114,972;    0,653;   -1,409
375,842; 2074,112;    0,473;   -0,045
376,434; 1985,153;   -0,435;   -0,409
377,026; 2193,632;    0,204;   -2,500
377,618; 2129,389;   -0,158;   -0,682
378,210; 2027,403;   -0,338;   -1,955
378,802; 1874,007;    0,754;   -0,591
379,394; 2223,472;    1,846;    0,682
379,986; 2198,698;    1,393;   -0,955
380,578; 2150,688;   -0,153;    0,773
381,170; 2119,456;   -0,972;    0,045
381,762; 2013,012;    0,755;    1,409
382,354; 1997,143;   -0,065;   -1,318
382,945; 1987,960;   -2,976;    0,318
383,537; 2028,767;   -2,705;   -1,955
384,129; 2070,875;   -2,160;   -1,136
384,721; 2158,714;   -0,252;    0,955
385,312; 2042,242;   -0,161;   -0,955
385,904; 2203,675;   -2,706;    1,591
386,496; 1852,298;   -0,979;    1,045
387,087; 2034,132;    1,022;    2,500
387,679; 1971,421;   -1,160;    0,045
388,270; 2060,107;    2,840;    2,045
388,862; 2047,958;    1,295;   -0,318
389,453; 1879,537;   -0,887;    1,045
390,045; 2036,778;   -0,705;   -2,682
390,636; 1987,591;    0,204;   -0,591
391,227; 1937,513;   -0,523;   -0,045
391,819; 2026,883;    0,204;    0,773
392,410; 2192,806;    1,022;    0,045
393,001; 2062,517;   -0,979;   -1,591
393,593; 2178,635;    1,930;   -0,045
394,184; 2171,437;    1,385;   -0,409
394,775; 1937,566;    1,839;    2,136
395,366; 2085,874;    1,385;    0,773
395,957; 2154,395;    0,113;    0,136
396,548; 2164,907;   -0,342;    2,682
397,139; 2374,224;   -2,433;    0,591
397,730; 2178,648;   -1,888;    0,955
398,321; 2208,694;   -1,252;    0,955
398,912; 2148,318;   -0,615;    0,136
399,503; 2244,157;   -3,524;   -1,409
400,094; 2037,553;    0,294;    1,682
400,685; 2002,249;   -0,433;    0,045
401,276; 1922,749;    0,930;   -0,955
401,867; 2014,585;   -0,888;    0,773
402,458; 2018,796;   -2,251;   -2,318
403,048; 2139,988;    1,112;    0,591
403,639; 1894,448;    0,840;    0,864
404,230; 2171,759;    2,476;    0,318
404,821; 2154,338;   -0,615;    0,045
405,411; 2067,474;    1,203;   -2,591
406,002; 1816,032;   -1,252;   -1,136
406,592; 2029,357;    2,294;    0,045
407,183; 1921,214;    0,566;   -1,500
407,774; 1806,835;    3,475;   -0,136
408,364; 1844,387;    0,930;    0,409
408,954; 1851,418;    0,384;    1,227
409,545; 1811,219;    1,021;    1,045
410,135; 1593,834;    1,293;    0,500
410,726; 1562,515;    1,838;    0,318
411,316; 1789,277;    0,111;    0,773
411,906; 1508,708;   -0,253;   -0,409
412,497; 1376,710;   -1,070;   -0,045
413,087; 1404,059;   -1,980;   -0,227
413,677; 1417,002;   -0,707;    3,864
414,267; 1304,220;    0,656;    1,409
414,857; 1209,345;   -2,980;    4,227
415,448; 1234,483;    0,839;    0,500
416,038; 1159,817;    0,020;   -0,591
416,628; 1136,985;   -0,889;    0,409
417,218; 1172,669;    0,565;    3,318
417,808; 1325,521;    0,202;   -0,409
418,398; 1115,468;    0,020;    2,682
418,988;  921,647;    2,020;    0,591
419,578;  980,822;   -0,707;    1,409
420,168;  972,719;   -1,343;   -0,955
420,757; 1084,879;   -1,343;   -1,500
421,347;  869,227;    0,111;   -0,227
421,937;  780,969;    2,292;    1,409
422,527;  927,862;    0,838;   -0,773
423,116; 1052,495;   -0,253;   -0,045
423,706;  662,810;   -1,889;    0,318
424,296;  552,162;    1,384;    0,682
424,885;  761,435;   -0,071;   -3,045
425,475;  687,793;    1,474;   -2,864
426,065;  481,632;   -0,980;   -0,318
426,654;  426,022;   -0,435;   -0,318
427,244;  792,303;    0,020;    1,409
427,833;  722,354;    1,383;   -0,500
428,423;  508,563;   -0,526;    1,136
429,012;  514,899;   -0,344;   -1,136
429,601;  653,011;   -1,344;    0,136
430,191;  474,986;    1,292;    4,318
430,780;  289,088;   -0,344;   -0,409
431,369;  568,108;    0,746;   -0,045
431,959;  406,805;   -1,254;    0,500
432,548;  278,400;   -1,163;   -0,045
433,137;  180,923;   -1,254;   -1,318
433,726;  289,872;    0,292;    0,500
434,315;  288,436;   -0,526;    2,409
434,905;  408,515;   -1,254;    1,409
435,494;  401,342;    0,746;    0,955
436,083;  205,868;   -0,981;   -0,955
436,672;  296,664;    0,110;    0,500
437,261;  211,394;    0,292;   -1,955
437,850;  514,123;    1,383;    0,682
438,439;  542,756;    3,291;    1,955
439,027;  645,711;    3,655;    1,773
439,616;  550,312;    2,927;    1,227
440,205;  272,626;    0,200;   -2,136
440,794;  192,159;    2,109;   -0,045
441,383;   92,270;   -1,346;   -0,591
441,971;   45,883;   -2,436;    0,591
442,560;   61,598;    0,563;   -1,773
443,149;  -44,395;    0,379;   -1,318
443,737;   -5,845;   -0,074;   -2,318
444,326;   17,433;    0,018;    0,318
444,915;   68,710;   -1,982;    0,864
445,503;   77,465;   -2,891;   -0,318
446,092;  334,965;    0,382;    2,136
446,680;  258,324;    0,382;    0,318
447,269;  159,525;   -0,346;   -0,318
447,857;  140,821;    0,018;   -1,773
448,445;   87,620;    0,563;    1,318
449,034;   18,073;   -1,528;   -1,136
449,622;   14,533;   -1,073;    3,500
450,210;  319,597;    2,017;    2,227
450,799;  223,910;    0,290;   -0,591
451,387;  177,988;    1,381;   -0,591
451,975;  162,379;    2,654;    0,864
452,563;  236,335;    3,472;    2,318
453,151;   54,137;   -0,528;   -1,227
453,739;  100,158;   -1,347;    0,136
454,328;  207,960;    2,381;   -2,136
454,916;  135,266;    2,562;   -0,136
455,504;  159,212;    1,017;    1,227
456,092;   42,079;    0,017;   -1,591
456,679;    1,882;    1,472;    0,682
457,267;  405,087;    4,017;    1,045
457,855;   93,669;    1,017;    1,409
458,443;  -50,648;   -0,165;    1,682
459,031;  121,539;    0,108;    2,409
459,619;   72,251;   -1,801;    2,864
460,206;  -27,302;    0,835;    2,045
460,794;  -33,281;   -2,983;   -0,227
461,382;   20,559;   -0,529;   -0,864
461,970;   23,586;    1,198;    1,864
462,557;  -47,484;   -0,711;   -0,682
463,145;   72,693;   -3,165;   -1,682
463,732;  319,603;    2,016;   -1,045
464,320;   88,227;   -0,075;   -3,045
464,907;  237,507;    2,743;   -0,773
465,495;  140,386;    0,743;   -1,227
466,082;   56,242;   -1,984;   -0,045
466,670;   85,992;   -2,529;    1,227
467,257;  -15,314;   -1,711;    2,045
467,844;   89,770;   -0,075;    0,045
468,432;   50,006;    0,834;    3,500
469,019;   12,771;    0,925;   -1,773
469,606;  110,465;    0,470;    3,682
470,193;  132,548;   -1,439;    0,227
470,780;   83,077;   -2,075;    0,864
471,368;   12,939;   -1,257;   -0,773
471,955;  121,070;    1,379;   -0,682
472,542;   82,705;    0,652;   -1,136
473,129;  -28,292;   -0,166;    0,136
473,716;  -22,091;    1,470;    0,591
474,303;    6,738;    0,652;   -0,864
474,890;   13,585;   -1,439;   -0,500
475,477;  118,809;   -1,621;    0,409
476,064;   24,338;    1,106;   -1,591
476,650;  149,371;    0,288;    0,318
477,237;   51,098;   -0,258;    0,955
477,824;   28,438;   -1,076;    0,864
478,411;  -58,585;   -1,894;   -0,318
478,997;  -58,090;    0,560;   -0,773
479,584; -107,224;    1,196;   -0,409
480,171;   62,162;   -0,440;   -0,773
480,757;  131,985;    2,651;    0,773
481,344;   24,051;    0,469;    0,409
481,931;  -74,973;    1,105;    1,045
482,517;   58,742;   -1,258;    0,318
483,104;  144,017;    1,106;    2,864
483,690;    9,034;   -1,804;    0,045
484,276;  -16,535;   -0,895;    0,227
484,863;  196,754;    2,469;    1,136
485,449;   39,204;   -0,077;    0,318
486,035;  -13,559;   -1,986;   -0,136
486,622;   89,594;   -0,895;    0,045
487,208;   11,187;    1,378;    1,500
487,794;  -75,491;    0,741;    0,318
488,380;  -68,990;    0,105;   -1,409
488,967;  -72,677;   -1,168;   -0,409
489,553;  -49,554;   -1,895;   -1,409
490,139;   32,698;    1,559;    0,773
490,725;  -43,182;    0,741;   -0,227
491,311;    6,939;    3,287;    3,045
491,897;  -18,226;   -0,986;    1,500
492,483;  -11,875;    0,105;    1,227
493,069;  434,765;    3,923;    0,864
493,655;  144,724;    1,650;    0,682
494,241;   20,299;    1,377;   -0,955
494,826;   29,440;    0,287;   -1,045
495,412;   97,927;    2,559;   -0,682
495,998;   -0,418;   -0,805;   -0,318
496,584;   60,995;    0,377;    1,045
497,169;   78,753;    1,014;   -0,682
497,755;   18,744;    0,650;    1,227
498,341;  158,292;    0,559;    0,318
498,926;  276,624;    1,832;    1,955
499,512;    1,108;    1,286;    2,955
500,097;    6,914;    0,195;   -0,318
500,683;   38,027;   -0,350;    2,136
501,268;  -14,929;   -0,169;   -0,955
501,854;   11,380;   -0,169;    1,227
502,439;   -0,733;   -0,624;   -1,773
503,024;   32,393;    0,195;    0,500
503,610;   51,681;   -0,078;   -0,682
504,195;   -2,588;    0,558;    1,955
504,780;   91,639;    2,922;    1,227
505,366;  180,059;    3,013;    2,864
505,951;  108,832;    0,740;    1,045
506,536;   41,376;   -3,260;   -3,682
507,121;  100,703;    0,285;   -0,318
507,706;   49,720;    2,376;    1,045
508,291;    4,747;    2,649;    1,136
508,876;   16,094;   -0,988;    2,591
509,461;   99,610;   -0,169;   -0,773
510,046;  172,346;    0,194;    0,318
510,631;  206,977;   -0,351;   -0,773
511,216;  136,297;    2,467;   -0,500
511,801;  267,633;   -0,442;    2,591
512,386;  360,445;    0,740;    0,500
512,971;  449,968;   -2,988;    0,955
513,555;  611,646;   -0,897;   -1,500
514,140;  659,082;   -0,442;   -3,136
514,725;  912,141;   -0,715;   -1,136
515,309;  919,198;   -0,533;    0,318
515,894;  914,615;   -0,624;   -2,227
516,479; 1144,399;   -0,624;   -0,955
517,063; 1318,711;    0,376;    1,227
517,648; 1576,643;    1,012;   -1,136
518,232; 1686,137;   -0,261;   -1,409
518,817; 2143,207;   -0,079;    1,682
519,401; 2679,232;    2,194;    0,591
519,985; 2705,459;    1,103;    1,136
520,570; 3032,867;    0,830;   -1,955
521,154; 3617,460;    2,102;    0,591
521,738; 4209,165;   -2,352;    2,409
522,323; 4994,153;   -0,170;    1,682
522,907; 5237,843;    0,466;   -0,136
523,491; 5540,224;    0,557;    0,955
524,075; 5998,930;    2,284;    0,591
524,659; 6552,138;    1,466;    0,591
525,243; 6653,648;    1,739;    0,409
525,827; 7263,631;    0,648;   -0,045
526,411; 8309,502;   -1,989;   -0,136
526,995; 8921,254;   -0,352;    1,409
527,579; 9001,284;   -0,443;   -1,045
528,163; 9657,044;    0,375;   -1,500
528,747; 9959,652;    2,466;   -0,773
529,331;10594,655;   -0,080;   -1,409
529,915;11057,815;    1,738;    0,955
530,499;11309,146;   -0,807;    1,227
531,082;11360,727;   -0,534;    1,591
531,666;11127,225;    1,374;    0,773
532,250;11968,722;    1,284;    2,682
532,833;12501,164;    0,920;    2,773
533,417;12581,662;   -1,807;    0,864
534,001;12768,530;    1,647;   -0,318
534,584;13599,137;    0,374;    0,500
535,168;13611,671;    0,465;    1,409
535,751;13841,899;    0,647;    0,045
536,334;13428,223;   -0,898;   -0,409
536,918;14111,874;    0,011;    1,591
537,501;14374,863;   -0,899;    1,318
538,085;14465,085;   -0,444;    1,045
538,668;14746,792;    0,829;    2,409
539,251;15152,044;    1,829;    3,773
539,834;15239,385;    0,101;    0,773
540,418;15278,395;   -1,990;    4,318
541,001;15484,317;   -0,990;    1,773
541,584;15525,463;    2,101;    2,227
542,167;15282,541;    1,374;    2,955
542,750;15469,443;    1,919;   -0,773
543,333;15159,508;    0,555;    2,136
543,916;15970,233;    0,192;    2,500
544,499;16571,076;   -1,354;    0,227
545,082;16667,061;    1,374;    3,591
545,665;16828,047;    1,919;    1,500
546,248;17230,508;    1,010;   -0,318
546,830;16914,266;   -0,445;    1,955
547,413;17342,001;    1,010;   -0,773
547,996;17928,861;    0,555;    0,500
548,579;17695,563;    0,919;    0,955
549,161;17558,457;    1,828;    2,682
549,744;17370,885;   -0,809;    0,409
550,326;17880,442;   -0,809;   -1,136
550,909;17720,126;    2,737;    0,591
551,492;18056,863;   -0,263;    0,227
552,074;17925,477;   -0,173;   -1,318
552,657;18483,269;    2,373;    0,045
553,239;18245,570;   -0,173;   -0,773
553,821;18196,092;   -1,082;    1,045
554,404;17710,413;    1,282;    1,136
554,986;18068,754;    0,464;    1,045
555,568;18749,510;    1,191;   -0,955
556,151;17959,035;    1,191;   -0,227
556,733;18178,998;   -0,264;   -0,864
557,315;18647,636;    0,100;    0,500
557,897;18424,853;    0,554;   -0,500
558,479;18587,351;   -1,991;    1,318
559,061;18735,977;   -0,719;   -0,864
559,643;19046,320;   -0,264;    0,045
560,225;19443,586;    1,645;    2,864
560,807;19458,047;    0,918;    0,318
561,389;18965,776;    0,554;    2,318
561,971;19778,357;    0,463;    2,136
562,553;19561,197;   -1,628;    1,591
563,135;19701,485;   -0,537;    1,136
563,717;19334,538;    3,372;    1,136
564,298;20048,900;    3,645;   -0,045
564,880;19799,750;    0,645;   -1,409
565,462;19940,114;    0,645;    1,318
566,043;21117,866;   -0,446;    2,318
566,625;20685,497;    1,918;    1,227
567,207;20536,873;    1,099;    1,682
567,788;21710,174;   -1,264;    1,500
568,370;22541,194;    1,917;   -0,500
568,951;22375,636;    0,190;    0,227
569,533;23250,092;   -0,628;   -0,500
570,114;23757,132;   -0,446;    0,682
570,695;24304,173;   -0,174;   -1,318
571,277;24870,696;   -0,265;   -1,682
571,858;25606,126;    2,008;   -1,136
572,439;26567,201;    1,554;   -1,045
573,021;26768,900;    2,099;   -2,773
573,602;27230,825;   -1,265;    0,318
574,183;28211,413;   -2,083;    2,227
574,764;28301,454;   -1,629;    0,409
575,345;28917,063;    0,917;   -0,136
575,926;29545,556;   -0,356;    0,136
576,507;29489,365;    1,099;   -0,227
577,088;30668,333;    3,099;    1,682
577,669;30709,591;    0,735;    1,955
578,250;31539,958;    0,644;   -1,045
578,831;32188,211;   -1,356;   -2,227
579,412;32456,116;   -0,810;    0,955
579,993;33308,737;    1,008;    0,227
580,573;33658,320;   -0,629;   -0,955
581,154;32648,538;    0,735;   -0,591
581,735;33508,280;    0,644;    0,773
582,315;33067,735;   -0,629;    2,136
582,896;33252,000;   -0,174;    1,227
583,477;32704,410;    0,189;    1,227
584,057;32963,796;    0,553;    0,955
584,638;33310,192;    2,553;    2,318
585,218;33237,330;   -0,538;    2,682
585,799;33436,134;    0,281;   -0,227
586,379;33399,515;    0,372;    1,591
586,959;32084,659;    0,735;    0,318
587,540;31354,370;   -0,629;    2,227
588,120;30866,290;    1,007;   -0,045
588,700;29836,372;    2,553;    2,136
589,281;30205,074;    0,462;   -0,955
589,861;30198,595;    0,099;   -1,682
590,441;29971,176;    2,371;   -2,682
591,021;28898,731;   -0,265;   -2,591
591,601;29134,143;   -0,537;    0,500
592,181;29117,880;   -0,719;   -0,773
592,761;28445,321;    0,007;    1,409
593,341;28354,985;   -0,901;    0,045
593,921;28355,846;   -0,265;    1,591
594,501;28248,691;   -0,538;    1,318
595,081;28069,321;    0,917;   -0,318
595,661;28411,261;   -1,447;    0,955
596,240;28976,539;   -0,537;    0,136
596,820;28633,099;    0,372;    1,955
597,400;28840,731;    2,008;    0,773
597,980;29016,707;    2,008;    1,045
598,559;29012,986;    2,735;   -0,227
599,139;28725,384;   -0,174;   -1,227
599,718;28635,384;   -0,174;   -0,409
600,298;28885,109;    0,735;    0,682
600,877;29148,543;    2,917;    1,409
601,457;29385,103;    2,281;    1,136
602,036;29305,865;    0,190;    2,045
602,616;29630,247;    0,644;    1,682
603,195;29930,733;   -0,355;    3,500
603,774;29440,190;   -0,901;    2,045
604,354;29330,442;    0,826;   -0,500
604,933;28805,762;    0,463;    1,864
605,512;28921,427;    3,554;    0,591
606,091;28973,388;   -0,537;    3,773
606,671;29827,622;    0,281;    0,773
607,250;28869,633;    1,644;    3,136
607,829;29156,865;    2,372;    3,227
608,408;28988,163;    1,190;    2,591
608,987;28005,258;    1,281;    3,409
609,566;28336,630;   -1,265;   -2,500
610,145;28380,340;   -1,082;    0,682
610,723;28807,486;    4,372;    6,864
611,302;28026,480;   -0,446;    1,682
611,881;27537,980;    5,008;   11,227
612,460;28400,329;    1,645;    3,955
613,039;28837,519;   -0,082;    2,045
613,617;27530,284;    1,736;    4,773
614,196;27747,088;    1,099;    1,227
614,775;28068,021;    1,009;    2,409
615,353;28009,562;    0,736;    0,864
615,932;27768,911;    0,100;    2,409
616,510;28299,106;    0,554;    0,591
617,089;27790,350;    7,100;   17,591
617,667;27535,917;    2,372;    6,136
618,246;27390,789;   -1,537;    1,318
618,824;27586,871;   -3,355;   -0,955
619,402;27113,422;   -2,900;   -1,773
619,981;27674,075;   -0,173;   -1,045
620,559;27502,446;    0,009;    1,682
621,137;26934,903;   -0,718;    1,864
621,715;27000,139;   -1,173;   -0,682
622,293;26937,410;   -0,537;   -0,773
622,871;27351,181;   -0,718;    0,500
623,450;26928,050;    0,373;   -0,864
624,028;26828,836;    0,191;   -0,955
624,606;26456,715;   -1,718;    1,682
625,183;26883,966;   -1,536;   -1,136
625,761;26476,869;    1,009;    1,136
626,339;26794,529;    1,373;    2,591
626,917;27194,567;   -0,172;   -0,045
627,495;27157,162;   -0,354;    1,318
628,073;26594,654;   -0,263;    2,864
628,650;26346,577;    0,100;    2,136
629,228;26802,877;    0,373;    4,409
629,806;26201,407;    2,282;    1,136
630,383;26451,823;    1,464;   -0,318
630,961;26241,166;    2,555;   -0,955
631,539;25994,870;    2,464;    0,227
632,116;25299,076;   11,373;   15,409
632,694;25906,289;    2,555;    6,500
633,271;26194,502;    0,828;    2,682
633,848;26143,764;    1,828;    2,045
634,426;26177,231;   -1,081;    1,773
635,003;25285,811;    1,101;   -0,409
635,580;25629,425;    1,192;    3,682
636,158;26121,007;    3,737;    1,227
636,735;26079,898;    0,555;   -0,500
637,312;26282,397;   -0,809;   -0,682
637,889;26365,897;   -4,354;   -0,682
638,466;25804,754;   -3,990;   -0,409
639,043;25812,529;    2,101;   -1,136
639,620;26132,219;   -2,262;   -0,955
640,197;26499,013;    1,100;    1,682
640,774;26612,891;   -0,172;    1,136
641,351;26990,405;    0,737;    1,136
641,928;26438,010;   -0,627;    1,409
642,505;26080,615;    0,828;   -0,500
643,082;26188,038;   -1,718;    1,227
643,658;25222,461;   -0,718;    1,500
644,235;25969,248;    1,191;    2,500
644,812;26288,216;    1,918;    0,773
645,388;25996,912;   -0,991;    1,409
645,965;26096,154;   -0,809;    1,682
646,542;26181,577;   -1,445;   -0,227
647,118;26155,818;    1,009;   -0,955
647,695;26439,878;   -0,263;    1,136
648,271;26396,846;   -0,536;    0,500
648,848;26721,087;    0,736;    2,227
649,424;26524,511;    0,827;    1,318
650,000;26279,661;   -0,354;   -1,045
650,577;26113,175;   -0,627;   -0,955
651,153;26572,416;   -1,809;    0,955
651,729;27562,385;    1,191;    0,864
652,305;27991,354;    0,645;    2,773
652,881;32991,777;   -0,082;    1,136
653,458;40142,018;    1,100;    0,227
654,034;43797,259;    0,282;    1,591
654,610;45088,137;    0,554;    0,773
655,186;46353,924;    0,645;    3,045
655,762;46026,801;   -0,991;    0,409
656,338;46078,134;    0,100;    0,136
656,913;47061,466;   -0,082;    0,409
657,489;46285,525;    0,827;   -0,318
658,065;46250,130;   -0,173;   -1,591
658,641;46943,826;   -0,900;   -0,864
659,217;46287,249;   -0,991;    0,409
659,792;45664,127;    0,645;   -0,409
660,368;45872,096;   -2,173;   -0,682
660,944;45323,337;   -2,082;    1,227
661,519;40143,124;   -0,628;    0,409
662,095;33911,183;   -1,719;    0,591
662,670;29468,515;    1,281;   -0,136
663,246;28478,393;    1,009;   -0,409
663,821;27883,543;    0,281;    1,682
664,396;27426,421;    0,009;    1,864
664,972;27671,572;    0,009;   -0,500
665,547;27935,449;    1,372;    0,136
666,122;28031,145;   -1,082;    0,318
666,698;28247,477;   -0,173;    0,318
667,273;27587,537;   -0,173;    0,136
667,848;28406,415;    2,372;    1,500
668,423;28203,838;    2,190;    2,318
668,998;28827,170;    2,827;   -0,682
669,573;29359,411;   -3,264;   -1,500
670,148;29175,198;   -1,446;   -0,682
670,723;28970,712;   -1,810;    0,318
671,298;29369,499;    2,372;    1,045
671,873;29524,286;   -0,082;   -0,136
672,448;29500,072;    0,645;    0,136
673,023;29775,859;   -1,992;   -0,227
673,597;30129,555;    0,827;    2,318
674,172;29886,796;   -0,355;    0,318
674,747;29365,492;    0,372;   -1,045
675,321;29180,824;   -0,628;    3,318
675,896;28763,338;    0,645;    1,045
676,471;29790,580;    2,645;    1,591
677,045;29647,003;   -1,264;    0,682
677,620;29642,881;    0,190;    1,136
678,194;29942,122;   -2,628;    1,136
678,769;29471,272;   -1,083;   -0,318
679,343;29780,059;   -0,628;    1,773
679,917;29668,482;   -1,446;    1,955
680,492;29729,178;    0,826;    3,227
681,066;29884,056;    3,372;    0,409
681,640;29890,661;    1,463;   -0,318
682,214;30709,357;    0,735;    0,500
682,788;30243,416;   -1,356;   -0,773
683,363;30174,294;   -1,810;    1,682
683,937;29910,899;   -1,719;   -0,318
684,511;30688,595;    0,463;   -0,591
685,085;30364,745;   -1,356;    0,318
685,659;30146,895;   -2,538;    0,864
686,232;30419,409;   -0,356;   -0,318
686,806;30098,378;   -0,901;    0,409
687,380;30673,165;   -0,174;    0,591
687,954;30911,588;   -1,174;    1,136
688,528;30632,647;   -0,719;    1,955
689,101;31416,798;   -3,992;    1,045
689,675;30984,948;   -0,356;   -0,136
690,249;30424,008;   -0,719;    0,409
690,822;30746,976;    0,280;    0,318
691,396;30809,127;   -0,265;    1,227
691,969;30236,641;    1,280;    0,136
692,543;30663,791;   -0,447;   -1,955
693,116;30346,032;   -0,265;   -1,409
693,690;30238,092;    0,099;    0,500
694,263;30781,879;   -1,083;    2,955
694,836;30825,665;    1,371;    3,591
695,410;29446,816;   -0,265;    1,773
695,983;29864,148;    0,189;    0,591
696,556;29854,208;   -0,447;   -1,045
697,129;30236,813;   -0,356;    1,409
697,703;29914,508;   -1,629;    1,955
698,276;29852,295;    1,462;   -0,773
698,849;29713,173;    1,280;    1,409
699,422;30048,687;   -1,083;    0,591
699,995;29766,292;    0,007;    0,136
700,568;30248,079;   -0,629;    3,045
701,140;30308,047;   -2,811;    1,682
701,713;30027,925;   -0,174;    2,409
702,286;29752,439;   -0,538;    0,864
702,859;29645,135;   -0,902;   -0,591
703,432;28777,649;    0,825;    0,682
704,004;29231,708;    0,462;    0,318
704,577;29128,586;   -0,629;    0,136
705,150;29761,191;    0,189;    2,500
705,722;29516,614;   -0,356;   -3,227
706,295;29286,674;   -0,175;   -0,591
706,867;29152,551;   -0,175;    1,955
707,440;29381,520;   -1,720;   -0,409
708,012;29680,307;    0,462;    0,591
708,584;29563,003;    2,462;    0,227
709,157;29820,426;    1,825;   -0,591
709,729;29457,758;    2,280;    2,045
710,301;30311,272;    0,734;    0,045
710,874;30273,150;   -1,447;   -0,227
711,446;29199,482;    0,371;    0,864
712,018;29104,087;    0,098;    0,500
712,590;28807,874;   -1,993;    1,682
713,162;29341,660;    0,825;    1,318
713,734;29617,174;    1,825;   -2,045
714,306;29522,234;   -1,902;   -0,409
714,878;28173,021;    0,825;    0,864
715,450;29010,353;    0,643;    0,864
716,022;29260,049;    1,552;    1,318
716,593;29392,654;    0,189;    0,591
717,165;29342,804;   -3,175;   -1,227
717,737;29078,864;    0,280;    0,409
718,309;28733,923;    0,280;   -0,045
718,880;28663,528;   -0,539;   -1,409
719,452;28878,224;   -0,175;   -1,591
720,024;28469,920;    0,734;   -0,591
720,595;29039,979;   -2,902;    0,955
721,167;28629,584;    0,370;   -2,045
721,738;28111,098;   -0,812;   -1,045
722,309;28103,158;   -0,993;   -1,227
722,881;27829,581;   -1,357;    0,773
723,452;28445,277;   -2,630;    2,864
724,023;28657,973;   -0,721;    2,682
724,595;28395,578;    0,007;    0,682
725,166;28160,728;    0,007;   -0,409
725,737;27810,424;    1,734;    0,227
726,308;27883,302;   -0,266;    0,318
726,879;28328,816;   -1,630;    1,227
727,450;28140,057;    0,552;   -0,045
728,021;28129,662;    3,097;    0,682
728,592;27951,812;    0,734;    0,500
729,163;28266,144;    0,643;   -0,136
729,734;28285,840;    0,188;   -0,227
730,305;28648,445;    1,734;    0,136
730,876;29043,050;    0,188;    2,955
731,447;28751,928;    2,188;    2,682
732,017;28875,624;    1,097;    1,864
732,588;28304,683;    0,734;    1,227
733,159;28491,561;    0,643;   -1,045
733,729;28310,893;    0,006;    0,409
734,300;27625,498;    0,915;    0,864
734,870;28015,194;    3,461;    0,591
735,441;28564,254;    0,370;   -0,591
736,011;28387,131;    0,643;   -1,591
736,582;28303,554;   -0,812;    0,045
737,152;27750,977;   -1,721;   -2,045
737,722;28208,855;   -0,267;   -0,682
738,293;27914,278;   -1,358;    1,318
738,863;27807,065;    2,461;    2,318
739,433;27613,215;    5,279;    0,318
740,003;28241,184;   -0,994;   -0,682
740,573;27661,516;    2,097;   -1,591
741,143;27580,394;   -1,085;    0,318
741,713;28398,635;    1,188;   -0,500
742,283;28096,513;    0,915;    1,591
742,853;27817,300;    1,915;    1,591
743,423;27280,268;    1,733;    0,045
743,993;27458,146;   -0,358;    1,500
744,563;26778,842;    0,097;   -0,864
745,133;26748,265;   -0,812;   -0,864
745,702;27379,597;   -0,267;    1,773
746,272;26658,657;   -0,176;    0,591
746,842;26418,716;   -1,358;   -0,591
747,411;26806,776;   -0,267;   -0,318
747,981;26986,835;    0,097;    0,500
748,551;27030,077;    2,278;   -1,045
749,120;26923,136;    0,642;   -0,227
749,690;27322,650;   -0,631;    2,409
750,259;27612,982;    1,369;    2,955
750,828;27573,315;    1,551;   -1,955
751,398;27862,556;    1,278;   -0,045
751,967;27264,343;    2,187;    0,409
752,536;27492,402;   -0,813;   -0,227
753,105;27932,007;    0,096;    0,227
753,675;27683,430;    0,096;    1,773
754,244;27645,581;   -0,904;    3,591
754,813;27645,549;    0,551;    1,227
755,382;27276,518;    0,460;    0,955
755,951;27908,941;    1,551;    3,682
756,520;27407,910;   -0,085;    1,864
757,089;27999,787;    0,278;    0,500
757,658;28128,483;    1,733;    1,227
758,227;28078,088;    1,096;    0,318
758,795;28369,784;    1,187;    1,136
759,364;28584,843;   -0,086;   -0,591
759,933;27660,903;   -1,176;   -0,045
760,501;27127,781;    0,733;   -1,318
761,070;27593,567;   -2,813;   -1,409
761,639;28318,172;   -1,904;    1,318
762,207;27695,414;    1,551;   -0,955
762,776;27601,019;    0,369;    0,864
763,344;27550,805;   -0,995;    0,591
763,913;26663,956;   -0,722;    1,409
764,481;27401,470;    1,005;   -0,136
765,049;27159,529;   -1,358;    1,409
765,618;27055,498;   -0,086;    0,318
766,186;27122,103;    0,278;    0,136
766,754;27303,890;    0,005;    1,864
767,322;26313,131;   -1,995;    0,409
767,890;26389,463;   -0,722;   -1,773
768,459;26804,795;   -2,177;   -0,318
769,027;26968,764;    1,641;    3,409
769,595;25895,005;    3,278;    2,591
770,163;26307,701;    3,823;    2,955
770,730;26112,579;    0,732;   -0,136
771,298;25929,275;    0,187;   -1,409
771,866;26000,425;   -1,541;    4,955
772,434;26352,848;   -0,631;   -1,864
773,002;26476,362;    0,005;    0,682
773,569;26120,240;    0,914;    1,682
774,137;25918,299;   -0,268;   -0,045
774,705;26708,995;    0,278;   -0,136
775,272;26222,237;    0,641;    0,682
775,840;25954,205;   -0,177;    2,682
776,407;25530,719;    0,277;    1,955
776,975;25121,415;   -0,632;    0,318
777,542;26082,384;   -1,086;   -0,045
778,110;25917,261;   -1,268;   -0,045
778,677;25570,957;   -2,359;   -0,864
779,244;25353,562;    2,186;    1,045
779,812;25446,167;    1,823;    0,864
780,379;25315,408;    0,005;    1,136
780,946;25531,650;    1,005;   -0,773
781,513;25901,255;   -1,450;    0,318
782,080;25283,223;   -0,086;    2,864
782,647;25993,101;   -0,268;    3,045
783,214;25551,160;   -0,177;    3,864
783,781;25209,675;   -0,723;   -0,682
784,348;25088,825;   -0,632;    1,500
784,915;25577,794;   -3,177;    0,318
785,482;25279,035;    1,368;    2,591
786,049;25702,094;    0,186;   -0,591
786,615;25811,972;    0,277;   -0,955
787,182;25593,304;    0,186;   -0,682
787,749;25265,182;   -2,814;    1,409
788,315;24640,514;   -1,632;   -0,409
788,882;24924,755;    1,550;   -1,227
789,448;25612,270;    1,732;   -0,955
790,015;25613,693;    1,095;    3,227
790,581;25188,207;    1,459;    0,227
791,148;25111,721;    0,641;    1,045
791,714;25265,326;   -0,541;    3,136
792,280;24910,931;    0,186;    1,591
792,847;24506,172;    0,550;    2,500
793,413;25079,959;   -0,269;   -0,318
793,979;24604,564;    3,459;   -1,318
794,545;24731,078;    4,459;    2,682
795,111;24143,865;    2,186;    1,318
795,678;24283,197;    0,731;   -1,682
796,244;23922,620;    3,368;    0,136
796,810;24495,134;    1,731;    0,773
797,375;24175,921;    0,549;   -2,136
797,941;24181,162;   -0,541;    0,591
798,507;24363,494;   -0,451;   -0,955
799,073;23879,099;   -0,360;    0,591
799,639;23936,159;   -2,632;    3,136
800,205;24001,855;    0,095;    2,682
800,770;23523,005;    0,640;    1,773
801,336;23643,792;    1,368;   -0,955
801,901;23313,124;    4,549;    3,136
802,467;23859,093;   -0,542;    2,045
803,033;23199,607;   -0,087;    0,864
803,598;23421,393;    1,913;   -1,045
804,163;23418,998;    1,095;   -0,318
804,729;23359,058;   -0,178;    1,136
805,294;23805,845;    0,822;    2,227
805,859;23560,086;    0,731;   -0,409
806,425;23006,418;    1,186;    2,682
806,990;22689,387;    2,186;    4,318
807,555;23185,446;   -1,451;    2,591
808,120;23111,778;    0,822;   -0,409
808,685;23158,383;    0,185;   -2,500
809,250;22648,079;    0,004;   -0,500
809,815;22980,593;    1,913;    0,682
810,380;23507,471;   -0,269;    1,591
810,945;24047,440;   -1,087;    2,045
811,510;23182,681;    2,094;    1,591
812,075;22887,740;   -0,633;   -1,409
812,640;22913,436;    2,003;    1,409
813,204;22984,314;    0,822;   -0,227
813,769;23479,737;    2,094;   -0,045
814,334;22861,978;    0,458;    0,864
814,898;22936,492;    0,367;    0,591
815,463;22780,097;    1,276;   -0,773
816,027;22747,702;   -0,724;   -2,318
816,592;22781,671;    0,640;   -2,045
817,156;22338,276;    2,094;    1,136
817,721;22241,244;    4,276;    2,318
818,285;22167,213;    2,912;    1,500
818,849;22811,818;   -1,451;    1,682
819,414;22689,059;   -0,269;    2,955
819,978;22269,482;   -1,269;    1,773
820,542;22885,906;    2,003;    0,500
821,106;22588,965;   -0,815;    0,682
821,670;22672,388;   -0,815;    2,591
822,234;22401,357;   -0,270;    1,409
822,798;21754,053;    0,003;    0,500
823,362;21708,294;   -0,633;    4,227
823,926;21038,899;    0,094;    1,136
824,490;21289,231;   -0,997;   -0,682
825,054;21711,654;   -0,088;   -1,136
825,618;21371,350;   -1,542;   -1,500
826,181;21351,682;    0,458;   -1,318
826,745;21257,924;    1,367;   -1,045
827,309;21601,347;    1,185;    1,318
827,872;20965,225;    1,367;    0,955
828,436;21983,193;    1,185;   -0,773
828,999;21952,162;   -0,997;    1,227
829,563;20782,130;   -0,179;    1,136
830,126;20648,735;   -0,179;   -0,591
830,690;20654,431;   -1,997;    2,864
831,253;20163,763;   -0,543;    2,227
831,816;20352,186;   -1,906;    0,500
832,380;20274,973;    0,185;    0,864
832,943;20503,487;   -1,361;   -0,500
833,506;19904,547;    2,639;   -1,227
834,069;20727,970;    3,912;   -0,955
834,632;20762,393;    1,730;    1,318
835,195;20693,543;    1,003;    0,955
835,758;19821,876;   -0,997;    1,955
836,321;19712,935;    0,730;   -1,045
836,884;19790,631;   -0,725;   -0,955
837,447;19816,600;   -2,816;    1,773
838,010;20057,750;    0,366;    3,227
838,573;20354,446;   -1,179;    0,773
839,135;20336,233;   -1,361;   -0,955
839,698;19771,838;    1,275;    0,409
840,261;19286,806;    1,003;   -0,227
840,823;19130,138;   -0,543;    0,864
841,386;19417,743;   -0,452;   -2,409
841,948;19293,530;   -1,361;    1,773
842,511;19016,499;    0,912;    1,682
843,073;19154,286;    1,912;    0,227
843,636;18938,890;   -0,361;   -0,227
844,198;18920,768;    0,911;    0,591
844,760;19028,646;    1,093;    1,955
845,322;18660,796;    0,548;    1,136
845,885;19141,310;    0,730;    0,591
846,447;19555,279;   -1,998;    0,227
847,009;19162,066;    1,911;   -0,682
847,571;19468,034;    0,820;   -2,045
848,133;19579,457;   -1,089;   -1,864
848,695;19364,608;   -0,543;    1,409
849,257;18881,395;   -1,089;   -1,682
849,819;19134,000;   -0,998;   -0,409
850,381;19173,332;   -0,725;   -0,864
850,942;19516,937;    1,093;   -0,591
851,504;19489,542;    1,184;    0,227
852,066;19518,237;    1,275;   -1,591
852,628;18988,570;   -0,180;    1,955
853,189;18555,993;    1,638;    2,682
853,751;18691,143;   -0,907;    1,409
854,312;18446,930;   -0,453;   -1,682
854,874;18955,899;   -2,089;   -0,773
855,435;19476,776;   -0,907;   -1,682
855,997;19679,290;   -1,816;   -0,136
856,558;19005,623;    0,366;    1,773
857,119;19089,682;    0,820;    2,864
857,681;18791,560;    0,002;    0,318
858,242;18823,256;    1,911;   -2,136
858,803;19271,224;    0,456;   -0,773
859,364;19875,375;    0,184;   -4,773
859,925;19176,252;   -2,453;   -0,955
860,486;19042,494;   -0,453;   -0,955
861,047;18749,189;   -0,544;   -1,227
861,608;18529,976;   -1,089;   -0,773
862,169;18636,945;    0,638;   -0,045
862,730;18470,095;    0,456;    1,409
863,291;18747,700;   -0,635;   -0,500
863,852;19092,396;   -0,635;    1,955
864,412;18521,637;   -0,271;   -0,864
864,973;17101,970;   -0,089;    0,500
865,534;16961,756;   -1,726;    0,227
866,094;18482,089;    1,820;    0,227
866,655;18133,966;    1,274;    3,318
867,215;18439,935;    0,274;    0,136
867,776;18234,540;    0,547;   -0,136
868,336;18382,690;   -1,453;    0,136
868,897;17843,568;    2,638;    1,682
869,457;17553,991;    1,365;    0,318
870,017;17797,414;    0,547;   -1,227
870,578;18281,292;   -0,817;    0,773
871,138;17950,806;   -2,089;   -0,955
871,698;17540,320;   -0,817;   -1,318
872,258;17414,561;   -0,453;   -2,864
872,818;17761,984;    2,729;    0,045
873,378;17762,589;    0,638;    1,045
873,938;17249,194;    0,547;    0,500
874,498;17609,799;    0,274;   -1,955
875,058;17574,041;    2,183;    1,773
875,618;17405,100;    1,910;   -2,682
876,177;17296,523;    1,274;    0,136
876,737;16869,946;   -0,090;    1,955
877,297;16918,915;    0,183;    1,955
877,856;16896,702;   -0,362;    0,318
878,416;16827,125;    1,183;   -0,136
878,976;17075,548;   -1,817;    0,409
879,535;17258,426;    0,092;    3,136
880,095;16996,940;   -0,544;    0,045
880,654;17086,272;   -1,090;    1,318
881,213;17265,513;    2,456;    1,500
881,773;16881,755;    2,637;    2,682
882,332;17226,178;    3,365;    5,136
882,891;17067,055;    3,092;    2,136
883,451;17564,660;   -1,272;    1,682
884,010;16973,356;   -2,908;   -0,409
884,569;17098,961;   -0,999;   -0,045
885,128;17239,839;    2,819;   -1,864
885,687;17283,262;    4,455;    0,682
886,246;16990,412;    1,455;    2,136
886,805;16772,108;    2,455;    2,045
887,364;17060,804;   -0,999;   -0,500
887,922;17425,318;   -1,181;    0,045
888,481;16890,287;   -1,545;    0,591
889,040;17201,073;    1,183;    2,136
889,599;17896,860;    2,455;    1,409
890,157;17976,829;    1,455;    2,409
890,716;17632,797;   -0,090;    0,227
891,274;17457,311;    0,092;   -1,136
891,833;17895,462;    1,546;    0,864
892,391;17781,794;   -0,454;    0,500
892,950;17812,126;    1,819;   -0,773
893,508;18188,277;    0,455;   -0,409
894,067;17529,518;    0,637;    0,136
894,625;17432,487;   -0,636;   -1,500
895,183;17657,819;   -0,363;   -0,682
895,741;17566,515;    1,728;   -1,773
896,299;17379,665;   -0,545;   -2,409
896,858;17571,270;    0,819;   -1,591
897,416;17719,693;    2,728;   -1,318
897,974;17420,480;    1,819;    0,318
898,532;17609,267;    6,091;    2,682
899,089;17486,872;    2,091;   -0,682
899,647;17532,022;   -1,454;    1,318
900,205;17248,991;    1,182;    1,045
900,763;17424,778;   -0,454;    0,227
901,321;17462,473;    2,364;   -1,409
901,878;16833,260;   -1,000;   -0,773
902,436;16725,229;   -1,363;    1,318
902,994;17131,652;    4,728;    3,682
903,551;16541,166;    0,728;    0,409
904,109;16958,680;    0,182;   -1,409
904,666;16503,285;    2,455;    1,045
905,224;16329,617;    0,182;   -0,409
905,781;16120,768;    0,727;   -0,318
906,338;16206,918;   -1,363;    1,045
906,895;16112,614;    0,637;    2,045
907,453;16009,764;    1,727;    1,136
908,010;16086,733;   -0,909;    0,409
908,567;15727,429;    1,273;    0,591
909,124;15190,943;    0,364;   -1,500
909,681;15281,002;   -2,909;    0,682
910,238;15407,062;    0,636;   -1,318
910,795;15716,121;   -0,273;   -1,136
911,352;15340,212;   -2,909;   -2,682
911,909;14768,121;   -1,364;   -0,864
912,466;15254,848;   -3,182;    1,500
913,022;14823,303;   -1,636;    0,500
913,579;15172,758;   -0,909;    2,045
914,136;14862,121;    1,636;    0,955
914,692;15219,030;    0,091;   -1,227
915,249;14789,212;    1,455;    0,409
915,806;15012,939;    0,182;    1,955
916,362;14827,303;    1,909;    1,864
916,918;14364,576;    2,000;    1,045
917,475;14325,939;   -1,182;    0,955
918,031;14356,667;    3,364;   -0,045
918,587;13838,121;   -0,909;   -0,318
919,144;14069,758;   -2,273;    0,227
919,700;14346,576;    1,727;    0,773
920,256;13931,121;    0,727;    0,045
920,812;13547,030;   -0,727;   -1,045
921,368;13541,576;   -1,727;   -1,045
921,924;13176,212;    0,182;   -0,136
922,480;12769,485;   -0,545;    1,227
923,036;13403,394;    1,273;    1,955
923,592;13352,667;    0,455;    0,318
924,148;13274,667;    0,455;   -0,955
924,704;12586,848;   -1,364;   -0,409
925,259;12829,576;   -0,273;    0,591
925,815;12579,939;    1,455;    0,500
926,371;12088,939;    2,909;    1,409
926,926;11972,758;    2,091;    0,591
927,482;11629,485;   -1,364;    0,773
928,037;11501,212;    0,909;    2,045
928,593;11787,394;    1,636;    1,045
929,148;11609,394;   -1,818;   -1,500
929,704;11109,030;   -1,455;   -0,500
930,259;11273,303;    0,091;   -0,136
930,814;10369,212;   -0,818;    1,955
931,369;10032,939;    1,091;   -0,773
931,925; 9906,576;   -0,091;    0,136
932,480; 9854,758;   -2,818;   -2,591
933,035; 9725,848;    0,545;   -0,318
933,590; 9490,303;    0,364;   -1,773
934,145; 9105,667;   -1,364;   -0,318
934,700; 9436,121;    0,455;   -0,591
935,255; 9231,303;   -0,091;    0,045
935,809; 8528,667;    3,182;    0,864
936,364; 7639,030;   -0,455;   -0,136
936,919; 7582,303;    0,455;   -1,773
937,474; 7463,485;    1,455;    0,136
938,028; 7207,848;   -1,636;    1,136
938,583; 6689,394;    1,818;    4,682
939,138; 6954,303;    2,091;    2,136
939,692; 6393,030;    1,636;   -1,136
940,247; 6114,939;   -0,727;   -1,045
940,801; 5644,121;   -0,636;    0,227
941,355; 5534,121;   -0,364;    2,591
941,910; 5208,121;   -0,273;   -2,136
942,464; 5316,030;   -0,818;   -0,318
943,018; 5087,758;    1,000;   -0,227
943,572; 5037,303;    2,545;   -0,682
944,126; 4459,667;    0,091;   -0,409
944,681; 4334,667;    3,091;    0,227
945,235; 4296,303;    1,000;   -0,591
945,789; 4253,667;    0,364;   -1,864
946,342; 4352,303;    0,455;   -0,591
946,896; 4151,485;   -2,273;    0,955
947,450; 3904,576;    1,545;   -0,227
948,004; 4105,212;    1,727;   -0,045
948,558; 4095,848;    0,273;   -0,864
949,111; 4019,121;   -0,273;   -0,318
949,665; 4042,848;    1,636;   -0,682
950,219; 3913,485;   -0,091;   -1,045
950,772; 4008,394;   -1,909;    1,864
951,326; 3911,848;    0,545;   -0,955
951,879; 4001,030;    0,727;   -2,318
952,433; 4036,667;    0,000;    2,227
952,986; 3863,939;    2,909;    0,682
953,539; 3829,485;   -0,273;    0,591
954,093; 3743,303;    0,545;   -1,318
954,646; 3865,848;    0,909;    1,318
955,199; 3698,848;    0,000;   -0,500
955,752; 3598,667;   -0,455;    1,773
956,305; 3570,576;   -0,091;    2,955
956,858; 3742,212;    0,818;   -0,318
957,411; 3892,758;   -0,545;    2,136
957,964; 3712,303;    1,364;    2,136
958,517; 3685,848;   -1,545;    3,136
959,070; 3511,848;   -0,455;    1,955
959,623; 3609,394;    1,091;    1,500
960,176; 3375,667;    1,727;    2,045
960,728; 3360,394;   -2,727;    0,773
961,281; 3422,303;    0,545;    0,500
961,834; 3456,848;   -0,909;    0,864
962,386; 3390,485;    1,727;    1,045
962,939; 3299,576;    0,364;   -0,318
963,491; 3446,848;    0,455;    1,136
964,043; 3328,030;    1,182;    2,409
964,596; 3450,030;   -1,000;    2,227
965,148; 3281,576;   -1,000;    1,773
965,700; 3178,848;    1,091;   -0,227
966,253; 3347,394;   -0,636;    0,318
966,805; 3177,121;   -2,273;    0,773
967,357; 3223,030;    1,091;   -1,500
967,909; 3190,485;    0,455;   -1,227
968,461; 3295,212;    0,545;    3,136
969,013; 3233,212;   -0,182;   -0,864
969,565; 3320,030;   -0,455;   -1,136
970,117; 3355,121;   -0,364;    1,045
970,669; 3201,030;    0,182;   -0,136
971,220; 3063,667;   -0,455;   -1,500
971,772; 2997,848;   -0,636;   -0,318
972,324; 3118,121;    0,091;   -0,500
972,876; 3061,576;    0,818;   -0,045
973,427; 3201,121;    1,909;   -1,045
973,979; 3164,303;   -0,727;   -2,500
974,530; 3208,848;    1,818;    1,318
975,082; 3209,848;   -0,545;    1,682
975,633; 3094,485;    1,091;    1,682
976,184; 3239,939;    0,909;    0,773
976,736; 3011,576;    0,091;    0,227
977,287; 2837,576;   -0,909;   -0,500
977,838; 3009,121;    0,909;   -0,318
978,389; 3073,485;   -1,000;   -0,500
978,940; 2936,667;    0,545;   -0,409
979,491; 2965,667;    0,091;   -0,500
980,042; 2933,667;    0,182;    3,045
980,593; 2987,485;   -2,545;    0,227
981,144; 3023,394;    2,545;   -0,500
981,695; 2998,212;    1,455;    1,500
982,246; 2961,212;   -0,273;    1,045
982,797; 3124,939;   -1,727;    0,682
983,347; 3229,848;    0,364;    0,591
983,898; 3390,303;    3,091;    0,409
984,449; 3205,848;    2,182;    0,773
984,999; 3113,485;    1,455;   -1,136
985,550; 2898,121;    0,182;   -0,318
986,100; 2923,485;   -0,455;   -0,318
986,651; 2965,576;   -0,818;    0,045
987,201; 2955,758;   -1,000;   -0,591
987,751; 3021,758;    0,818;    2,864
988,302; 3012,576;    2,636;    1,500
988,852; 3016,212;    0,455;   -1,136
989,402; 3069,485;    0,091;    0,682
989,952; 2983,121;   -2,182;    0,864
990,502; 3101,030;   -0,091;    0,682
991,052; 3036,576;   -0,727;    0,045
991,602; 2899,030;   -2,909;    1,318
992,152; 2909,758;    0,455;    0,682
992,702; 2902,758;    1,364;   -0,045
993,252; 2817,576;   -3,000;   -0,500
993,802; 2912,848;   -0,273;    1,318
994,352; 3148,576;   -1,545;    1,136
994,901; 3221,394;   -0,182;    3,227
995,451; 3130,394;   -0,182;    0,318
996,000; 3237,394;    1,636;    0,318
996,550; 2943,030;    2,273;    0,227
997,100; 2936,667;    1,273;   -0,045
997,649; 3231,212;    2,182;    0,955
998,198; 2856,485;    1,727;   -1,500
998,748; 3063,485;    1,091;   -2,318
999,297; 2981,030;   -0,818;   -0,409
999,846; 3029,212;    1,000;   -0,773
1000,395; 3070,939;   -0,818;    0,500
1000,945; 3027,758;    1,818;   -0,773
1001,494; 3131,212;    2,364;    0,682
1002,043; 3109,667;    4,636;    0,864
1002,592; 2947,394;   -1,091;    1,955
1003,141; 3092,576;   -0,455;   -0,682
1003,690; 2957,394;    1,727;    0,500
1004,238; 3032,848;    1,455;   -0,045
1004,787; 2665,303;    1,364;    1,227
1005,336; 2897,394;    0,364;    0,682
1005,885; 3055,758;    1,364;   -2,773
1006,433; 3182,030;    0,545;    0,955
1006,982; 3244,394;    0,455;    1,682
1007,531; 3136,667;   -1,818;   -0,227
1008,079; 3091,939;   -2,273;    0,500
1008,627; 3236,121;   -1,455;    0,409
1009,176; 2965,394;    0,000;   -1,955
1009,724; 3028,212;    1,091;    0,864
1010,273; 3060,576;    1,273;    0,500
1010,821; 3164,303;    0,091;    1,409
1011,369; 2914,485;   -1,364;    1,318
1011,917; 2877,758;   -1,364;   -0,591
1012,465; 3173,758;    1,273;   -1,591
1013,013; 3287,848;    2,091;   -1,682
1013,561; 3173,212;    0,455;   -0,773
1014,109; 3229,939;   -1,909;    1,682
1014,657; 3093,939;    0,364;    0,591
1015,205; 3211,848;    1,636;   -0,955
1015,753; 3258,576;   -0,545;   -1,409
1016,301; 3305,212;   -2,636;    3,045
1016,848; 3293,394;   -1,273;    0,409
1017,396; 3338,030;    2,545;    0,045
1017,944; 3463,939;    1,182;    1,864
1018,491; 3225,758;    0,273;    1,409
1019,039; 3363,939;    0,455;    0,591
1019,586; 3292,121;   -1,364;    1,682
1020,134; 3373,030;    0,455;    1,500
1020,681; 3402,030;    0,182;   -1,136
1021,228; 3405,667;    2,909;   -2,227
1021,776; 3232,303;    1,182;   -1,136
1022,323; 3467,758;    0,455;    0,773
1022,870; 3390,848;   -1,000;   -0,045
1023,417; 3275,576;    2,636;    1,864
1023,964; 3431,939;    2,636;    1,227
1024,511; 3261,939;    1,000;    0,773
1025,058; 3052,303;    3,182;   -0,045
1025,605; 3120,485;   -2,273;    3,136
1026,152; 3343,485;    1,727;   -0,591
1026,699; 3084,212;    1,818;    1,318
1027,245; 3220,485;   -0,091;    0,318
1027,792; 3442,758;   -1,000;    1,409
1028,339; 3313,576;    2,364;   -0,045
1028,885; 3158,485;    1,000;   -0,227
1029,432; 3098,848;   -0,091;    0,227
1029,978; 3176,030;   -1,000;   -1,591
1030,525; 3097,485;    1,000;    0,409
1031,071; 3334,576;   -1,364;    1,136
1031,618; 3418,303;    0,364;    1,682
1032,164; 3208,758;   -0,091;    3,045
1032,710; 3264,212;    1,636;   -1,500
1033,256; 3185,212;   -0,636;   -0,136
1033,803; 3164,030;   -0,545;    1,500
1034,349; 2870,030;   -1,364;    0,136
1034,895; 3014,212;    0,000;   -0,318
1035,441; 2998,758;   -0,818;    0,318
1035,987; 3027,939;   -2,364;   -0,682
1036,533; 3007,030;   -1,455;   -0,955
1037,078; 3193,939;    1,455;    1,682
1037,624; 3029,576;    2,455;   -0,955
1038,170; 3061,030;    0,455;   -0,318
1038,716; 2968,121;    1,636;   -0,409
1039,261; 2868,576;   -2,273;   -0,773
1039,807; 2813,939;   -0,091;    3,409
1040,352; 2882,303;   -1,909;   -0,318
1040,898; 2936,212;   -1,545;   -0,682
1041,443; 2851,030;   -1,455;   -2,591
1041,989; 2858,939;    1,091;    1,591
1042,534; 2739,848;   -0,364;    2,591
1043,079; 2827,485;    2,909;    0,955
1043,625; 2623,667;    1,818;    0,500
1044,170; 2677,848;   -1,364;    1,045
1044,715; 2960,758;    2,455;    0,955
1045,260; 2774,121;    2,182;   -0,955
1045,805; 2801,848;    1,182;   -0,591
1046,350; 2724,848;    1,364;   -0,409
1046,895; 2703,848;    2,909;    1,591
1047,440; 2650,030;    5,364;    0,409
1047,985; 2535,576;    2,818;   -0,955
1048,530; 2444,939;    1,545;    1,227
1049,074; 2513,939;    0,000;    0,318
1049,619; 2503,303;   -1,364;    1,955
1050,164; 2306,121;    0,455;    0,227
1050,708; 2339,939;   -0,455;    0,045
1051,253; 2718,939;    1,273;   -2,227
1051,797; 2410,485;    0,818;   -1,318
1052,342; 2426,939;   -1,182;    1,045
1052,886; 2419,939;    0,364;   -1,409
1053,430; 2313,030;   -1,364;    0,136
1053,975; 2333,576;   -0,818;   -0,318
1054,519; 2311,394;   -0,727;    3,227
1055,063; 2339,848;    0,909;    1,318
1055,607; 2218,121;   -0,182;    0,227
1056,151; 2220,485;    2,909;    1,682
1056,695; 2140,939;    2,273;   -1,136
1057,239; 2212,758;   -1,727;   -0,682
1057,783; 2237,848;    0,818;   -1,500
1058,327; 2172,030;    0,000;    1,409
1058,871; 2426,030;   -0,545;    1,318
1059,415; 2121,576;   -0,818;   -0,045
1059,958; 2376,758;    1,455;    2,591
1060,502; 2098,848;   -1,000;   -0,773
1061,046; 1995,212;    0,364;   -0,955
1061,589; 1978,212;   -3,000;   -1,136
1062,133; 1858,212;   -1,273;    1,864
1062,676; 1809,939;    1,182;    0,864
1063,220; 1800,758;    1,091;    0,500
1063,763; 1839,030;    0,909;    1,136
1064,306; 1897,485;   -0,909;    1,864
1064,849; 1792,485;   -0,909;    0,591
1065,393; 1793,667;    2,000;   -1,500
1065,936; 1910,121;    0,182;   -0,409
1066,479; 1790,394;   -1,455;    1,318
1067,022; 1801,394;   -0,273;   -0,227
1067,565; 1704,485;   -0,091;   -1,318
1068,108; 1719,485;    0,727;   -0,591
1068,651; 1712,939;   -0,636;    1,409
1069,194; 1636,394;   -0,455;   -1,682
1069,736; 1646,303;   -1,273;    0,955
1070,279; 1623,030;   -1,364;   -0,500
1070,822; 1663,758;   -2,000;   -0,318
1071,364; 1758,758;   -0,364;    1,318
1071,907; 1579,394;   -0,727;    3,227
1072,450; 1485,121;    0,000;   -0,045
1072,992; 1483,394;   -0,273;    3,136
1073,535; 1625,758;    2,091;    2,136
1074,077; 1409,303;   -0,727;    2,045
1074,619; 1381,212;   -1,364;    0,591
1075,161; 1412,303;   -1,091;    1,500
1075,704; 1591,758;    1,545;    1,227
1076,246; 1377,485;   -0,182;    0,682
1076,788; 1321,121;   -0,364;    1,773
1077,330; 1397,758;    1,273;    2,136
1077,872; 1353,758;    0,909;    0,955
1078,414; 1580,758;    2,727;    0,773
1078,956; 1311,303;    1,273;   -0,227
1079,498; 1583,303;    1,636;    0,318
1080,040; 1287,485;    1,909;   -1,318
1080,581; 1228,212;    1,636;   -0,318
1081,123; 1143,939;    0,091;   -0,773
1081,665; 1186,212;   -1,182;   -0,955
1082,206; 1492,303;    1,364;   -0,500
1082,748; 1352,212;    0,727;    2,045
1083,289; 1235,121;   -2,000;    1,318
1083,831; 1141,030;   -0,545;    0,227
1084,372; 1172,394;    0,000;    0,591
1084,913; 1164,030;    1,091;    0,864
1085,455; 1145,212;   -1,909;   -2,045
1085,996; 1113,121;   -2,273;    0,136
1086,537; 1136,485;   -0,091;    0,864
1087,078; 1165,667;   -0,909;   -2,136
1087,619; 1220,212;   -1,273;    0,227
1088,160; 1130,485;    0,000;    1,318
1088,701; 1111,576;   -1,091;    0,682
1089,242; 1044,576;    1,364;   -2,227
1089,783; 1164,758;   -0,273;    1,409
1090,324; 1114,758;    0,455;    0,682
1090,865;  997,485;    2,727;   -0,409
1091,405;  955,485;    0,727;    2,227
1091,946;  981,848;    0,182;   -0,955
1092,487;  917,667;    0,818;   -1,409
1093,027; 1093,394;   -1,364;   -1,500
1093,568;  933,303;   -0,364;    1,227
1094,108; 1043,030;    0,273;    1,773
1094,649;  973,212;   -1,182;    0,136
1095,189;  900,576;   -0,636;   -0,682
1095,729;  856,212;   -0,091;    0,955
1096,269;  856,121;    0,727;   -0,955
1096,810; 1172,303;   -1,364;    0,500
1097,350; 1005,030;    1,364;   -0,773
1097,890;  905,576;    0,364;    1,227
1098,430; 1168,121;    2,364;    2,864
1098,970; 1038,576;    2,182;    1,682
1099,510;  885,939;    0,545;   -2,318
1100,050;  820,303;    1,000;   -1,591
1100,589;  781,121;   -0,727;   -0,318
1101,129;  913,030;    0,818;   -0,955
1101,669; 1077,667;    1,727;    2,136
1102,209;  887,758;   -0,091;    2,227
1102,748;  839,394;    0,000;    0,955
1103,288;  835,758;    1,273;   -1,227
1103,827;  862,121;    3,091;   -2,227
1104,367;  737,394;   -0,091;   -2,409
1104,906;  694,758;    1,364;   -1,136
1105,445;  779,667;    0,636;   -1,136
1105,985;  718,394;   -0,727;    1,500
1106,524;  769,758;   -1,727;   -0,682
1107,063;  751,030;   -2,727;    1,409
1107,602;  706,939;   -1,909;   -1,500
1108,141;  635,121;   -1,909;    1,500
1108,680;  747,212;   -3,455;   -0,591
1109,219;  663,485;   -0,909;   -0,500
1109,758;  676,121;    0,455;    0,682
1110,297;  648,394;    1,000;   -0,682
1110,836;  595,303;   -0,727;    0,955
1111,375;  750,667;   -2,545;    0,409
1111,913;  765,121;   -1,000;    0,773
1112,452;  696,848;   -0,273;    0,136
1112,991;  592,212;    1,091;    1,955
1113,529;  544,212;   -0,818;   -0,045
1114,068;  617,303;   -0,273;    2,955
1114,606;  510,848;   -0,364;   -0,955
1115,144;  678,576;   -1,273;    1,045
1115,683;  611,394;   -0,727;    0,318
1116,221;  660,848;   -0,455;   -0,864
1116,759;  578,848;    0,636;   -0,864
1117,297;  785,485;    0,000;    1,864
1117,836;  579,485;   -2,182;   -1,227
1118,374;  592,030;    0,182;   -0,682
1118,912;  528,030;    0,909;    2,682
1119,450;  520,394;    1,000;    0,864
1119,988;  580,576;    1,545;    2,136
1120,525; 1028,667;    5,091;    3,318
1121,063;  726,303;    1,182;    1,864
1121,601;  533,212;   -0,909;   -1,227
1122,139;  485,030;   -0,727;   -2,045
1122,676;  695,121;   -0,727;    2,773
1123,214;  612,667;   -1,182;    4,409
1123,751;  425,303;    1,727;    2,227
1124,289;  561,848;   -0,091;   -0,409
1124,826;  428,758;    1,727;    0,227
1125,364;  352,939;    1,727;   -0,955
1125,901;  550,303;    1,182;    1,227
1126,438;  663,121;    0,818;    0,955
1126,975;  376,485;   -0,727;   -0,773
1127,513;  446,848;    0,273;    2,136
1128,050;  354,576;    1,636;   -0,682
1128,587;  459,758;    2,000;   -0,227
1129,124;  505,121;    0,091;    1,318
1129,661;  359,758;    0,273;    0,227
1130,198;  529,303;    1,636;    0,773
1130,734;  479,030;    0,182;    1,409
1131,271;  332,848;   -0,909;    0,864
1131,808;  506,212;    2,909;    3,045
1132,345;  378,121;    1,545;    0,318
1132,881;  252,485;   -1,545;   -1,864
1133,418;  397,121;    0,727;   -1,136
1133,954;  331,758;    2,455;   -2,682
1134,491;  410,848;    1,364;   -0,773
1135,027;  299,667;    2,364;    0,864
1135,564;  391,030;    0,273;    2,955
1136,100;  372,030;    0,364;    2,136
1136,636;  257,485;   -1,273;   -1,045
1137,172;  367,485;    0,000;   -1,045
1137,708;  284,939;   -1,364;   -1,045
1138,245;  286,758;    1,273;   -1,227
1138,781;  231,848;    1,091;   -3,318
1139,317;  306,303;    1,273;   -1,409
1139,852;  293,576;    3,091;    0,136
1140,388;  423,848;   -1,182;   -0,409
1140,924;  295,758;   -1,091;   -2,227
1141,460;  227,394;   -1,636;    0,136
1141,996;  165,121;   -1,364;    2,682
1142,531;  220,758;    1,364;    3,318
1143,067;  434,667;    1,182;    1,045
1143,602;  495,030;   -0,091;   -0,318
1144,138;  328,121;   -2,636;    1,045
1144,673;  193,485;   -1,455;    1,409
1145,209;  268,394;   -1,909;   -0,318
1145,744;  193,394;   -0,727;    0,864
1146,279;  321,758;    1,818;   -0,136
1146,815;  238,030;    1,545;   -2,682
1147,350;  282,939;   -1,364;    0,045
1147,885;  190,848;   -0,818;   -1,318
1148,420;  190,121;   -2,273;    0,773
1148,955;  176,576;   -1,727;    1,864
1149,490;  194,030;   -0,909;   -1,591
1150,025;  176,576;    0,455;   -1,773
1150,560;  295,939;    1,091;   -0,955
1151,094;  261,576;    1,455;   -0,591
1151,629;  266,667;    1,636;    0,864
1152,164;  184,576;    1,364;    1,318
1152,698;  143,394;   -0,182;   -0,136
1153,233;  109,758;    0,091;   -0,682
1153,767;  160,303;   -3,000;   -2,318
1154,302;  209,303;   -1,455;    1,773
1154,836;  208,121;   -0,455;   -2,136
1155,371;  265,485;   -1,364;    3,682
1155,905;  217,394;   -0,636;    1,682
1156,439;  183,667;   -0,636;   -0,500
1156,973;  214,667;    0,364;    0,318
1157,507;  145,848;   -0,364;    0,682
1158,042;  171,303;   -0,727;    1,045
1158,576;  222,848;    0,182;    1,773
1159,110;  212,394;   -0,818;    2,409
1159,643;  186,939;    0,636;   -0,045
1160,177;  125,030;   -1,545;    1,500

