
Integration time [ms]:   0,040
Averaging Nr. [scans]: 11
Smoothing Nr. [pixels]: 0
Data measured with spectrometer [name]: 7318044SP
Wave   ;Sample   ;Dark     ;Reference
[nm]   ;[counts] ;[counts] ;[counts] 

186,757;   -5,650;   31,551;    1,318
187,357;   25,415;   22,551;    0,955
187,958;    1,314;   15,460;   -1,591
188,558;   38,248;    8,915;   -1,227
189,159;    6,522;    6,733;   -4,500
189,759;  -12,970;    7,278;   -3,591
190,360;  -19,694;    2,824;   -2,136
190,960;   10,602;    2,915;   -4,136
191,560;   18,638;    3,189;   -6,591
192,161;  227,814;    4,372;   -3,500
192,761;   86,843;    4,010;   -3,227
193,361;   31,770;    1,556;   -3,773
193,962;   69,047;    2,010;   -2,682
194,562;    9,768;    1,189;   -3,955
195,162;   11,925;   -2,448;   -2,227
195,762;  129,374;   -3,176;   -0,045
196,362;   88,168;    1,370;   -2,500
196,963;    2,749;    2,006;   -0,864
197,563;   43,618;    1,551;   -0,955
198,163;   -9,157;    0,096;   -0,682
198,763;    4,509;    1,733;   -0,500
199,363;   54,220;    3,096;   -0,500
199,963;   24,761;    0,369;    0,409
200,563;   15,138;    2,823;   -1,409
201,163;   -2,560;    3,277;   -0,227
201,763;   32,049;    3,732;    0,318
202,363;    2,157;    1,459;    1,500
202,963;   41,856;    1,459;    1,045
203,563;   90,191;    0,277;    0,500
204,162;   13,486;    2,096;   -1,864
204,762;    4,542;    0,550;    0,591
205,362;  -13,766;    3,004;    1,955
205,962;    6,707;    3,096;    1,955
206,562;   16,307;    1,823;    2,318
207,161;    5,298;   -0,087;    0,318
207,761;   67,248;    1,277;    2,409
208,361;    9,224;   -0,268;    1,409
208,960;   21,253;    0,459;    1,500
209,560;   19,649;    1,277;    1,591
210,160;   34,026;    0,550;    1,864
210,759;    5,548;    4,186;    1,227
211,359;   -3,086;    1,459;    1,045
211,958;  101,770;    1,277;    2,045
212,558;  101,646;    1,732;    1,864
213,157;   32,809;    1,822;    1,500
213,757;  172,856;    3,822;   -0,227
214,356;   60,436;    1,277;   -0,409
214,956;  148,789;    3,095;    0,409
215,555;   35,247;    2,095;    2,136
216,154;    1,643;   -2,723;   -0,591
216,754;    8,632;    0,277;    0,773
217,353;   17,666;   -0,268;   -1,045
217,952;  -28,941;   -0,178;    0,318
218,552;   31,610;    1,368;   -0,773
219,151;    2,617;    0,277;    0,955
219,750;  -12,668;    0,004;   -0,227
220,349;  -19,577;   -0,451;    1,045
220,948;   42,319;   -1,360;    1,136
221,548;   -3,605;    0,913;    1,227
222,147;    4,581;   -0,087;   -0,409
222,746;   77,030;   -0,451;   -0,955
223,345;   27,421;    0,731;    0,500
223,944;   31,466;   -0,451;    0,773
224,543;   34,303;    1,004;   -1,409
225,142;   22,499;    0,094;    0,136
225,741;   20,109;   -0,814;    1,045
226,340;   19,168;   -0,451;   -0,955
226,939;   67,479;   -0,996;   -0,136
227,538;    9,579;   -0,360;   -0,773
228,137;   80,857;   -0,814;    0,864
228,735;   49,033;   -0,541;    1,227
229,334;  -16,887;   -0,905;   -0,227
229,933;   72,189;    0,459;    0,591
230,532;   73,395;    1,186;   -0,409
231,131;  117,019;    1,732;    0,318
231,729;   48,343;   -2,450;   -2,318
232,328;   17,749;   -0,723;   -1,500
232,927;   20,772;    1,004;   -0,500
233,525;   18,218;    3,640;    0,045
234,124;   28,272;    2,368;   -1,591
234,723;   -4,502;    0,913;   -1,045
235,321;  -14,627;    2,277;    0,136
235,920;   -6,288;    1,186;   -1,227
236,518;   68,314;    3,459;    0,318
237,117;    5,550;    0,004;   -0,227
237,715;   13,087;    0,640;   -0,500
238,314;   18,321;   -0,087;   -2,318
238,912;   71,262;   -0,723;   -1,409
239,510;   33,876;    0,459;   -1,227
240,109;   78,305;    0,004;    3,773
240,707;   64,756;   -0,996;    1,227
241,305;   -5,083;    0,550;    0,136
241,904;   35,554;   -0,178;   -2,045
242,502;   98,298;   -0,632;   -0,227
243,100;   44,621;   -0,087;   -0,955
243,698;    2,703;    0,732;    1,682
244,297;   17,482;   -0,632;    0,682
244,895;   12,180;   -0,269;   -2,318
245,493;   82,294;    2,186;   -0,591
246,091;  100,603;    1,368;   -1,318
246,689;   49,598;    1,004;    0,591
247,287;   38,014;    0,822;   -1,136
247,885;   19,398;   -1,451;    1,227
248,483;    4,795;    1,822;   -0,500
249,081;   49,198;    0,185;    1,591
249,679;   51,208;   -0,178;    1,682
250,277;    1,268;   -1,723;    0,864
250,875;   43,718;   -1,087;   -1,045
251,473;   13,769;   -1,178;    0,500
252,071;   50,250;    1,459;    1,045
252,669;   17,011;   -1,814;    0,318
253,267;    2,199;   -0,087;    0,773
253,864;   19,469;   -0,360;    0,682
254,462;   65,381;    1,640;    1,591
255,060;   -2,010;   -0,269;    1,318
255,658;   -2,262;    0,822;   -0,136
256,255;   17,100;    0,186;   -2,045
256,853;   34,943;   -0,269;    1,409
257,451;    9,192;    0,822;    1,864
258,048;  166,437;    1,822;    1,864
258,646;   70,376;    1,731;   -1,045
259,243;  106,761;   -0,087;    2,227
259,841;   49,166;   -0,814;    0,318
260,438;   -2,902;   -0,087;    0,864
261,036;   37,975;   -1,905;    1,409
261,633;    0,568;   -0,087;    2,227
262,231;  -19,246;    2,731;   -0,045
262,828;  -21,791;   -0,905;    1,136
263,425;  -10,665;    0,913;   -0,591
264,023;   -0,919;    0,186;    0,045
264,620;   51,728;   -0,360;   -0,318
265,217;   94,017;   -2,087;    3,136
265,815;   11,187;   -1,905;    2,136
266,412;   41,028;    0,731;    0,136
267,009;   30,641;   -1,451;    0,773
267,606;   68,285;    0,822;   -0,955
268,203;   10,574;   -0,269;   -0,591
268,801;   15,401;    1,731;    0,591
269,398;   -2,553;   -0,360;    2,500
269,995;   34,391;    0,277;    1,591
270,592;   20,691;   -0,632;   -0,500
271,189;  -12,249;    0,186;    0,409
271,786;  -20,355;   -0,632;    1,227
272,383;   49,622;   -1,087;    0,227
272,980;    4,165;    0,277;    0,318
273,577;  -11,375;    0,004;    1,227
274,174;   -9,776;    0,822;    2,591
274,771;   38,011;   -0,814;   -0,773
275,367;  198,346;    2,277;    1,409
275,964;   85,113;    0,731;   -0,500
276,561;    5,119;    1,549;   -1,045
277,158;  -28,246;    0,095;   -1,773
277,755;   71,925;    2,185;    0,409
278,351;   39,643;   -0,451;   -1,500
278,948;   54,069;   -0,815;    0,045
279,545;   35,399;   -1,360;    2,318
280,141;   76,715;   -1,723;   -2,045
280,738;   87,000;   -0,451;   -0,136
281,334;   19,447;   -1,633;    0,591
281,931;    1,233;   -0,087;   -1,318
282,528;   49,783;    0,822;   -0,500
283,124;   81,654;   -1,087;   -0,500
283,721;   65,393;   -0,451;    1,409
284,317;   24,303;    0,185;    2,500
284,913;   75,281;   -1,360;    0,591
285,510;  129,736;    0,640;   -0,318
286,106;   79,813;   -2,269;   -0,955
286,703;   36,293;   -0,360;    1,955
287,299;   20,166;   -1,451;   -0,591
287,895;   15,124;    0,822;   -1,045
288,491;    8,537;    0,186;    2,136
289,088;   39,010;   -2,360;    2,409
289,684;   36,738;   -1,723;    1,500
290,280;  101,426;    0,368;    0,682
290,876;   78,145;    1,822;    5,500
291,472;   64,240;    1,276;    2,227
292,068;   70,006;    1,367;    0,227
292,665;   27,984;    2,095;    0,773
293,261;   -2,874;    0,276;    2,136
293,857;   56,415;    2,913;    2,136
294,453;   24,365;    3,550;    0,955
295,049;  105,216;   -0,268;    1,955
295,644;   50,066;    0,095;    0,136
296,240;   -8,151;   -0,905;   -0,136
296,836;   29,364;   -0,995;    0,318
297,432;   68,660;    1,096;   -0,500
298,028;   64,633;    0,732;    0,773
298,624;   37,380;    1,459;    1,864
299,220;   28,571;    2,368;    0,591
299,815;   17,429;    1,005;   -0,409
300,411;   58,034;    0,914;    1,773
301,007;   75,253;    1,368;    0,227
301,602;   17,706;   -0,541;   -2,318
302,198;   79,016;    0,732;   -0,773
302,794;   28,613;    1,187;   -0,500
303,389;   -2,643;   -1,177;    1,045
303,985;   11,160;    0,550;    1,409
304,580;   60,608;    1,459;    1,591
305,176;   25,457;   -3,086;    0,136
305,771;  -17,643;   -1,268;   -1,227
306,367;  146,545;    4,095;    0,136
306,962;   52,524;    0,641;    1,500
307,558;   68,915;   -0,450;    0,136
308,153;   56,007;    1,095;   -1,136
308,748;    2,851;   -0,814;    1,682
309,344;  133,850;   -0,632;   -1,318
309,939;  117,741;   -1,905;   -1,318
310,534;   30,705;   -0,086;   -1,682
311,130;   13,921;    0,459;   -2,500
311,725;   -0,126;    1,004;   -0,500
312,320;    9,321;    2,459;    0,045
312,915;   47,165;    1,459;   -1,045
313,510;  137,094;    1,550;   -0,500
314,105;   25,730;    1,096;    1,409
314,700;  -11,499;   -3,086;   -1,045
315,295;   15,062;   -0,904;    0,045
315,890;    3,786;    1,277;    0,864
316,485;   39,522;   -0,359;   -0,318
317,080;    2,535;   -3,086;    1,591
317,675;  126,963;    2,005;   -0,682
318,270;  228,407;    5,550;    3,318
318,865;  144,402;    3,278;    3,045
319,460;   78,219;   -0,904;    0,591
320,055;    9,229;   -0,541;   -1,227
320,650;   12,714;   -1,995;   -0,591
321,244;   17,984;   -0,177;   -1,409
321,839;   16,245;   -1,541;   -0,227
322,434;   27,776;   -1,086;   -1,591
323,029;    2,103;    1,732;    1,591
323,623;    6,760;    1,550;    0,773
324,218;   91,610;    2,368;    1,409
324,812;   55,255;    1,096;    1,591
325,407;   40,674;   -0,814;    2,045
326,002;  115,107;    0,277;   -0,409
326,596;   78,030;    0,914;    1,318
327,191;   16,262;    0,823;   -1,045
327,785;   19,303;   -0,813;   -0,227
328,379;    4,203;    1,368;    0,136
328,974;   12,780;    0,914;   -3,955
329,568;   44,020;    0,186;   -2,409
330,163;   82,146;    2,096;    1,045
330,757;    9,506;    2,459;    1,591
331,351;  -10,704;    0,459;    0,682
331,945;   -6,847;    0,914;    1,409
332,540;   30,029;   -1,723;   -0,591
333,134;   32,940;   -1,086;    0,773
333,728;   43,996;    0,005;    0,318
334,322;   -0,776;   -1,177;   -0,864
334,916;    0,605;    0,277;    0,955
335,510;   59,953;   -0,450;   -0,136
336,105;   45,080;   -1,086;    1,591
336,699;    6,863;   -1,086;    0,591
337,293;   24,016;   -1,723;    0,318
337,887;   -0,556;   -2,723;    1,955
338,481;   50,419;    0,459;    0,591
339,074;   97,327;   -0,359;    2,682
339,668;   80,721;   -1,632;    1,227
340,262;  345,977;    1,732;    3,227
340,856;  134,628;    1,822;   -0,682
341,450;   17,282;    1,004;    1,864
342,044;   40,016;    1,459;    0,136
342,637;   81,851;    0,913;   -2,136
343,231;   37,074;   -2,360;    0,682
343,825;   13,676;   -1,086;   -0,591
344,419;   25,641;   -1,995;    0,500
345,012;  276,896;    2,459;    4,045
345,606;  161,012;    4,641;    1,591
346,199;   32,882;   -1,813;   -0,227
346,793;   75,367;    1,914;    2,045
347,386;   12,126;   -0,813;   -1,136
347,980;  -18,121;   -0,268;   -0,045
348,573;   10,940;    2,278;    0,409
349,167;  180,081;    5,278;    4,773
349,760;   84,669;    2,914;    2,682
350,354;   72,078;   -0,813;    1,136
350,947;   80,044;    1,096;    1,682
351,540;   39,702;   -0,358;   -1,409
352,134;   -1,844;    1,096;    1,136
352,727;    1,305;   -0,086;    1,136
353,320;    8,216;    0,005;    0,591
353,913;  -17,992;   -1,995;    1,864
354,507;   62,309;    0,823;   -1,227
355,100;   10,548;    0,460;    0,864
355,693;  226,980;    2,005;    2,409
356,286;   96,878;    0,823;    2,773
356,879;   29,862;   -0,722;    1,227
357,472;   36,729;   -0,904;    1,500
358,065;   47,972;   -0,722;    2,500
358,658;   -9,961;   -0,540;    2,318
359,251;  -17,223;   -1,631;   -0,591
359,844;   57,592;   -1,904;   -1,136
360,437;   85,709;   -2,995;    0,045
361,030;    8,654;    1,369;   -0,682
361,623;   19,446;    2,824;    0,318
362,215;  136,442;   -0,086;    2,045
362,808;   43,930;   -2,358;   -1,682
363,401;   22,460;   -2,449;    0,136
363,994;  136,378;   -0,631;   -1,500
364,586;   32,886;    0,824;   -1,500
365,179;   19,819;   -0,449;   -1,136
365,772;  -26,564;   -1,995;    2,045
366,364;   21,997;    1,915;   -3,227
366,957;   35,379;    2,279;   -0,045
367,549;   19,981;    2,188;   -0,864
368,142;   29,934;    1,825;   -1,500
368,734;   11,690;    0,734;   -2,136
369,327;  -16,325;    1,643;   -0,500
369,919;   -3,812;   -1,538;    0,409
370,512;    7,136;   -1,083;   -0,500
371,104;  187,447;   -0,901;    1,591
371,696;  208,642;    1,191;   -0,955
372,289;  109,716;    0,373;    1,136
372,881;   86,422;   -2,080;    1,318
373,473;    4,272;   -2,170;    1,136
374,066;   77,309;   -0,169;    0,500
374,658;   54,684;    0,378;    1,136
375,250;   -5,152;    0,653;   -1,409
375,842;   29,396;    0,473;   -0,045
376,434;   -7,618;   -0,435;   -0,409
377,026;  -30,362;    0,204;   -2,500
377,618;   12,168;   -0,158;   -0,682
378,210;  -46,050;   -0,338;   -1,955
378,802;  -52,870;    0,754;   -0,591
379,394;  325,255;    1,846;    0,682
379,986;   73,408;    1,393;   -0,955
380,578;  -23,415;   -0,153;    0,773
381,170;  221,972;   -0,972;    0,045
381,762;  139,776;    0,755;    1,409
382,354;  111,238;   -0,065;   -1,318
382,945;   31,566;   -2,976;    0,318
383,537;  -10,209;   -2,705;   -1,955
384,129;   -9,222;   -2,160;   -1,136
384,721;   95,970;   -0,252;    0,955
385,312;   45,491;   -0,161;   -0,955
385,904;  113,292;   -2,706;    1,591
386,496;   36,650;   -0,979;    1,045
387,087;  162,312;    1,022;    2,500
387,679;   95,061;   -1,160;    0,045
388,270;   68,207;    2,840;    2,045
388,862;   39,691;    1,295;   -0,318
389,453;   32,454;   -0,887;    1,045
390,045;   34,149;   -0,705;   -2,682
390,636;  -66,214;    0,204;   -0,591
391,227;   -4,299;   -0,523;   -0,045
391,819;  -27,478;    0,204;    0,773
392,410;  207,441;    1,022;    0,045
393,001;   36,593;   -0,979;   -1,591
393,593;   91,072;    1,930;   -0,045
394,184;  133,241;    1,385;   -0,409
394,775;   26,006;    1,839;    2,136
395,366;  -47,044;    1,385;    0,773
395,957;  109,939;    0,113;    0,136
396,548;    7,901;   -0,342;    2,682
397,139;  105,134;   -2,433;    0,591
397,730;   32,822;   -1,888;    0,955
398,321;   44,500;   -1,252;    0,955
398,912;  -19,787;   -0,615;    0,136
399,503;  -20,130;   -3,524;   -1,409
400,094;   31,264;    0,294;    1,682
400,685;   23,328;   -0,433;    0,045
401,276;  -20,170;    0,930;   -0,955
401,867;  -43,974;   -0,888;    0,773
402,458;  -81,214;   -2,251;   -2,318
403,048;   54,792;    1,112;    0,591
403,639;    7,893;    0,840;    0,864
404,230;  106,926;    2,476;    0,318
404,821;  157,416;   -0,615;    0,045
405,411;   73,911;    1,203;   -2,591
406,002;   -4,983;   -1,252;   -1,136
406,592;  194,518;    2,294;    0,045
407,183;   77,188;    0,566;   -1,500
407,774;   56,084;    3,475;   -0,136
408,364;    8,911;    0,930;    0,409
408,954;  120,667;    0,384;    1,227
409,545;  109,468;    1,021;    1,045
410,135;   75,078;    1,293;    0,500
410,726;   37,477;    1,838;    0,318
411,316;  217,337;    0,111;    0,773
411,906;   56,945;   -0,253;   -0,409
412,497;   61,591;   -1,070;   -0,045
413,087;   15,394;   -1,980;   -0,227
413,677;  -49,036;   -0,707;    3,864
414,267;  -59,817;    0,656;    1,409
414,857;  -75,784;   -2,980;    4,227
415,448;  -66,456;    0,839;    0,500
416,038;  -30,396;    0,020;   -0,591
416,628;   -0,689;   -0,889;    0,409
417,218;   52,447;    0,565;    3,318
417,808;  197,844;    0,202;   -0,409
418,398;   75,791;    0,020;    2,682
418,988;  -31,850;    2,020;    0,591
419,578;   58,511;   -0,707;    1,409
420,168;    0,593;   -1,343;   -0,955
420,757;  138,577;   -1,343;   -1,500
421,347;   37,635;    0,111;   -0,227
421,937;    5,469;    2,292;    1,409
422,527;  135,450;    0,838;   -0,773
423,116;  259,545;   -0,253;   -0,045
423,706;   -3,052;   -1,889;    0,318
424,296;  -32,790;    1,384;    0,682
424,885;   84,574;   -0,071;   -3,045
425,475;   53,202;    1,474;   -2,864
426,065;  -47,959;   -0,980;   -0,318
426,654;  -57,577;   -0,435;   -0,318
427,244;  188,438;    0,020;    1,409
427,833;  158,127;    1,383;   -0,500
428,423;   35,876;   -0,526;    1,136
429,012;   39,480;   -0,344;   -1,136
429,601;  161,862;   -1,344;    0,136
430,191;   49,568;    1,292;    4,318
430,780;  -40,145;   -0,344;   -0,409
431,369;  127,049;    0,746;   -0,045
431,959;   25,745;   -1,254;    0,500
432,548;  -24,388;   -1,163;   -0,045
433,137;  -85,139;   -1,254;   -1,318
433,726;  -19,189;    0,292;    0,500
434,315;   12,647;   -0,526;    2,409
434,905;  115,809;   -1,254;    1,409
435,494;  111,821;    0,746;    0,955
436,083;  -16,012;   -0,981;   -0,955
436,672;   81,418;    0,110;    0,500
437,261;   22,871;    0,292;   -1,955
437,850;  244,875;    1,383;    0,682
438,439;  288,774;    3,291;    1,955
439,027;  387,819;    3,655;    1,773
439,616;  327,234;    2,927;    1,227
440,205;  106,461;    0,200;   -2,136
440,794;   55,262;    2,109;   -0,045
441,383;   -3,905;   -1,346;   -0,591
441,971;  -34,290;   -2,436;    0,591
442,560;  -24,398;    0,563;   -1,773
443,149; -108,715;    0,379;   -1,318
443,737;  -66,764;   -0,074;   -2,318
444,326;  -38,745;    0,018;    0,318
444,915;    6,350;   -1,982;    0,864
445,503;   11,107;   -2,891;   -0,318
446,092;  264,152;    0,382;    2,136
446,680;  193,416;    0,382;    0,318
447,269;  110,343;   -0,346;   -0,318
447,857;   90,545;    0,018;   -1,773
448,445;   50,070;    0,563;    1,318
449,034;  -10,022;   -1,528;   -1,136
449,622;   -7,016;   -1,073;    3,500
450,210;  277,585;    2,017;    2,227
450,799;  188,260;    0,290;   -0,591
451,387;  144,518;    1,381;   -0,591
451,975;  133,549;    2,654;    0,864
452,563;  210,508;    3,472;    2,318
453,151;   31,395;   -0,528;   -1,227
453,739;   78,954;   -1,347;    0,136
454,328;  183,577;    2,381;   -2,136
454,916;  118,243;    2,562;   -0,136
455,504;  134,101;    1,017;    1,227
456,092;   23,880;    0,017;   -1,591
456,679;  -16,772;    1,472;    0,682
457,267;  380,702;    4,017;    1,045
457,855;   73,282;    1,017;    1,409
458,443;  -57,585;   -0,165;    1,682
459,031;   96,241;    0,108;    2,409
459,619;   59,682;   -1,801;    2,864
460,206;  -36,418;    0,835;    2,045
460,794;  -29,581;   -2,983;   -0,227
461,382;   17,163;   -0,529;   -0,864
461,970;    8,007;    1,198;    1,864
462,557;  -61,244;   -0,711;   -0,682
463,145;   60,117;   -3,165;   -1,682
463,732;  295,385;    2,016;   -1,045
464,320;   69,641;   -0,075;   -3,045
464,907;  218,377;    2,743;   -0,773
465,495;  125,429;    0,743;   -1,227
466,082;   41,384;   -1,984;   -0,045
466,670;   69,042;   -2,529;    1,227
467,257;  -30,175;   -1,711;    2,045
467,844;   71,816;   -0,075;    0,045
468,432;   42,052;    0,834;    3,500
469,019;    4,084;    0,925;   -1,773
469,606;   87,418;    0,470;    3,682
470,193;  114,857;   -1,439;    0,227
470,780;   68,392;   -2,075;    0,864
471,368;   -3,749;   -1,257;   -0,773
471,955;  113,747;    1,379;   -0,682
472,542;   66,923;    0,652;   -1,136
473,129;  -50,525;   -0,166;    0,136
473,716;  -24,596;    1,470;    0,591
474,303;    0,688;    0,652;   -0,864
474,890;   -2,656;   -1,439;   -0,500
475,477;  109,929;   -1,621;    0,409
476,064;   13,362;    1,106;   -1,591
476,650;  141,855;    0,288;    0,318
477,237;   38,673;   -0,258;    0,955
477,824;   19,556;   -1,076;    0,864
478,411;  -66,829;   -1,894;   -0,318
478,997;  -73,975;    0,560;   -0,773
479,584; -118,659;    1,196;   -0,409
480,171;   56,183;   -0,440;   -0,773
480,757;  115,365;    2,651;    0,773
481,344;   13,253;    0,469;    0,409
481,931;  -88,513;    1,105;    1,045
482,517;   43,481;   -1,258;    0,318
483,104;  133,854;    1,106;    2,864
483,690;   -2,129;   -1,804;    0,045
484,276;  -21,612;   -0,895;    0,227
484,863;  181,134;    2,469;    1,136
485,449;   24,670;   -0,077;    0,318
486,035;   -8,185;   -1,986;   -0,136
486,622;   76,244;   -0,895;    0,045
487,208;   -0,620;    1,378;    1,500
487,794;  -71,028;    0,741;    0,318
488,380;  -73,075;    0,105;   -1,409
488,967;  -69,495;   -1,168;   -0,409
489,553;  -53,552;   -1,895;   -1,409
490,139;   22,609;    1,559;    0,773
490,725;  -47,091;    0,741;   -0,227
491,311;    1,395;    3,287;    3,045
491,897;  -25,588;   -0,986;    1,500
492,483;  -19,603;    0,105;    1,227
493,069;  416,583;    3,923;    0,864
493,655;  134,084;    1,650;    0,682
494,241;   -0,521;    1,377;   -0,955
494,826;    6,352;    0,287;   -1,045
495,412;   77,111;    2,559;   -0,682
495,998;  -18,879;   -0,805;   -0,318
496,584;   46,717;    0,377;    1,045
497,169;   66,110;    1,014;   -0,682
497,755;   -1,178;    0,650;    1,227
498,341;  127,922;    0,559;    0,318
498,926;  246,070;    1,832;    1,955
499,512;  -13,098;    1,286;    2,955
500,097;   -3,377;    0,195;   -0,318
500,683;   19,284;   -0,350;    2,136
501,268;  -28,582;   -0,169;   -0,955
501,854;   -0,366;   -0,169;    1,227
502,439;  -20,393;   -0,624;   -1,773
503,024;    5,192;    0,195;    0,500
503,610;   31,571;   -0,078;   -0,682
504,195;  -21,881;    0,558;    1,955
504,780;   62,168;    2,922;    1,227
505,366;  159,044;    3,013;    2,864
505,951;   86,623;    0,740;    1,045
506,536;    6,167;   -3,260;   -3,682
507,121;   52,860;    0,285;   -0,318
507,706;    6,604;    2,376;    1,045
508,291;  -37,372;    2,649;    1,136
508,876;  -39,763;   -0,988;    2,591
509,461;   -2,333;   -0,169;   -0,773
510,046;   33,131;    0,194;    0,318
510,631;   55,946;   -0,351;   -0,773
511,216;  -24,372;    2,467;   -0,500
511,801;   27,515;   -0,442;    2,591
512,386;   44,595;    0,740;    0,500
512,971;   53,659;   -2,988;    0,955
513,555;   84,158;   -0,897;   -1,500
514,140;   33,501;   -0,442;   -3,136
514,725;  148,646;   -0,715;   -1,136
515,309;   64,977;   -0,533;    0,318
515,894;  -19,788;   -0,624;   -2,227
516,479;    5,449;   -0,624;   -0,955
517,063;    7,308;    0,376;    1,227
517,648;  -20,670;    1,012;   -1,136
518,232;  -44,821;   -0,261;   -1,409
518,817;   29,431;   -0,079;    1,682
519,401;  122,274;    2,194;    0,591
519,985;  104,957;    1,103;    1,136
520,570;    3,362;    0,830;   -1,955
521,154;   82,225;    2,102;    0,591
521,738;  206,835;   -2,352;    2,409
522,323;   79,010;   -0,170;    1,682
522,907;   95,331;    0,466;   -0,136
523,491;   43,166;    0,557;    0,955
524,075;   43,872;    2,284;    0,591
524,659;  243,901;    1,466;    0,591
525,243;  230,774;    1,739;    0,409
525,827;  224,664;    0,648;   -0,045
526,411;  275,538;   -1,989;   -0,136
526,995;  468,379;   -0,352;    1,409
527,579;  627,311;   -0,443;   -1,045
528,163;  634,795;    0,375;   -1,500
528,747;  900,586;    2,466;   -0,773
529,331;  947,681;   -0,080;   -1,409
529,915;  867,111;    1,738;    0,955
530,499; 1171,988;   -0,807;    1,227
531,082; 1493,391;   -0,534;    1,591
531,666; 1719,971;    1,374;    0,773
532,250; 1928,928;    1,284;    2,682
532,833; 2356,911;    0,920;    2,773
533,417; 2482,864;   -1,807;    0,864
534,001; 2784,546;    1,647;   -0,318
534,584; 3358,422;    0,374;    0,500
535,168; 3585,684;    0,465;    1,409
535,751; 4144,464;    0,647;    0,045
536,334; 4130,786;   -0,898;   -0,409
536,918; 4881,165;    0,011;    1,591
537,501; 5284,788;   -0,899;    1,318
538,085; 5736,190;   -0,444;    1,045
538,668; 6146,715;    0,829;    2,409
539,251; 6830,057;    1,829;    3,773
539,834; 7247,581;    0,101;    0,773
540,418; 7647,495;   -1,990;    4,318
541,001; 8056,782;   -0,990;    1,773
541,584; 8360,283;    2,101;    2,227
542,167; 8473,549;    1,374;    2,955
542,750; 8825,904;    1,919;   -0,773
543,333; 8790,327;    0,555;    2,136
543,916; 9751,965;    0,192;    2,500
544,499;10468,988;   -1,354;    0,227
545,082;10752,609;    1,374;    3,591
545,665;11158,960;    1,919;    1,500
546,248;11663,691;    1,010;   -0,318
546,830;11588,449;   -0,445;    1,955
547,413;12150,817;    1,010;   -0,773
547,996;12855,129;    0,555;    0,500
548,579;12836,464;    0,919;    0,955
549,161;12847,176;    1,828;    2,682
549,744;12828,328;   -0,809;    0,409
550,326;13438,158;   -0,809;   -1,136
550,909;13483,385;    2,737;    0,591
551,492;13989,670;   -0,263;    0,227
552,074;13913,098;   -0,173;   -1,318
552,657;14573,344;    2,373;    0,045
553,239;14515,190;   -0,173;   -0,773
553,821;14532,988;   -1,082;    1,045
554,404;14174,397;    1,282;    1,136
554,986;14621,918;    0,464;    1,045
555,568;15293,946;    1,191;   -0,955
556,151;14670,470;    1,191;   -0,227
556,733;14961,436;   -0,264;   -0,864
557,315;15475,794;    0,100;    0,500
557,897;15320,558;    0,554;   -0,500
558,479;15497,511;   -1,991;    1,318
559,061;15740,404;   -0,719;   -0,864
559,643;16127,749;   -0,264;    0,045
560,225;16556,385;    1,645;    2,864
560,807;16631,931;    0,918;    0,318
561,389;16140,841;    0,554;    2,318
561,971;16949,324;    0,463;    2,136
562,553;16839,169;   -1,628;    1,591
563,135;16994,003;   -0,537;    1,136
563,717;16698,510;    3,372;    1,136
564,298;17421,689;    3,645;   -0,045
564,880;17179,804;    0,645;   -1,409
565,462;17379,622;    0,645;    1,318
566,043;18540,653;   -0,446;    2,318
566,625;18128,920;    1,918;    1,227
567,207;18060,202;    1,099;    1,682
567,788;19218,229;   -1,264;    1,500
568,370;20039,154;    1,917;   -0,500
568,951;19881,872;    0,190;    0,227
569,533;20776,140;   -0,628;   -0,500
570,114;21213,462;   -0,446;    0,682
570,695;21727,951;   -0,174;   -1,318
571,277;22260,290;   -0,265;   -1,682
571,858;23010,267;    2,008;   -1,136
572,439;23852,072;    1,554;   -1,045
573,021;24068,306;    2,099;   -2,773
573,602;24576,234;   -1,265;    0,318
574,183;25518,183;   -2,083;    2,227
574,764;25646,316;   -1,629;    0,409
575,345;26216,286;    0,917;   -0,136
575,926;26839,511;   -0,356;    0,136
576,507;26815,411;    1,099;   -0,227
577,088;27950,560;    3,099;    1,682
577,669;27974,088;    0,735;    1,955
578,250;28783,092;    0,644;   -1,045
578,831;29443,339;   -1,356;   -2,227
579,412;29717,976;   -0,810;    0,955
579,993;30659,233;    1,008;    0,227
580,573;31013,998;   -0,629;   -0,955
581,154;30003,034;    0,735;   -0,591
581,735;30912,777;    0,644;    0,773
582,315;30480,050;   -0,629;    2,136
582,896;30779,953;   -0,174;    1,227
583,477;30211,085;    0,189;    1,227
584,057;30470,201;    0,553;    0,955
584,638;30809,960;    2,553;    2,318
585,218;30876,553;   -0,538;    2,682
585,799;31043,359;    0,281;   -0,227
586,379;31028,287;    0,372;    1,591
586,959;29829,975;    0,735;    0,318
587,540;29182,681;   -0,629;    2,227
588,120;28806,777;    1,007;   -0,045
588,700;27855,136;    2,553;    2,136
589,281;28201,115;    0,462;   -0,955
589,861;28225,363;    0,099;   -1,682
590,441;28030,217;    2,371;   -2,682
591,021;27018,318;   -0,265;   -2,591
591,601;27255,554;   -0,537;    0,500
592,181;27266,564;   -0,719;   -0,773
592,761;26623,538;    0,007;    1,409
593,341;26586,119;   -0,901;    0,045
593,921;26613,346;   -0,265;    1,591
594,501;26535,189;   -0,538;    1,318
595,081;26388,004;    0,917;   -0,318
595,661;26777,760;   -1,447;    0,955
596,240;27317,495;   -0,537;    0,136
596,820;27004,240;    0,372;    1,955
597,400;27169,593;    2,008;    0,773
597,980;27418,574;    2,008;    1,045
598,559;27454,486;    2,735;   -0,227
599,139;27142,519;   -0,174;   -1,227
599,718;27084,519;   -0,174;   -0,409
600,298;27359,791;    0,735;    0,682
600,877;27624,863;    2,917;    1,409
601,457;27924,699;    2,281;    1,136
602,036;27864,639;    0,190;    2,045
602,616;28061,932;    0,644;    1,682
603,195;28421,603;   -0,355;    3,500
603,774;28022,604;   -0,901;    2,045
604,354;27874,128;    0,826;   -0,500
604,933;27397,446;    0,463;    1,864
605,512;27502,840;    3,554;    0,591
606,091;27591,259;   -0,537;    3,773
606,671;28429,673;    0,281;    0,773
607,250;27545,047;    1,644;    3,136
607,829;27795,375;    2,372;    3,227
608,408;27680,216;    1,190;    2,591
608,987;26711,135;    1,281;    3,409
609,566;26992,038;   -1,265;   -2,500
610,145;27157,307;   -1,082;    0,682
610,723;27587,816;    4,372;    6,864
611,302;26863,176;   -0,446;    1,682
611,881;26418,493;    5,008;   11,227
612,460;27253,569;    1,645;    3,955
613,039;27644,945;   -0,082;    2,045
613,617;26403,883;    1,736;    4,773
614,196;26628,146;    1,099;    1,227
614,775;26978,447;    1,009;    2,409
615,353;26917,172;    0,736;    0,864
615,932;26650,975;    0,100;    2,409
616,510;27248,714;    0,554;    0,591
617,089;26787,232;    7,100;   17,591
617,667;26527,799;    2,372;    6,136
618,246;26409,855;   -1,537;    1,318
618,824;26593,482;   -3,355;   -0,955
619,402;26135,487;   -2,900;   -1,773
619,981;26700,233;   -0,173;   -1,045
620,559;26489,061;    0,009;    1,682
621,137;25996,880;   -0,718;    1,864
621,715;26061,843;   -1,173;   -0,682
622,293;25972,115;   -0,537;   -0,773
622,871;26454,158;   -0,718;    0,500
623,450;26057,667;    0,373;   -0,864
624,028;25940,724;    0,191;   -0,955
624,606;25564,513;   -1,718;    1,682
625,183;26007,858;   -1,536;   -1,136
625,761;25625,489;    1,009;    1,136
626,339;25958,690;    1,373;    2,591
626,917;26346,282;   -0,172;   -0,045
627,495;26375,967;   -0,354;    1,318
628,073;25821,371;   -0,263;    2,864
628,650;25509,926;    0,100;    2,136
629,228;26007,223;    0,373;    4,409
629,806;25405,482;    2,282;    1,136
630,383;25726,811;    1,464;   -0,318
630,961;25467,696;    2,555;   -0,955
631,539;25211,040;    2,464;    0,227
632,116;24617,878;   11,373;   15,409
632,694;25170,913;    2,555;    6,500
633,271;25510,586;    0,828;    2,682
633,848;25421,936;    1,828;    2,045
634,426;25412,771;   -1,081;    1,773
635,003;24530,085;    1,101;   -0,409
635,580;24868,881;    1,192;    3,682
636,158;25456,004;    3,737;    1,227
636,735;25461,891;    0,555;   -0,500
637,312;25609,204;   -0,809;   -0,682
637,889;25648,621;   -4,354;   -0,682
638,466;25183,030;   -3,990;   -0,409
639,043;25169,629;    2,101;   -1,136
639,620;25502,864;   -2,262;   -0,955
640,197;25813,186;    1,100;    1,682
640,774;25942,336;   -0,172;    1,136
641,351;26386,123;    0,737;    1,136
641,928;25801,636;   -0,627;    1,409
642,505;25434,968;    0,828;   -0,500
643,082;25540,936;   -1,718;    1,227
643,658;24588,541;   -0,718;    1,500
644,235;25371,509;    1,191;    2,500
644,812;25702,840;    1,918;    0,773
645,388;25423,900;   -0,991;    1,409
645,965;25543,504;   -0,809;    1,682
646,542;25586,745;   -1,445;   -0,227
647,118;25582,349;    1,009;   -0,955
647,695;25886,863;   -0,263;    1,136
648,271;25823,649;   -0,536;    0,500
648,848;26165,890;    0,736;    2,227
649,424;26001,676;    0,827;    1,318
650,000;25775,645;   -0,354;   -1,045
650,577;25566,249;   -0,627;   -0,955
651,153;25998,944;   -1,809;    0,955
651,729;27071,549;    1,191;    0,864
652,305;27498,063;    0,645;    2,773
652,881;32479,394;   -0,082;    1,136
653,458;39410,453;    1,100;    0,227
654,034;42961,785;    0,282;    1,591
654,610;44400,390;    0,554;    0,773
655,186;45708,449;    0,645;    3,045
655,762;45332,235;   -0,991;    0,409
656,338;45381,021;    0,100;    0,136
656,913;46395,080;   -0,082;    0,409
657,489;45624,048;    0,827;   -0,318
658,065;45562,471;   -0,173;   -1,591
658,641;46210,439;   -0,900;   -0,864
659,217;45554,953;   -0,991;    0,409
659,792;44997,285;    0,645;   -0,409
660,368;45223,707;   -2,173;   -0,682
660,944;44683,766;   -2,082;    1,227
661,519;39571,098;   -0,628;    0,409
662,095;33464,157;   -1,719;    0,591
662,670;29063,580;    1,281;   -0,136
663,246;28076,639;    1,009;   -0,409
663,821;27477,698;    0,281;    1,682
664,396;26944,575;    0,009;    1,864
664,972;27192,089;    0,009;   -0,500
665,547;27530,784;    1,372;    0,136
666,122;27534,570;   -1,082;    0,318
666,698;27868,448;   -0,173;    0,318
667,273;27215,234;   -0,173;    0,136
667,848;28037,657;    2,372;    1,500
668,423;27849,807;    2,190;    2,318
668,998;28422,957;    2,827;   -0,682
669,573;28898,652;   -3,264;   -1,500
670,148;28776,347;   -1,446;   -0,682
670,723;28562,952;   -1,810;    0,318
671,298;29030,465;    2,372;    1,045
671,873;29161,524;   -0,082;   -0,136
672,448;29114,856;    0,645;    0,136
673,023;29438,370;   -1,992;   -0,227
673,597;29772,883;    0,827;    2,318
674,172;29524,488;   -0,355;    0,318
674,747;29067,456;    0,372;   -1,045
675,321;28842,242;   -0,628;    3,318
675,896;28406,938;    0,645;    1,045
676,471;29416,088;    2,645;    1,591
677,045;29242,783;   -1,264;    0,682
677,620;29291,842;    0,190;    1,136
678,194;29617,265;   -2,628;    1,136
678,769;29182,142;   -1,083;   -0,318
679,343;29411,837;   -0,628;    1,773
679,917;29316,987;   -1,446;    1,955
680,492;29392,228;    0,826;    3,227
681,066;29526,378;    3,372;    0,409
681,640;29547,983;    1,463;   -0,318
682,214;30377,769;    0,735;    0,500
682,788;29918,464;   -1,356;   -0,773
683,363;29884,887;   -1,810;    1,682
683,937;29588,855;   -1,719;   -0,318
684,511;30346,551;    0,463;   -0,591
685,085;30007,791;   -1,356;    0,318
685,659;29765,214;   -2,538;    0,864
686,232;30080,000;   -0,356;   -0,318
686,806;29786,241;   -0,901;    0,409
687,380;30461,300;   -0,174;    0,591
687,954;30609,996;   -1,174;    1,136
688,528;30335,328;   -0,719;    1,955
689,101;31084,932;   -3,992;    1,045
689,675;30685,082;   -0,356;   -0,136
690,249;30079,959;   -0,719;    0,409
690,822;30357,291;    0,280;    0,318
691,396;30433,805;   -0,265;    1,227
691,969;29850,045;    1,280;    0,136
692,543;30348,650;   -0,447;   -1,955
693,116;30052,709;   -0,265;   -1,409
693,690;29936,404;    0,099;    0,500
694,263;30509,827;   -1,083;    2,955
694,836;30533,068;    1,371;    3,591
695,410;29204,763;   -0,265;    1,773
695,983;29653,368;    0,189;    0,591
696,556;29613,700;   -0,447;   -1,045
697,129;29984,122;   -0,356;    1,409
697,703;29635,181;   -1,629;    1,955
698,276;29606,149;    1,462;   -0,773
698,849;29417,845;    1,280;    1,409
699,422;29787,177;   -1,083;    0,591
699,995;29548,327;    0,007;    0,136
700,568;30034,931;   -0,629;    3,045
701,140;30083,354;   -2,811;    1,682
701,713;29754,504;   -0,174;    2,409
702,286;29571,472;   -0,538;    0,864
702,859;29461,804;   -0,902;   -0,591
703,432;28557,681;    0,825;    0,682
704,004;29013,467;    0,462;    0,318
704,577;28936,344;   -0,629;    0,136
705,150;29496,131;    0,189;    2,500
705,722;29308,644;   -0,356;   -3,227
706,295;29130,521;   -0,175;   -0,591
706,867;28950,762;   -0,175;    1,955
707,440;29163,639;   -1,720;   -0,409
708,012;29384,335;    0,462;    0,591
708,584;29302,303;    2,462;    0,227
709,157;29571,635;    1,825;   -0,591
709,729;29238,967;    2,280;    2,045
710,301;30077,026;    0,734;    0,045
710,874;30055,357;   -1,447;   -0,227
711,446;28988,871;    0,371;    0,864
712,018;28881,566;    0,098;    0,500
712,590;28572,898;   -1,993;    1,682
713,162;29146,684;    0,825;    1,318
713,734;29438,380;    1,825;   -2,045
714,306;29352,257;   -1,902;   -0,409
714,878;27946,316;    0,825;    0,864
715,450;28763,557;    0,643;    0,864
716,022;29043,161;    1,552;    1,318
716,593;29205,311;    0,189;    0,591
717,165;29114,098;   -3,175;   -1,227
717,737;28873,702;    0,280;    0,409
718,309;28513,579;    0,280;   -0,045
718,880;28461,911;   -0,539;   -1,409
719,452;28704,334;   -0,175;   -1,591
720,024;28302,393;    0,734;   -0,591
720,595;28869,452;   -2,902;    0,955
721,167;28404,056;    0,370;   -2,045
721,738;27908,570;   -0,812;   -1,045
722,309;27901,720;   -0,993;   -1,227
722,881;27664,597;   -1,357;    0,773
723,452;28327,020;   -2,630;    2,864
724,023;28449,443;   -0,721;    2,682
724,595;28231,229;    0,007;    0,682
725,166;27989,652;    0,007;   -0,409
725,737;27656,801;    1,734;    0,227
726,308;27714,951;   -0,266;    0,318
726,879;28213,738;   -1,630;    1,227
727,450;28030,433;    0,552;   -0,045
728,021;27992,219;    3,097;    0,682
728,592;27780,733;    0,734;    0,500
729,163;28096,792;    0,643;   -0,136
729,734;28184,669;    0,188;   -0,227
730,305;28513,728;    1,734;    0,136
730,876;28892,242;    0,188;    2,955
731,447;28624,301;    2,188;    2,682
732,017;28724,724;    1,097;    1,864
732,588;28222,055;    0,734;    1,227
733,159;28431,933;    0,643;   -1,045
733,729;28221,810;    0,006;    0,409
734,300;27514,778;    0,915;    0,864
734,870;27904,473;    3,461;    0,591
735,441;28472,714;    0,370;   -0,591
736,011;28229,137;    0,643;   -1,591
736,582;28146,469;   -0,812;    0,045
737,152;27632,710;   -1,721;   -2,045
737,722;28046,405;   -0,267;   -0,682
738,293;27756,100;   -1,358;    1,318
738,863;27608,250;    2,461;    2,318
739,433;27461,128;    5,279;    0,318
740,003;28122,732;   -0,994;   -0,682
740,573;27526,518;    2,097;   -1,591
741,143;27468,214;   -1,085;    0,318
741,713;28238,273;    1,188;   -0,500
742,283;27977,423;    0,915;    1,591
742,853;27725,755;    1,915;    1,591
743,423;27117,995;    1,733;    0,045
743,993;27289,782;   -0,358;    1,500
744,563;26704,295;    0,097;   -0,864
745,133;26622,536;   -0,812;   -0,864
745,702;27305,777;   -0,267;    1,773
746,272;26526,018;   -0,176;    0,591
746,842;26291,804;   -1,358;   -0,591
747,411;26703,500;   -0,267;   -0,318
747,981;26930,104;    0,097;    0,500
748,551;26901,981;    2,278;   -1,045
749,120;26805,768;    0,642;   -0,227
749,690;27195,281;   -0,631;    2,409
750,259;27557,249;    1,369;    2,955
750,828;27450,217;    1,551;   -1,955
751,398;27683,004;    1,278;   -0,045
751,967;27193,245;    2,187;    0,409
752,536;27400,758;   -0,813;   -0,227
753,105;27835,454;    0,096;    0,227
753,675;27644,058;    0,096;    1,773
754,244;27571,935;   -0,904;    3,591
754,813;27605,176;    0,551;    1,227
755,382;27184,235;    0,460;    0,955
755,951;27780,840;    1,551;    3,682
756,520;27295,171;   -0,085;    1,864
757,089;27873,958;    0,278;    0,500
757,658;28031,744;    1,733;    1,227
758,227;28051,349;    1,096;    0,318
758,795;28340,226;    1,187;    1,136
759,364;28568,285;   -0,086;   -0,591
759,933;27561,162;   -1,176;   -0,045
760,501;27063,312;    0,733;   -1,318
761,070;27530,280;   -2,813;   -1,409
761,639;28223,703;   -1,904;    1,318
762,207;27621,580;    1,551;   -0,955
762,776;27521,912;    0,369;    0,864
763,344;27540,335;   -0,995;    0,591
763,913;26578,212;   -0,722;    1,409
764,481;27332,725;    1,005;   -0,136
765,049;27115,330;   -1,358;    1,409
765,618;26975,207;   -0,086;    0,318
766,186;27027,084;    0,278;    0,136
766,754;27217,143;    0,005;    1,864
767,322;26261,930;   -1,995;    0,409
767,890;26255,170;   -0,722;   -1,773
768,459;26695,048;   -2,177;   -0,318
769,027;26872,470;    1,641;    3,409
769,595;25815,620;    3,278;    2,591
770,163;26277,316;    3,823;    2,955
770,730;26046,647;    0,732;   -0,136
771,298;25863,525;    0,187;   -1,409
771,866;25940,493;   -1,541;    4,955
772,434;26265,006;   -0,631;   -1,864
773,002;26404,884;    0,005;    0,682
773,569;26082,034;    0,914;    1,682
774,137;25908,729;   -0,268;   -0,045
774,705;26695,970;    0,278;   -0,136
775,272;26146,665;    0,641;    0,682
775,840;25859,815;   -0,177;    2,682
776,407;25425,511;    0,277;    1,955
776,975;25072,933;   -0,632;    0,318
777,542;26058,447;   -1,086;   -0,045
778,110;25881,779;   -1,268;   -0,045
778,677;25542,110;   -2,359;   -0,864
779,244;25303,897;    2,186;    1,045
779,812;25404,774;    1,823;    0,864
780,379;25244,015;    0,005;    1,136
780,946;25494,710;    1,005;   -0,773
781,513;25803,587;   -1,450;    0,318
782,080;25201,465;   -0,086;    2,864
782,647;25926,160;   -0,268;    3,045
783,214;25548,128;   -0,177;    3,864
783,781;25168,824;   -0,723;   -0,682
784,348;25027,337;   -0,632;    1,500
784,915;25475,305;   -3,177;    0,318
785,482;25288,183;    1,368;    2,591
786,049;25731,060;    0,186;   -0,591
786,615;25846,573;    0,277;   -0,955
787,182;25521,723;    0,186;   -0,682
787,749;25204,419;   -2,814;    1,409
788,315;24588,932;   -1,632;   -0,409
788,882;24872,264;    1,550;   -1,227
789,448;25565,869;    1,732;   -0,955
790,015;25596,746;    1,095;    3,227
790,581;25177,987;    1,459;    0,227
791,148;25076,227;    0,641;    1,045
791,714;25266,377;   -0,541;    3,136
792,280;24885,800;    0,186;    1,591
792,847;24450,496;    0,550;    2,500
793,413;24994,464;   -0,269;   -0,318
793,979;24541,977;    3,459;   -1,318
794,545;24671,036;    4,459;    2,682
795,111;24058,641;    2,186;    1,318
795,678;24260,609;    0,731;   -1,682
796,244;23895,486;    3,368;    0,136
796,810;24484,363;    1,731;    0,773
797,375;24152,150;    0,549;   -2,136
797,941;24173,754;   -0,541;    0,591
798,507;24318,450;   -0,451;   -0,955
799,073;23840,963;   -0,360;    0,591
799,639;23906,659;   -2,632;    3,136
800,205;23911,445;    0,095;    2,682
800,770;23450,958;    0,640;    1,773
801,336;23566,472;    1,368;   -0,955
801,901;23296,167;    4,549;    3,136
802,467;23861,408;   -0,542;    2,045
803,033;23187,740;   -0,087;    0,864
803,598;23359,072;    1,913;   -1,045
804,163;23427,767;    1,095;   -0,318
804,729;23365,644;   -0,178;    1,136
805,294;23776,340;    0,822;    2,227
805,859;23546,399;    0,731;   -0,409
806,425;22967,822;    1,186;    2,682
806,990;22630,517;    2,186;    4,318
807,555;23187,576;   -1,451;    2,591
808,120;23052,817;    0,822;   -0,409
808,685;23079,240;    0,185;   -2,500
809,250;22604,662;    0,004;   -0,500
809,815;22905,267;    1,913;    0,682
810,380;23432,508;   -0,269;    1,591
810,945;24049,658;   -1,087;    2,045
811,510;23153,171;    2,094;    1,591
812,075;22867,957;   -0,633;   -1,409
812,640;22935,471;    2,003;    1,409
813,204;22967,075;    0,822;   -0,227
813,769;23421,316;    2,094;   -0,045
814,334;22879,739;    0,458;    0,864
814,898;22905,253;    0,367;    0,591
815,463;22752,312;    1,276;   -0,773
816,027;22683,462;   -0,724;   -2,318
816,592;22784,248;    0,640;   -2,045
817,156;22322,307;    2,094;    1,136
817,721;22219,821;    4,276;    2,318
818,285;22123,425;    2,912;    1,500
818,849;22810,484;   -1,451;    1,682
819,414;22728,634;   -0,269;    2,955
819,978;22249,511;   -1,269;    1,773
820,542;22833,479;    2,003;    0,500
821,106;22569,357;   -0,815;    0,682
821,670;22668,325;   -0,815;    2,591
822,234;22393,111;   -0,270;    1,409
822,798;21718,625;    0,003;    0,500
823,362;21673,956;   -0,633;    4,227
823,926;20981,379;    0,094;    1,136
824,490;21191,438;   -0,997;   -0,682
825,054;21684,497;   -0,088;   -1,136
825,618;21305,647;   -1,542;   -1,500
826,181;21276,070;    0,458;   -1,318
826,745;21219,038;    1,367;   -1,045
827,309;21593,279;    1,185;    1,318
827,872;20948,338;    1,367;    0,955
828,436;21953,306;    1,185;   -0,773
828,999;21987,910;   -0,997;    1,227
829,563;20783,606;   -0,179;    1,136
830,126;20615,665;   -0,179;   -0,591
830,690;20646,997;   -1,997;    2,864
831,253;20197,783;   -0,543;    2,227
831,816;20315,842;   -1,906;    0,500
832,380;20229,810;    0,185;    0,864
832,943;20497,960;   -1,361;   -0,500
833,506;19931,746;    2,639;   -1,227
834,069;20684,533;    3,912;   -0,955
834,632;20733,228;    1,730;    1,318
835,195;20674,287;    1,003;    0,955
835,758;19811,892;   -0,997;    1,955
836,321;19689,769;    0,730;   -1,045
836,884;19769,646;   -0,725;   -0,955
837,447;19814,978;   -2,816;    1,773
838,010;20114,582;    0,366;    3,227
838,573;20397,187;   -1,179;    0,773
839,135;20352,428;   -1,361;   -0,955
839,698;19820,123;    1,275;    0,409
840,261;19273,728;    1,003;   -0,227
840,823;19119,787;   -0,543;    0,864
841,386;19444,846;   -0,452;   -2,409
841,948;19328,814;   -1,361;    1,773
842,511;19039,964;    0,912;    1,682
843,073;19166,568;    1,912;    0,227
843,636;18969,718;   -0,361;   -0,227
844,198;18919,777;    0,911;    0,591
844,760;19034,109;    1,093;    1,955
845,322;18675,077;    0,548;    1,136
845,885;19152,136;    0,730;    0,591
846,447;19535,741;   -1,998;    0,227
847,009;19134,345;    1,911;   -0,682
847,571;19484,313;    0,820;   -2,045
848,133;19585,827;   -1,089;   -1,864
848,695;19399,977;   -0,543;    1,409
849,257;18987,490;   -1,089;   -1,682
849,819;19150,368;   -0,998;   -0,409
850,381;19148,063;   -0,725;   -0,864
850,942;19536,577;    1,093;   -0,591
851,504;19509,908;    1,184;    0,227
852,066;19528,604;    1,275;   -1,591
852,628;19056,663;   -0,180;    1,955
853,189;18554,631;    1,638;    2,682
853,751;18690,963;   -0,907;    1,409
854,312;18518,113;   -0,453;   -1,682
854,874;19028,808;   -2,089;   -0,773
855,435;19537,504;   -0,907;   -1,682
855,997;19712,199;   -1,816;   -0,136
856,558;19009,712;    0,366;    1,773
857,119;19082,590;    0,820;    2,864
857,681;18770,103;    0,002;    0,318
858,242;18822,708;    1,911;   -2,136
858,803;19240,221;    0,456;   -0,773
859,364;19840,008;    0,184;   -4,773
859,925;19156,430;   -2,453;   -0,955
860,486;19027,489;   -0,453;   -0,955
861,047;18740,458;   -0,544;   -1,227
861,608;18589,335;   -1,089;   -0,773
862,169;18707,848;    0,638;   -0,045
862,730;18494,907;    0,456;    1,409
863,291;18734,966;   -0,635;   -0,500
863,852;19111,753;   -0,635;    1,955
864,412;18544,266;   -0,271;   -0,864
864,973;17079,871;   -0,089;    0,500
865,534;16966,384;   -1,726;    0,227
866,094;18498,534;    1,820;    0,227
866,655;18167,593;    1,274;    3,318
867,215;18403,925;    0,274;    0,136
867,776;18242,166;    0,547;   -0,136
868,336;18358,680;   -1,453;    0,136
868,897;17827,739;    2,638;    1,682
869,457;17553,980;    1,365;    0,318
870,017;17801,584;    0,547;   -1,227
870,578;18313,461;   -0,817;    0,773
871,138;18015,429;   -2,089;   -0,955
871,698;17565,943;   -0,817;   -1,318
872,258;17463,820;   -0,453;   -2,864
872,818;17802,061;    2,729;    0,045
873,378;17759,302;    0,638;    1,045
873,938;17321,815;    0,547;    0,500
874,498;17659,329;    0,274;   -1,955
875,058;17539,024;    2,183;    1,773
875,618;17349,265;    1,910;   -2,682
876,177;17258,961;    1,274;    0,136
876,737;16883,111;   -0,090;    1,955
877,297;16962,533;    0,183;    1,955
877,856;16945,501;   -0,362;    0,318
878,416;16893,470;    1,183;   -0,136
878,976;17138,347;   -1,817;    0,409
879,535;17277,042;    0,092;    3,136
880,095;16999,829;   -0,544;    0,045
880,654;17124,888;   -1,090;    1,318
881,213;17229,856;    2,456;    1,500
881,773;16908,551;    2,637;    2,682
882,332;17284,701;    3,365;    5,136
882,891;17081,669;    3,092;    2,136
883,451;17528,728;   -1,272;    1,682
884,010;16987,151;   -2,908;   -0,409
884,569;17074,392;   -0,999;   -0,045
885,128;17244,178;    2,819;   -1,864
885,687;17283,328;    4,455;    0,682
886,246;17009,933;    1,455;    2,136
886,805;16770,446;    2,455;    2,045
887,364;17068,778;   -0,999;   -0,500
887,922;17421,291;   -1,181;    0,045
888,481;16921,714;   -1,545;    0,591
889,040;17186,046;    1,183;    2,136
889,599;17896,832;    2,455;    1,409
890,157;17949,709;    1,455;    2,409
890,716;17596,587;   -0,090;    0,227
891,274;17433,737;    0,092;   -1,136
891,833;17871,796;    1,546;    0,864
892,391;17737,582;   -0,454;    0,500
892,950;17788,005;    1,819;   -0,773
893,508;18208,427;    0,455;   -0,409
894,067;17540,123;    0,637;    0,136
894,625;17421,545;   -0,636;   -1,500
895,183;17648,786;   -0,363;   -0,682
895,741;17598,209;    1,728;   -1,773
896,299;17403,086;   -0,545;   -2,409
896,858;17616,327;    0,819;   -1,591
897,416;17734,659;    2,728;   -1,318
897,974;17452,536;    1,819;    0,318
898,532;17610,413;    6,091;    2,682
899,089;17513,290;    2,091;   -0,682
899,647;17568,713;   -1,454;    1,318
900,205;17275,136;    1,182;    1,045
900,763;17468,013;   -0,454;    0,227
901,321;17448,618;    2,364;   -1,409
901,878;16866,404;   -1,000;   -0,773
902,436;16744,554;   -1,363;    1,318
902,994;17167,886;    4,728;    3,682
903,551;16581,581;    0,728;    0,409
904,109;16908,913;    0,182;   -1,409
904,666;16530,790;    2,455;    1,045
905,224;16366,758;    0,182;   -0,409
905,781;16115,817;    0,727;   -0,318
906,338;16186,240;   -1,363;    1,045
906,895;16127,208;    0,637;    2,045
907,453;16054,631;    1,727;    1,136
908,010;16091,508;   -0,909;    0,409
908,567;15754,385;    1,273;    0,591
909,124;15238,535;    0,364;   -1,500
909,681;15292,230;   -2,909;    0,682
910,238;15403,289;    0,636;   -1,318
910,795;15741,076;   -0,273;   -1,136
911,352;15354,348;   -2,909;   -2,682
911,909;14765,894;   -1,364;   -0,864
912,466;15307,348;   -3,182;    1,500
913,022;14854,167;   -1,636;    0,500
913,579;15181,439;   -0,909;    2,045
914,136;14866,348;    1,636;    0,955
914,692;15241,167;    0,091;   -1,227
915,249;14853,894;    1,455;    0,409
915,806;15045,621;    0,182;    1,955
916,362;14819,530;    1,909;    1,864
916,918;14390,894;    2,000;    1,045
917,475;14320,803;   -1,182;    0,955
918,031;14402,348;    3,364;   -0,045
918,587;13857,167;   -0,909;   -0,318
919,144;14053,712;   -2,273;    0,227
919,700;14355,258;    1,727;    0,773
920,256;13983,258;    0,727;    0,045
920,812;13613,985;   -0,727;   -1,045
921,368;13582,530;   -1,727;   -1,045
921,924;13230,894;    0,182;   -0,136
922,480;12815,530;   -0,545;    1,227
923,036;13445,803;    1,273;    1,955
923,592;13342,348;    0,455;    0,318
924,148;13262,167;    0,455;   -0,955
924,704;12583,621;   -1,364;   -0,409
925,259;12858,803;   -0,273;    0,591
925,815;12634,076;    1,455;    0,500
926,371;12111,348;    2,909;    1,409
926,926;11987,258;    2,091;    0,591
927,482;11643,076;   -1,364;    0,773
928,037;11528,712;    0,909;    2,045
928,593;11805,712;    1,636;    1,045
929,148;11613,712;   -1,818;   -1,500
929,704;11135,894;   -1,455;   -0,500
930,259;11331,258;    0,091;   -0,136
930,814;10392,803;   -0,818;    1,955
931,369;10044,985;    1,091;   -0,773
931,925; 9930,439;   -0,091;    0,136
932,480; 9840,894;   -2,818;   -2,591
933,035; 9744,258;    0,545;   -0,318
933,590; 9506,530;    0,364;   -1,773
934,145; 9144,985;   -1,364;   -0,318
934,700; 9472,530;    0,455;   -0,591
935,255; 9268,076;   -0,091;    0,045
935,809; 8551,348;    3,182;    0,864
936,364; 7640,076;   -0,455;   -0,136
936,919; 7621,439;    0,455;   -1,773
937,474; 7518,712;    1,455;    0,136
938,028; 7243,439;   -1,636;    1,136
938,583; 6715,076;    1,818;    4,682
939,138; 6987,076;    2,091;    2,136
939,692; 6411,167;    1,636;   -1,136
940,247; 6136,167;   -0,727;   -1,045
940,801; 5659,985;   -0,636;    0,227
941,355; 5562,530;   -0,364;    2,591
941,910; 5200,621;   -0,273;   -2,136
942,464; 5305,803;   -0,818;   -0,318
943,018; 5096,712;    1,000;   -0,227
943,572; 5021,985;    2,545;   -0,682
944,126; 4444,258;    0,091;   -0,409
944,681; 4332,803;    3,091;    0,227
945,235; 4339,076;    1,000;   -0,591
945,789; 4280,439;    0,364;   -1,864
946,342; 4361,258;    0,455;   -0,591
946,896; 4171,621;   -2,273;    0,955
947,450; 3913,167;    1,545;   -0,227
948,004; 4102,167;    1,727;   -0,045
948,558; 4095,894;    0,273;   -0,864
949,111; 4026,258;   -0,273;   -0,318
949,665; 4048,348;    1,636;   -0,682
950,219; 3937,258;   -0,091;   -1,045
950,772; 4030,985;   -1,909;    1,864
951,326; 3923,258;    0,545;   -0,955
951,879; 4013,439;    0,727;   -2,318
952,433; 4029,712;    0,000;    2,227
952,986; 3882,348;    2,909;    0,682
953,539; 3855,621;   -0,273;    0,591
954,093; 3767,167;    0,545;   -1,318
954,646; 3905,803;    0,909;    1,318
955,199; 3726,712;    0,000;   -0,500
955,752; 3610,439;   -0,455;    1,773
956,305; 3557,621;   -0,091;    2,955
956,858; 3725,621;    0,818;   -0,318
957,411; 3888,621;   -0,545;    2,136
957,964; 3720,348;    1,364;    2,136
958,517; 3711,985;   -1,545;    3,136
959,070; 3555,894;   -0,455;    1,955
959,623; 3627,439;    1,091;    1,500
960,176; 3391,712;    1,727;    2,045
960,728; 3359,348;   -2,727;    0,773
961,281; 3421,621;    0,545;    0,500
961,834; 3479,167;   -0,909;    0,864
962,386; 3384,712;    1,727;    1,045
962,939; 3312,076;    0,364;   -0,318
963,491; 3438,258;    0,455;    1,136
964,043; 3317,621;    1,182;    2,409
964,596; 3451,530;   -1,000;    2,227
965,148; 3290,985;   -1,000;    1,773
965,700; 3210,439;    1,091;   -0,227
966,253; 3340,076;   -0,636;    0,318
966,805; 3192,803;   -2,273;    0,773
967,357; 3250,258;    1,091;   -1,500
967,909; 3195,803;    0,455;   -1,227
968,461; 3314,258;    0,545;    3,136
969,013; 3244,712;   -0,182;   -0,864
969,565; 3317,530;   -0,455;   -1,136
970,117; 3358,894;   -0,364;    1,045
970,669; 3196,621;    0,182;   -0,136
971,220; 3065,985;   -0,455;   -1,500
971,772; 3004,621;   -0,636;   -0,318
972,324; 3137,985;    0,091;   -0,500
972,876; 3072,258;    0,818;   -0,045
973,427; 3222,348;    1,909;   -1,045
973,979; 3169,894;   -0,727;   -2,500
974,530; 3214,258;    1,818;    1,318
975,082; 3223,076;   -0,545;    1,682
975,633; 3121,530;    1,091;    1,682
976,184; 3255,348;    0,909;    0,773
976,736; 3027,258;    0,091;    0,227
977,287; 2822,439;   -0,909;   -0,500
977,838; 3014,985;    0,909;   -0,318
978,389; 3074,803;   -1,000;   -0,500
978,940; 2956,348;    0,545;   -0,409
979,491; 2984,258;    0,091;   -0,500
980,042; 2948,894;    0,182;    3,045
980,593; 3012,258;   -2,545;    0,227
981,144; 3035,258;    2,545;   -0,500
981,695; 3015,985;    1,455;    1,500
982,246; 2971,348;   -0,273;    1,045
982,797; 3129,803;   -1,727;    0,682
983,347; 3241,803;    0,364;    0,591
983,898; 3395,621;    3,091;    0,409
984,449; 3210,530;    2,182;    0,773
984,999; 3138,348;    1,455;   -1,136
985,550; 2899,530;    0,182;   -0,318
986,100; 2932,076;   -0,455;   -0,318
986,651; 2948,803;   -0,818;    0,045
987,201; 2939,621;   -1,000;   -0,591
987,751; 3030,258;    0,818;    2,864
988,302; 3029,894;    2,636;    1,500
988,852; 3048,348;    0,455;   -1,136
989,402; 3087,258;    0,091;    0,682
989,952; 3003,258;   -2,182;    0,864
990,502; 3094,621;   -0,091;    0,682
991,052; 3067,258;   -0,727;    0,045
991,602; 2927,076;   -2,909;    1,318
992,152; 2927,258;    0,455;    0,682
992,702; 2907,439;    1,364;   -0,045
993,252; 2826,894;   -3,000;   -0,500
993,802; 2920,621;   -0,273;    1,318
994,352; 3163,621;   -1,545;    1,136
994,901; 3230,803;   -0,182;    3,227
995,451; 3153,894;   -0,182;    0,318
996,000; 3239,530;    1,636;    0,318
996,550; 2961,258;    2,273;    0,227
997,100; 2942,439;    1,273;   -0,045
997,649; 3233,258;    2,182;    0,955
998,198; 2854,167;    1,727;   -1,500
998,748; 3067,803;    1,091;   -2,318
999,297; 2966,167;   -0,818;   -0,409
999,846; 3015,712;    1,000;   -0,773
1000,395; 3067,076;   -0,818;    0,500
1000,945; 3019,712;    1,818;   -0,773
1001,494; 3120,803;    2,364;    0,682
1002,043; 3108,621;    4,636;    0,864
1002,592; 2966,803;   -1,091;    1,955
1003,141; 3116,985;   -0,455;   -0,682
1003,690; 2956,258;    1,727;    0,500
1004,238; 3038,621;    1,455;   -0,045
1004,787; 2671,985;    1,364;    1,227
1005,336; 2911,258;    0,364;    0,682
1005,885; 3045,621;    1,364;   -2,773
1006,433; 3194,530;    0,545;    0,955
1006,982; 3250,076;    0,455;    1,682
1007,531; 3164,076;   -1,818;   -0,227
1008,079; 3097,076;   -2,273;    0,500
1008,627; 3246,803;   -1,455;    0,409
1009,176; 2976,076;    0,000;   -1,955
1009,724; 3016,348;    1,091;    0,864
1010,273; 3077,621;    1,273;    0,500
1010,821; 3187,439;    0,091;    1,409
1011,369; 2930,348;   -1,364;    1,318
1011,917; 2904,803;   -1,364;   -0,591
1012,465; 3196,985;    1,273;   -1,591
1013,013; 3301,712;    2,091;   -1,682
1013,561; 3182,712;    0,455;   -0,773
1014,109; 3253,167;   -1,909;    1,682
1014,657; 3118,530;    0,364;    0,591
1015,205; 3241,530;    1,636;   -0,955
1015,753; 3271,621;   -0,545;   -1,409
1016,301; 3300,348;   -2,636;    3,045
1016,848; 3298,894;   -1,273;    0,409
1017,396; 3340,258;    2,545;    0,045
1017,944; 3466,712;    1,182;    1,864
1018,491; 3232,076;    0,273;    1,409
1019,039; 3386,894;    0,455;    0,591
1019,586; 3288,167;   -1,364;    1,682
1020,134; 3391,621;    0,455;    1,500
1020,681; 3423,894;    0,182;   -1,136
1021,228; 3424,530;    2,909;   -2,227
1021,776; 3234,803;    1,182;   -1,136
1022,323; 3456,894;    0,455;    0,773
1022,870; 3398,985;   -1,000;   -0,045
1023,417; 3281,258;    2,636;    1,864
1023,964; 3439,712;    2,636;    1,227
1024,511; 3268,258;    1,000;    0,773
1025,058; 3070,348;    3,182;   -0,045
1025,605; 3124,076;   -2,273;    3,136
1026,152; 3349,894;    1,727;   -0,591
1026,699; 3079,258;    1,818;    1,318
1027,245; 3244,712;   -0,091;    0,318
1027,792; 3436,530;   -1,000;    1,409
1028,339; 3327,439;    2,364;   -0,045
1028,885; 3188,348;    1,000;   -0,227
1029,432; 3119,530;   -0,091;    0,227
1029,978; 3180,167;   -1,000;   -1,591
1030,525; 3092,803;    1,000;    0,409
1031,071; 3332,076;   -1,364;    1,136
1031,618; 3433,621;    0,364;    1,682
1032,164; 3218,803;   -0,091;    3,045
1032,710; 3268,894;    1,636;   -1,500
1033,256; 3203,348;   -0,636;   -0,136
1033,803; 3170,621;   -0,545;    1,500
1034,349; 2868,439;   -1,364;    0,136
1034,895; 3027,076;    0,000;   -0,318
1035,441; 3004,621;   -0,818;    0,318
1035,987; 3007,439;   -2,364;   -0,682
1036,533; 3019,439;   -1,455;   -0,955
1037,078; 3228,076;    1,455;    1,682
1037,624; 3047,894;    2,455;   -0,955
1038,170; 3060,167;    0,455;   -0,318
1038,716; 2970,348;    1,636;   -0,409
1039,261; 2864,439;   -2,273;   -0,773
1039,807; 2814,348;   -0,091;    3,409
1040,352; 2890,712;   -1,909;   -0,318
1040,898; 2922,712;   -1,545;   -0,682
1041,443; 2843,985;   -1,455;   -2,591
1041,989; 2859,803;    1,091;    1,591
1042,534; 2734,621;   -0,364;    2,591
1043,079; 2854,258;    2,909;    0,955
1043,625; 2634,894;    1,818;    0,500
1044,170; 2697,530;   -1,364;    1,045
1044,715; 2947,621;    2,455;    0,955
1045,260; 2776,076;    2,182;   -0,955
1045,805; 2793,439;    1,182;   -0,591
1046,350; 2735,712;    1,364;   -0,409
1046,895; 2705,530;    2,909;    1,591
1047,440; 2659,894;    5,364;    0,409
1047,985; 2536,712;    2,818;   -0,955
1048,530; 2469,621;    1,545;    1,227
1049,074; 2557,258;    0,000;    0,318
1049,619; 2501,439;   -1,364;    1,955
1050,164; 2298,985;    0,455;    0,227
1050,708; 2338,530;   -0,455;    0,045
1051,253; 2717,530;    1,273;   -2,227
1051,797; 2425,439;    0,818;   -1,318
1052,342; 2424,712;   -1,182;    1,045
1052,886; 2446,530;    0,364;   -1,409
1053,430; 2319,894;   -1,364;    0,136
1053,975; 2327,894;   -0,818;   -0,318
1054,519; 2307,258;   -0,727;    3,227
1055,063; 2337,530;    0,909;    1,318
1055,607; 2205,258;   -0,182;    0,227
1056,151; 2231,985;    2,909;    1,682
1056,695; 2133,258;    2,273;   -1,136
1057,239; 2202,621;   -1,727;   -0,682
1057,783; 2223,076;    0,818;   -1,500
1058,327; 2167,803;    0,000;    1,409
1058,871; 2400,258;   -0,545;    1,318
1059,415; 2108,348;   -0,818;   -0,045
1059,958; 2367,076;    1,455;    2,591
1060,502; 2082,530;   -1,000;   -0,773
1061,046; 1984,076;    0,364;   -0,955
1061,589; 1963,712;   -3,000;   -1,136
1062,133; 1850,258;   -1,273;    1,864
1062,676; 1789,258;    1,182;    0,864
1063,220; 1795,985;    1,091;    0,500
1063,763; 1818,167;    0,909;    1,136
1064,306; 1899,530;   -0,909;    1,864
1064,849; 1786,985;   -0,909;    0,591
1065,393; 1808,712;    2,000;   -1,500
1065,936; 1914,712;    0,182;   -0,409
1066,479; 1803,894;   -1,455;    1,318
1067,022; 1819,803;   -0,273;   -0,227
1067,565; 1708,894;   -0,091;   -1,318
1068,108; 1730,530;    0,727;   -0,591
1068,651; 1713,803;   -0,636;    1,409
1069,194; 1640,530;   -0,455;   -1,682
1069,736; 1654,894;   -1,273;    0,955
1070,279; 1616,712;   -1,364;   -0,500
1070,822; 1679,167;   -2,000;   -0,318
1071,364; 1760,348;   -0,364;    1,318
1071,907; 1582,621;   -0,727;    3,227
1072,450; 1472,348;    0,000;   -0,045
1072,992; 1471,258;   -0,273;    3,136
1073,535; 1641,076;    2,091;    2,136
1074,077; 1412,894;   -0,727;    2,045
1074,619; 1378,894;   -1,364;    0,591
1075,161; 1416,076;   -1,091;    1,500
1075,704; 1597,348;    1,545;    1,227
1076,246; 1395,803;   -0,182;    0,682
1076,788; 1311,076;   -0,364;    1,773
1077,330; 1379,530;    1,273;    2,136
1077,872; 1352,985;    0,909;    0,955
1078,414; 1588,530;    2,727;    0,773
1078,956; 1308,894;    1,273;   -0,227
1079,498; 1578,530;    1,636;    0,318
1080,040; 1287,894;    1,909;   -1,318
1080,581; 1225,439;    1,636;   -0,318
1081,123; 1137,712;    0,091;   -0,773
1081,665; 1191,712;   -1,182;   -0,955
1082,206; 1496,439;    1,364;   -0,500
1082,748; 1362,530;    0,727;    2,045
1083,289; 1224,348;   -2,000;    1,318
1083,831; 1117,894;   -0,545;    0,227
1084,372; 1173,348;    0,000;    0,591
1084,913; 1180,530;    1,091;    0,864
1085,455; 1145,530;   -1,909;   -2,045
1085,996; 1108,621;   -2,273;    0,136
1086,537; 1129,439;   -0,091;    0,864
1087,078; 1168,712;   -0,909;   -2,136
1087,619; 1216,530;   -1,273;    0,227
1088,160; 1131,530;    0,000;    1,318
1088,701; 1118,167;   -1,091;    0,682
1089,242; 1041,530;    1,364;   -2,227
1089,783; 1145,530;   -0,273;    1,409
1090,324; 1119,621;    0,455;    0,682
1090,865;  986,803;    2,727;   -0,409
1091,405;  950,439;    0,727;    2,227
1091,946;  972,621;    0,182;   -0,955
1092,487;  909,530;    0,818;   -1,409
1093,027; 1084,530;   -1,364;   -1,500
1093,568;  940,894;   -0,364;    1,227
1094,108; 1039,894;    0,273;    1,773
1094,649;  972,076;   -1,182;    0,136
1095,189;  900,439;   -0,636;   -0,682
1095,729;  860,712;   -0,091;    0,955
1096,269;  858,530;    0,727;   -0,955
1096,810; 1182,348;   -1,364;    0,500
1097,350;  996,530;    1,364;   -0,773
1097,890;  902,076;    0,364;    1,227
1098,430; 1165,894;    2,364;    2,864
1098,970; 1031,530;    2,182;    1,682
1099,510;  894,167;    0,545;   -2,318
1100,050;  820,985;    1,000;   -1,591
1100,589;  785,985;   -0,727;   -0,318
1101,129;  901,167;    0,818;   -0,955
1101,669; 1065,167;    1,727;    2,136
1102,209;  885,076;   -0,091;    2,227
1102,748;  854,076;    0,000;    0,955
1103,288;  835,530;    1,273;   -1,227
1103,827;  858,803;    3,091;   -2,227
1104,367;  732,258;   -0,091;   -2,409
1104,906;  699,530;    1,364;   -1,136
1105,445;  776,258;    0,636;   -1,136
1105,985;  719,530;   -0,727;    1,500
1106,524;  774,167;   -1,727;   -0,682
1107,063;  734,076;   -2,727;    1,409
1107,602;  717,712;   -1,909;   -1,500
1108,141;  645,348;   -1,909;    1,500
1108,680;  742,076;   -3,455;   -0,591
1109,219;  669,803;   -0,909;   -0,500
1109,758;  675,258;    0,455;    0,682
1110,297;  645,076;    1,000;   -0,682
1110,836;  588,530;   -0,727;    0,955
1111,375;  762,985;   -2,545;    0,409
1111,913;  778,621;   -1,000;    0,773
1112,452;  705,167;   -0,273;    0,136
1112,991;  587,803;    1,091;    1,955
1113,529;  551,076;   -0,818;   -0,045
1114,068;  627,985;   -0,273;    2,955
1114,606;  519,439;   -0,364;   -0,955
1115,144;  686,985;   -1,273;    1,045
1115,683;  617,439;   -0,727;    0,318
1116,221;  667,894;   -0,455;   -0,864
1116,759;  570,076;    0,636;   -0,864
1117,297;  771,439;    0,000;    1,864
1117,836;  570,985;   -2,182;   -1,227
1118,374;  586,439;    0,182;   -0,682
1118,912;  533,258;    0,909;    2,682
1119,450;  514,439;    1,000;    0,864
1119,988;  578,258;    1,545;    2,136
1120,525; 1037,258;    5,091;    3,318
1121,063;  731,803;    1,182;    1,864
1121,601;  530,348;   -0,909;   -1,227
1122,139;  489,621;   -0,727;   -2,045
1122,676;  689,712;   -0,727;    2,773
1123,214;  622,076;   -1,182;    4,409
1123,751;  426,258;    1,727;    2,227
1124,289;  563,621;   -0,091;   -0,409
1124,826;  422,439;    1,727;    0,227
1125,364;  353,439;    1,727;   -0,955
1125,901;  544,894;    1,182;    1,227
1126,438;  666,803;    0,818;    0,955
1126,975;  381,167;   -0,727;   -0,773
1127,513;  450,803;    0,273;    2,136
1128,050;  360,076;    1,636;   -0,682
1128,587;  454,076;    2,000;   -0,227
1129,124;  500,712;    0,091;    1,318
1129,661;  362,348;    0,273;    0,227
1130,198;  538,167;    1,636;    0,773
1130,734;  482,530;    0,182;    1,409
1131,271;  336,621;   -0,909;    0,864
1131,808;  513,985;    2,909;    3,045
1132,345;  378,712;    1,545;    0,318
1132,881;  245,348;   -1,545;   -1,864
1133,418;  389,348;    0,727;   -1,136
1133,954;  326,348;    2,455;   -2,682
1134,491;  398,167;    1,364;   -0,773
1135,027;  298,076;    2,364;    0,864
1135,564;  402,530;    0,273;    2,955
1136,100;  374,348;    0,364;    2,136
1136,636;  250,712;   -1,273;   -1,045
1137,172;  354,621;    0,000;   -1,045
1137,708;  282,348;   -1,364;   -1,045
1138,245;  289,712;    1,273;   -1,227
1138,781;  237,167;    1,091;   -3,318
1139,317;  300,439;    1,273;   -1,409
1139,852;  293,348;    3,091;    0,136
1140,388;  413,348;   -1,182;   -0,409
1140,924;  293,258;   -1,091;   -2,227
1141,460;  227,894;   -1,636;    0,136
1141,996;  166,258;   -1,364;    2,682
1142,531;  212,985;    1,364;    3,318
1143,067;  436,894;    1,182;    1,045
1143,602;  499,894;   -0,091;   -0,318
1144,138;  333,985;   -2,636;    1,045
1144,673;  193,439;   -1,455;    1,409
1145,209;  268,076;   -1,909;   -0,318
1145,744;  189,621;   -0,727;    0,864
1146,279;  328,621;    1,818;   -0,136
1146,815;  236,712;    1,545;   -2,682
1147,350;  282,530;   -1,364;    0,045
1147,885;  187,894;   -0,818;   -1,318
1148,420;  179,621;   -2,273;    0,773
1148,955;  159,894;   -1,727;    1,864
1149,490;  196,985;   -0,909;   -1,591
1150,025;  177,258;    0,455;   -1,773
1150,560;  288,167;    1,091;   -0,955
1151,094;  262,076;    1,455;   -0,591
1151,629;  268,985;    1,636;    0,864
1152,164;  186,348;    1,364;    1,318
1152,698;  143,712;   -0,182;   -0,136
1153,233;  103,439;    0,091;   -0,682
1153,767;  154,167;   -3,000;   -2,318
1154,302;  207,258;   -1,455;    1,773
1154,836;  212,803;   -0,455;   -2,136
1155,371;  272,076;   -1,364;    3,682
1155,905;  207,167;   -0,636;    1,682
1156,439;  175,258;   -0,636;   -0,500
1156,973;  204,621;    0,364;    0,318
1157,507;  142,076;   -0,364;    0,682
1158,042;  170,894;   -0,727;    1,045
1158,576;  217,712;    0,182;    1,773
1159,110;  209,712;   -0,818;    2,409
1159,643;  186,530;    0,636;   -0,045
1160,177;  112,985;   -1,545;    1,500

