
Integration time [ms]:   0,040
Averaging Nr. [scans]: 11
Smoothing Nr. [pixels]: 0
Data measured with spectrometer [name]: 7318044SP
Wave   ;Sample   ;Dark     ;Reference
[nm]   ;[counts] ;[counts] ;[counts] 

186,757;   21,959;   31,551;    1,318
187,357;   61,684;   22,551;    0,955
187,958;   42,241;   15,460;   -1,591
188,558;   92,481;    8,915;   -1,227
189,159;   55,264;    6,733;   -4,500
189,759;   13,400;    7,278;   -3,591
190,360;   17,329;    2,824;   -2,136
190,960;   65,905;    2,915;   -4,136
191,560;   82,818;    3,189;   -6,591
192,161;  352,065;    4,372;   -3,500
192,761;  170,960;    4,010;   -3,227
193,361;  120,686;    1,556;   -3,773
193,962;  183,251;    2,010;   -2,682
194,562;  104,031;    1,189;   -3,955
195,162;  137,483;   -2,448;   -2,227
195,762;  321,828;   -3,176;   -0,045
196,362;  257,238;    1,370;   -2,500
196,963;  103,285;    2,006;   -0,864
197,563;  184,311;    1,551;   -0,955
198,163;  131,382;    0,096;   -0,682
198,763;  147,312;    1,733;   -0,500
199,363;  268,767;    3,096;   -0,500
199,963;  221,860;    0,369;    0,409
200,563;  191,316;    2,823;   -1,409
201,163;  170,533;    3,277;   -0,227
201,763;  287,294;    3,732;    0,318
202,363;  199,272;    1,459;    1,500
202,963;  324,705;    1,459;    1,045
203,563;  445,249;    0,277;    0,500
204,162;  284,568;    2,096;   -1,864
204,762;  275,787;    0,550;    0,591
205,362;  231,558;    3,004;    1,955
205,962;  350,703;    3,096;    1,955
206,562;  348,126;    1,823;    2,318
207,161;  313,151;   -0,087;    0,318
207,761;  476,433;    1,277;    2,409
208,361;  337,318;   -0,268;    1,409
208,960;  456,773;    0,459;    1,500
209,560;  543,185;    1,277;    1,591
210,160;  508,479;    0,550;    1,864
210,759;  484,035;    4,186;    1,227
211,359;  491,720;    1,459;    1,045
211,958;  778,786;    1,277;    2,045
212,558;  866,536;    1,732;    1,864
213,157;  698,594;    1,822;    1,500
213,757; 1167,880;    3,822;   -0,227
214,356;  850,913;    1,277;   -0,409
214,956; 1214,274;    3,095;    0,409
215,555;  816,573;    2,095;    2,136
216,154;  751,607;   -2,723;   -0,591
216,754;  774,766;    0,277;    0,773
217,353;  914,946;   -0,268;   -1,045
217,952;  764,143;   -0,178;    0,318
218,552; 1015,245;    1,368;   -0,773
219,151;  905,962;    0,277;    0,955
219,750;  910,429;    0,004;   -0,227
220,349; 1067,996;   -0,451;    1,045
220,948; 1109,247;   -1,360;    1,136
221,548; 1164,177;    0,913;    1,227
222,147; 1270,699;   -0,087;   -0,409
222,746; 1569,303;   -0,451;   -0,955
223,345; 1458,542;    0,731;    0,500
223,944; 1472,836;   -0,451;    0,773
224,543; 1672,960;    1,004;   -1,409
225,142; 1781,282;    0,094;    0,136
225,741; 1694,882;   -0,814;    1,045
226,340; 1719,064;   -0,451;   -0,955
226,939; 2190,858;   -0,996;   -0,136
227,538; 2194,609;   -0,360;   -0,773
228,137; 2345,914;   -0,814;    0,864
228,735; 2549,721;   -0,541;    1,227
229,334; 2271,425;   -0,905;   -0,227
229,933; 2657,607;    0,459;    0,591
230,532; 2778,379;    1,186;   -0,409
231,131; 2820,504;    1,732;    0,318
231,729; 3029,277;   -2,450;   -2,318
232,328; 3186,663;   -0,723;   -1,500
232,927; 3289,583;    1,004;   -0,500
233,525; 3442,279;    3,640;    0,045
234,124; 3638,436;    2,368;   -1,591
234,723; 3670,073;    0,913;   -1,045
235,321; 3847,676;    2,277;    0,136
235,920; 4115,743;    1,186;   -1,227
236,518; 4380,074;    3,459;    0,318
237,117; 4596,518;    0,004;   -0,227
237,715; 4771,766;    0,640;   -0,500
238,314; 4808,686;   -0,087;   -2,318
238,912; 4924,720;   -0,723;   -1,409
239,510; 4971,038;    0,459;   -1,227
240,109; 5154,616;    0,004;    3,773
240,707; 5209,730;   -0,996;    1,227
241,305; 5610,935;    0,550;    0,136
241,904; 5837,299;   -0,178;   -2,045
242,502; 5790,060;   -0,632;   -0,227
243,100; 5751,198;   -0,087;   -0,955
243,698; 5973,447;    0,732;    1,682
244,297; 6188,618;   -0,632;    0,682
244,895; 6020,108;   -0,269;   -2,318
245,493; 6371,552;    2,186;   -0,591
246,091; 6410,745;    1,368;   -1,318
246,689; 6395,279;    1,004;    0,591
247,287; 6586,506;    0,822;   -1,136
247,885; 6884,280;   -1,451;    1,227
248,483; 6980,733;    1,822;   -0,500
249,081; 7135,281;    0,185;    1,591
249,679; 7304,906;   -0,178;    1,682
250,277; 7589,473;   -1,723;    0,864
250,875; 7602,573;   -1,087;   -1,045
251,473; 7620,199;   -1,178;    0,500
252,071; 7804,915;    1,459;    1,045
252,669; 7945,836;   -1,814;    0,318
253,267; 8224,498;   -0,087;    0,773
253,864; 8224,960;   -0,360;    0,682
254,462; 8054,791;    1,640;    1,591
255,060; 8032,825;   -0,269;    1,318
255,658; 8376,927;    0,822;   -0,136
256,255; 8813,040;    0,186;   -2,045
256,853; 8670,826;   -0,269;    1,409
257,451; 8668,893;    0,822;    1,864
258,048; 8948,381;    1,822;    1,864
258,646; 8716,780;    1,731;   -1,045
259,243; 8892,189;   -0,087;    2,227
259,841; 8959,359;   -0,814;    0,318
260,438; 8828,894;   -0,087;    0,864
261,036; 9588,755;   -1,905;    1,409
261,633; 9484,041;   -0,087;    2,227
262,231; 9236,472;    2,731;   -0,045
262,828; 9334,857;   -0,905;    1,136
263,425; 9380,813;    0,913;   -0,591
264,023; 9694,007;    0,186;    0,045
264,620; 9241,848;   -0,360;   -0,318
265,217; 9619,848;   -2,087;    3,136
265,815; 9688,986;   -1,905;    2,136
266,412; 9468,143;    0,731;    0,136
267,009; 9540,427;   -1,451;    0,773
267,606; 9406,234;    0,822;   -0,955
268,203; 9386,108;   -0,269;   -0,591
268,801; 9690,404;    1,731;    0,591
269,398;10007,348;   -0,360;    2,500
269,995; 9972,857;    0,277;    1,591
270,592; 9746,368;   -0,632;   -0,500
271,189; 9977,655;    0,186;    0,409
271,786;10104,585;   -0,632;    1,227
272,383; 9948,687;   -1,087;    0,227
272,980;10160,143;    0,277;    0,318
273,577;10653,868;    0,004;    1,227
274,174;10204,493;    0,822;    2,591
274,771;10177,200;   -0,814;   -0,773
275,367;10385,038;    2,277;    1,409
275,964;10304,698;    0,731;   -0,500
276,561;10408,416;    1,549;   -1,045
277,158;10650,633;    0,095;   -1,773
277,755;10819,191;    2,185;    0,409
278,351;10204,041;   -0,451;   -1,500
278,948;10519,145;   -0,815;    0,045
279,545;10524,315;   -1,360;    2,318
280,141;11197,301;   -1,723;   -2,045
280,738;11097,904;   -0,451;   -0,136
281,334;11379,894;   -1,633;    0,591
281,931;10712,419;   -0,087;   -1,318
282,528;10818,396;    0,822;   -0,500
283,124;11553,609;   -1,087;   -0,500
283,721;11436,737;   -0,451;    1,409
284,317;11222,590;    0,185;    2,500
284,913;11848,998;   -1,360;    0,591
285,510;12039,908;    0,640;   -0,318
286,106;12086,725;   -2,269;   -0,955
286,703;11715,713;   -0,360;    1,955
287,299;11898,723;   -1,451;   -0,591
287,895;12113,609;    0,822;   -1,045
288,491;12704,258;    0,186;    2,136
289,088;12415,963;   -2,360;    2,409
289,684;12556,563;   -1,723;    1,500
290,280;12565,631;    0,368;    0,682
290,876;12672,075;    1,822;    5,500
291,472;12515,758;    1,276;    2,227
292,068;12651,748;    1,367;    0,227
292,665;12350,813;    2,095;    0,773
293,261;11903,951;    0,276;    2,136
293,857;12354,517;    2,913;    2,136
294,453;12297,414;    3,550;    0,955
295,049;12185,217;   -0,268;    1,955
295,644;12220,503;    0,095;    0,136
296,240;12095,729;   -0,905;   -0,136
296,836;12138,841;   -0,995;    0,318
297,432;12439,487;    1,096;   -0,500
298,028;12486,737;    0,732;    0,773
298,624;12910,693;    1,459;    1,864
299,220;13197,466;    2,368;    0,591
299,815;12847,398;    1,005;   -0,409
300,411;12632,217;    0,914;    1,773
301,007;12657,521;    1,368;    0,227
301,602;12707,284;   -0,541;   -2,318
302,198;12851,407;    0,732;   -0,773
302,794;13221,579;    1,187;   -0,500
303,389;13370,795;   -1,177;    1,045
303,985;13455,704;    0,550;    1,409
304,580;13416,658;    1,459;    1,591
305,176;13394,365;   -3,086;    0,136
305,771;13357,683;   -1,268;   -1,227
306,367;13160,184;    4,095;    0,136
306,962;13551,012;    0,641;    1,500
307,558;13265,671;   -0,450;    0,136
308,153;13191,012;    1,095;   -1,136
308,748;13461,910;   -0,814;    1,682
309,344;13420,309;   -0,632;   -1,318
309,939;13526,331;   -1,905;   -1,318
310,534;13826,229;   -0,086;   -1,682
311,130;13769,989;    0,459;   -2,500
311,725;13518,717;    1,004;   -0,500
312,320;13865,364;    2,459;    0,045
312,915;13665,331;    1,459;   -1,045
313,510;13789,581;    1,550;   -0,500
314,105;14295,294;    1,096;    1,409
314,700;13655,568;   -3,086;   -1,045
315,295;13213,567;   -0,904;    0,045
315,890;12764,443;    1,277;    0,864
316,485;13145,104;   -0,359;   -0,318
317,080;13209,671;   -3,086;    1,591
317,675;13812,194;    2,005;   -0,682
318,270;13223,464;    5,550;    3,318
318,865;13207,725;    3,278;    3,045
319,460;13038,705;   -0,904;    0,591
320,055;13237,861;   -0,541;   -1,227
320,650;12917,133;   -1,995;   -0,591
321,244;12993,100;   -0,177;   -1,409
321,839;13971,511;   -1,541;   -0,227
322,434;13907,909;   -1,086;   -1,591
323,029;13508,828;    1,732;    1,591
323,623;13328,819;    1,550;    0,773
324,218;13052,021;    2,368;    1,409
324,812;12942,590;    1,096;    1,591
325,407;12782,887;   -0,814;    2,045
326,002;12689,784;    0,277;   -0,409
326,596;13016,261;    0,914;    1,318
327,191;13230,909;    0,823;   -1,045
327,785;12802,079;   -0,813;   -0,227
328,379;12999,943;    1,368;    0,136
328,974;12860,886;    0,914;   -3,955
329,568;13018,272;    0,186;   -2,409
330,163;12829,431;    2,096;    1,045
330,757;13216,740;    2,459;    1,591
331,351;12552,830;    0,459;    0,682
331,945;12840,113;    0,914;    1,409
332,540;12395,842;   -1,723;   -0,591
333,134;12571,093;   -1,086;    0,773
333,728;12855,353;    0,005;    0,318
334,322;13211,500;   -1,177;   -0,864
334,916;12471,457;    0,277;    0,955
335,510;12800,296;   -0,450;   -0,136
336,105;13031,727;   -1,086;    1,591
336,699;12756,967;   -1,086;    0,591
337,293;12689,400;   -1,723;    0,318
337,887;12872,034;   -2,723;    1,955
338,481;12969,774;    0,459;    0,591
339,074;13082,900;   -0,359;    2,682
339,668;12920,082;   -1,632;    1,227
340,262;13179,956;    1,732;    3,227
340,856;12688,446;    1,822;   -0,682
341,450;12032,152;    1,004;    1,864
342,044;12970,764;    1,459;    0,136
342,637;12730,798;    0,913;   -2,136
343,231;12606,234;   -2,360;    0,682
343,825;12573,046;   -1,086;   -0,591
344,419;12494,363;   -1,995;    0,500
345,012;12226,476;    2,459;    4,045
345,606;12264,555;    4,641;    1,591
346,199;12102,441;   -1,813;   -0,227
346,793;11603,077;    1,914;    2,045
347,386;11825,908;   -0,813;   -1,136
347,980;11808,519;   -0,268;   -0,045
348,573;11569,393;    2,278;    0,409
349,167;11206,971;    5,278;    4,773
349,760;11555,028;    2,914;    2,682
350,354;11499,252;   -0,813;    1,136
350,947;11258,799;    1,096;    1,682
351,540;10928,356;   -0,358;   -1,409
352,134;10884,608;    1,096;    1,136
352,727;10944,644;   -0,086;    1,136
353,320;10710,972;    0,005;    0,591
353,913;10559,075;   -1,995;    1,864
354,507;10766,495;    0,823;   -1,227
355,100;10733,063;    0,460;    0,864
355,693; 9948,731;    2,005;    2,409
356,286; 9963,505;    0,823;    2,773
356,879;10347,597;   -0,722;    1,227
357,472; 9939,301;   -0,904;    1,500
358,065;10123,084;   -0,722;    2,500
358,658;10041,949;   -0,540;    2,318
359,251; 9680,517;   -1,631;   -0,591
359,844; 9151,050;   -1,904;   -1,136
360,437; 9316,870;   -2,995;    0,045
361,030; 9597,937;    1,369;   -0,682
361,623; 9167,754;    2,824;    0,318
362,215; 9226,539;   -0,086;    2,045
362,808; 9040,334;   -2,358;   -1,682
363,401; 9261,264;   -2,449;    0,136
363,994; 8971,037;   -0,631;   -1,500
364,586; 8884,103;    0,824;   -1,500
365,179; 9115,476;   -0,449;   -1,136
365,772; 8568,220;   -1,995;    2,045
366,364; 8876,261;    1,915;   -3,227
366,957; 9079,008;    2,279;   -0,045
367,549; 9119,996;    2,188;   -0,864
368,142; 8725,801;    1,825;   -1,500
368,734; 8951,899;    0,734;   -2,136
369,327; 8897,046;    1,643;   -0,500
369,919; 8801,907;   -1,538;    0,409
370,512; 8532,665;   -1,083;   -0,500
371,104; 8330,101;   -0,901;    1,591
371,696; 8525,969;    1,191;   -0,955
372,289; 8617,851;    0,373;    1,136
372,881; 8757,979;   -2,080;    1,318
373,473; 8697,188;   -2,170;    1,136
374,066; 8450,198;   -0,169;    0,500
374,658; 8301,681;    0,378;    1,136
375,250; 8677,290;    0,653;   -1,409
375,842; 8555,568;    0,473;   -0,045
376,434; 8426,406;   -0,435;   -0,409
377,026; 9054,455;    0,204;   -2,500
377,618; 8929,209;   -0,158;   -0,682
378,210; 8768,658;   -0,338;   -1,955
378,802; 8602,078;    0,754;   -0,591
379,394; 8561,614;    1,846;    0,682
379,986; 9204,187;    1,393;   -0,955
380,578; 9325,923;   -0,153;    0,773
381,170; 8613,249;   -0,972;    0,045
381,762; 8570,724;    0,755;    1,409
382,354; 8799,624;   -0,065;   -1,318
382,945; 8899,046;   -2,976;    0,318
383,537; 9073,845;   -2,705;   -1,955
384,129; 9076,516;   -2,160;   -1,136
384,721; 9254,952;   -0,252;    0,955
385,312; 9227,614;   -0,161;   -0,955
385,904; 9312,237;   -2,706;    1,591
386,496; 8625,575;   -0,979;    1,045
387,087; 8797,241;    1,022;    2,500
387,679; 8828,001;   -1,160;    0,045
388,270; 8992,828;    2,840;    2,045
388,862; 9081,046;    1,295;   -0,318
389,453; 9002,568;   -0,887;    1,045
390,045; 9292,079;   -0,705;   -2,682
390,636; 9201,918;    0,204;   -0,591
391,227; 9067,579;   -0,523;   -0,045
391,819; 9181,592;    0,204;    0,773
392,410; 9269,560;    1,022;    0,045
393,001; 9180,315;   -0,979;   -1,591
393,593; 9504,521;    1,930;   -0,045
394,184; 9340,156;    1,385;   -0,409
394,775; 9334,111;    1,839;    2,136
395,366; 9507,483;    1,385;    0,773
395,957; 9536,889;    0,113;    0,136
396,548; 9836,278;   -0,342;    2,682
397,139;10173,820;   -2,433;    0,591
397,730; 9885,699;   -1,888;    0,955
398,321; 9924,973;   -1,252;    0,955
398,912; 9946,099;   -0,615;    0,136
399,503;10048,110;   -3,524;   -1,409
400,094; 9440,145;    0,294;    1,682
400,685; 9287,234;   -0,433;    0,045
401,276; 9405,052;    0,930;   -0,955
401,867; 9750,724;   -0,888;    0,773
402,458; 9833,995;   -2,251;   -2,318
403,048; 9800,531;    1,112;    0,591
403,639; 9379,813;    0,840;    0,864
404,230; 9631,679;    2,476;    0,318
404,821; 9552,565;   -0,615;    0,045
405,411; 9688,441;    1,203;   -2,591
406,002; 9256,406;   -1,252;   -1,136
406,592; 9082,147;    2,294;    0,045
407,183; 9428,467;    0,566;   -1,500
407,774; 9365,557;    3,475;   -0,136
408,364; 9701,057;    0,930;    0,409
408,954; 9268,057;    0,384;    1,227
409,545; 9287,023;    1,021;    1,045
410,135; 8815,616;    1,293;    0,500
410,726; 9010,767;    1,838;    0,318
411,316; 9396,958;    0,111;    0,773
411,906; 9073,334;   -0,253;   -0,409
412,497; 8504,218;   -1,070;   -0,045
413,087; 9147,400;   -1,980;   -0,227
413,677; 9585,620;   -0,707;    3,864
414,267; 9448,813;    0,656;    1,409
414,857; 9437,427;   -2,980;    4,227
415,448; 9763,128;    0,839;    0,500
416,038; 9400,401;    0,020;   -0,591
416,628; 9394,767;   -0,889;    0,409
417,218; 8780,802;    0,565;    3,318
417,808; 9079,689;    0,202;   -0,409
418,398; 9599,825;    0,020;    2,682
418,988; 9645,303;    2,020;    0,591
419,578; 9940,654;   -0,707;    1,409
420,168;10265,357;   -1,343;   -0,955
420,757; 9839,253;   -1,343;   -1,500
421,347; 9482,918;    0,111;   -0,227
421,937; 9678,827;    2,292;    1,409
422,527; 9603,885;    0,838;   -0,773
423,116; 9412,212;   -0,253;   -0,045
423,706; 9775,054;   -1,889;    0,318
424,296; 9765,576;    1,384;    0,682
424,885;10188,485;   -0,071;   -3,045
425,475;10528,839;    1,474;   -2,864
426,065;10445,577;   -0,980;   -0,318
426,654;10016,387;   -0,435;   -0,318
427,244;10163,373;    0,020;    1,409
427,833; 9607,020;    1,383;   -0,500
428,423;10125,773;   -0,526;    1,136
429,012;10930,263;   -0,344;   -1,136
429,601;10387,185;   -1,344;    0,136
430,191;10618,558;    1,292;    4,318
430,780;10261,216;   -0,344;   -0,409
431,369;10162,923;    0,746;   -0,045
431,959;10815,197;   -1,254;    0,500
432,548;10641,901;   -1,163;   -0,045
433,137;10794,493;   -1,254;   -1,318
433,726;11336,754;    0,292;    0,500
434,315;10659,186;   -0,526;    2,409
434,905;10744,223;   -1,254;    1,409
435,494;10593,938;    0,746;    0,955
436,083;11052,141;   -0,981;   -0,955
436,672;10981,460;    0,110;    0,500
437,261;10491,768;    0,292;   -1,955
437,850;10620,619;    1,383;    0,682
438,439;10642,736;    3,291;    1,955
439,027;10484,827;    3,655;    1,773
439,616;10835,817;    2,927;    1,227
440,205;10708,021;    0,200;   -2,136
440,794;10843,784;    2,109;   -0,045
441,383;11118,490;   -1,346;   -0,591
441,971;10974,172;   -2,436;    0,591
442,560;10837,389;    0,563;   -1,773
443,149;10570,649;    0,379;   -1,318
443,737;10708,656;   -0,074;   -2,318
444,326;10977,605;    0,018;    0,318
444,915;11066,219;   -1,982;    0,864
445,503;11495,911;   -2,891;   -0,318
446,092;10697,275;    0,382;    2,136
446,680;11282,992;    0,382;    0,318
447,269;11480,607;   -0,346;   -0,318
447,857;11240,472;    0,018;   -1,773
448,445;11343,222;    0,563;    1,318
449,034;11574,642;   -1,528;   -1,136
449,622;11721,835;   -1,073;    3,500
450,210;10853,236;    2,017;    2,227
450,799;11420,498;    0,290;   -0,591
451,387;11411,169;    1,381;   -0,591
451,975;11016,589;    2,654;    0,864
452,563;11108,804;    3,472;    2,318
453,151;11162,317;   -0,528;   -1,227
453,739;11108,934;   -1,347;    0,136
454,328;10935,478;    2,381;   -2,136
454,916;10622,786;    2,562;   -0,136
455,504;10783,740;    1,017;    1,227
456,092;10933,625;    0,017;   -1,591
456,679;10988,352;    1,472;    0,682
457,267;10892,490;    4,017;    1,045
457,855;11033,321;    1,017;    1,409
458,443;10836,413;   -0,165;    1,682
459,031;10919,515;    0,108;    2,409
459,619;11464,877;   -1,801;    2,864
460,206;11628,923;    0,835;    2,045
460,794;11679,481;   -2,983;   -0,227
461,382;11974,222;   -0,529;   -0,864
461,970;11499,517;    1,198;    1,864
462,557;11506,347;   -0,711;   -0,682
463,145;11733,732;   -3,165;   -1,682
463,732;11916,371;    2,016;   -1,045
464,320;11841,862;   -0,075;   -3,045
464,907;11481,906;    2,743;   -0,773
465,495;11346,148;    0,743;   -1,227
466,082;11513,680;   -1,984;   -0,045
466,670;11456,634;   -2,529;    1,227
467,257;11866,112;   -1,711;    2,045
467,844;12013,249;   -0,075;    0,045
468,432;12055,238;    0,834;    3,500
469,019;11481,615;    0,925;   -1,773
469,606;12012,853;    0,470;    3,682
470,193;11832,230;   -1,439;    0,227
470,780;11349,410;   -2,075;    0,864
471,368;11704,196;   -1,257;   -0,773
471,955;11460,093;    1,379;   -0,682
472,542;11146,606;    0,652;   -1,136
473,129;11363,582;   -0,166;    0,136
473,716;11062,013;    1,470;    0,591
474,303;11307,218;    0,652;   -0,864
474,890;11610,426;   -1,439;   -0,500
475,477;11620,813;   -1,621;    0,409
476,064;11513,145;    1,106;   -1,591
476,650;11478,938;    0,288;    0,318
477,237;11322,575;   -0,258;    0,955
477,824;11475,405;   -1,076;    0,864
478,411;11508,541;   -1,894;   -0,318
478,997;11707,440;    0,560;   -0,773
479,584;11803,749;    1,196;   -0,409
480,171;12572,521;   -0,440;   -0,773
480,757;12173,046;    2,651;    0,773
481,344;12508,328;    0,469;    0,409
481,931;12040,311;    1,105;    1,045
482,517;13174,195;   -1,258;    0,318
483,104;13869,533;    1,106;    2,864
483,690;14235,567;   -1,804;    0,045
484,276;14613,035;   -0,895;    0,227
484,863;14363,341;    2,469;    1,136
485,449;14960,241;   -0,077;    0,318
486,035;14964,412;   -1,986;   -0,136
486,622;15434,535;   -0,895;    0,045
487,208;15395,570;    1,378;    1,500
487,794;15191,640;    0,741;    0,318
488,380;15268,277;    0,105;   -1,409
488,967;15385,268;   -1,168;   -0,409
489,553;15447,119;   -1,895;   -1,409
490,139;15652,926;    1,559;    0,773
490,725;14975,802;    0,741;   -0,227
491,311;14431,619;    3,287;    3,045
491,897;13749,290;   -0,986;    1,500
492,483;13455,052;    0,105;    1,227
493,069;13184,847;    3,923;    0,864
493,655;13218,280;    1,650;    0,682
494,241;13085,189;    1,377;   -0,955
494,826;13561,653;    0,287;   -1,045
495,412;12996,778;    2,559;   -0,682
495,998;13120,089;   -0,805;   -0,318
496,584;13286,702;    0,377;    1,045
497,169;13295,157;    1,014;   -0,682
497,755;13257,171;    0,650;    1,227
498,341;13818,600;    0,559;    0,318
498,926;13396,840;    1,832;    1,955
499,512;13609,414;    1,286;    2,955
500,097;13763,298;    0,195;   -0,318
500,683;13690,342;   -0,350;    2,136
501,268;14050,036;   -0,169;   -0,955
501,854;13695,230;   -0,169;    1,227
502,439;13649,186;   -0,624;   -1,773
503,024;13913,560;    0,195;    0,500
503,610;13998,469;   -0,078;   -0,682
504,195;14024,810;    0,558;    1,955
504,780;14125,536;    2,922;    1,227
505,366;13904,740;    3,013;    2,864
505,951;13617,529;    0,740;    1,045
506,536;13655,858;   -3,260;   -3,682
507,121;13626,209;    0,285;   -0,318
507,706;14192,789;    2,376;    1,045
508,291;14618,177;    2,649;    1,136
508,876;14031,294;   -0,988;    2,591
509,461;13455,872;   -0,169;   -0,773
510,046;13874,224;    0,194;    0,318
510,631;14128,939;   -0,351;   -0,773
511,216;13795,792;    2,467;   -0,500
511,801;14167,495;   -0,442;    2,591
512,386;14483,996;    0,740;    0,500
512,971;14481,226;   -2,988;    0,955
513,555;13953,156;   -0,897;   -1,500
514,140;14798,543;   -0,442;   -3,136
514,725;14811,239;   -0,715;   -1,136
515,309;14956,624;   -0,533;    0,318
515,894;14338,488;   -0,624;   -2,227
516,479;14850,057;   -0,624;   -0,955
517,063;14697,772;    0,376;    1,227
517,648;14779,000;    1,012;   -1,136
518,232;14435,140;   -0,261;   -1,409
518,817;14798,856;   -0,079;    1,682
519,401;15034,389;    2,194;    0,591
519,985;14514,752;    1,103;    1,136
520,570;14391,629;    0,830;   -1,955
521,154;14708,027;    2,102;    0,591
521,738;14865,620;   -2,352;    2,409
522,323;15455,323;   -0,170;    1,682
522,907;15157,916;    0,466;   -0,136
523,491;14887,223;    0,557;    0,955
524,075;14881,939;    2,284;    0,591
524,659;14999,869;    1,466;    0,591
525,243;14406,040;    1,739;    0,409
525,827;14668,916;    0,648;   -0,045
526,411;15551,597;   -1,989;   -0,136
526,995;15748,495;   -0,352;    1,409
527,579;15363,191;   -0,443;   -1,045
528,163;15667,863;    0,375;   -1,500
528,747;15577,351;    2,466;   -0,773
529,331;15893,600;   -0,080;   -1,409
529,915;16177,465;    1,738;    0,955
530,499;16147,067;   -0,807;    1,227
531,082;15804,623;   -0,534;    1,591
531,666;15188,376;    1,374;    0,773
532,250;15944,703;    1,284;    2,682
532,833;16303,103;    0,920;    2,773
533,417;16165,432;   -1,807;    0,864
534,001;16145,593;    1,647;   -0,318
534,584;16897,140;    0,374;    0,500
535,168;16682,844;    0,465;    1,409
535,751;16775,967;    0,647;    0,045
536,334;16221,524;   -0,898;   -0,409
536,918;16813,706;    0,011;    1,591
537,501;16928,230;   -0,899;    1,318
538,085;16967,037;   -0,444;    1,045
538,668;17162,662;    0,829;    2,409
539,251;17459,742;    1,829;    3,773
539,834;17502,151;    0,101;    0,773
540,418;17430,141;   -1,990;    4,318
541,001;17532,107;   -0,990;    1,773
541,584;17530,610;    2,101;    2,227
542,167;17196,767;    1,374;    2,955
542,750;17375,176;    1,919;   -0,773
543,333;16950,065;    0,555;    2,136
543,916;17758,484;    0,192;    2,500
544,499;18449,019;   -1,354;    0,227
545,082;18470,110;    1,374;    3,591
545,665;18589,780;    1,919;    1,500
546,248;18994,065;    1,010;   -0,318
546,830;18622,428;   -0,445;    1,955
547,413;19032,112;    1,010;   -0,773
547,996;19577,499;    0,555;    0,500
548,579;19369,205;    0,919;    0,955
549,161;19171,932;    1,828;    2,682
549,744;18959,365;   -0,809;    0,409
550,326;19460,116;   -0,809;   -1,136
550,909;19248,878;    2,737;    0,591
551,492;19652,138;   -0,263;    0,227
552,074;19455,094;   -0,173;   -1,318
552,657;20047,981;    2,373;    0,045
553,239;19761,038;   -0,173;   -0,773
553,821;19648,900;   -1,082;    1,045
554,404;19163,299;    1,282;    1,136
554,986;19552,164;    0,464;    1,045
555,568;20192,948;    1,191;   -0,955
556,151;19391,300;    1,191;   -0,227
556,733;19616,379;   -0,264;   -0,864
557,315;20111,745;    0,100;    0,500
557,897;19955,029;    0,554;   -0,500
558,479;20101,540;   -1,991;    1,318
559,061;20161,247;   -0,719;   -0,864
559,643;20530,871;   -0,264;    0,045
560,225;20931,130;    1,645;    2,864
560,807;20919,962;    0,918;    0,318
561,389;20388,542;    0,554;    2,318
561,971;21246,522;    0,463;    2,136
562,553;21037,656;   -1,628;    1,591
563,135;21145,202;   -0,537;    1,136
563,717;20717,792;    3,372;    1,136
564,298;21510,759;    3,645;   -0,045
564,880;21290,944;    0,645;   -1,409
565,462;21454,580;    0,645;    1,318
566,043;22671,237;   -0,446;    2,318
566,625;22180,589;    1,918;    1,227
567,207;22064,159;    1,099;    1,682
567,788;23325,034;   -1,264;    1,500
568,370;24141,286;    1,917;   -0,500
568,951;24068,625;    0,190;    0,227
569,533;25031,264;   -0,628;   -0,500
570,114;25521,919;   -0,446;    0,682
570,695;26143,093;   -0,174;   -1,318
571,277;26721,139;   -0,265;   -1,682
571,858;27532,241;    2,008;   -1,136
572,439;28532,512;    1,554;   -1,045
573,021;28718,880;    2,099;   -2,773
573,602;29265,277;   -1,265;    0,318
574,183;30283,391;   -2,083;    2,227
574,764;30508,505;   -1,629;    0,409
575,345;31127,631;    0,917;   -0,136
575,926;31716,163;   -0,356;    0,136
576,507;31732,993;    1,099;   -0,227
577,088;32947,049;    3,099;    1,682
577,669;32945,233;    0,735;    1,955
578,250;33800,664;    0,644;   -1,045
578,831;34576,928;   -1,356;   -2,227
579,412;34851,949;   -0,810;    0,955
579,993;35754,131;    1,008;    0,227
580,573;36101,176;   -0,629;   -0,955
581,154;35124,278;    0,735;   -0,591
581,735;36013,278;    0,644;    0,773
582,315;35576,369;   -0,629;    2,136
582,896;35771,687;   -0,174;    1,227
583,477;35138,052;    0,189;    1,227
584,057;35384,915;    0,553;    0,955
584,638;35704,494;    2,553;    2,318
585,218;35695,346;   -0,538;    2,682
585,799;35855,289;    0,281;   -0,227
586,379;35738,686;    0,372;    1,591
586,959;34396,732;    0,735;    0,318
587,540;33605,791;   -0,629;    2,227
588,120;33092,327;    1,007;   -0,045
588,700;31981,189;    2,553;    2,136
589,281;32372,199;    0,462;   -0,955
589,861;32338,574;    0,099;   -1,682
590,441;32114,676;    2,371;   -2,682
591,021;31022,210;   -0,265;   -2,591
591,601;31185,094;   -0,537;    0,500
592,181;31204,537;   -0,719;   -0,773
592,761;30450,360;    0,007;    1,409
593,341;30318,687;   -0,901;    0,045
593,921;30301,833;   -0,265;    1,591
594,501;30203,857;   -0,538;    1,318
595,081;30019,481;    0,917;   -0,318
595,661;30392,482;   -1,447;    0,955
596,240;31008,219;   -0,537;    0,136
596,820;30627,036;    0,372;    1,955
597,400;30828,845;    2,008;    0,773
597,980;31026,162;    2,008;    1,045
598,559;31026,356;    2,735;   -0,227
599,139;30622,880;   -0,174;   -1,227
599,718;30603,789;   -0,174;   -0,409
600,298;30881,391;    0,735;    0,682
600,877;31105,469;    2,917;    1,409
601,457;31378,740;    2,281;    1,136
602,036;31254,901;    0,190;    2,045
602,616;31537,423;    0,644;    1,682
603,195;31887,638;   -0,355;    3,500
603,774;31421,218;   -0,901;    2,045
604,354;31307,752;    0,826;   -0,500
604,933;30765,606;    0,463;    1,864
605,512;30857,116;    3,554;    0,591
606,091;30897,797;   -0,537;    3,773
606,671;31699,718;    0,281;    0,773
607,250;30753,104;    1,644;    3,136
607,829;31013,296;    2,372;    3,227
608,408;30867,649;    1,190;    2,591
608,987;29853,840;    1,281;    3,409
609,566;30164,039;   -1,265;   -2,500
610,145;30300,033;   -1,082;    0,682
610,723;30681,204;    4,372;    6,864
611,302;29884,282;   -0,446;    1,682
611,881;29395,283;    5,008;   11,227
612,460;30265,465;    1,645;    3,955
613,039;30662,543;   -0,082;    2,045
613,617;29436,103;    1,736;    4,773
614,196;29555,862;    1,099;    1,227
614,775;29881,759;    1,009;    2,409
615,353;29803,599;    0,736;    0,864
615,932;29516,781;    0,100;    2,409
616,510;30125,202;    0,554;    0,591
617,089;29585,963;    7,100;   17,591
617,667;29344,883;    2,372;    6,136
618,246;29205,325;   -1,537;    1,318
618,824;29339,155;   -3,355;   -0,955
619,402;28906,621;   -2,900;   -1,773
619,981;29451,472;   -0,173;   -1,045
620,559;29253,699;    0,009;    1,682
621,137;28679,734;   -0,718;    1,864
621,715;28753,268;   -1,173;   -0,682
622,293;28630,233;   -0,537;   -0,773
622,871;29034,927;   -0,718;    0,500
623,450;28628,209;    0,373;   -0,864
624,028;28548,540;    0,191;   -0,955
624,606;28149,721;   -1,718;    1,682
625,183;28562,254;   -1,536;   -1,136
625,761;28139,788;    1,009;    1,136
626,339;28404,562;    1,373;    2,591
626,917;28874,366;   -0,172;   -0,045
627,495;28852,162;   -0,354;    1,318
628,073;28250,297;   -0,263;    2,864
628,650;27901,447;    0,100;    2,136
629,228;28395,561;    0,373;    4,409
629,806;27786,651;    2,282;    1,136
630,383;27987,604;    1,464;   -0,318
630,961;27803,776;    2,555;   -0,955
631,539;27574,457;    2,464;    0,227
632,116;26891,231;   11,373;   15,409
632,694;27455,446;    2,555;    6,500
633,271;27816,932;    0,828;    2,682
633,848;27719,183;    1,828;    2,045
634,426;27742,420;   -1,081;    1,773
635,003;26836,428;    1,101;   -0,409
635,580;27212,019;    1,192;    3,682
636,158;27743,214;    3,737;    1,227
636,735;27661,602;    0,555;   -0,500
637,312;27865,388;   -0,809;   -0,682
637,889;27983,783;   -4,354;   -0,682
638,466;27360,860;   -3,990;   -0,409
639,043;27379,744;    2,101;   -1,136
639,620;27763,244;   -2,262;   -0,955
640,197;28095,222;    1,100;    1,682
640,774;28174,205;   -0,172;    1,136
641,351;28600,824;    0,737;    1,136
641,928;28009,716;   -0,627;    1,409
642,505;27620,790;    0,828;   -0,500
643,082;27706,955;   -1,718;    1,227
643,658;26777,210;   -0,718;    1,500
644,235;27517,920;    1,191;    2,500
644,812;27872,449;    1,918;    0,773
645,388;27567,977;   -0,991;    1,409
645,965;27643,960;   -0,809;    1,682
646,542;27755,761;   -1,445;   -0,227
647,118;27699,198;    1,009;   -0,955
647,695;28048,636;   -0,263;    1,136
648,271;27949,528;   -0,536;    0,500
648,848;28240,329;    0,736;    2,227
649,424;28099,494;    0,827;    1,318
650,000;27880,931;   -0,354;   -1,045
650,577;27733,641;   -0,627;   -0,955
651,153;28200,624;   -1,809;    0,955
651,729;29245,152;    1,191;    0,864
652,305;29720,681;    0,645;    2,773
652,881;35277,573;   -0,082;    1,136
653,458;42899,556;    1,100;    0,227
654,034;46779,811;    0,282;    1,591
654,610;48257,158;    0,554;    0,773
655,186;49593,868;    0,645;    3,045
655,762;49313,851;   -0,991;    0,409
656,338;49345,743;    0,100;    0,136
656,913;50369,726;   -0,082;    0,409
657,489;49627,981;    0,827;   -0,318
658,065;49553,237;   -0,173;   -1,591
658,641;50287,492;   -0,900;   -0,864
659,217;49589,657;   -0,991;    0,409
659,792;48977,731;    0,645;   -0,409
660,368;49135,259;   -2,173;   -0,682
660,944;48505,424;   -2,082;    1,227
661,519;42846,407;   -0,628;    0,409
662,095;36056,662;   -1,719;    0,591
662,670;31283,191;    1,281;   -0,136
663,246;30179,537;    1,009;   -0,409
663,821;29453,156;    0,281;    1,682
664,396;28963,503;    0,009;    1,864
664,972;29277,031;    0,009;   -0,500
665,547;29537,651;    1,372;    0,136
666,122;29596,633;   -1,082;    0,318
666,698;29938,162;   -0,173;    0,318
667,273;29277,781;   -0,173;    0,136
667,848;30100,673;    2,372;    1,500
668,423;29886,201;    2,190;    2,318
668,998;30461,730;    2,827;   -0,682
669,573;31033,167;   -3,264;   -1,500
670,148;30872,695;   -1,446;   -0,682
670,723;30681,769;   -1,810;    0,318
671,298;31088,570;    2,372;    1,045
671,873;31274,735;   -0,082;   -0,136
672,448;31162,263;    0,645;    0,136
673,023;31523,519;   -1,992;   -0,227
673,597;31865,593;    0,827;    2,318
674,172;31618,757;   -0,355;    0,318
674,747;31069,468;    0,372;   -1,045
675,321;30904,178;   -0,628;    3,318
675,896;30471,070;    0,645;    1,045
676,471;31547,507;    2,645;    1,591
677,045;31283,581;   -1,264;    0,682
677,620;31362,473;    0,190;    1,136
678,194;31649,092;   -2,628;    1,136
678,769;31266,529;   -1,083;   -0,318
679,343;31551,149;   -0,628;    1,773
679,917;31392,495;   -1,446;    1,955
680,492;31475,751;    0,826;    3,227
681,066;31615,279;    3,372;    0,409
681,640;31678,989;    1,463;   -0,318
682,214;32562,609;    0,735;    0,500
682,788;32070,864;   -1,356;   -0,773
683,363;31952,756;   -1,810;    1,682
683,937;31674,285;   -1,719;   -0,318
684,511;32475,449;    0,463;   -0,591
685,085;32150,341;   -1,356;    0,318
685,659;31952,233;   -2,538;    0,864
686,232;32206,489;   -0,356;   -0,318
686,806;31881,199;   -0,901;    0,409
687,380;32524,818;   -0,174;    0,591
687,954;32728,528;   -1,174;    1,136
688,528;32430,329;   -0,719;    1,955
689,101;33243,130;   -3,992;    1,045
689,675;32819,659;   -0,356;   -0,136
690,249;32202,005;   -0,719;    0,409
690,822;32468,897;    0,280;    0,318
691,396;32553,880;   -0,265;    1,227
691,969;31996,954;    1,280;    0,136
692,543;32471,482;   -0,447;   -1,955
693,116;32086,465;   -0,265;   -1,409
693,690;31980,903;    0,099;    0,500
694,263;32543,795;   -1,083;    2,955
694,836;32616,505;    1,371;    3,591
695,410;31260,942;   -0,265;    1,773
695,983;31784,743;    0,189;    0,591
696,556;31673,635;   -0,447;   -1,045
697,129;32040,436;   -0,356;    1,409
697,703;31689,692;   -1,629;    1,955
698,276;31606,220;    1,462;   -0,773
698,849;31421,567;    1,280;    1,409
699,422;31763,186;   -1,083;    0,591
699,995;31512,351;    0,007;    0,136
700,568;32046,970;   -0,629;    3,045
701,140;32092,953;   -2,811;    1,682
701,713;31772,572;   -0,174;    2,409
702,286;31541,555;   -0,538;    0,864
702,859;31384,538;   -0,902;   -0,591
703,432;30499,611;    0,825;    0,682
704,004;30989,594;    0,462;    0,318
704,577;30884,305;   -0,629;    0,136
705,150;31495,833;    0,189;    2,500
705,722;31258,088;   -0,356;   -3,227
706,295;31084,708;   -0,175;   -0,591
706,867;30908,509;   -0,175;    1,955
707,440;31132,583;   -1,720;   -0,409
708,012;31390,838;    0,462;    0,591
708,584;31291,548;    2,462;    0,227
709,157;31528,349;    1,825;   -0,591
709,729;31158,878;    2,280;    2,045
710,301;32034,042;    0,734;    0,045
710,874;32002,843;   -1,447;   -0,227
711,446;30928,917;    0,371;    0,864
712,018;30871,264;    0,098;    0,500
712,590;30546,065;   -1,993;    1,682
713,162;31035,593;    0,825;    1,318
713,734;31373,122;    1,825;   -2,045
714,306;31239,650;   -1,902;   -0,409
714,878;29894,905;    0,825;    0,864
715,450;30730,525;    0,643;    0,864
716,022;30943,598;    1,552;    1,318
716,593;31075,763;    0,189;    0,591
717,165;31015,655;   -3,175;   -1,227
717,737;30729,911;    0,280;    0,409
718,309;30391,530;    0,280;   -0,045
718,880;30308,058;   -0,539;   -1,409
719,452;30530,405;   -0,175;   -1,591
720,024;30126,570;    0,734;   -0,591
720,595;30696,371;   -2,902;    0,955
721,167;30266,263;    0,370;   -2,045
721,738;29774,427;   -0,812;   -1,045
722,309;29725,319;   -0,993;   -1,227
722,881;29519,938;   -1,357;    0,773
723,452;30176,376;   -2,630;    2,864
724,023;30303,086;   -0,721;    2,682
724,595;30109,342;    0,007;    0,682
725,166;29855,325;    0,007;   -0,409
725,737;29495,671;    1,734;    0,227
726,308;29551,199;   -0,266;    0,318
726,879;30027,091;   -1,630;    1,227
727,450;29823,983;    0,552;   -0,045
728,021;29839,784;    3,097;    0,682
728,592;29648,767;    0,734;    0,500
729,163;29957,568;    0,643;   -0,136
729,734;30026,733;    0,188;   -0,227
730,305;30390,716;    1,734;    0,136
730,876;30739,426;    0,188;    2,955
731,447;30447,682;    2,188;    2,682
732,017;30557,937;    1,097;    1,864
732,588;29984,193;    0,734;    1,227
733,159;30244,994;    0,643;   -1,045
733,729;30068,159;    0,006;    0,409
734,300;29302,142;    0,915;    0,864
734,870;29702,488;    3,461;    0,591
735,441;30294,653;    0,370;   -0,591
736,011;30039,545;    0,643;   -1,591
736,582;29979,346;   -0,812;    0,045
737,152;29451,238;   -1,721;   -2,045
737,722;29867,039;   -0,267;   -0,682
738,293;29574,204;   -1,358;    1,318
738,863;29477,550;    2,461;    2,318
739,433;29257,533;    5,279;    0,318
740,003;29907,516;   -0,994;   -0,682
740,573;29307,862;    2,097;   -1,591
741,143;29227,209;   -1,085;    0,318
741,713;30007,646;    1,188;   -0,500
742,283;29693,993;    0,915;    1,591
742,853;29456,339;    1,915;    1,591
743,423;28867,777;    1,733;    0,045
743,993;29094,214;   -0,358;    1,500
744,563;28417,197;    0,097;   -0,864
745,133;28373,634;   -0,812;   -0,864
745,702;29058,890;   -0,267;    1,773
746,272;28243,146;   -0,176;    0,591
746,842;28026,674;   -1,358;   -0,591
747,411;28375,748;   -0,267;   -0,318
747,981;28599,458;    0,097;    0,500
748,551;28626,168;    2,278;   -1,045
749,120;28506,333;    0,642;   -0,227
749,690;28880,497;   -0,631;    2,409
750,259;29236,389;    1,369;    2,955
750,828;29178,554;    1,551;   -1,955
751,398;29416,355;    1,278;   -0,045
751,967;28941,611;    2,187;    0,409
752,536;29159,230;   -0,813;   -0,227
753,105;29572,758;    0,096;    0,227
753,675;29379,014;    0,096;    1,773
754,244;29347,997;   -0,904;    3,591
754,813;29380,616;    0,551;    1,227
755,382;28973,235;    0,460;    0,955
755,951;29569,309;    1,551;    3,682
756,520;29011,747;   -0,085;    1,864
757,089;29602,911;    0,278;    0,500
757,658;29804,440;    1,733;    1,227
758,227;29783,877;    1,096;    0,318
758,795;30115,224;    1,187;    1,136
759,364;30353,752;   -0,086;   -0,591
759,933;29334,553;   -1,176;   -0,045
760,501;28837,081;    0,733;   -1,318
761,070;29289,791;   -2,813;   -1,409
761,639;30014,865;   -1,904;    1,318
762,207;29375,303;    1,551;   -0,955
762,776;29309,195;    0,369;    0,864
763,344;29237,632;   -0,995;    0,591
763,913;28278,251;   -0,722;    1,409
764,481;29031,325;    1,005;   -0,136
765,049;28773,853;   -1,358;    1,409
765,618;28660,927;   -0,086;    0,318
766,186;28743,456;    0,278;    0,136
766,754;28916,075;    0,005;    1,864
767,322;27889,512;   -1,995;    0,409
767,890;27951,586;   -0,722;   -1,773
768,459;28366,751;   -2,177;   -0,318
769,027;28572,461;    1,641;    3,409
769,595;27477,807;    3,278;    2,591
770,163;27908,972;    3,823;    2,955
770,730;27669,773;    0,732;   -0,136
771,298;27437,029;    0,187;   -1,409
771,866;27461,739;   -1,541;    4,955
772,434;27859,358;   -0,631;   -1,864
773,002;28009,614;    0,005;    0,682
773,569;27619,506;    0,914;    1,682
774,137;27501,670;   -0,268;   -0,045
774,705;28372,835;    0,278;   -0,136
775,272;27825,182;    0,641;    0,682
775,840;27487,074;   -0,177;    2,682
776,407;27071,511;    0,277;    1,955
776,975;26632,857;   -0,632;    0,318
777,542;27624,840;   -1,086;   -0,045
778,110;27425,732;   -1,268;   -0,045
778,677;27162,988;   -2,359;   -0,864
779,244;26847,153;    2,186;    1,045
779,812;26989,772;    1,823;    0,864
780,379;26856,028;    0,005;    1,136
780,946;27132,374;    1,005;   -0,773
781,513;27426,448;   -1,450;    0,318
782,080;26804,158;   -0,086;    2,864
782,647;27577,595;   -0,268;    3,045
783,214;27137,306;   -0,177;    3,864
783,781;26748,107;   -0,723;   -0,682
784,348;26602,635;   -0,632;    1,500
784,915;27059,527;   -3,177;    0,318
785,482;26859,510;    1,368;    2,591
786,049;27249,765;    0,186;   -0,591
786,615;27381,566;    0,277;   -0,955
787,182;27131,913;    0,186;   -0,682
787,749;26803,259;   -2,814;    1,409
788,315;26119,697;   -1,632;   -0,409
788,882;26421,498;    1,550;   -1,227
789,448;27166,026;    1,732;   -0,955
790,015;27157,736;    1,095;    3,227
790,581;26697,992;    1,459;    0,227
791,148;26578,520;    0,641;    1,045
791,714;26773,140;   -0,541;    3,136
792,280;26453,304;    0,186;    1,591
792,847;26014,833;    0,550;    2,500
793,413;26559,906;   -0,269;   -0,318
793,979;26069,071;    3,459;   -1,318
794,545;26175,599;    4,459;    2,682
795,111;25533,128;    2,186;    1,318
795,678;25755,474;    0,731;   -1,682
796,244;25379,730;    3,368;    0,136
796,810;25948,895;    1,731;    0,773
797,375;25633,878;    0,549;   -2,136
797,941;25682,769;   -0,541;    0,591
798,507;25819,116;   -0,451;   -0,955
799,073;25318,917;   -0,360;    0,591
799,639;25348,173;   -2,632;    3,136
800,205;25414,883;    0,095;    2,682
800,770;24944,320;    0,640;    1,773
801,336;25069,121;    1,368;   -0,955
801,901;24725,195;    4,549;    3,136
802,467;25279,723;   -0,542;    2,045
803,033;24590,434;   -0,087;    0,864
803,598;24816,598;    1,913;   -1,045
804,163;24884,672;    1,095;   -0,318
804,729;24788,655;   -0,178;    1,136
805,294;25199,456;    0,822;    2,227
805,859;25001,348;    0,731;   -0,409
806,425;24472,785;    1,186;    2,682
806,990;24097,223;    2,186;    4,318
807,555;24642,478;   -1,451;    2,591
808,120;24503,916;    0,822;   -0,409
808,685;24527,899;    0,185;   -2,500
809,250;24043,154;    0,004;   -0,500
809,815;24303,592;    1,913;    0,682
810,380;24921,393;   -0,269;    1,591
810,945;25447,012;   -1,087;    2,045
811,510;24602,722;    2,094;    1,591
812,075;24274,432;   -0,633;   -1,409
812,640;24347,779;    2,003;    1,409
813,204;24377,216;    0,822;   -0,227
813,769;24867,472;    2,094;   -0,045
814,334;24272,273;    0,458;    0,864
814,898;24305,347;    0,367;    0,591
815,463;24152,148;    1,276;   -0,773
816,027;24117,222;   -0,724;   -2,318
816,592;24178,114;    0,640;   -2,045
817,156;23665,096;    2,094;    1,136
817,721;23531,988;    4,276;    2,318
818,285;23505,608;    2,912;    1,500
818,849;24212,681;   -1,451;    1,682
819,414;24058,483;   -0,269;    2,955
819,978;23596,829;   -1,269;    1,773
820,542;24200,448;    2,003;    0,500
821,106;23911,068;   -0,815;    0,682
821,670;24016,232;   -0,815;    2,591
822,234;23729,670;   -0,270;    1,409
822,798;23038,834;    0,003;    0,500
823,362;22993,363;   -0,633;    4,227
823,926;22272,982;    0,094;    1,136
824,490;22606,783;   -0,997;   -0,682
825,054;23009,311;   -0,088;   -1,136
825,618;22620,658;   -1,542;   -1,500
826,181;22571,913;    0,458;   -1,318
826,745;22488,442;    1,367;   -1,045
827,309;22881,879;    1,185;    1,318
827,872;22217,953;    1,367;    0,955
828,436;23201,845;    1,185;   -0,773
828,999;23230,010;   -0,997;    1,227
829,563;21994,720;   -0,179;    1,136
830,126;21833,975;   -0,179;   -0,591
830,690;21822,595;   -1,997;    2,864
831,253;21320,396;   -0,543;    2,227
831,816;21513,288;   -1,906;    0,500
832,380;21441,816;    0,185;    0,864
832,943;21659,163;   -1,361;   -0,500
833,506;21082,873;    2,639;   -1,227
834,069;21874,492;    3,912;   -0,955
834,632;21966,020;    1,730;    1,318
835,195;21868,185;    1,003;    0,955
835,758;21005,259;   -0,997;    1,955
836,321;20876,878;    0,730;   -1,045
836,884;20989,406;   -0,725;   -0,955
837,447;21016,117;   -2,816;    1,773
838,010;21259,463;    0,366;    3,227
838,573;21568,991;   -1,179;    0,773
839,135;21523,974;   -1,361;   -0,955
839,698;20951,230;    1,275;    0,409
840,261;20443,213;    1,003;   -0,227
840,823;20286,287;   -0,543;    0,864
841,386;20572,542;   -0,452;   -2,409
841,948;20453,889;   -1,361;    1,773
842,511;20201,235;    0,912;    1,682
843,073;20367,400;    1,912;    0,227
843,636;20067,746;   -0,361;   -0,227
844,198;20017,547;    0,911;    0,591
844,760;20223,803;    1,093;    1,955
845,322;19790,695;    0,548;    1,136
845,885;20242,860;    0,730;    0,591
846,447;20718,024;   -1,998;    0,227
847,009;20244,189;    1,911;   -0,682
847,571;20614,717;    0,820;   -2,045
848,133;20706,155;   -1,089;   -1,864
848,695;20532,320;   -0,543;    1,409
849,257;20069,302;   -1,089;   -1,682
849,819;20250,740;   -0,998;   -0,409
850,381;20346,632;   -0,725;   -0,864
850,942;20699,069;    1,093;   -0,591
851,504;20662,689;    1,184;    0,227
852,066;20694,580;    1,275;   -1,591
852,628;20118,654;   -0,180;    1,955
853,189;19684,910;    1,638;    2,682
853,751;19813,711;   -0,907;    1,409
854,312;19632,603;   -0,453;   -1,682
854,874;20166,313;   -2,089;   -0,773
855,435;20715,841;   -0,907;   -1,682
855,997;20875,097;   -1,816;   -0,136
856,558;20162,171;    0,366;    1,773
857,119;20191,608;    0,820;    2,864
857,681;19896,409;    0,002;    0,318
858,242;19974,483;    1,911;   -2,136
858,803;20402,557;    0,456;   -0,773
859,364;20962,085;    0,184;   -4,773
859,925;20264,068;   -2,453;   -0,955
860,486;20146,687;   -0,453;   -0,955
861,047;19861,579;   -0,544;   -1,227
861,608;19697,653;   -1,089;   -0,773
862,169;19780,545;    0,638;   -0,045
862,730;19532,437;    0,456;    1,409
863,291;19788,329;   -0,635;   -0,500
863,852;20198,675;   -0,635;    1,955
864,412;19573,931;   -0,271;   -0,864
864,973;18135,459;   -0,089;    0,500
865,534;18033,170;   -1,726;    0,227
866,094;19595,062;    1,820;    0,227
866,655;19229,135;    1,274;    3,318
867,215;19493,845;    0,274;    0,136
867,776;19341,737;    0,547;   -0,136
868,336;19437,266;   -1,453;    0,136
868,897;18857,612;    2,638;    1,682
869,457;18538,686;    1,365;    0,318
870,017;18788,942;    0,547;   -1,227
870,578;19358,925;   -0,817;    0,773
871,138;19071,998;   -2,089;   -0,955
871,698;18594,981;   -0,817;   -1,318
872,258;18475,964;   -0,453;   -2,864
872,818;18862,402;    2,729;    0,045
873,378;18843,748;    0,638;    1,045
873,938;18344,367;    0,547;    0,500
874,498;18660,714;    0,274;   -1,955
875,058;18561,879;    2,183;    1,773
875,618;18369,043;    1,910;   -2,682
876,177;18367,026;    1,274;    0,136
876,737;17945,100;   -0,090;    1,955
877,297;17992,537;    0,183;    1,955
877,856;17985,429;   -0,362;    0,318
878,416;17884,867;    1,183;   -0,136
878,976;18134,668;   -1,817;    0,409
879,535;18319,287;    0,092;    3,136
880,095;18052,724;   -0,544;    0,045
880,654;18202,980;   -1,090;    1,318
881,213;18295,963;    2,456;    1,500
881,773;17897,582;    2,637;    2,682
882,332;18296,838;    3,365;    5,136
882,891;18056,457;    3,092;    2,136
883,451;18551,985;   -1,272;    1,682
884,010;17971,241;   -2,908;   -0,409
884,569;18051,224;   -0,999;   -0,045
885,128;18222,207;    2,819;   -1,864
885,687;18320,917;    4,455;    0,682
886,246;17993,718;    1,455;    2,136
886,805;17762,246;    2,455;    2,045
887,364;18064,411;   -0,999;   -0,500
887,922;18453,212;   -1,181;    0,045
888,481;17938,195;   -1,545;    0,591
889,040;18252,814;    1,183;    2,136
889,599;18976,615;    2,455;    1,409
890,157;19040,234;    1,455;    2,409
890,716;18675,581;   -0,090;    0,227
891,274;18465,927;    0,092;   -1,136
891,833;18929,456;    1,546;    0,864
892,391;18832,893;   -0,454;    0,500
892,950;18932,513;    1,819;   -0,773
893,508;19303,950;    0,455;   -0,409
894,067;18645,296;    0,637;    0,136
894,625;18511,007;   -0,636;   -1,500
895,183;18725,535;   -0,363;   -0,682
895,741;18627,518;    1,728;   -1,773
896,299;18429,319;   -0,545;   -2,409
896,858;18620,938;    0,819;   -1,591
897,416;18784,103;    2,728;   -1,318
897,974;18517,631;    1,819;    0,318
898,532;18684,432;    6,091;    2,682
899,089;18546,324;    2,091;   -0,682
899,647;18572,216;   -1,454;    1,318
900,205;18232,199;    1,182;    1,045
900,763;18447,818;   -0,454;    0,227
901,321;18447,438;    2,364;   -1,409
901,878;17873,148;   -1,000;   -0,773
902,436;17768,221;   -1,363;    1,318
902,994;18139,386;    4,728;    3,682
903,551;17511,824;    0,728;    0,409
904,109;17918,716;    0,182;   -1,409
904,666;17466,880;    2,455;    1,045
905,224;17305,954;    0,182;   -0,409
905,781;17041,664;    0,727;   -0,318
906,338;17133,102;   -1,363;    1,045
906,895;17062,721;    0,637;    2,045
907,453;16966,795;    1,727;    1,136
908,010;16984,778;   -0,909;    0,409
908,567;16641,579;    1,273;    0,591
909,124;16147,289;    0,364;   -1,500
909,681;16232,635;   -2,909;    0,682
910,238;16341,800;    0,636;   -1,318
910,795;16654,783;   -0,273;   -1,136
911,352;16235,328;   -2,909;   -2,682
911,909;15639,419;   -1,364;   -0,864
912,466;16179,874;   -3,182;    1,500
913,022;15683,328;   -1,636;    0,500
913,579;16067,419;   -0,909;    2,045
914,136;15759,874;    1,636;    0,955
914,692;16114,419;    0,091;   -1,227
915,249;15692,056;    1,455;    0,409
915,806;15932,783;    0,182;    1,955
916,362;15649,601;    1,909;    1,864
916,918;15218,510;    2,000;    1,045
917,475;15162,692;   -1,182;    0,955
918,031;15246,510;    3,364;   -0,045
918,587;14659,237;   -0,909;   -0,318
919,144;14845,237;   -2,273;    0,227
919,700;15196,056;    1,727;    0,773
920,256;14744,601;    0,727;    0,045
920,812;14372,601;   -0,727;   -1,045
921,368;14370,874;   -1,727;   -1,045
921,924;14010,601;    0,182;   -0,136
922,480;13583,692;   -0,545;    1,227
923,036;14198,783;    1,273;    1,955
923,592;14112,146;    0,455;    0,318
924,148;14016,783;    0,455;   -0,955
924,704;13263,783;   -1,364;   -0,409
925,259;13561,328;   -0,273;    0,591
925,815;13328,056;    1,455;    0,500
926,371;12764,510;    2,909;    1,409
926,926;12688,965;    2,091;    0,591
927,482;12318,510;   -1,364;    0,773
928,037;12180,146;    0,909;    2,045
928,593;12486,237;    1,636;    1,045
929,148;12281,237;   -1,818;   -1,500
929,704;11745,419;   -1,455;   -0,500
930,259;11979,146;    0,091;   -0,136
930,814;11012,783;   -0,818;    1,955
931,369;10646,510;    1,091;   -0,773
931,925;10501,692;   -0,091;    0,136
932,480;10436,601;   -2,818;   -2,591
933,035;10303,146;    0,545;   -0,318
933,590;10041,237;    0,364;   -1,773
934,145; 9660,965;   -1,364;   -0,318
934,700; 9992,146;    0,455;   -0,591
935,255; 9808,056;   -0,091;    0,045
935,809; 9012,874;    3,182;    0,864
936,364; 8111,510;   -0,455;   -0,136
936,919; 8064,965;    0,455;   -1,773
937,474; 7922,692;    1,455;    0,136
938,028; 7647,419;   -1,636;    1,136
938,583; 7125,328;    1,818;    4,682
939,138; 7381,146;    2,091;    2,136
939,692; 6779,874;    1,636;   -1,136
940,247; 6488,419;   -0,727;   -1,045
940,801; 5994,510;   -0,636;    0,227
941,355; 5855,328;   -0,364;    2,591
941,910; 5501,419;   -0,273;   -2,136
942,464; 5628,419;   -0,818;   -0,318
943,018; 5376,965;    1,000;   -0,227
943,572; 5316,510;    2,545;   -0,682
944,126; 4697,328;    0,091;   -0,409
944,681; 4584,965;    3,091;    0,227
945,235; 4560,237;    1,000;   -0,591
945,789; 4495,692;    0,364;   -1,864
946,342; 4588,237;    0,455;   -0,591
946,896; 4404,237;   -2,273;    0,955
947,450; 4143,783;    1,545;   -0,227
948,004; 4335,965;    1,727;   -0,045
948,558; 4348,146;    0,273;   -0,864
949,111; 4270,692;   -0,273;   -0,318
949,665; 4290,783;    1,636;   -0,682
950,219; 4149,965;   -0,091;   -1,045
950,772; 4234,874;   -1,909;    1,864
951,326; 4121,601;    0,545;   -0,955
951,879; 4258,419;    0,727;   -2,318
952,433; 4285,237;    0,000;    2,227
952,986; 4123,056;    2,909;    0,682
953,539; 4072,783;   -0,273;    0,591
954,093; 3979,965;    0,545;   -1,318
954,646; 4126,056;    0,909;    1,318
955,199; 3920,783;    0,000;   -0,500
955,752; 3798,692;   -0,455;    1,773
956,305; 3763,237;   -0,091;    2,955
956,858; 3929,874;    0,818;   -0,318
957,411; 4080,510;   -0,545;    2,136
957,964; 3920,510;    1,364;    2,136
958,517; 3944,692;   -1,545;    3,136
959,070; 3754,692;   -0,455;    1,955
959,623; 3813,419;    1,091;    1,500
960,176; 3566,874;    1,727;    2,045
960,728; 3550,237;   -2,727;    0,773
961,281; 3609,056;    0,545;    0,500
961,834; 3677,419;   -0,909;    0,864
962,386; 3569,692;    1,727;    1,045
962,939; 3484,510;    0,364;   -0,318
963,491; 3638,965;    0,455;    1,136
964,043; 3509,328;    1,182;    2,409
964,596; 3620,601;   -1,000;    2,227
965,148; 3477,237;   -1,000;    1,773
965,700; 3372,237;    1,091;   -0,227
966,253; 3527,692;   -0,636;    0,318
966,805; 3351,419;   -2,273;    0,773
967,357; 3417,692;    1,091;   -1,500
967,909; 3369,510;    0,455;   -1,227
968,461; 3494,692;    0,545;    3,136
969,013; 3416,874;   -0,182;   -0,864
969,565; 3496,874;   -0,455;   -1,136
970,117; 3524,692;   -0,364;    1,045
970,669; 3373,146;    0,182;   -0,136
971,220; 3254,237;   -0,455;   -1,500
971,772; 3168,328;   -0,636;   -0,318
972,324; 3291,874;    0,091;   -0,500
972,876; 3241,056;    0,818;   -0,045
973,427; 3381,146;    1,909;   -1,045
973,979; 3342,056;   -0,727;   -2,500
974,530; 3396,783;    1,818;    1,318
975,082; 3416,783;   -0,545;    1,682
975,633; 3291,601;    1,091;    1,682
976,184; 3428,328;    0,909;    0,773
976,736; 3206,601;    0,091;    0,227
977,287; 3006,510;   -0,909;   -0,500
977,838; 3184,874;    0,909;   -0,318
978,389; 3258,783;   -1,000;   -0,500
978,940; 3106,874;    0,545;   -0,409
979,491; 3142,237;    0,091;   -0,500
980,042; 3099,965;    0,182;    3,045
980,593; 3166,328;   -2,545;    0,227
981,144; 3200,237;    2,545;   -0,500
981,695; 3148,510;    1,455;    1,500
982,246; 3126,874;   -0,273;    1,045
982,797; 3318,965;   -1,727;    0,682
983,347; 3411,146;    0,364;    0,591
983,898; 3574,510;    3,091;    0,409
984,449; 3382,783;    2,182;    0,773
984,999; 3301,056;    1,455;   -1,136
985,550; 3063,692;    0,182;   -0,318
986,100; 3094,601;   -0,455;   -0,318
986,651; 3139,783;   -0,818;    0,045
987,201; 3106,874;   -1,000;   -0,591
987,751; 3191,965;    0,818;    2,864
988,302; 3179,692;    2,636;    1,500
988,852; 3215,146;    0,455;   -1,136
989,402; 3247,783;    0,091;    0,682
989,952; 3154,874;   -2,182;    0,864
990,502; 3268,783;   -0,091;    0,682
991,052; 3232,237;   -0,727;    0,045
991,602; 3076,237;   -2,909;    1,318
992,152; 3091,601;    0,455;    0,682
992,702; 3059,146;    1,364;   -0,045
993,252; 2989,874;   -3,000;   -0,500
993,802; 3080,601;   -0,273;    1,318
994,352; 3327,146;   -1,545;    1,136
994,901; 3430,056;   -0,182;    3,227
995,451; 3334,510;   -0,182;    0,318
996,000; 3424,056;    1,636;    0,318
996,550; 3144,874;    2,273;    0,227
997,100; 3123,692;    1,273;   -0,045
997,649; 3398,146;    2,182;    0,955
998,198; 3012,510;    1,727;   -1,500
998,748; 3213,874;    1,091;   -2,318
999,297; 3138,237;   -0,818;   -0,409
999,846; 3197,601;    1,000;   -0,773
1000,395; 3250,056;   -0,818;    0,500
1000,945; 3191,965;    1,818;   -0,773
1001,494; 3292,419;    2,364;    0,682
1002,043; 3275,237;    4,636;    0,864
1002,592; 3103,510;   -1,091;    1,955
1003,141; 3280,056;   -0,455;   -0,682
1003,690; 3119,510;    1,727;    0,500
1004,238; 3203,692;    1,455;   -0,045
1004,787; 2833,510;    1,364;    1,227
1005,336; 3057,146;    0,364;    0,682
1005,885; 3222,146;    1,364;   -2,773
1006,433; 3373,419;    0,545;    0,955
1006,982; 3419,328;    0,455;    1,682
1007,531; 3336,601;   -1,818;   -0,227
1008,079; 3294,783;   -2,273;    0,500
1008,627; 3431,510;   -1,455;    0,409
1009,176; 3158,146;    0,000;   -1,955
1009,724; 3205,510;    1,091;    0,864
1010,273; 3242,510;    1,273;    0,500
1010,821; 3374,510;    0,091;    1,409
1011,369; 3090,874;   -1,364;    1,318
1011,917; 3077,601;   -1,364;   -0,591
1012,465; 3374,056;    1,273;   -1,591
1013,013; 3487,510;    2,091;   -1,682
1013,561; 3355,874;    0,455;   -0,773
1014,109; 3399,783;   -1,909;    1,682
1014,657; 3262,783;    0,364;    0,591
1015,205; 3389,510;    1,636;   -0,955
1015,753; 3459,419;   -0,545;   -1,409
1016,301; 3484,692;   -2,636;    3,045
1016,848; 3500,692;   -1,273;    0,409
1017,396; 3535,874;    2,545;    0,045
1017,944; 3653,056;    1,182;    1,864
1018,491; 3427,783;    0,273;    1,409
1019,039; 3526,237;    0,455;    0,591
1019,586; 3459,056;   -1,364;    1,682
1020,134; 3588,510;    0,455;    1,500
1020,681; 3605,783;    0,182;   -1,136
1021,228; 3616,419;    2,909;   -2,227
1021,776; 3431,056;    1,182;   -1,136
1022,323; 3651,237;    0,455;    0,773
1022,870; 3575,328;   -1,000;   -0,045
1023,417; 3462,056;    2,636;    1,864
1023,964; 3609,692;    2,636;    1,227
1024,511; 3444,510;    1,000;    0,773
1025,058; 3239,146;    3,182;   -0,045
1025,605; 3304,510;   -2,273;    3,136
1026,152; 3525,146;    1,727;   -0,591
1026,699; 3220,237;    1,818;    1,318
1027,245; 3412,874;   -0,091;    0,318
1027,792; 3640,510;   -1,000;    1,409
1028,339; 3503,601;    2,364;   -0,045
1028,885; 3344,056;    1,000;   -0,227
1029,432; 3294,146;   -0,091;    0,227
1029,978; 3343,965;   -1,000;   -1,591
1030,525; 3250,146;    1,000;    0,409
1031,071; 3495,328;   -1,364;    1,136
1031,618; 3598,692;    0,364;    1,682
1032,164; 3384,692;   -0,091;    3,045
1032,710; 3427,328;    1,636;   -1,500
1033,256; 3347,056;   -0,636;   -0,136
1033,803; 3360,328;   -0,545;    1,500
1034,349; 3036,601;   -1,364;    0,136
1034,895; 3194,692;    0,000;   -0,318
1035,441; 3184,419;   -0,818;    0,318
1035,987; 3178,237;   -2,364;   -0,682
1036,533; 3172,965;   -1,455;   -0,955
1037,078; 3378,237;    1,455;    1,682
1037,624; 3181,874;    2,455;   -0,955
1038,170; 3224,510;    0,455;   -0,318
1038,716; 3122,692;    1,636;   -0,409
1039,261; 3044,146;   -2,273;   -0,773
1039,807; 2985,237;   -0,091;    3,409
1040,352; 3045,783;   -1,909;   -0,318
1040,898; 3096,692;   -1,545;   -0,682
1041,443; 3001,783;   -1,455;   -2,591
1041,989; 3000,237;    1,091;    1,591
1042,534; 2883,783;   -0,364;    2,591
1043,079; 3022,237;    2,909;    0,955
1043,625; 2808,965;    1,818;    0,500
1044,170; 2832,965;   -1,364;    1,045
1044,715; 3071,965;    2,455;    0,955
1045,260; 2899,056;    2,182;   -0,955
1045,805; 2964,328;    1,182;   -0,591
1046,350; 2877,146;    1,364;   -0,409
1046,895; 2822,601;    2,909;    1,591
1047,440; 2774,783;    5,364;    0,409
1047,985; 2664,965;    2,818;   -0,955
1048,530; 2593,419;    1,545;    1,227
1049,074; 2676,601;    0,000;    0,318
1049,619; 2644,601;   -1,364;    1,955
1050,164; 2435,056;    0,455;    0,227
1050,708; 2479,601;   -0,455;    0,045
1051,253; 2849,146;    1,273;   -2,227
1051,797; 2553,965;    0,818;   -1,318
1052,342; 2571,874;   -1,182;    1,045
1052,886; 2567,601;    0,364;   -1,409
1053,430; 2440,874;   -1,364;    0,136
1053,975; 2467,783;   -0,818;   -0,318
1054,519; 2447,056;   -0,727;    3,227
1055,063; 2423,328;    0,909;    1,318
1055,607; 2308,146;   -0,182;    0,227
1056,151; 2339,601;    2,909;    1,682
1056,695; 2263,783;    2,273;   -1,136
1057,239; 2338,783;   -1,727;   -0,682
1057,783; 2335,601;    0,818;   -1,500
1058,327; 2269,692;    0,000;    1,409
1058,871; 2490,056;   -0,545;    1,318
1059,415; 2209,874;   -0,818;   -0,045
1059,958; 2477,783;    1,455;    2,591
1060,502; 2196,965;   -1,000;   -0,773
1061,046; 2099,056;    0,364;   -0,955
1061,589; 2069,601;   -3,000;   -1,136
1062,133; 1959,146;   -1,273;    1,864
1062,676; 1888,601;    1,182;    0,864
1063,220; 1891,692;    1,091;    0,500
1063,763; 1910,874;    0,909;    1,136
1064,306; 1995,692;   -0,909;    1,864
1064,849; 1866,328;   -0,909;    0,591
1065,393; 1887,601;    2,000;   -1,500
1065,936; 2006,692;    0,182;   -0,409
1066,479; 1898,419;   -1,455;    1,318
1067,022; 1916,237;   -0,273;   -0,227
1067,565; 1807,965;   -0,091;   -1,318
1068,108; 1842,965;    0,727;   -0,591
1068,651; 1816,692;   -0,636;    1,409
1069,194; 1730,510;   -0,455;   -1,682
1069,736; 1723,510;   -1,273;    0,955
1070,279; 1694,601;   -1,364;   -0,500
1070,822; 1746,328;   -2,000;   -0,318
1071,364; 1828,692;   -0,364;    1,318
1071,907; 1657,328;   -0,727;    3,227
1072,450; 1559,328;    0,000;   -0,045
1072,992; 1547,874;   -0,273;    3,136
1073,535; 1689,328;    2,091;    2,136
1074,077; 1482,692;   -0,727;    2,045
1074,619; 1453,146;   -1,364;    0,591
1075,161; 1480,692;   -1,091;    1,500
1075,704; 1660,146;    1,545;    1,227
1076,246; 1459,874;   -0,182;    0,682
1076,788; 1386,056;   -0,364;    1,773
1077,330; 1461,510;    1,273;    2,136
1077,872; 1417,692;    0,909;    0,955
1078,414; 1649,056;    2,727;    0,773
1078,956; 1380,510;    1,273;   -0,227
1079,498; 1645,965;    1,636;    0,318
1080,040; 1330,601;    1,909;   -1,318
1080,581; 1277,237;    1,636;   -0,318
1081,123; 1189,328;    0,091;   -0,773
1081,665; 1241,783;   -1,182;   -0,955
1082,206; 1556,056;    1,364;   -0,500
1082,748; 1412,056;    0,727;    2,045
1083,289; 1290,601;   -2,000;    1,318
1083,831; 1180,783;   -0,545;    0,227
1084,372; 1217,419;    0,000;    0,591
1084,913; 1236,146;    1,091;    0,864
1085,455; 1202,965;   -1,909;   -2,045
1085,996; 1170,874;   -2,273;    0,136
1086,537; 1195,146;   -0,091;    0,864
1087,078; 1221,783;   -0,909;   -2,136
1087,619; 1258,328;   -1,273;    0,227
1088,160; 1173,692;    0,000;    1,318
1088,701; 1160,692;   -1,091;    0,682
1089,242; 1097,692;    1,364;   -2,227
1089,783; 1192,874;   -0,273;    1,409
1090,324; 1147,056;    0,455;    0,682
1090,865; 1037,146;    2,727;   -0,409
1091,405; 1006,783;    0,727;    2,227
1091,946; 1035,056;    0,182;   -0,955
1092,487;  958,146;    0,818;   -1,409
1093,027; 1132,146;   -1,364;   -1,500
1093,568;  974,965;   -0,364;    1,227
1094,108; 1081,056;    0,273;    1,773
1094,649; 1014,146;   -1,182;    0,136
1095,189;  950,328;   -0,636;   -0,682
1095,729;  897,692;   -0,091;    0,955
1096,269;  907,146;    0,727;   -0,955
1096,810; 1226,510;   -1,364;    0,500
1097,350; 1047,874;    1,364;   -0,773
1097,890;  951,783;    0,364;    1,227
1098,430; 1205,510;    2,364;    2,864
1098,970; 1082,056;    2,182;    1,682
1099,510;  945,510;    0,545;   -2,318
1100,050;  867,601;    1,000;   -1,591
1100,589;  818,056;   -0,727;   -0,318
1101,129;  954,692;    0,818;   -0,955
1101,669; 1110,874;    1,727;    2,136
1102,209;  925,237;   -0,091;    2,227
1102,748;  875,328;    0,000;    0,955
1103,288;  866,328;    1,273;   -1,227
1103,827;  902,328;    3,091;   -2,227
1104,367;  772,965;   -0,091;   -2,409
1104,906;  728,056;    1,364;   -1,136
1105,445;  800,237;    0,636;   -1,136
1105,985;  742,783;   -0,727;    1,500
1106,524;  800,783;   -1,727;   -0,682
1107,063;  773,056;   -2,727;    1,409
1107,602;  738,510;   -1,909;   -1,500
1108,141;  661,965;   -1,909;    1,500
1108,680;  778,237;   -3,455;   -0,591
1109,219;  707,237;   -0,909;   -0,500
1109,758;  711,965;    0,455;    0,682
1110,297;  669,328;    1,000;   -0,682
1110,836;  620,783;   -0,727;    0,955
1111,375;  791,237;   -2,545;    0,409
1111,913;  807,328;   -1,000;    0,773
1112,452;  737,965;   -0,273;    0,136
1112,991;  616,510;    1,091;    1,955
1113,529;  568,146;   -0,818;   -0,045
1114,068;  642,601;   -0,273;    2,955
1114,606;  532,056;   -0,364;   -0,955
1115,144;  712,146;   -1,273;    1,045
1115,683;  650,601;   -0,727;    0,318
1116,221;  693,601;   -0,455;   -0,864
1116,759;  605,056;    0,636;   -0,864
1117,297;  816,601;    0,000;    1,864
1117,836;  604,874;   -2,182;   -1,227
1118,374;  618,692;    0,182;   -0,682
1118,912;  551,510;    0,909;    2,682
1119,450;  540,601;    1,000;    0,864
1119,988;  599,328;    1,545;    2,136
1120,525; 1059,783;    5,091;    3,318
1121,063;  759,965;    1,182;    1,864
1121,601;  563,692;   -0,909;   -1,227
1122,139;  516,419;   -0,727;   -2,045
1122,676;  718,783;   -0,727;    2,773
1123,214;  650,783;   -1,182;    4,409
1123,751;  448,146;    1,727;    2,227
1124,289;  587,146;   -0,091;   -0,409
1124,826;  447,510;    1,727;    0,227
1125,364;  367,965;    1,727;   -0,955
1125,901;  564,237;    1,182;    1,227
1126,438;  681,874;    0,818;    0,955
1126,975;  392,874;   -0,727;   -0,773
1127,513;  470,692;    0,273;    2,136
1128,050;  371,510;    1,636;   -0,682
1128,587;  474,510;    2,000;   -0,227
1129,124;  519,692;    0,091;    1,318
1129,661;  375,783;    0,273;    0,227
1130,198;  552,328;    1,636;    0,773
1130,734;  505,965;    0,182;    1,409
1131,271;  349,056;   -0,909;    0,864
1131,808;  530,056;    2,909;    3,045
1132,345;  391,056;    1,545;    0,318
1132,881;  254,783;   -1,545;   -1,864
1133,418;  401,510;    0,727;   -1,136
1133,954;  339,146;    2,455;   -2,682
1134,491;  423,328;    1,364;   -0,773
1135,027;  321,601;    2,364;    0,864
1135,564;  410,056;    0,273;    2,955
1136,100;  387,237;    0,364;    2,136
1136,636;  282,237;   -1,273;   -1,045
1137,172;  382,146;    0,000;   -1,045
1137,708;  303,692;   -1,364;   -1,045
1138,245;  287,419;    1,273;   -1,227
1138,781;  241,965;    1,091;   -3,318
1139,317;  331,056;    1,273;   -1,409
1139,852;  310,692;    3,091;    0,136
1140,388;  431,237;   -1,182;   -0,409
1140,924;  304,874;   -1,091;   -2,227
1141,460;  240,510;   -1,636;    0,136
1141,996;  175,692;   -1,364;    2,682
1142,531;  230,056;    1,364;    3,318
1143,067;  455,237;    1,182;    1,045
1143,602;  519,237;   -0,091;   -0,318
1144,138;  347,056;   -2,636;    1,045
1144,673;  215,328;   -1,455;    1,409
1145,209;  283,601;   -1,909;   -0,318
1145,744;  195,783;   -0,727;    0,864
1146,279;  337,783;    1,818;   -0,136
1146,815;  238,783;    1,545;   -2,682
1147,350;  289,965;   -1,364;    0,045
1147,885;  200,328;   -0,818;   -1,318
1148,420;  196,601;   -2,273;    0,773
1148,955;  181,601;   -1,727;    1,864
1149,490;  212,874;   -0,909;   -1,591
1150,025;  183,146;    0,455;   -1,773
1150,560;  310,783;    1,091;   -0,955
1151,094;  274,874;    1,455;   -0,591
1151,629;  275,056;    1,636;    0,864
1152,164;  202,328;    1,364;    1,318
1152,698;  153,419;   -0,182;   -0,136
1153,233;  110,146;    0,091;   -0,682
1153,767;  161,601;   -3,000;   -2,318
1154,302;  215,328;   -1,455;    1,773
1154,836;  215,146;   -0,455;   -2,136
1155,371;  271,419;   -1,364;    3,682
1155,905;  221,692;   -0,636;    1,682
1156,439;  194,783;   -0,636;   -0,500
1156,973;  225,601;    0,364;    0,318
1157,507;  150,328;   -0,364;    0,682
1158,042;  187,146;   -0,727;    1,045
1158,576;  237,510;    0,182;    1,773
1159,110;  227,237;   -0,818;    2,409
1159,643;  193,874;    0,636;   -0,045
1160,177;  120,965;   -1,545;    1,500

