
Integration time [ms]:   0,040
Averaging Nr. [scans]: 11
Smoothing Nr. [pixels]: 0
Data measured with spectrometer [name]: 7318044SP
Wave   ;Sample   ;Dark     ;Reference
[nm]   ;[counts] ;[counts] ;[counts] 

186,757;   28,048;   31,551;    1,318
187,357;   59,153;   22,551;    0,955
187,958;   38,219;   15,460;   -1,591
188,558;   79,731;    8,915;   -1,227
189,159;   47,265;    6,733;   -4,500
189,759;   17,084;    7,278;   -3,591
190,360;   13,698;    2,824;   -2,136
190,960;   50,199;    2,915;   -4,136
191,560;   65,229;    3,189;   -6,591
192,161;  292,724;    4,372;   -3,500
192,761;  145,463;    4,010;   -3,227
193,361;  101,564;    1,556;   -3,773
193,962;  153,391;    2,010;   -2,682
194,562;   76,822;    1,189;   -3,955
195,162;  111,141;   -2,448;   -2,227
195,762;  268,700;   -3,176;   -0,045
196,362;  210,876;    1,370;   -2,500
196,963;   87,139;    2,006;   -0,864
197,563;  153,526;    1,551;   -0,955
198,163;   94,370;    0,096;   -0,682
198,763;  124,152;    1,733;   -0,500
199,363;  229,969;    3,096;   -0,500
199,963;  184,406;    0,369;    0,409
200,563;  157,126;    2,823;   -1,409
201,163;  138,322;    3,277;   -0,227
201,763;  225,620;    3,732;    0,318
202,363;  164,843;    1,459;    1,500
202,963;  267,334;    1,459;    1,045
203,563;  377,067;    0,277;    0,500
204,162;  230,701;    2,096;   -1,864
204,762;  216,065;    0,550;    0,591
205,362;  184,347;    3,004;    1,955
205,962;  279,527;    3,096;    1,955
206,562;  274,215;    1,823;    2,318
207,161;  246,332;   -0,087;    0,318
207,761;  405,419;    1,277;    2,409
208,361;  274,564;   -0,268;    1,409
208,960;  376,376;    0,459;    1,500
209,560;  444,540;    1,277;    1,591
210,160;  423,139;    0,550;    1,864
210,759;  376,394;    4,186;    1,227
211,359;  381,646;    1,459;    1,045
211,958;  639,796;    1,277;    2,045
212,558;  730,572;    1,732;    1,864
213,157;  555,088;    1,822;    1,500
213,757;  981,870;    3,822;   -0,227
214,356;  677,538;    1,277;   -0,409
214,956; 1002,735;    3,095;    0,409
215,555;  641,663;    2,095;    2,136
216,154;  579,413;   -2,723;   -0,591
216,754;  582,187;    0,277;    0,773
217,353;  703,107;   -0,268;   -1,045
217,952;  560,061;   -0,178;    0,318
218,552;  796,310;    1,368;   -0,773
219,151;  677,599;    0,277;    0,955
219,750;  666,657;    0,004;   -0,227
220,349;  756,808;   -0,451;    1,045
220,948;  864,573;   -1,360;    1,136
221,548;  836,995;    0,913;    1,227
222,147;  938,407;   -0,087;   -0,409
222,746; 1224,188;   -0,451;   -0,955
223,345; 1081,527;    0,731;    0,500
223,944; 1087,582;   -0,451;    0,773
224,543; 1225,794;    1,004;   -1,409
225,142; 1349,675;    0,094;    0,136
225,741; 1223,306;   -0,814;    1,045
226,340; 1239,303;   -0,451;   -0,955
226,939; 1660,181;   -0,996;   -0,136
227,538; 1548,126;   -0,360;   -0,773
228,137; 1722,890;   -0,814;    0,864
228,735; 1799,640;   -0,541;    1,227
229,334; 1571,323;   -0,905;   -0,227
229,933; 1931,958;    0,459;    0,591
230,532; 2042,783;    1,186;   -0,409
231,131; 2089,082;    1,732;    0,318
231,729; 2144,347;   -2,450;   -2,318
232,328; 2200,576;   -0,723;   -1,500
232,927; 2229,108;    1,004;   -0,500
233,525; 2311,336;    3,640;    0,045
234,124; 2505,124;    2,368;   -1,591
234,723; 2503,392;    0,913;   -1,045
235,321; 2605,907;    2,277;    0,136
235,920; 2784,779;    1,186;   -1,227
236,518; 3025,384;    3,459;    0,318
237,117; 3121,404;    0,004;   -0,227
237,715; 3256,641;    0,640;   -0,500
238,314; 3275,622;   -0,087;   -2,318
238,912; 3399,372;   -0,723;   -1,409
239,510; 3378,192;    0,459;   -1,227
240,109; 3551,044;    0,004;    3,773
240,707; 3549,996;   -0,996;    1,227
241,305; 3798,493;    0,550;    0,136
241,904; 3989,493;   -0,178;   -2,045
242,502; 3964,150;   -0,632;   -0,227
243,100; 3861,779;   -0,087;   -0,955
243,698; 4079,379;    0,732;    1,682
244,297; 4203,482;   -0,632;    0,682
244,895; 4050,681;   -0,269;   -2,318
245,493; 4343,244;    2,186;   -0,591
246,091; 4343,587;    1,368;   -1,318
246,689; 4309,337;    1,004;    0,591
247,287; 4405,520;    0,822;   -1,136
247,885; 4648,873;   -1,451;    1,227
248,483; 4710,975;    1,822;   -0,500
249,081; 4804,499;    0,185;    1,591
249,679; 4942,069;   -0,178;    1,682
250,277; 5135,581;   -1,723;    0,864
250,875; 5120,846;   -1,087;   -1,045
251,473; 5148,313;   -1,178;    0,500
252,071; 5319,248;    1,459;    1,045
252,669; 5410,310;   -1,814;    0,318
253,267; 5561,883;   -0,087;    0,773
253,864; 5521,247;   -0,360;    0,682
254,462; 5465,124;    1,640;    1,591
255,060; 5391,059;   -0,269;    1,318
255,658; 5641,673;    0,822;   -0,136
256,255; 6019,179;    0,186;   -2,045
256,853; 5897,782;   -0,269;    1,409
257,451; 5882,108;    0,822;    1,864
258,048; 6173,952;    1,822;    1,864
258,646; 5894,875;    1,731;   -1,045
259,243; 6040,600;   -0,087;    2,227
259,841; 6087,809;   -0,814;    0,318
260,438; 5977,827;   -0,087;    0,864
261,036; 6570,027;   -1,905;    1,409
261,633; 6486,263;   -0,087;    2,227
262,231; 6254,129;    2,731;   -0,045
262,828; 6334,099;   -0,905;    1,136
263,425; 6355,998;    0,913;   -0,591
264,023; 6602,150;    0,186;    0,045
264,620; 6189,921;   -0,360;   -0,318
265,217; 6502,832;   -2,087;    3,136
265,815; 6572,546;   -1,905;    2,136
266,412; 6407,695;    0,731;    0,136
267,009; 6420,495;   -1,451;    0,773
267,606; 6377,966;    0,822;   -0,955
268,203; 6319,411;   -0,269;   -0,591
268,801; 6557,265;    1,731;    0,591
269,398; 6801,916;   -0,360;    2,500
269,995; 6781,826;    0,277;    1,591
270,592; 6615,800;   -0,632;   -0,500
271,189; 6786,484;    0,186;    0,409
271,786; 6872,998;   -0,632;    1,227
272,383; 6761,889;   -1,087;    0,227
272,980; 6903,608;    0,277;    0,318
273,577; 7286,080;    0,004;    1,227
274,174; 6853,736;    0,822;    2,591
274,771; 6853,673;   -0,814;   -0,773
275,367; 7062,830;    2,277;    1,409
275,964; 7027,414;    0,731;   -0,500
276,561; 7061,240;    1,549;   -1,045
277,158; 7249,888;    0,095;   -1,773
277,755; 7372,226;    2,185;    0,409
278,351; 6831,262;   -0,451;   -1,500
278,948; 7086,045;   -0,815;    0,045
279,545; 7081,529;   -1,360;    2,318
280,141; 7660,565;   -1,723;   -2,045
280,738; 7524,993;   -0,451;   -0,136
281,334; 7646,644;   -1,633;    0,591
281,931; 7117,035;   -0,087;   -1,318
282,528; 7223,902;    0,822;   -0,500
283,124; 7834,124;   -1,087;   -0,500
283,721; 7705,492;   -0,451;    1,409
284,317; 7533,330;    0,185;    2,500
284,913; 8061,332;   -1,360;    0,591
285,510; 8238,423;    0,640;   -0,318
286,106; 8266,703;   -2,269;   -0,955
286,703; 7826,638;   -0,360;    1,955
287,299; 8028,082;   -1,451;   -0,591
287,895; 8200,944;    0,822;   -1,045
288,491; 8676,189;    0,186;    2,136
289,088; 8497,230;   -2,360;    2,409
289,684; 8559,855;   -1,723;    1,500
290,280; 8566,817;    0,368;    0,682
290,876; 8637,377;    1,822;    5,500
291,472; 8533,819;    1,276;    2,227
292,068; 8640,838;    1,367;    0,227
292,665; 8361,355;    2,095;    0,773
293,261; 8050,711;    0,276;    2,136
293,857; 8409,863;    2,913;    2,136
294,453; 8344,527;    3,550;    0,955
295,049; 8226,579;   -0,268;    1,955
295,644; 8266,450;    0,095;    0,136
296,240; 8201,914;   -0,905;   -0,136
296,836; 8262,971;   -0,995;    0,318
297,432; 8508,140;    1,096;   -0,500
298,028; 8557,821;    0,732;    0,773
298,624; 8853,356;    1,459;    1,864
299,220; 9050,906;    2,368;    0,591
299,815; 8732,854;    1,005;   -0,409
300,411; 8567,488;    0,914;    1,773
301,007; 8576,891;    1,368;    0,227
301,602; 8564,266;   -0,541;   -2,318
302,198; 8719,124;    0,732;   -0,773
302,794; 9033,045;    1,187;   -0,500
303,389; 9113,975;   -1,177;    1,045
303,985; 9166,701;    0,550;    1,409
304,580; 9156,613;    1,459;    1,591
305,176; 9105,829;   -3,086;    0,136
305,771; 9026,824;   -1,268;   -1,227
306,367; 8967,911;    4,095;    0,136
306,962; 9219,084;    0,641;    1,500
307,558; 8934,948;   -0,450;    0,136
308,153; 8879,351;    1,095;   -1,136
308,748; 9080,286;   -0,814;    1,682
309,344; 9070,843;   -0,632;   -1,318
309,939; 9203,257;   -1,905;   -1,318
310,534; 9403,732;   -0,086;   -1,682
311,130; 9322,035;    0,459;   -2,500
311,725; 9046,486;    1,004;   -0,500
312,320; 9349,924;    2,459;    0,045
312,915; 9242,072;    1,459;   -1,045
313,510; 9336,849;    1,550;   -0,500
314,105; 9755,253;    1,096;    1,409
314,700; 9158,066;   -3,086;   -1,045
315,295; 8844,341;   -0,904;    0,045
315,890; 8436,858;    1,277;    0,864
316,485; 8758,257;   -0,359;   -0,318
317,080; 8834,492;   -3,086;    1,591
317,675; 9316,537;    2,005;   -0,682
318,270; 8862,371;    5,550;    3,318
318,865; 8864,485;    3,278;    3,045
319,460; 8694,607;   -0,904;    0,591
320,055; 8903,399;   -0,541;   -1,227
320,650; 8607,220;   -1,995;   -0,591
321,244; 8640,647;   -0,177;   -1,409
321,839; 9484,906;   -1,541;   -0,227
322,434; 9374,742;   -1,086;   -1,591
323,029; 9097,004;    1,732;    1,591
323,623; 8927,014;    1,550;    0,773
324,218; 8744,440;    2,368;    1,409
324,812; 8649,840;    1,096;    1,591
325,407; 8489,880;   -0,814;    2,045
326,002; 8431,174;    0,277;   -0,409
326,596; 8693,591;    0,914;    1,318
327,191; 8864,018;    0,823;   -1,045
327,785; 8506,136;   -0,813;   -0,227
328,379; 8733,495;    1,368;    0,136
328,974; 8496,699;    0,914;   -3,955
329,568; 8738,566;    0,186;   -2,409
330,163; 8599,617;    2,096;    1,045
330,757; 8935,347;    2,459;    1,591
331,351; 8330,262;    0,459;    0,682
331,945; 8645,522;    0,914;    1,409
332,540; 8306,147;   -1,723;   -0,591
333,134; 8466,460;   -1,086;    0,773
333,728; 8658,761;    0,005;    0,318
334,322; 8938,200;   -1,177;   -0,864
334,916; 8261,999;    0,277;    0,955
335,510; 8604,694;   -0,450;   -0,136
336,105; 8843,018;   -1,086;    1,591
336,699; 8576,714;   -1,086;    0,591
337,293; 8506,478;   -1,723;    0,318
337,887; 8597,128;   -2,723;    1,955
338,481; 8715,557;    0,459;    0,591
339,074; 8882,113;   -0,359;    2,682
339,668; 8743,207;   -1,632;    1,227
340,262; 9006,822;    1,732;    3,227
340,856; 8543,562;    1,822;   -0,682
341,450; 7963,512;    1,004;    1,864
342,044; 8735,751;    1,459;    0,136
342,637; 8559,226;    0,913;   -2,136
343,231; 8452,881;   -2,360;    0,682
343,825; 8391,010;   -1,086;   -0,591
344,419; 8397,292;   -1,995;    0,500
345,012; 8285,797;    2,459;    4,045
345,606; 8282,277;    4,641;    1,591
346,199; 8095,693;   -1,813;   -0,227
346,793; 7728,060;    1,914;    2,045
347,386; 7902,840;   -0,813;   -1,136
347,980; 7906,361;   -0,268;   -0,045
348,573; 7753,347;    2,278;    0,409
349,167; 7505,652;    5,278;    4,773
349,760; 7819,628;    2,914;    2,682
350,354; 7779,653;   -0,813;    1,136
350,947; 7548,915;    1,096;    1,682
351,540; 7272,711;   -0,358;   -1,409
352,134; 7226,378;    1,096;    1,136
352,727; 7294,568;   -0,086;    1,136
353,320; 7134,921;    0,005;    0,591
353,913; 6968,531;   -1,995;    1,864
354,507; 7159,233;    0,823;   -1,227
355,100; 7161,009;    0,460;    0,864
355,693; 6594,506;    2,005;    2,409
356,286; 6634,311;    0,823;    2,773
356,879; 6904,309;   -0,722;    1,227
357,472; 6543,626;   -0,904;    1,500
358,065; 6749,339;   -0,722;    2,500
358,658; 6673,242;   -0,540;    2,318
359,251; 6381,650;   -1,631;   -0,591
359,844; 6004,772;   -1,904;   -1,136
360,437; 6205,667;   -2,995;    0,045
361,030; 6419,263;    1,369;   -0,682
361,623; 6058,732;    2,824;    0,318
362,215; 6115,068;   -0,086;    2,045
362,808; 5981,474;   -2,358;   -1,682
363,401; 6169,259;   -2,449;    0,136
363,994; 5992,264;   -0,631;   -1,500
364,586; 5882,325;    0,824;   -1,500
365,179; 6048,130;   -0,449;   -1,136
365,772; 5604,526;   -1,995;    2,045
366,364; 5852,102;    1,915;   -3,227
366,957; 6070,717;    2,279;   -0,045
367,549; 6043,655;    2,188;   -0,864
368,142; 5747,782;    1,825;   -1,500
368,734; 5937,241;    0,734;   -2,136
369,327; 5883,955;    1,643;   -0,500
369,919; 5810,882;   -1,538;    0,409
370,512; 5689,112;   -1,083;   -0,500
371,104; 5518,363;   -0,901;    1,591
371,696; 5663,758;    1,191;   -0,955
372,289; 5710,837;    0,373;    1,136
372,881; 5839,352;   -2,080;    1,318
373,473; 5740,788;   -2,170;    1,136
374,066; 5609,836;   -0,169;    0,500
374,658; 5488,139;    0,378;    1,136
375,250; 5753,732;    0,653;   -1,409
375,842; 5657,091;    0,473;   -0,045
376,434; 5544,127;   -0,435;   -0,409
377,026; 6033,041;    0,204;   -2,500
377,618; 5927,814;   -0,158;   -0,682
378,210; 5782,639;   -0,338;   -1,955
378,802; 5658,951;    0,754;   -0,591
379,394; 5682,202;    1,846;    0,682
379,986; 6166,369;    1,393;   -0,955
380,578; 6233,906;   -0,153;    0,773
381,170; 5699,582;   -0,972;    0,045
381,762; 5665,672;    0,755;    1,409
382,354; 5796,529;   -0,065;   -1,318
382,945; 5875,249;   -2,976;    0,318
383,537; 6021,298;   -2,705;   -1,955
384,129; 6020,985;   -2,160;   -1,136
384,721; 6170,000;   -0,252;    0,955
385,312; 6088,933;   -0,161;   -0,955
385,904; 6204,245;   -2,706;    1,591
386,496; 5649,490;   -0,979;    1,045
387,087; 5774,637;    1,022;    2,500
387,679; 5770,493;   -1,160;    0,045
388,270; 5946,301;    2,840;    2,045
388,862; 6040,133;    1,295;   -0,318
389,453; 5909,275;   -0,887;    1,045
390,045; 6163,434;   -0,705;   -2,682
390,636; 6049,312;    0,204;   -0,591
391,227; 5975,339;   -0,523;   -0,045
391,819; 6083,671;    0,204;    0,773
392,410; 6118,545;    1,022;    0,045
393,001; 6065,734;   -0,979;   -1,591
393,593; 6322,953;    1,930;   -0,045
394,184; 6188,415;    1,385;   -0,409
394,775; 6033,596;    1,839;    2,136
395,366; 6269,684;    1,385;    0,773
395,957; 6235,157;    0,113;    0,136
396,548; 6488,643;   -0,342;    2,682
397,139; 6775,756;   -2,433;    0,591
397,730; 6541,617;   -1,888;    0,955
398,321; 6554,240;   -1,252;    0,955
398,912; 6546,258;   -0,615;    0,136
399,503; 6661,055;   -3,524;   -1,409
400,094; 6217,160;    0,294;    1,682
400,685; 6070,447;   -0,433;    0,045
401,276; 6096,451;    0,930;   -0,955
401,867; 6382,100;   -0,888;    0,773
402,458; 6457,384;   -2,251;   -2,318
403,048; 6449,119;    1,112;    0,591
403,639; 6106,022;    0,840;    0,864
404,230; 6377,731;    2,476;    0,318
404,821; 6331,600;   -0,615;    0,045
405,411; 6446,931;    1,203;   -2,591
406,002; 6077,913;   -1,252;   -1,136
406,592; 5998,877;    2,294;    0,045
407,183; 6204,950;    0,566;   -1,500
407,774; 6117,230;    3,475;   -0,136
408,364; 6405,690;    0,930;    0,409
408,954; 6083,229;    0,384;    1,227
409,545; 6145,208;    1,021;    1,045
410,135; 5702,920;    1,293;    0,500
410,726; 5859,416;    1,838;    0,318
411,316; 6191,140;    0,111;    0,773
411,906; 5883,742;   -0,253;   -0,409
412,497; 5495,898;   -1,070;   -0,045
413,087; 6007,896;   -1,980;   -0,227
413,677; 6319,075;   -0,707;    3,864
414,267; 6188,328;    0,656;    1,409
414,857; 6166,188;   -2,980;    4,227
415,448; 6423,803;    0,839;    0,500
416,038; 6166,527;    0,020;   -0,591
416,628; 6127,418;   -0,889;    0,409
417,218; 5735,251;    0,565;    3,318
417,808; 5952,294;    0,202;   -0,409
418,398; 6311,293;    0,020;    2,682
418,988; 6284,609;    2,020;    0,591
419,578; 6520,731;   -0,707;    1,409
420,168; 6805,514;   -1,343;   -0,955
420,757; 6469,098;   -1,343;   -1,500
421,347; 6143,370;    0,111;   -0,227
421,937; 6279,553;    2,292;    1,409
422,527; 6241,705;    0,838;   -0,773
423,116; 6113,339;   -0,253;   -0,045
423,706; 6383,832;   -1,889;    0,318
424,296; 6347,515;    1,384;    0,682
424,885; 6737,060;   -0,071;   -3,045
425,475; 6975,166;    1,474;   -2,864
426,065; 6849,962;   -0,980;   -0,318
426,654; 6543,963;   -0,435;   -0,318
427,244; 6692,641;    0,020;    1,409
427,833; 6230,167;    1,383;   -0,500
428,423; 6607,742;   -0,526;    1,136
429,012; 7220,841;   -0,344;   -1,136
429,601; 6763,901;   -1,344;    0,136
430,191; 6998,710;    1,292;    4,318
430,780; 6654,945;   -0,344;   -0,409
431,369; 6610,969;    0,746;   -0,045
431,959; 7163,693;   -1,254;    0,500
432,548; 6970,555;   -1,163;   -0,045
433,137; 7031,731;   -1,254;   -1,318
433,726; 7511,758;    0,292;    0,500
434,315; 6975,799;   -0,526;    2,409
434,905; 7071,437;   -1,254;    1,409
435,494; 6990,561;    0,746;    0,955
436,083; 7377,528;   -0,981;   -0,955
436,672; 7260,431;    0,110;    0,500
437,261; 6912,079;    0,292;   -1,955
437,850; 7036,198;    1,383;    0,682
438,439; 7036,587;    3,291;    1,955
439,027; 6912,128;    3,655;    1,773
439,616; 7209,686;    2,927;    1,227
440,205; 7042,196;    0,200;   -2,136
440,794; 7056,024;    2,109;   -0,045
441,383; 7288,602;   -1,346;   -0,591
441,971; 7132,695;   -2,436;    0,591
442,560; 6988,977;    0,563;   -1,773
443,149; 6781,804;    0,379;   -1,318
443,737; 6924,050;   -0,074;   -2,318
444,326; 7130,726;    0,018;    0,318
444,915; 7158,955;   -1,982;    0,864
445,503; 7495,939;   -2,891;   -0,318
446,092; 6928,843;    0,382;    2,136
446,680; 7377,131;    0,382;    0,318
447,269; 7507,172;   -0,346;   -0,318
447,857; 7294,070;    0,018;   -1,773
448,445; 7411,021;    0,563;    1,318
449,034; 7614,365;   -1,528;   -1,136
449,622; 7704,432;   -1,073;    3,500
450,210; 7107,705;    2,017;    2,227
450,799; 7588,906;    0,290;   -0,591
451,387; 7491,015;    1,381;   -0,591
451,975; 7204,271;    2,654;    0,864
452,563; 7313,940;    3,472;    2,318
453,151; 7287,356;   -0,528;   -1,227
453,739; 7258,107;   -1,347;    0,136
454,328; 7146,932;    2,381;   -2,136
454,916; 6898,673;    2,562;   -0,136
455,504; 7047,227;    1,017;    1,227
456,092; 7212,734;    0,017;   -1,591
456,679; 7151,187;    1,472;    0,682
457,267; 7187,903;    4,017;    1,045
457,855; 7271,056;    1,017;    1,409
458,443; 6993,862;   -0,165;    1,682
459,031; 7204,120;    0,108;    2,409
459,619; 7564,763;   -1,801;    2,864
460,206; 7611,667;    0,835;    2,045
460,794; 7701,273;   -2,983;   -0,227
461,382; 7903,234;   -0,529;   -0,864
461,970; 7521,098;    1,198;    1,864
462,557; 7572,985;   -0,711;   -0,682
463,145; 7753,310;   -3,165;   -1,682
463,732; 7844,383;    2,016;   -1,045
464,320; 7727,848;   -0,075;   -3,045
464,907; 7467,398;    2,743;   -0,773
465,495; 7378,805;    0,743;   -1,227
466,082; 7544,758;   -1,984;   -0,045
466,670; 7424,847;   -2,529;    1,227
467,257; 7794,887;   -1,711;    2,045
467,844; 7957,246;   -0,075;    0,045
468,432; 7964,539;    0,834;    3,500
469,019; 7522,956;    0,925;   -1,773
469,606; 7965,578;    0,470;    3,682
470,193; 7811,809;   -1,439;    0,227
470,780; 7473,370;   -2,075;    0,864
471,368; 7753,974;   -1,257;   -0,773
471,955; 7562,456;    1,379;   -0,682
472,542; 7239,238;    0,652;   -1,136
473,129; 7423,112;   -0,166;    0,136
473,716; 7202,889;    1,470;    0,591
474,303; 7350,297;    0,652;   -0,864
474,890; 7609,681;   -1,439;   -0,500
475,477; 7683,265;   -1,621;    0,409
476,064; 7556,954;    1,106;   -1,591
476,650; 7483,832;    0,288;    0,318
477,237; 7344,013;   -0,258;    0,955
477,824; 7510,260;   -1,076;    0,864
478,411; 7513,535;   -1,894;   -0,318
478,997; 7657,636;    0,560;   -0,773
479,584; 7697,734;    1,196;   -0,409
480,171; 8330,650;   -0,440;   -0,773
480,757; 8034,044;    2,651;    0,773
481,344; 8244,671;    0,469;    0,409
481,931; 7764,856;    1,105;    1,045
482,517; 8674,919;   -1,258;    0,318
483,104; 9102,257;    1,106;    2,864
483,690; 9303,187;   -1,804;    0,045
484,276; 9553,334;   -0,895;    0,227
484,863; 9301,546;    2,469;    1,136
485,449; 9767,370;   -0,077;    0,318
486,035; 9800,572;   -1,986;   -0,136
486,622;10172,425;   -0,895;    0,045
487,208;10075,076;    1,378;    1,500
487,794; 9947,566;    0,741;    0,318
488,380;10070,198;    0,105;   -1,409
488,967;10109,655;   -1,168;   -0,409
489,553;10174,140;   -1,895;   -1,409
490,139;10361,526;    1,559;    0,773
490,725; 9852,318;    0,741;   -0,227
491,311; 9531,958;    3,287;    3,045
491,897; 8958,342;   -0,986;    1,500
492,483; 8862,270;    0,105;    1,227
493,069; 8804,500;    3,923;    0,864
493,655; 8723,535;    1,650;    0,682
494,241; 8634,356;    1,377;   -0,955
494,826; 8985,709;    0,287;   -1,045
495,412; 8474,004;    2,559;   -0,682
495,998; 8617,727;   -0,805;   -0,318
496,584; 8691,234;    0,377;    1,045
497,169; 8681,501;    1,014;   -0,682
497,755; 8657,732;    0,650;    1,227
498,341; 9214,251;    0,559;    0,318
498,926; 8820,584;    1,832;    1,955
499,512; 8920,587;    1,286;    2,955
500,097; 8969,196;    0,195;   -0,318
500,683; 8918,384;   -0,350;    2,136
501,268; 9262,724;   -0,169;   -0,955
501,854; 9011,968;   -0,169;    1,227
502,439; 8960,498;   -0,624;   -1,773
503,024; 9123,305;    0,195;    0,500
503,610; 9158,488;   -0,078;   -0,682
504,195; 9158,709;    0,558;    1,955
504,780; 9275,813;    2,922;    1,227
505,366; 9152,043;    3,013;    2,864
505,951; 8875,167;    0,740;    1,045
506,536; 8913,238;   -3,260;   -3,682
507,121; 8881,540;    0,285;   -0,318
507,706; 9349,379;    2,376;    1,045
508,291; 9670,780;    2,649;    1,136
508,876; 9169,978;   -0,988;    2,591
509,461; 8701,739;   -0,169;   -0,773
510,046; 9071,764;    0,194;    0,318
510,631; 9274,341;   -0,351;   -0,773
511,216; 8972,265;    2,467;   -0,500
511,801; 9323,509;   -0,442;    2,591
512,386; 9543,678;    0,740;    0,500
512,971; 9495,390;   -2,988;    0,955
513,555; 9116,718;   -0,897;   -1,500
514,140; 9803,942;   -0,442;   -3,136
514,725; 9752,902;   -0,715;   -1,136
515,309; 9857,405;   -0,533;    0,318
515,894; 9458,133;   -0,624;   -2,227
516,479; 9830,083;   -0,624;   -0,955
517,063; 9612,747;    0,376;    1,227
517,648; 9751,017;    1,012;   -1,136
518,232; 9373,991;   -0,261;   -1,409
518,817; 9679,104;   -0,079;    1,682
519,401; 9921,766;    2,194;    0,591
519,985; 9461,134;    1,103;    1,136
520,570; 9365,465;    0,830;   -1,955
521,154; 9616,480;    2,102;    0,591
521,738; 9767,465;   -2,352;    2,409
522,323;10261,711;   -0,170;    1,682
522,907; 9981,240;    0,466;   -0,136
523,491; 9783,807;    0,557;    0,955
524,075; 9757,374;    2,284;    0,591
524,659; 9813,428;    1,466;    0,591
525,243; 9409,903;    1,739;    0,409
525,827; 9574,783;    0,648;   -0,045
526,411;10287,246;   -1,989;   -0,136
526,995;10485,628;   -0,352;    1,409
527,579;10083,312;   -0,443;   -1,045
528,163;10362,054;    0,375;   -1,500
528,747;10311,170;    2,466;   -0,773
529,331;10575,127;   -0,080;   -1,409
529,915;10717,393;    1,738;    0,955
530,499;10672,825;   -0,807;    1,227
531,082;10410,086;   -0,534;    1,591
531,666; 9942,199;    1,374;    0,773
532,250;10527,465;    1,284;    2,682
532,833;10797,111;    0,920;    2,773
533,417;10661,359;   -1,807;    0,864
534,001;10601,485;    1,647;   -0,318
534,584;11209,565;    0,374;    0,500
535,168;11041,975;    0,465;    1,409
535,751;11085,925;    0,647;    0,045
536,334;10564,716;   -0,898;   -0,409
536,918;11091,354;    0,011;    1,591
537,501;11158,755;   -0,899;    1,318
538,085;11177,138;   -0,444;    1,045
538,668;11274,796;    0,829;    2,409
539,251;11592,363;    1,829;    3,773
539,834;11625,366;    0,101;    0,773
540,418;11544,100;   -1,990;    4,318
541,001;11609,719;   -0,990;    1,773
541,584;11589,330;    2,101;    2,227
542,167;11253,666;    1,374;    2,955
542,750;11320,298;    1,919;   -0,773
543,333;10986,417;    0,555;    2,136
543,916;11696,860;    0,192;    2,500
544,499;12180,150;   -1,354;    0,227
545,082;12196,240;    1,374;    3,591
545,665;12267,448;    1,919;    1,500
546,248;12530,326;    1,010;   -0,318
546,830;12249,783;   -0,445;    1,955
547,413;12603,407;    1,010;   -0,773
547,996;13089,446;    0,555;    0,500
548,579;12849,664;    0,919;    0,955
549,161;12646,208;    1,828;    2,682
549,744;12393,063;   -0,809;    0,409
550,326;12874,562;   -0,809;   -1,136
550,909;12717,305;    2,737;    0,591
551,492;13034,156;   -0,263;    0,227
552,074;12859,505;   -0,173;   -1,318
552,657;13376,368;    2,373;    0,045
553,239;13175,434;   -0,173;   -0,773
553,821;13070,172;   -1,082;    1,045
554,404;12602,369;    1,282;    1,136
554,986;12920,999;    0,464;    1,045
555,568;13401,428;    1,191;   -0,955
556,151;12752,359;    1,191;   -0,227
556,733;12914,388;   -0,264;   -0,864
557,315;13314,098;    0,100;    0,500
557,897;13066,805;    0,554;   -0,500
558,479;13166,690;   -1,991;    1,318
559,061;13346,538;   -0,719;   -0,864
559,643;13646,023;   -0,264;    0,045
560,225;13905,063;    1,645;    2,864
560,807;13915,750;    0,918;    0,318
561,389;13481,133;    0,554;    2,318
561,971;14088,613;    0,463;    2,136
562,553;13922,537;   -1,628;    1,591
563,135;14023,902;   -0,537;    1,136
563,717;13690,721;    3,372;    1,136
564,298;14248,511;    3,645;   -0,045
564,880;14018,488;    0,645;   -1,409
565,462;14133,397;    0,645;    1,318
566,043;15085,551;   -0,446;    2,318
566,625;14649,665;    1,918;    1,227
567,207;14493,974;    1,099;    1,682
567,788;15385,585;   -1,264;    1,500
568,370;16089,253;    1,917;   -0,500
568,951;15879,763;    0,190;    0,227
569,533;16563,110;   -0,628;   -0,500
570,114;16937,091;   -0,446;    0,682
570,695;17307,275;   -0,174;   -1,318
571,277;17607,814;   -0,265;   -1,682
571,858;18238,069;    2,008;   -1,136
572,439;18946,258;    1,554;   -1,045
573,021;19056,321;    2,099;   -2,773
573,602;19401,260;   -1,265;    0,318
574,183;20167,116;   -2,083;    2,227
574,764;20101,891;   -1,629;    0,409
575,345;20537,817;    0,917;   -0,136
575,926;21019,035;   -0,356;    0,136
576,507;20954,192;    1,099;   -0,227
577,088;21926,897;    3,099;    1,682
577,669;21918,978;    0,735;    1,955
578,250;22576,571;    0,644;   -1,045
578,831;22982,848;   -1,356;   -2,227
579,412;23136,727;   -0,810;    0,955
579,993;23925,271;    1,008;    0,227
580,573;24214,179;   -0,629;   -0,955
581,154;23211,522;    0,735;   -0,591
581,735;24061,069;    0,644;    0,773
582,315;23594,433;   -0,629;    2,136
582,896;23766,255;   -0,174;    1,227
583,477;23245,787;    0,189;    1,227
584,057;23502,157;    0,553;    0,955
584,638;23807,816;    2,553;    2,318
585,218;23812,931;   -0,538;    2,682
585,799;23932,140;    0,281;   -0,227
586,379;23885,988;    0,372;    1,591
586,959;22916,071;    0,735;    0,318
587,540;22385,487;   -0,629;    2,227
588,120;22008,131;    1,007;   -0,045
588,700;21198,779;    2,553;    2,136
589,281;21550,043;    0,462;   -0,955
589,861;21467,835;    0,099;   -1,682
590,441;21280,997;    2,371;   -2,682
591,021;20457,021;   -0,265;   -2,591
591,601;20675,537;   -0,537;    0,500
592,181;20771,289;   -0,719;   -0,773
592,761;20112,798;    0,007;    1,409
593,341;20061,617;   -0,901;    0,045
593,921;20071,147;   -0,265;    1,591
594,501;20021,548;   -0,538;    1,318
595,081;19847,670;    0,917;   -0,318
595,661;20202,665;   -1,447;    0,955
596,240;20606,741;   -0,537;    0,136
596,820;20247,569;    0,372;    1,955
597,400;20321,303;    2,008;    0,773
597,980;20529,222;    2,008;    1,045
598,559;20579,736;    2,735;   -0,227
599,139;20360,505;   -0,174;   -1,227
599,718;20260,324;   -0,174;   -0,409
600,298;20507,758;    0,735;    0,682
600,877;20776,971;    2,917;    1,409
601,457;20988,435;    2,281;    1,136
602,036;20888,560;    0,190;    2,045
602,616;21006,427;    0,644;    1,682
603,195;21332,458;   -0,355;    3,500
603,774;20883,024;   -0,901;    2,045
604,354;20758,318;    0,826;   -0,500
604,933;20374,061;    0,463;    1,864
605,512;20528,499;    3,554;    0,591
606,091;20564,781;   -0,537;    3,773
606,671;21297,026;    0,281;    0,773
607,250;20585,979;    1,644;    3,136
607,829;20710,514;    2,372;    3,227
608,408;20605,623;    1,190;    2,591
608,987;19765,344;    1,281;    3,409
609,566;19997,823;   -1,265;   -2,500
610,145;20133,592;   -1,082;    0,682
610,723;20512,976;    4,372;    6,864
611,302;19849,917;   -0,446;    1,682
611,881;19371,458;    5,008;   11,227
612,460;20144,729;    1,645;    3,955
613,039;20563,853;   -0,082;    2,045
613,617;19383,807;    1,736;    4,773
614,196;19486,115;    1,099;    1,227
614,775;19858,150;    1,009;    2,409
615,353;19821,747;    0,736;    0,864
615,932;19604,746;    0,100;    2,409
616,510;20155,901;    0,554;    0,591
617,089;19760,471;    7,100;   17,591
617,667;19541,631;    2,372;    6,136
618,246;19432,024;   -1,537;    1,318
618,824;19569,272;   -3,355;   -0,955
619,402;19173,612;   -2,900;   -1,773
619,981;19627,097;   -0,173;   -1,045
620,559;19516,738;    0,009;    1,682
621,137;19143,394;   -0,718;    1,864
621,715;19094,596;   -1,173;   -0,682
622,293;19033,395;   -0,537;   -0,773
622,871;19472,371;   -0,718;    0,500
623,450;19094,633;    0,373;   -0,864
624,028;19065,148;    0,191;   -0,955
624,606;18706,244;   -1,718;    1,682
625,183;19025,911;   -1,536;   -1,136
625,761;18720,298;    1,009;    1,136
626,339;19039,560;    1,373;    2,591
626,917;19332,877;   -0,172;   -0,045
627,495;19322,284;   -0,354;    1,318
628,073;18845,201;   -0,263;    2,864
628,650;18585,984;    0,100;    2,136
629,228;19003,658;    0,373;    4,409
629,806;18470,756;    2,282;    1,136
630,383;18674,674;    1,464;   -0,318
630,961;18539,869;    2,555;   -0,955
631,539;18317,153;    2,464;    0,227
632,116;17802,051;   11,373;   15,409
632,694;18310,537;    2,555;    6,500
633,271;18488,213;    0,828;    2,682
633,848;18482,433;    1,828;    2,045
634,426;18482,877;   -1,081;    1,773
635,003;17781,329;    1,101;   -0,409
635,580;17984,422;    1,192;    3,682
636,158;18463,566;    3,737;    1,227
636,735;18460,053;    0,555;   -0,500
637,312;18553,112;   -0,809;   -0,682
637,889;18621,335;   -4,354;   -0,682
638,466;18207,470;   -3,990;   -0,409
639,043;18201,622;    2,101;   -1,136
639,620;18449,623;   -2,262;   -0,955
640,197;18726,371;    1,100;    1,682
640,774;18879,358;   -0,172;    1,136
641,351;19196,527;    0,737;    1,136
641,928;18770,877;   -0,627;    1,409
642,505;18441,410;    0,828;   -0,500
643,082;18539,943;   -1,718;    1,227
643,658;17660,293;   -0,718;    1,500
644,235;18320,735;    1,191;    2,500
644,812;18576,086;    1,918;    0,773
645,388;18324,709;   -0,991;    1,409
645,965;18345,969;   -0,809;    1,682
646,542;18431,229;   -1,445;   -0,227
647,118;18497,853;    1,009;   -0,955
647,695;18726,658;   -0,263;    1,136
648,271;18624,645;   -0,536;    0,500
648,848;18879,814;    0,736;    2,227
649,424;18791,347;    0,827;    1,318
650,000;18486,606;   -0,354;   -1,045
650,577;18362,684;   -0,627;   -0,955
651,153;18736,308;   -1,809;    0,955
651,729;19604,113;    1,191;    0,864
652,305;19828,646;    0,645;    2,773
652,881;23301,815;   -0,082;    1,136
653,458;28501,620;    1,100;    0,227
654,034;31113,789;    0,282;    1,591
654,610;32066,594;    0,554;    0,773
655,186;33121,854;    0,645;    3,045
655,762;32805,387;   -0,991;    0,409
656,338;32782,101;    0,100;    0,136
656,913;33658,361;   -0,082;    0,409
657,489;32907,985;    0,827;   -0,318
658,065;32993,154;   -0,173;   -1,591
658,641;33663,232;   -0,900;   -0,864
659,217;32996,219;   -0,991;    0,409
659,792;32407,297;    0,645;   -0,409
660,368;32687,557;   -2,173;   -0,682
660,944;32559,907;   -2,082;    1,227
661,519;28840,531;   -0,628;    0,409
662,095;24272,973;   -1,719;    0,591
662,670;20918,505;    1,281;   -0,136
663,246;20270,401;    1,009;   -0,409
663,821;19782,388;    0,281;    1,682
664,396;19285,012;    0,009;    1,864
664,972;19507,454;    0,009;   -0,500
665,547;19821,259;    1,372;    0,136
666,122;19811,519;   -1,082;    0,318
666,698;20077,324;   -0,173;    0,318
667,273;19413,129;   -0,173;    0,136
667,848;20144,207;    2,372;    1,500
668,423;19947,013;    2,190;    2,318
668,998;20376,364;    2,827;   -0,682
669,573;20847,533;   -3,264;   -1,500
670,148;20713,520;   -1,446;   -0,682
670,723;20451,598;   -1,810;    0,318
671,298;20842,221;    2,372;    1,045
671,873;20925,936;   -0,082;   -0,136
672,448;20869,741;    0,645;    0,136
673,023;21138,183;   -1,992;   -0,227
673,597;21475,715;    0,827;    2,318
674,172;21246,520;   -0,355;    0,318
674,747;20761,144;    0,372;   -1,045
675,321;20521,222;   -0,628;    3,318
675,896;20168,118;    0,645;    1,045
676,471;21102,469;    2,645;    1,591
677,045;20827,820;   -1,264;    0,682
677,620;20837,261;    0,190;    1,136
678,194;21151,249;   -2,628;    1,136
678,769;20823,418;   -1,083;   -0,318
679,343;21068,314;   -0,628;    1,773
679,917;20938,665;   -1,446;    1,955
680,492;20955,833;    0,826;    3,227
681,066;21044,366;    3,372;    0,409
681,640;21117,808;    1,463;   -0,318
682,214;21824,886;    0,735;    0,500
682,788;21420,873;   -1,356;   -0,773
683,363;21315,405;   -1,810;    1,682
683,937;21063,574;   -1,719;   -0,318
684,511;21704,380;    0,463;   -0,591
685,085;21456,912;   -1,356;    0,318
685,659;21193,354;   -2,538;    0,864
686,232;21453,068;   -0,356;   -0,318
686,806;21212,419;   -0,901;    0,409
687,380;21770,134;   -0,174;    0,591
687,954;21981,848;   -1,174;    1,136
688,528;21631,290;   -0,719;    1,955
689,101;22362,822;   -3,992;    1,045
689,675;22008,537;   -0,356;   -0,136
690,249;21379,342;   -0,719;    0,409
690,822;21710,965;    0,280;    0,318
691,396;21846,225;   -0,265;    1,227
691,969;21373,031;    1,280;    0,136
692,543;21748,381;   -0,447;   -1,955
693,116;21459,641;   -0,265;   -1,409
693,690;21366,628;    0,099;    0,500
694,263;21875,616;   -1,083;    2,955
694,836;21881,875;    1,371;    3,591
695,410;20673,317;   -0,265;    1,773
695,983;21057,213;    0,189;    0,591
696,556;21072,928;   -0,447;   -1,045
697,129;21419,188;   -0,356;    1,409
697,703;21092,266;   -1,629;    1,955
698,276;21134,344;    1,462;   -0,773
698,849;20908,603;    1,280;    1,409
699,422;21245,954;   -1,083;    0,591
699,995;21052,396;    0,007;    0,136
700,568;21500,656;   -0,629;    3,045
701,140;21434,370;   -2,811;    1,682
701,713;21208,176;   -0,174;    2,409
702,286;20996,254;   -0,538;    0,864
702,859;20829,968;   -0,902;   -0,591
703,432;20174,410;    0,825;    0,682
704,004;20550,760;    0,462;    0,318
704,577;20486,384;   -0,629;    0,136
705,150;20949,644;    0,189;    2,500
705,722;20774,085;   -0,356;   -3,227
706,295;20625,982;   -0,175;   -0,591
706,867;20499,605;   -0,175;    1,955
707,440;20733,501;   -1,720;   -0,409
708,012;20946,489;    0,462;    0,591
708,584;20835,657;    2,462;    0,227
709,157;21075,826;    1,825;   -0,591
709,729;20827,541;    2,280;    2,045
710,301;21542,528;    0,734;    0,045
710,874;21580,151;   -1,447;   -0,227
711,446;20461,957;    0,371;    0,864
712,018;20399,853;    0,098;    0,500
712,590;20203,204;   -1,993;    1,682
713,162;20683,464;    0,825;    1,318
713,734;20904,996;    1,825;   -2,045
714,306;20787,347;   -1,902;   -0,409
714,878;19643,516;    0,825;    0,864
715,450;20392,321;    0,643;    0,864
716,022;20669,036;    1,552;    1,318
716,593;20824,932;    0,189;    0,591
717,165;20722,646;   -3,175;   -1,227
717,737;20525,179;    0,280;    0,409
718,309;20241,621;    0,280;   -0,045
718,880;20181,244;   -0,539;   -1,409
719,452;20379,958;   -0,175;   -1,591
720,024;20057,764;    0,734;   -0,591
720,595;20542,660;   -2,902;    0,955
721,167;20168,465;    0,370;   -2,045
721,738;19782,725;   -0,812;   -1,045
722,309;19831,167;   -0,993;   -1,227
722,881;19567,427;   -1,357;    0,773
723,452;20101,323;   -2,630;    2,864
724,023;20268,765;   -0,721;    2,682
724,595;20105,297;    0,007;    0,682
725,166;19822,466;    0,007;   -0,409
725,737;19549,090;    1,734;    0,227
726,308;19642,259;   -0,266;    0,318
726,879;20027,609;   -1,630;    1,227
727,450;19871,142;    0,552;   -0,045
728,021;19802,402;    3,097;    0,682
728,592;19625,116;    0,734;    0,500
729,163;19942,012;    0,643;   -0,136
729,734;20005,727;    0,188;   -0,227
730,305;20299,896;    1,734;    0,136
730,876;20530,519;    0,188;    2,955
731,447;20325,143;    2,188;    2,682
732,017;20412,857;    1,097;    1,864
732,588;19992,572;    0,734;    1,227
733,159;20168,195;    0,643;   -1,045
733,729;19950,273;    0,006;    0,409
734,300;19329,533;    0,915;    0,864
734,870;19709,429;    3,461;    0,591
735,441;20169,416;    0,370;   -0,591
736,011;19980,312;    0,643;   -1,591
736,582;19935,663;   -0,812;    0,045
737,152;19394,196;   -1,721;   -2,045
737,722;19873,274;   -0,267;   -0,682
738,293;19560,988;   -1,358;    1,318
738,863;19475,521;    2,461;    2,318
739,433;19405,781;    5,279;    0,318
740,003;19961,041;   -0,994;   -0,682
740,573;19426,028;    2,097;   -1,591
741,143;19360,651;   -1,085;    0,318
741,713;20054,002;    1,188;   -0,500
742,283;19808,625;    0,915;    1,591
742,853;19599,158;    1,915;    1,591
743,423;19133,509;    1,733;    0,045
743,993;19217,860;   -0,358;    1,500
744,563;18703,574;    0,097;   -0,864
745,133;18677,379;   -0,812;   -0,864
745,702;19308,821;   -0,267;    1,773
746,272;18612,808;   -0,176;    0,591
746,842;18467,068;   -1,358;   -0,591
747,411;18831,782;   -0,267;   -0,318
747,981;18961,951;    0,097;    0,500
748,551;18994,029;    2,278;   -1,045
749,120;18837,198;    0,642;   -0,227
749,690;19162,095;   -0,631;    2,409
750,259;19489,627;    1,369;    2,955
750,828;19367,705;    1,551;   -1,955
751,398;19633,238;    1,278;   -0,045
751,967;19279,134;    2,187;    0,409
752,536;19428,757;   -0,813;   -0,227
753,105;19813,654;    0,096;    0,227
753,675;19578,641;    0,096;    1,773
754,244;19495,901;   -0,904;    3,591
754,813;19492,524;    0,551;    1,227
755,382;19108,693;    0,460;    0,955
755,951;19583,408;    1,551;    3,682
756,520;19221,576;   -0,085;    1,864
757,089;19746,473;    0,278;    0,500
757,658;19819,187;    1,733;    1,227
758,227;19802,174;    1,096;    0,318
758,795;20049,980;    1,187;    1,136
759,364;20292,876;   -0,086;   -0,591
759,933;19425,681;   -1,176;   -0,045
760,501;18985,577;    0,733;   -1,318
761,070;19399,655;   -2,813;   -1,409
761,639;20050,915;   -1,904;    1,318
762,207;19436,448;    1,551;   -0,955
762,776;19358,526;    0,369;    0,864
763,344;19345,604;   -0,995;    0,591
763,913;18470,591;   -0,722;    1,409
764,481;19201,124;    1,005;   -0,136
765,049;19036,202;   -1,358;    1,409
765,618;18964,552;   -0,086;    0,318
766,186;19080,630;    0,278;    0,136
766,754;19270,345;    0,005;    1,864
767,322;18363,877;   -1,995;    0,409
767,890;18334,592;   -0,722;   -1,773
768,459;18771,943;   -2,177;   -0,318
769,027;18895,475;    1,641;    3,409
769,595;18039,371;    3,278;    2,591
770,163;18394,995;    3,823;    2,955
770,730;18239,164;    0,732;   -0,136
771,298;18096,878;    0,187;   -1,409
771,866;18184,956;   -1,541;    4,955
772,434;18463,034;   -0,631;   -1,864
773,002;18617,294;    0,005;    0,682
773,569;18325,827;    0,914;    1,682
774,137;18128,541;   -0,268;   -0,045
774,705;18871,619;    0,278;   -0,136
775,272;18411,515;    0,641;    0,682
775,840;18260,230;   -0,177;    2,682
776,407;17856,853;    0,277;    1,955
776,975;17415,840;   -0,632;    0,318
777,542;18346,009;   -1,086;   -0,045
778,110;18232,451;   -1,268;   -0,045
778,677;17903,893;   -2,359;   -0,864
779,244;17710,062;    2,186;    1,045
779,812;17825,231;    1,823;    0,864
780,379;17660,400;    0,005;    1,136
780,946;17889,296;    1,005;   -0,773
781,513;18168,828;   -1,450;    0,318
782,080;17621,088;   -0,086;    2,864
782,647;18275,439;   -0,268;    3,045
783,214;17943,608;   -0,177;    3,864
783,781;17629,141;   -0,723;   -0,682
784,348;17510,582;   -0,632;    1,500
784,915;17914,479;   -3,177;    0,318
785,482;17714,284;    1,368;    2,591
786,049;18137,544;    0,186;   -0,591
786,615;18225,440;    0,277;   -0,955
787,182;17955,245;    0,186;   -0,682
787,749;17742,414;   -2,814;    1,409
788,315;17135,765;   -1,632;   -0,409
788,882;17404,025;    1,550;   -1,227
789,448;18036,466;    1,732;   -0,955
790,015;18026,090;    1,095;    3,227
790,581;17624,350;    1,459;    0,227
791,148;17553,064;    0,641;    1,045
791,714;17747,960;   -0,541;    3,136
792,280;17489,038;    0,186;    1,591
792,847;17095,207;    0,550;    2,500
793,413;17558,467;   -0,269;   -0,318
793,979;17203,273;    3,459;   -1,318
794,545;17300,078;    4,459;    2,682
795,111;16795,701;    2,186;    1,318
795,678;16942,325;    0,731;   -1,682
796,244;16684,585;    3,368;    0,136
796,810;17118,299;    1,731;    0,773
797,375;16891,014;    0,549;   -2,136
797,941;16863,819;   -0,541;    0,591
798,507;17043,079;   -0,451;   -0,955
799,073;16629,066;   -0,360;    0,591
799,639;16678,598;   -2,632;    3,136
800,205;16726,040;    0,095;    2,682
800,770;16369,027;    0,640;    1,773
801,336;16410,378;    1,368;   -0,955
801,901;16188,911;    4,549;    3,136
802,467;16748,898;   -0,542;    2,045
803,033;16085,521;   -0,087;    0,864
803,598;16273,236;    1,913;   -1,045
804,163;16335,677;    1,095;   -0,318
804,729;16310,664;   -0,178;    1,136
805,294;16606,924;    0,822;    2,227
805,859;16447,548;    0,731;   -0,409
806,425;16058,717;    1,186;    2,682
806,990;15735,340;    2,186;    4,318
807,555;16083,055;   -1,451;    2,591
808,120;16046,678;    0,822;   -0,409
808,685;16094,029;    0,185;   -2,500
809,250;15675,652;    0,004;   -0,500
809,815;15894,730;    1,913;    0,682
810,380;16405,081;   -0,269;    1,591
810,945;16847,523;   -1,087;    2,045
811,510;16180,419;    2,094;    1,591
812,075;15910,224;   -0,633;   -1,409
812,640;15910,848;    2,003;    1,409
813,204;15980,835;    0,822;   -0,227
813,769;16412,095;    2,094;   -0,045
814,334;15909,173;    0,458;    0,864
814,898;15976,342;    0,367;    0,591
815,463;15793,965;    1,276;   -0,773
816,027;15798,316;   -0,724;   -2,318
816,592;15943,122;    0,640;   -2,045
817,156;15523,290;    2,094;    1,136
817,721;15440,278;    4,276;    2,318
818,285;15437,265;    2,912;    1,500
818,849;15946,888;   -1,451;    1,682
819,414;15821,966;   -0,269;    2,955
819,978;15438,226;   -1,269;    1,773
820,542;16006,486;    2,003;    0,500
821,106;15829,928;   -0,815;    0,682
821,670;15885,642;   -0,815;    2,591
822,234;15646,629;   -0,270;    1,409
822,798;15150,980;    0,003;    0,500
823,362;15118,240;   -0,633;    4,227
823,926;14568,863;    0,094;    1,136
824,490;14764,669;   -0,997;   -0,682
825,054;15155,110;   -0,088;   -1,136
825,618;14842,188;   -1,542;   -1,500
826,181;14835,266;    0,458;   -1,318
826,745;14786,526;    1,367;   -1,045
827,309;15090,877;    1,185;    1,318
827,872;14564,410;    1,367;    0,955
828,436;15426,579;    1,185;   -0,773
828,999;15525,657;   -0,997;    1,227
829,563;14524,644;   -0,179;    1,136
830,126;14373,085;   -0,179;   -0,591
830,690;14407,709;   -1,997;    2,864
831,253;13966,787;   -0,543;    2,227
831,816;14091,592;   -1,906;    0,500
832,380;14056,579;    0,185;    0,864
832,943;14238,112;   -1,361;   -0,500
833,506;13767,554;    2,639;   -1,227
834,069;14464,268;    3,912;   -0,955
834,632;14562,892;    1,730;    1,318
835,195;14494,606;    1,003;    0,955
835,758;13834,048;   -0,997;    1,955
836,321;13674,671;    0,730;   -1,045
836,884;13774,476;   -0,725;   -0,955
837,447;13813,464;   -2,816;    1,773
838,010;14030,814;    0,366;    3,227
838,573;14266,347;   -1,179;    0,773
839,135;14296,334;   -1,361;   -0,955
839,698;13798,867;    1,275;    0,409
840,261;13336,217;    1,003;   -0,227
840,823;13224,568;   -0,543;    0,864
841,386;13513,283;   -0,452;   -2,409
841,948;13471,542;   -1,361;    1,773
842,511;13208,348;    0,912;    1,682
843,073;13337,880;    1,912;    0,227
843,636;13159,958;   -0,361;   -0,227
844,198;13075,309;    0,911;    0,591
844,760;13234,842;    1,093;    1,955
845,322;12922,011;    0,548;    1,136
845,885;13275,998;    0,730;    0,591
846,447;13697,894;   -1,998;    0,227
847,009;13358,790;    1,911;   -0,682
847,571;13566,686;    0,820;   -2,045
848,133;13662,855;   -1,089;   -1,864
848,695;13493,479;   -0,543;    1,409
849,257;13142,557;   -1,089;   -1,682
849,819;13332,726;   -0,998;   -0,409
850,381;13290,349;   -0,725;   -0,864
850,942;13580,064;    1,093;   -0,591
851,504;13541,505;    1,184;    0,227
852,066;13604,584;    1,275;   -1,591
852,628;13220,571;   -0,180;    1,955
853,189;12780,012;    1,638;    2,682
853,751;12915,999;   -0,907;    1,409
854,312;12695,896;   -0,453;   -1,682
854,874;13183,792;   -2,089;   -0,773
855,435;13598,961;   -0,907;   -1,682
855,997;13752,403;   -1,816;   -0,136
856,558;13136,481;    0,366;    1,773
857,119;13220,468;    0,820;    2,864
857,681;12954,000;    0,002;    0,318
858,242;13002,806;    1,911;   -2,136
858,803;13383,611;    0,456;   -0,773
859,364;13905,962;    0,184;   -4,773
859,925;13355,858;   -2,453;   -0,955
860,486;13218,481;   -0,453;   -0,955
861,047;13005,832;   -0,544;   -1,227
861,608;12873,728;   -1,089;   -0,773
862,169;13023,625;    0,638;   -0,045
862,730;12763,248;    0,456;    1,409
863,291;13022,417;   -0,635;   -0,500
863,852;13331,495;   -0,635;    1,955
864,412;12854,482;   -0,271;   -0,864
864,973;11628,560;   -0,089;    0,500
865,534;11525,366;   -1,726;    0,227
866,094;12812,535;    1,820;    0,227
866,655;12539,794;    1,274;    3,318
867,215;12830,054;    0,274;    0,136
867,776;12705,678;    0,547;   -0,136
868,336;12742,210;   -1,453;    0,136
868,897;12373,379;    2,638;    1,682
869,457;12165,003;    1,365;    0,318
870,017;12386,081;    0,547;   -1,227
870,578;12813,704;   -0,817;    0,773
871,138;12442,419;   -2,089;   -0,955
871,698;12074,497;   -0,817;   -1,318
872,258;11977,211;   -0,453;   -2,864
872,818;12356,107;    2,729;    0,045
873,378;12341,913;    0,638;    1,045
873,938;11909,991;    0,547;    0,500
874,498;12179,978;    0,274;   -1,955
875,058;12119,601;    2,183;    1,773
875,618;12002,679;    1,910;   -2,682
876,177;11916,485;    1,274;    0,136
876,737;11545,381;   -0,090;    1,955
877,297;11660,732;    0,183;    1,955
877,856;11722,992;   -0,362;    0,318
878,416;11623,342;    1,183;   -0,136
878,976;11804,693;   -1,817;    0,409
879,535;11976,771;    0,092;    3,136
880,095;11788,304;   -0,544;    0,045
880,654;11877,291;   -1,090;    1,318
881,213;11999,460;    2,456;    1,500
881,773;11653,356;    2,637;    2,682
882,332;12009,616;    3,365;    5,136
882,891;11864,876;    3,092;    2,136
883,451;12246,590;   -1,272;    1,682
884,010;11706,941;   -2,908;   -0,409
884,569;11827,019;   -0,999;   -0,045
885,128;11927,733;    2,819;   -1,864
885,687;12023,266;    4,455;    0,682
886,246;11766,799;    1,455;    2,136
886,805;11559,695;    2,455;    2,045
887,364;11725,409;   -0,999;   -0,500
887,922;12036,124;   -1,181;    0,045
888,481;11591,565;   -1,545;    0,591
889,040;11869,189;    1,183;    2,136
889,599;12415,267;    2,455;    1,409
890,157;12493,345;    1,455;    2,409
890,716;12107,787;   -0,090;    0,227
891,274;11962,046;    0,092;   -1,136
891,833;12321,124;    1,546;    0,864
892,391;12236,566;   -0,454;    0,500
892,950;12313,008;    1,819;   -0,773
893,508;12601,995;    0,455;   -0,409
894,067;11985,527;    0,637;    0,136
894,625;11907,878;   -0,636;   -1,500
895,183;12126,047;   -0,363;   -0,682
895,741;12116,125;    1,728;   -1,773
896,299;11933,840;   -0,545;   -2,409
896,858;12093,554;    0,819;   -1,591
897,416;12225,996;    2,728;   -1,318
897,974;12016,165;    1,819;    0,318
898,532;12209,879;    6,091;    2,682
899,089;12100,684;    2,091;   -0,682
899,647;12140,126;   -1,454;    1,318
900,205;11933,386;    1,182;    1,045
900,763;12079,828;   -0,454;    0,227
901,321;12103,997;    2,364;   -1,409
901,878;11626,075;   -1,000;   -0,773
902,436;11529,880;   -1,363;    1,318
902,994;11956,322;    4,728;    3,682
903,551;11459,309;    0,728;    0,409
904,109;11795,569;    0,182;   -1,409
904,666;11450,828;    2,455;    1,045
905,224;11303,361;    0,182;   -0,409
905,781;11143,985;    0,727;   -0,318
906,338;11171,881;   -1,363;    1,045
906,895;11112,504;    0,637;    2,045
907,453;11077,491;    1,727;    1,136
908,010;11072,388;   -0,909;    0,409
908,567;10798,920;    1,273;    0,591
909,124;10374,180;    0,364;   -1,500
909,681;10452,440;   -2,909;    0,682
910,238;10653,972;    0,636;   -1,318
910,795;10939,687;   -0,273;   -1,136
911,352;10595,505;   -2,909;   -2,682
911,909;10138,051;   -1,364;   -0,864
912,466;10561,596;   -3,182;    1,500
913,022;10157,051;   -1,636;    0,500
913,579;10484,687;   -0,909;    2,045
914,136;10224,778;    1,636;    0,955
914,692;10569,323;    0,091;   -1,227
915,249;10192,323;    1,455;    0,409
915,806;10392,687;    0,182;    1,955
916,362;10215,141;    1,909;    1,864
916,918; 9845,051;    2,000;    1,045
917,475; 9866,869;   -1,182;    0,955
918,031; 9891,960;    3,364;   -0,045
918,587; 9480,414;   -0,909;   -0,318
919,144; 9696,960;   -2,273;    0,227
919,700; 9918,869;    1,727;    0,773
920,256; 9552,141;    0,727;    0,045
920,812; 9281,596;   -0,727;   -1,045
921,368; 9378,051;   -1,727;   -1,045
921,924; 9043,141;    0,182;   -0,136
922,480; 8701,141;   -0,545;    1,227
923,036; 9244,323;    1,273;    1,955
923,592; 9214,505;    0,455;    0,318
924,148; 9173,687;    0,455;   -0,955
924,704; 8610,778;   -1,364;   -0,409
925,259; 8895,323;   -0,273;    0,591
925,815; 8685,960;    1,455;    0,500
926,371; 8253,232;    2,909;    1,409
926,926; 8205,687;    2,091;    0,591
927,482; 7930,051;   -1,364;    0,773
928,037; 7881,596;    0,909;    2,045
928,593; 8170,687;    1,636;    1,045
929,148; 8018,687;   -1,818;   -1,500
929,704; 7642,505;   -1,455;   -0,500
930,259; 7786,051;    0,091;   -0,136
930,814; 7070,596;   -0,818;    1,955
931,369; 6843,869;    1,091;   -0,773
931,925; 6759,232;   -0,091;    0,136
932,480; 6711,596;   -2,818;   -2,591
933,035; 6685,505;    0,545;   -0,318
933,590; 6515,869;    0,364;   -1,773
934,145; 6218,778;   -1,364;   -0,318
934,700; 6499,960;    0,455;   -0,591
935,255; 6350,414;   -0,091;    0,045
935,809; 5866,960;    3,182;    0,864
936,364; 5177,596;   -0,455;   -0,136
936,919; 5203,141;    0,455;   -1,773
937,474; 5118,323;    1,455;    0,136
938,028; 4945,232;   -1,636;    1,136
938,583; 4630,596;    1,818;    4,682
939,138; 4825,960;    2,091;    2,136
939,692; 4364,232;    1,636;   -1,136
940,247; 4144,596;   -0,727;   -1,045
940,801; 3881,960;   -0,636;    0,227
941,355; 3819,596;   -0,364;    2,591
941,910; 3541,778;   -0,273;   -2,136
942,464; 3634,232;   -0,818;   -0,318
943,018; 3567,869;    1,000;   -0,227
943,572; 3487,141;    2,545;   -0,682
944,126; 3092,687;    0,091;   -0,409
944,681; 2998,232;    3,091;    0,227
945,235; 2956,505;    1,000;   -0,591
945,789; 2899,687;    0,364;   -1,864
946,342; 3103,232;    0,455;   -0,591
946,896; 2843,232;   -2,273;    0,955
947,450; 2653,232;    1,545;   -0,227
948,004; 2909,232;    1,727;   -0,045
948,558; 2856,232;    0,273;   -0,864
949,111; 2785,232;   -0,273;   -0,318
949,665; 2905,869;    1,636;   -0,682
950,219; 2799,596;   -0,091;   -1,045
950,772; 2818,869;   -1,909;    1,864
951,326; 2763,869;    0,545;   -0,955
951,879; 2807,051;    0,727;   -2,318
952,433; 2852,869;    0,000;    2,227
952,986; 2670,960;    2,909;    0,682
953,539; 2616,869;   -0,273;    0,591
954,093; 2577,687;    0,545;   -1,318
954,646; 2707,505;    0,909;    1,318
955,199; 2539,505;    0,000;   -0,500
955,752; 2540,414;   -0,455;    1,773
956,305; 2463,778;   -0,091;    2,955
956,858; 2590,596;    0,818;   -0,318
957,411; 2740,232;   -0,545;    2,136
957,964; 2580,232;    1,364;    2,136
958,517; 2558,414;   -1,545;    3,136
959,070; 2444,505;   -0,455;    1,955
959,623; 2623,414;    1,091;    1,500
960,176; 2423,505;    1,727;    2,045
960,728; 2384,960;   -2,727;    0,773
961,281; 2427,323;    0,545;    0,500
961,834; 2440,505;   -0,909;    0,864
962,386; 2379,323;    1,727;    1,045
962,939; 2275,960;    0,364;   -0,318
963,491; 2406,869;    0,455;    1,136
964,043; 2305,232;    1,182;    2,409
964,596; 2452,323;   -1,000;    2,227
965,148; 2297,596;   -1,000;    1,773
965,700; 2212,596;    1,091;   -0,227
966,253; 2367,323;   -0,636;    0,318
966,805; 2262,414;   -2,273;    0,773
967,357; 2268,414;    1,091;   -1,500
967,909; 2279,141;    0,455;   -1,227
968,461; 2296,596;    0,545;    3,136
969,013; 2238,960;   -0,182;   -0,864
969,565; 2319,141;   -0,455;   -1,136
970,117; 2545,687;   -0,364;    1,045
970,669; 2284,596;    0,182;   -0,136
971,220; 2095,051;   -0,455;   -1,500
971,772; 2081,869;   -0,636;   -0,318
972,324; 2206,778;    0,091;   -0,500
972,876; 2126,051;    0,818;   -0,045
973,427; 2299,687;    1,909;   -1,045
973,979; 2297,232;   -0,727;   -2,500
974,530; 2224,232;    1,818;    1,318
975,082; 2248,869;   -0,545;    1,682
975,633; 2175,778;    1,091;    1,682
976,184; 2317,778;    0,909;    0,773
976,736; 2173,869;    0,091;    0,227
977,287; 2016,232;   -0,909;   -0,500
977,838; 2141,687;    0,909;   -0,318
978,389; 2194,232;   -1,000;   -0,500
978,940; 2047,323;    0,545;   -0,409
979,491; 2057,687;    0,091;   -0,500
980,042; 2049,505;    0,182;    3,045
980,593; 2070,778;   -2,545;    0,227
981,144; 2170,323;    2,545;   -0,500
981,695; 2199,232;    1,455;    1,500
982,246; 2137,778;   -0,273;    1,045
982,797; 2173,687;   -1,727;    0,682
983,347; 2303,596;    0,364;    0,591
983,898; 2507,141;    3,091;    0,409
984,449; 2375,869;    2,182;    0,773
984,999; 2207,596;    1,455;   -1,136
985,550; 2067,323;    0,182;   -0,318
986,100; 2026,414;   -0,455;   -0,318
986,651; 2037,323;   -0,818;    0,045
987,201; 2056,687;   -1,000;   -0,591
987,751; 2108,596;    0,818;    2,864
988,302; 2128,141;    2,636;    1,500
988,852; 2134,505;    0,455;   -1,136
989,402; 2218,596;    0,091;    0,682
989,952; 2173,505;   -2,182;    0,864
990,502; 2198,414;   -0,091;    0,682
991,052; 2104,960;   -0,727;    0,045
991,602; 2020,323;   -2,909;    1,318
992,152; 2051,232;    0,455;    0,682
992,702; 2046,323;    1,364;   -0,045
993,252; 1969,687;   -3,000;   -0,500
993,802; 2094,505;   -0,273;    1,318
994,352; 2234,141;   -1,545;    1,136
994,901; 2243,687;   -0,182;    3,227
995,451; 2184,778;   -0,182;    0,318
996,000; 2245,869;    1,636;    0,318
996,550; 2053,323;    2,273;    0,227
997,100; 2074,232;    1,273;   -0,045
997,649; 2324,232;    2,182;    0,955
998,198; 2008,505;    1,727;   -1,500
998,748; 2211,960;    1,091;   -2,318
999,297; 2086,323;   -0,818;   -0,409
999,846; 2198,323;    1,000;   -0,773
1000,395; 2185,596;   -0,818;    0,500
1000,945; 2214,414;    1,818;   -0,773
1001,494; 2269,232;    2,364;    0,682
1002,043; 2227,778;    4,636;    0,864
1002,592; 2051,323;   -1,091;    1,955
1003,141; 2182,596;   -0,455;   -0,682
1003,690; 2128,414;    1,727;    0,500
1004,238; 2120,596;    1,455;   -0,045
1004,787; 1836,323;    1,364;    1,227
1005,336; 2124,505;    0,364;    0,682
1005,885; 2174,869;    1,364;   -2,773
1006,433; 2243,505;    0,545;    0,955
1006,982; 2422,687;    0,455;    1,682
1007,531; 2269,051;   -1,818;   -0,227
1008,079; 2164,505;   -2,273;    0,500
1008,627; 2254,778;   -1,455;    0,409
1009,176; 2065,323;    0,000;   -1,955
1009,724; 2106,596;    1,091;    0,864
1010,273; 2206,960;    1,273;    0,500
1010,821; 2236,323;    0,091;    1,409
1011,369; 2020,323;   -1,364;    1,318
1011,917; 2012,687;   -1,364;   -0,591
1012,465; 2254,778;    1,273;   -1,591
1013,013; 2312,232;    2,091;   -1,682
1013,561; 2294,323;    0,455;   -0,773
1014,109; 2378,323;   -1,909;    1,682
1014,657; 2223,505;    0,364;    0,591
1015,205; 2266,414;    1,636;   -0,955
1015,753; 2262,141;   -0,545;   -1,409
1016,301; 2314,869;   -2,636;    3,045
1016,848; 2336,778;   -1,273;    0,409
1017,396; 2378,414;    2,545;    0,045
1017,944; 2477,323;    1,182;    1,864
1018,491; 2231,960;    0,273;    1,409
1019,039; 2522,869;    0,455;    0,591
1019,586; 2319,051;   -1,364;    1,682
1020,134; 2360,687;    0,455;    1,500
1020,681; 2419,051;    0,182;   -1,136
1021,228; 2372,960;    2,909;   -2,227
1021,776; 2261,960;    1,182;   -1,136
1022,323; 2513,869;    0,455;    0,773
1022,870; 2428,323;   -1,000;   -0,045
1023,417; 2378,323;    2,636;    1,864
1023,964; 2404,141;    2,636;    1,227
1024,511; 2324,323;    1,000;    0,773
1025,058; 2143,960;    3,182;   -0,045
1025,605; 2179,869;   -2,273;    3,136
1026,152; 2439,687;    1,727;   -0,591
1026,699; 2182,414;    1,818;    1,318
1027,245; 2283,960;   -0,091;    0,318
1027,792; 2401,323;   -1,000;    1,409
1028,339; 2408,505;    2,364;   -0,045
1028,885; 2260,414;    1,000;   -0,227
1029,432; 2192,505;   -0,091;    0,227
1029,978; 2290,869;   -1,000;   -1,591
1030,525; 2208,232;    1,000;    0,409
1031,071; 2344,505;   -1,364;    1,136
1031,618; 2558,232;    0,364;    1,682
1032,164; 2299,869;   -0,091;    3,045
1032,710; 2340,596;    1,636;   -1,500
1033,256; 2267,051;   -0,636;   -0,136
1033,803; 2184,778;   -0,545;    1,500
1034,349; 1940,051;   -1,364;    0,136
1034,895; 2090,414;    0,000;   -0,318
1035,441; 2088,232;   -0,818;    0,318
1035,987; 2125,778;   -2,364;   -0,682
1036,533; 2161,414;   -1,455;   -0,955
1037,078; 2400,687;    1,455;    1,682
1037,624; 2182,687;    2,455;   -0,955
1038,170; 2142,505;    0,455;   -0,318
1038,716; 2145,869;    1,636;   -0,409
1039,261; 2016,505;   -2,273;   -0,773
1039,807; 1965,687;   -0,091;    3,409
1040,352; 2057,505;   -1,909;   -0,318
1040,898; 2085,687;   -1,545;   -0,682
1041,443; 1977,869;   -1,455;   -2,591
1041,989; 2154,687;    1,091;    1,591
1042,534; 1959,960;   -0,364;    2,591
1043,079; 1971,778;    2,909;    0,955
1043,625; 1872,687;    1,818;    0,500
1044,170; 1939,687;   -1,364;    1,045
1044,715; 2209,596;    2,455;    0,955
1045,260; 2023,869;    2,182;   -0,955
1045,805; 1992,869;    1,182;   -0,591
1046,350; 1926,141;    1,364;   -0,409
1046,895; 1994,687;    2,909;    1,591
1047,440; 1978,232;    5,364;    0,409
1047,985; 1831,778;    2,818;   -0,955
1048,530; 1739,778;    1,545;    1,227
1049,074; 1842,960;    0,000;    0,318
1049,619; 1789,414;   -1,364;    1,955
1050,164; 1651,414;    0,455;    0,227
1050,708; 1706,141;   -0,455;    0,045
1051,253; 2097,414;    1,273;   -2,227
1051,797; 1792,687;    0,818;   -1,318
1052,342; 1717,869;   -1,182;    1,045
1052,886; 1767,232;    0,364;   -1,409
1053,430; 1625,141;   -1,364;    0,136
1053,975; 1665,687;   -0,818;   -0,318
1054,519; 1674,323;   -0,727;    3,227
1055,063; 1753,869;    0,909;    1,318
1055,607; 1661,051;   -0,182;    0,227
1056,151; 1665,960;    2,909;    1,682
1056,695; 1540,596;    2,273;   -1,136
1057,239; 1609,414;   -1,727;   -0,682
1057,783; 1643,869;    0,818;   -1,500
1058,327; 1640,232;    0,000;    1,409
1058,871; 1874,869;   -0,545;    1,318
1059,415; 1615,232;   -0,818;   -0,045
1059,958; 1894,232;    1,455;    2,591
1060,502; 1586,051;   -1,000;   -0,773
1061,046; 1449,596;    0,364;   -0,955
1061,589; 1408,505;   -3,000;   -1,136
1062,133; 1328,778;   -1,273;    1,864
1062,676; 1309,232;    1,182;    0,864
1063,220; 1331,323;    1,091;    0,500
1063,763; 1374,141;    0,909;    1,136
1064,306; 1446,687;   -0,909;    1,864
1064,849; 1363,414;   -0,909;    0,591
1065,393; 1351,778;    2,000;   -1,500
1065,936; 1431,141;    0,182;   -0,409
1066,479; 1306,960;   -1,455;    1,318
1067,022; 1331,596;   -0,273;   -0,227
1067,565; 1244,778;   -0,091;   -1,318
1068,108; 1247,323;    0,727;   -0,591
1068,651; 1211,778;   -0,636;    1,409
1069,194; 1173,687;   -0,455;   -1,682
1069,736; 1213,596;   -1,273;    0,955
1070,279; 1159,141;   -1,364;   -0,500
1070,822; 1264,596;   -2,000;   -0,318
1071,364; 1393,141;   -0,364;    1,318
1071,907; 1182,232;   -0,727;    3,227
1072,450; 1029,232;    0,000;   -0,045
1072,992; 1076,323;   -0,273;    3,136
1073,535; 1225,232;    2,091;    2,136
1074,077; 1019,778;   -0,727;    2,045
1074,619; 1011,323;   -1,364;    0,591
1075,161; 1061,596;   -1,091;    1,500
1075,704; 1257,960;    1,545;    1,227
1076,246; 1016,414;   -0,182;    0,682
1076,788;  942,051;   -0,364;    1,773
1077,330;  974,051;    1,273;    2,136
1077,872;  989,960;    0,909;    0,955
1078,414; 1245,051;    2,727;    0,773
1078,956;  990,869;    1,273;   -0,227
1079,498; 1257,960;    1,636;    0,318
1080,040;  972,414;    1,909;   -1,318
1080,581;  909,414;    1,636;   -0,318
1081,123;  820,960;    0,091;   -0,773
1081,665;  862,687;   -1,182;   -0,955
1082,206; 1187,778;    1,364;   -0,500
1082,748; 1051,869;    0,727;    2,045
1083,289;  904,232;   -2,000;    1,318
1083,831;  833,051;   -0,545;    0,227
1084,372;  885,869;    0,000;    0,591
1084,913;  887,323;    1,091;    0,864
1085,455;  841,141;   -1,909;   -2,045
1085,996;  832,687;   -2,273;    0,136
1086,537;  878,232;   -0,091;    0,864
1087,078;  897,051;   -0,909;   -2,136
1087,619;  946,960;   -1,273;    0,227
1088,160;  862,960;    0,000;    1,318
1088,701;  836,960;   -1,091;    0,682
1089,242;  790,960;    1,364;   -2,227
1089,783;  904,141;   -0,273;    1,409
1090,324;  859,596;    0,455;    0,682
1090,865;  732,232;    2,727;   -0,409
1091,405;  685,778;    0,727;    2,227
1091,946;  727,596;    0,182;   -0,955
1092,487;  656,414;    0,818;   -1,409
1093,027;  843,869;   -1,364;   -1,500
1093,568;  705,141;   -0,364;    1,227
1094,108;  794,232;    0,273;    1,773
1094,649;  730,141;   -1,182;    0,136
1095,189;  665,960;   -0,636;   -0,682
1095,729;  644,323;   -0,091;    0,955
1096,269;  637,323;    0,727;   -0,955
1096,810;  938,051;   -1,364;    0,500
1097,350;  792,778;    1,364;   -0,773
1097,890;  686,687;    0,364;    1,227
1098,430;  950,778;    2,364;    2,864
1098,970;  839,596;    2,182;    1,682
1099,510;  670,869;    0,545;   -2,318
1100,050;  612,141;    1,000;   -1,591
1100,589;  596,323;   -0,727;   -0,318
1101,129;  716,051;    0,818;   -0,955
1101,669;  871,141;    1,727;    2,136
1102,209;  702,232;   -0,091;    2,227
1102,748;  663,596;    0,000;    0,955
1103,288;  660,323;    1,273;   -1,227
1103,827;  665,687;    3,091;   -2,227
1104,367;  555,323;   -0,091;   -2,409
1104,906;  529,960;    1,364;   -1,136
1105,445;  607,141;    0,636;   -1,136
1105,985;  564,141;   -0,727;    1,500
1106,524;  595,596;   -1,727;   -0,682
1107,063;  577,141;   -2,727;    1,409
1107,602;  537,051;   -1,909;   -1,500
1108,141;  478,960;   -1,909;    1,500
1108,680;  587,596;   -3,455;   -0,591
1109,219;  519,232;   -0,909;   -0,500
1109,758;  513,596;    0,455;    0,682
1110,297;  494,869;    1,000;   -0,682
1110,836;  446,505;   -0,727;    0,955
1111,375;  603,141;   -2,545;    0,409
1111,913;  616,051;   -1,000;    0,773
1112,452;  553,232;   -0,273;    0,136
1112,991;  442,323;    1,091;    1,955
1113,529;  423,960;   -0,818;   -0,045
1114,068;  486,869;   -0,273;    2,955
1114,606;  396,051;   -0,364;   -0,955
1115,144;  555,051;   -1,273;    1,045
1115,683;  490,051;   -0,727;    0,318
1116,221;  532,414;   -0,455;   -0,864
1116,759;  446,960;    0,636;   -0,864
1117,297;  641,051;    0,000;    1,864
1117,836;  452,414;   -2,182;   -1,227
1118,374;  457,323;    0,182;   -0,682
1118,912;  419,414;    0,909;    2,682
1119,450;  405,505;    1,000;    0,864
1119,988;  445,687;    1,545;    2,136
1120,525;  888,596;    5,091;    3,318
1121,063;  605,687;    1,182;    1,864
1121,601;  420,051;   -0,909;   -1,227
1122,139;  374,596;   -0,727;   -2,045
1122,676;  577,323;   -0,727;    2,773
1123,214;  504,960;   -1,182;    4,409
1123,751;  340,596;    1,727;    2,227
1124,289;  445,232;   -0,091;   -0,409
1124,826;  334,323;    1,727;    0,227
1125,364;  256,596;    1,727;   -0,955
1125,901;  447,141;    1,182;    1,227
1126,438;  544,869;    0,818;    0,955
1126,975;  290,687;   -0,727;   -0,773
1127,513;  352,414;    0,273;    2,136
1128,050;  271,051;    1,636;   -0,682
1128,587;  369,323;    2,000;   -0,227
1129,124;  403,232;    0,091;    1,318
1129,661;  274,778;    0,273;    0,227
1130,198;  444,141;    1,636;    0,773
1130,734;  385,051;    0,182;    1,409
1131,271;  248,778;   -0,909;    0,864
1131,808;  408,232;    2,909;    3,045
1132,345;  304,323;    1,545;    0,318
1132,881;  177,687;   -1,545;   -1,864
1133,418;  310,141;    0,727;   -1,136
1133,954;  259,505;    2,455;   -2,682
1134,491;  325,596;    1,364;   -0,773
1135,027;  234,051;    2,364;    0,864
1135,564;  320,687;    0,273;    2,955
1136,100;  303,414;    0,364;    2,136
1136,636;  198,323;   -1,273;   -1,045
1137,172;  293,960;    0,000;   -1,045
1137,708;  222,869;   -1,364;   -1,045
1138,245;  221,323;    1,273;   -1,227
1138,781;  170,869;    1,091;   -3,318
1139,317;  239,141;    1,273;   -1,409
1139,852;  234,414;    3,091;    0,136
1140,388;  346,051;   -1,182;   -0,409
1140,924;  239,960;   -1,091;   -2,227
1141,460;  178,323;   -1,636;    0,136
1141,996;  125,960;   -1,364;    2,682
1142,531;  166,505;    1,364;    3,318
1143,067;  364,414;    1,182;    1,045
1143,602;  420,051;   -0,091;   -0,318
1144,138;  274,323;   -2,636;    1,045
1144,673;  154,778;   -1,455;    1,409
1145,209;  216,960;   -1,909;   -0,318
1145,744;  143,687;   -0,727;    0,864
1146,279;  275,778;    1,818;   -0,136
1146,815;  185,687;    1,545;   -2,682
1147,350;  224,414;   -1,364;    0,045
1147,885;  150,232;   -0,818;   -1,318
1148,420;  147,141;   -2,273;    0,773
1148,955;  131,778;   -1,727;    1,864
1149,490;  157,414;   -0,909;   -1,591
1150,025;  137,778;    0,455;   -1,773
1150,560;  240,323;    1,091;   -0,955
1151,094;  214,505;    1,455;   -0,591
1151,629;  214,687;    1,636;    0,864
1152,164;  140,869;    1,364;    1,318
1152,698;  113,414;   -0,182;   -0,136
1153,233;   80,505;    0,091;   -0,682
1153,767;  123,778;   -3,000;   -2,318
1154,302;  168,778;   -1,455;    1,773
1154,836;  160,232;   -0,455;   -2,136
1155,371;  203,687;   -1,364;    3,682
1155,905;  160,869;   -0,636;    1,682
1156,439;  143,778;   -0,636;   -0,500
1156,973;  163,323;    0,364;    0,318
1157,507;  113,596;   -0,364;    0,682
1158,042;  136,232;   -0,727;    1,045
1158,576;  182,960;    0,182;    1,773
1159,110;  172,869;   -0,818;    2,409
1159,643;  135,869;    0,636;   -0,045
1160,177;   88,778;   -1,545;    1,500

