
Integration time [ms]:   0,040
Averaging Nr. [scans]: 11
Smoothing Nr. [pixels]: 0
Data measured with spectrometer [name]: 7318044SP
Wave   ;Sample   ;Dark     ;Reference
[nm]   ;[counts] ;[counts] ;[counts] 

186,757;    5,831;   31,551;    1,318
187,357;   29,591;   22,551;    0,955
187,958;   12,858;   15,460;   -1,591
188,558;   53,545;    8,915;   -1,227
189,159;   15,521;    6,733;   -4,500
189,759;   -5,882;    7,278;   -3,591
190,360;   -8,477;    2,824;   -2,136
190,960;   15,221;    2,915;   -4,136
191,560;   25,231;    3,189;   -6,591
192,161;  244,166;    4,372;   -3,500
192,761;   97,512;    4,010;   -3,227
193,361;   42,962;    1,556;   -3,773
193,962;   79,461;    2,010;   -2,682
194,562;   13,669;    1,189;   -3,955
195,162;   24,431;   -2,448;   -2,227
195,762;  153,406;   -3,176;   -0,045
196,362;   98,850;    1,370;   -2,500
196,963;    8,542;    2,006;   -0,864
197,563;   53,188;    1,551;   -0,955
198,163;    4,183;    0,096;   -0,682
198,763;   13,920;    1,733;   -0,500
199,363;   70,907;    3,096;   -0,500
199,963;   41,304;    0,369;    0,409
200,563;   34,788;    2,823;   -1,409
201,163;    6,564;    3,277;   -0,227
201,763;   47,167;    3,732;    0,318
202,363;    6,831;    1,459;    1,500
202,963;   48,640;    1,459;    1,045
203,563;  102,144;    0,277;    0,500
204,162;   30,626;    2,096;   -1,864
204,762;   21,551;    0,550;    0,591
205,362;   -2,687;    3,004;    1,955
205,962;   30,285;    3,096;    1,955
206,562;   21,558;    1,823;    2,318
207,161;    7,774;   -0,087;    0,318
207,761;   91,772;    1,277;    2,409
208,361;   14,185;   -0,268;    1,409
208,960;   42,771;    0,459;    1,500
209,560;   47,117;    1,277;    1,591
210,160;   56,750;    0,550;    1,864
210,759;   27,351;    4,186;    1,227
211,359;   14,581;    1,459;    1,045
211,958;  134,861;    1,277;    2,045
212,558;  149,002;    1,732;    1,864
213,157;   68,181;    1,822;    1,500
213,757;  231,712;    3,822;   -0,227
214,356;  102,455;    1,277;   -0,409
214,956;  219,955;    3,095;    0,409
215,555;   79,564;    2,095;    2,136
216,154;   48,688;   -2,723;   -0,591
216,754;   43,492;    0,277;    0,773
217,353;   64,046;   -0,268;   -1,045
217,952;    1,309;   -0,178;    0,318
218,552;   97,407;    1,368;   -0,773
219,151;   42,247;    0,277;    0,955
219,750;   28,985;    0,004;   -0,227
220,349;   22,317;   -0,451;    1,045
220,948;  107,684;   -1,360;    1,136
221,548;   35,912;    0,913;    1,227
222,147;   51,183;   -0,087;   -0,409
222,746;  169,482;   -0,451;   -0,955
223,345;   84,970;    0,731;    0,500
223,944;   89,537;   -0,451;    0,773
224,543;  109,086;    1,004;   -1,409
225,142;   97,344;    0,094;    0,136
225,741;   90,097;   -0,814;    1,045
226,340;   75,981;   -0,451;   -0,955
226,939;  153,079;   -0,996;   -0,136
227,538;   57,291;   -0,360;   -0,773
228,137;  167,084;   -0,814;    0,864
228,735;  121,077;   -0,541;    1,227
229,334;   31,245;   -0,905;   -0,227
229,933;  163,778;    0,459;    0,591
230,532;  168,334;    1,186;   -0,409
231,131;  219,586;    1,732;    0,318
231,729;  129,927;   -2,450;   -2,318
232,328;   72,056;   -0,723;   -1,500
232,927;   75,785;    1,004;   -0,500
233,525;   70,646;    3,640;    0,045
234,124;  101,392;    2,368;   -1,591
234,723;   44,719;    0,913;   -1,045
235,321;   32,703;    2,277;    0,136
235,920;   50,388;    1,186;   -1,227
236,518;  159,099;    3,459;    0,318
237,117;   48,068;    0,004;   -0,227
237,715;   72,674;    0,640;   -0,500
238,314;   96,900;   -0,087;   -2,318
238,912;  184,205;   -0,723;   -1,409
239,510;  120,996;    0,459;   -1,227
240,109;  205,219;    0,004;    3,773
240,707;  166,584;   -0,996;    1,227
241,305;   59,572;    0,550;    0,136
241,904;  141,118;   -0,178;   -2,045
242,502;  239,774;   -0,632;   -0,227
243,100;  163,479;   -0,087;   -0,955
243,698;  107,358;    0,732;    1,682
244,297;  144,161;   -0,632;    0,682
244,895;  148,235;   -0,269;   -2,318
245,493;  316,179;    2,186;   -0,591
246,091;  336,756;    1,368;   -1,318
246,689;  276,567;    1,004;    0,591
247,287;  257,801;    0,822;   -1,136
247,885;  237,571;   -1,451;    1,227
248,483;  210,671;    1,822;   -0,500
249,081;  319,485;    0,185;    1,591
249,679;  369,672;   -0,178;    1,682
250,277;  247,797;   -1,723;    0,864
250,875;  408,122;   -1,087;   -1,045
251,473;  298,743;   -1,178;    0,500
252,071;  426,216;    1,459;    1,045
252,669;  363,810;   -1,814;    0,318
253,267;  313,402;   -0,087;    0,773
253,864;  373,892;   -0,360;    0,682
254,462;  562,369;    1,640;    1,591
255,060;  336,063;   -0,269;    1,318
255,658;  337,991;    0,822;   -0,136
256,255;  455,521;    0,186;   -2,045
256,853;  504,662;   -0,269;    1,409
257,451;  493,893;    0,822;    1,864
258,048;  982,495;    1,822;    1,864
258,646;  645,545;    1,731;   -1,045
259,243;  790,571;   -0,087;    2,227
259,841;  661,329;   -0,814;    0,318
260,438;  495,182;   -0,087;    0,864
261,036;  657,655;   -1,905;    1,409
261,633;  557,187;   -0,087;    2,227
262,231;  519,640;    2,731;   -0,045
262,828;  538,972;   -0,905;    1,136
263,425;  630,209;    0,913;   -0,591
264,023;  660,336;    0,186;    0,045
264,620;  845,804;   -0,360;   -0,318
265,217; 1001,998;   -2,087;    3,136
265,815;  688,471;   -1,905;    2,136
266,412;  853,739;    0,731;    0,136
267,009;  918,613;   -1,451;    0,773
267,606; 1043,999;    0,822;   -0,955
268,203;  801,533;   -0,269;   -0,591
268,801;  883,835;    1,731;    0,591
269,398;  802,897;   -0,360;    2,500
269,995;  979,608;    0,277;    1,591
270,592;  873,642;   -0,632;   -0,500
271,189;  808,839;    0,186;    0,409
271,786;  793,430;   -0,632;    1,227
272,383; 1108,032;   -1,087;    0,227
272,980;  916,230;    0,277;    0,318
273,577;  876,288;    0,004;    1,227
274,174;  795,257;    0,822;    2,591
274,771;  948,719;   -0,814;   -0,773
275,367; 1423,372;    2,277;    1,409
275,964; 1219,791;    0,731;   -0,500
276,561;  986,012;    1,549;   -1,045
277,158;  895,127;    0,095;   -1,773
277,755; 1184,121;    2,185;    0,409
278,351;  980,356;   -0,451;   -1,500
278,948; 1080,536;   -0,815;    0,045
279,545;  971,125;   -1,360;    2,318
280,141; 1311,684;   -1,723;   -2,045
280,738; 1167,705;   -0,451;   -0,136
281,334;  965,897;   -1,633;    0,591
281,931;  973,904;   -0,087;   -1,318
282,528; 1092,721;    0,822;   -0,500
283,124; 1259,369;   -1,087;   -0,500
283,721; 1236,423;   -0,451;    1,409
284,317; 1051,340;    0,185;    2,500
284,913; 1351,767;   -1,360;    0,591
285,510; 1710,949;    0,640;   -0,318
286,106; 1499,738;   -2,269;   -0,955
286,703; 1144,393;   -0,360;    1,955
287,299; 1121,602;   -1,451;   -0,591
287,895; 1180,745;    0,822;   -1,045
288,491; 1290,988;    0,186;    2,136
289,088; 1430,470;   -2,360;    2,409
289,684; 1490,264;   -1,723;    1,500
290,280; 1693,846;    0,368;    0,682
290,876; 1738,128;    1,822;    5,500
291,472; 1644,341;    1,276;    2,227
292,068; 1732,934;    1,367;    0,227
292,665; 1583,602;    2,095;    0,773
293,261; 1527,307;    0,276;    2,136
293,857; 1785,559;    2,913;    2,136
294,453; 1782,408;    3,550;    0,955
295,049; 2027,922;   -0,268;    1,955
295,644; 1956,986;    0,095;    0,136
296,240; 1926,112;   -0,905;   -0,136
296,836; 2167,874;   -0,995;    0,318
297,432; 2413,876;    1,096;   -0,500
298,028; 2567,214;    0,732;    0,773
298,624; 2602,348;    1,459;    1,864
299,220; 2716,619;    2,368;    0,591
299,815; 2669,492;    1,005;   -0,409
300,411; 2786,649;    0,914;    1,773
301,007; 2912,012;    1,368;    0,227
301,602; 2848,400;   -0,541;   -2,318
302,198; 3065,217;    0,732;   -0,773
302,794; 3184,657;    1,187;   -0,500
303,389; 3298,586;   -1,177;    1,045
303,985; 3412,119;    0,550;    1,409
304,580; 3459,287;    1,459;    1,591
305,176; 3414,071;   -3,086;    0,136
305,771; 3359,073;   -1,268;   -1,227
306,367; 3627,178;    4,095;    0,136
306,962; 3616,764;    0,641;    1,500
307,558; 3414,426;   -0,450;    0,136
308,153; 3431,441;    1,095;   -1,136
308,748; 3448,005;   -0,814;    1,682
309,344; 3640,302;   -0,632;   -1,318
309,939; 3757,910;   -1,905;   -1,318
310,534; 3652,788;   -0,086;   -1,682
311,130; 3485,804;    0,459;   -2,500
311,725; 3277,221;    1,004;   -0,500
312,320; 3442,654;    2,459;    0,045
312,915; 3493,977;    1,459;   -1,045
313,510; 3584,624;    1,550;   -0,500
314,105; 3590,039;    1,096;    1,409
314,700; 3126,456;   -3,086;   -1,045
315,295; 3020,469;   -0,904;    0,045
315,890; 2771,296;    1,277;    0,864
316,485; 2879,144;   -0,359;   -0,318
317,080; 2859,141;   -3,086;    1,591
317,675; 3149,388;    2,005;   -0,682
318,270; 3076,433;    5,550;    3,318
318,865; 2978,881;    3,278;    3,045
319,460; 2732,640;   -0,904;    0,591
320,055; 2725,151;   -0,541;   -1,227
320,650; 2546,176;   -1,995;   -0,591
321,244; 2539,458;   -0,177;   -1,409
321,839; 2888,658;   -1,541;   -0,227
322,434; 2835,654;   -1,086;   -1,591
323,029; 2664,317;    1,732;    1,591
323,623; 2560,368;    1,550;    0,773
324,218; 2596,816;    2,368;    1,409
324,812; 2531,755;    1,096;    1,591
325,407; 2492,640;   -0,814;    2,045
326,002; 2543,985;    0,277;   -0,409
326,596; 2638,436;    0,914;    1,318
327,191; 2644,133;    0,823;   -1,045
327,785; 2512,436;   -0,813;   -0,227
328,379; 2751,075;    1,368;    0,136
328,974; 2622,471;    0,914;   -3,955
329,568; 2868,703;    0,186;   -2,409
330,163; 2922,545;    2,096;    1,045
330,757; 3033,313;    2,459;    1,591
331,351; 2854,908;    0,459;    0,682
331,945; 3052,559;    0,914;    1,409
332,540; 3090,551;   -1,723;   -0,591
333,134; 3199,567;   -1,086;    0,773
333,728; 3332,610;    0,005;    0,318
334,322; 3556,275;   -1,177;   -0,864
334,916; 3294,063;    0,277;    0,955
335,510; 3653,927;   -0,450;   -0,136
336,105; 3912,860;   -1,086;    1,591
336,699; 3798,117;   -1,086;    0,591
337,293; 3901,835;   -1,723;    0,318
337,887; 4033,413;   -2,723;    1,955
338,481; 4299,304;    0,459;    0,591
339,074; 4624,783;   -0,359;    2,682
339,668; 4655,081;   -1,632;    1,227
340,262; 5162,788;    1,732;    3,227
340,856; 4815,916;    1,822;   -0,682
341,450; 4478,398;    1,004;    1,864
342,044; 5159,017;    1,459;    0,136
342,637; 5185,855;    0,913;   -2,136
343,231; 5228,776;   -2,360;    0,682
343,825; 5242,565;   -1,086;   -0,591
344,419; 5416,691;   -1,995;    0,500
345,012; 5609,208;    2,459;    4,045
345,606; 5651,772;    4,641;    1,591
346,199; 5587,990;   -1,813;   -0,227
346,793; 5428,833;    1,914;    2,045
347,386; 5644,352;   -0,813;   -1,136
347,980; 5666,875;   -0,268;   -0,045
348,573; 5679,463;    2,278;    0,409
349,167; 5615,127;    5,278;    4,773
349,760; 6002,173;    2,914;    2,682
350,354; 5950,072;   -0,813;    1,136
350,947; 5856,700;    1,096;    1,682
351,540; 5644,355;   -0,358;   -1,409
352,134; 5638,024;    1,096;    1,136
352,727; 5767,933;   -0,086;    1,136
353,320; 5639,181;    0,005;    0,591
353,913; 5508,436;   -1,995;    1,864
354,507; 5734,560;    0,823;   -1,227
355,100; 5748,338;    0,460;    0,864
355,693; 5319,453;    2,005;    2,409
356,286; 5308,017;    0,823;    2,773
356,879; 5552,823;   -0,722;    1,227
357,472; 5231,421;   -0,904;    1,500
358,065; 5418,645;   -0,722;    2,500
358,658; 5346,635;   -0,540;    2,318
359,251; 5078,830;   -1,631;   -0,591
359,844; 4751,170;   -1,904;   -1,136
360,437; 4937,683;   -2,995;    0,045
361,030; 5107,888;    1,369;   -0,682
361,623; 4762,739;    2,824;    0,318
362,215; 4810,748;   -0,086;    2,045
362,808; 4657,788;   -2,358;   -1,682
363,401; 4783,471;   -2,449;    0,136
363,994; 4672,196;   -0,631;   -1,500
364,586; 4552,943;    0,824;   -1,500
365,179; 4641,127;   -0,449;   -1,136
365,772; 4213,279;   -1,995;    2,045
366,364; 4401,409;    1,915;   -3,227
366,957; 4606,009;    2,279;   -0,045
367,549; 4523,233;    2,188;   -0,864
368,142; 4289,429;    1,825;   -1,500
368,734; 4424,307;    0,734;   -2,136
369,327; 4352,816;    1,643;   -0,500
369,919; 4283,289;   -1,538;    0,409
370,512; 4176,635;   -1,083;   -0,500
371,104; 4055,025;   -0,901;    1,591
371,696; 4166,917;    1,191;   -0,955
372,289; 4146,189;    0,373;    1,136
372,881; 4211,851;   -2,080;    1,318
373,473; 4101,135;   -2,170;    1,136
374,066; 4013,057;   -0,169;    0,500
374,658; 3946,797;    0,378;    1,136
375,250; 4107,157;    0,653;   -1,409
375,842; 4003,140;    0,473;   -0,045
376,434; 3905,531;   -0,435;   -0,409
377,026; 4254,926;    0,204;   -2,500
377,618; 4167,335;   -0,158;   -0,682
378,210; 4062,940;   -0,338;   -1,955
378,802; 3890,566;    0,754;   -0,591
379,394; 4006,355;    1,846;    0,682
379,986; 4305,300;    1,393;   -0,955
380,578; 4315,170;   -0,153;    0,773
381,170; 3966,945;   -0,972;    0,045
381,762; 3887,267;    0,755;    1,409
382,354; 3957,217;   -0,065;   -1,318
382,945; 4002,584;   -2,976;    0,318
383,537; 4124,962;   -2,705;   -1,955
384,129; 4160,141;   -2,160;   -1,136
384,721; 4263,583;   -0,252;    0,955
385,312; 4144,696;   -0,161;   -0,955
385,904; 4294,280;   -2,706;    1,591
386,496; 3825,597;   -0,979;    1,045
387,087; 3966,187;    1,022;    2,500
387,679; 3940,628;   -1,160;    0,045
388,270; 4058,201;    2,840;    2,045
388,862; 4134,886;    1,295;   -0,318
389,453; 3959,728;   -0,887;    1,045
390,045; 4180,514;   -0,705;   -2,682
390,636; 4118,573;    0,204;   -0,591
391,227; 4011,983;   -0,523;   -0,045
391,819; 4119,370;    0,204;    0,773
392,410; 4197,771;    1,022;    0,045
393,001; 4132,099;   -0,979;   -1,591
393,593; 4290,323;    1,930;   -0,045
394,184; 4215,204;    1,385;   -0,409
394,775; 4069,606;    1,839;    2,136
395,366; 4266,423;    1,385;    0,773
395,957; 4234,908;    0,113;    0,136
396,548; 4424,447;   -0,342;    2,682
397,139; 4652,996;   -2,433;    0,591
397,730; 4444,377;   -1,888;    0,955
398,321; 4477,993;   -1,252;    0,955
398,912; 4443,988;   -0,615;    0,136
399,503; 4551,007;   -3,524;   -1,409
400,094; 4187,147;    0,294;    1,682
400,685; 4055,635;   -0,433;    0,045
401,276; 4048,308;    0,930;   -0,955
401,867; 4246,163;   -0,888;    0,773
402,458; 4290,080;   -2,251;   -2,318
403,048; 4302,938;    1,112;    0,591
403,639; 3973,184;    0,840;    0,864
404,230; 4285,711;    2,476;    0,318
404,821; 4222,280;   -0,615;    0,045
405,411; 4241,888;    1,203;   -2,591
406,002; 3914,347;   -1,252;   -1,136
406,592; 3943,242;    2,294;    0,045
407,183; 3994,588;    0,566;   -1,500
407,774; 3859,013;    3,475;   -0,136
408,364; 4011,647;    0,930;    0,409
408,954; 3811,962;    0,384;    1,227
409,545; 3788,669;    1,021;    1,045
410,135; 3392,948;    1,293;    0,500
410,726; 3456,589;    1,838;    0,318
411,316; 3698,587;    0,111;    0,773
411,906; 3399,586;   -0,253;   -0,409
412,497; 3087,642;   -1,070;   -0,045
413,087; 3337,539;   -1,980;   -0,227
413,677; 3467,894;   -0,707;    3,864
414,267; 3333,380;    0,656;    1,409
414,857; 3211,693;   -2,980;    4,227
415,448; 3304,787;    0,839;    0,500
416,038; 3101,126;    0,020;   -0,591
416,628; 3013,329;   -0,889;    0,409
417,218; 2825,754;    0,565;    3,318
417,808; 2900,703;    0,202;   -0,409
418,398; 2907,197;    0,020;    2,682
418,988; 2762,925;    2,020;    0,591
419,578; 2778,084;   -0,707;    1,409
420,168; 2913,145;   -1,343;   -0,955
420,757; 2742,820;   -1,343;   -1,500
421,347; 2416,710;    0,111;   -0,227
421,937; 2391,449;    2,292;    1,409
422,527; 2422,173;    0,838;   -0,773
423,116; 2378,587;   -0,253;   -0,045
423,706; 2248,914;   -1,889;    0,318
424,296; 2051,901;    1,384;    0,682
424,885; 2305,628;   -0,071;   -3,045
425,475; 2276,638;    1,474;   -2,864
426,065; 2068,839;   -0,980;   -0,318
426,654; 1913,634;   -0,435;   -0,318
427,244; 2163,697;    0,020;    1,409
427,833; 1944,741;    1,383;   -0,500
428,423; 1826,527;   -0,526;    1,136
429,012; 1973,982;   -0,344;   -1,136
429,601; 1887,563;   -1,344;    0,136
430,191; 1728,330;    1,292;    4,318
430,780; 1456,690;   -0,344;   -0,409
431,369; 1728,297;    0,746;   -0,045
431,959; 1722,272;   -1,254;    0,500
432,548; 1497,325;   -1,163;   -0,045
433,137; 1359,314;   -1,254;   -1,318
433,726; 1538,072;    0,292;    0,500
434,315; 1365,736;   -0,526;    2,409
434,905; 1463,947;   -1,254;    1,409
435,494; 1498,754;    0,746;    0,955
436,083; 1294,801;   -0,981;   -0,955
436,672; 1264,972;    0,110;    0,500
437,261; 1169,724;    0,292;   -1,955
437,850; 1533,079;    1,383;    0,682
438,439; 1523,386;    3,291;    1,955
439,027; 1588,348;    3,655;    1,773
439,616; 1508,970;    2,927;    1,227
440,205; 1128,901;    0,200;   -2,136
440,794;  968,458;    2,109;   -0,045
441,383;  829,412;   -1,346;   -0,591
441,971;  685,112;   -2,436;    0,591
442,560;  680,215;    0,563;   -1,773
443,149;  541,597;    0,379;   -1,318
443,737;  603,304;   -0,074;   -2,318
444,326;  589,962;    0,018;    0,318
444,915;  644,234;   -1,982;    0,864
445,503;  630,615;   -2,891;   -0,318
446,092;  954,123;    0,382;    2,136
446,680;  861,678;    0,382;    0,318
447,269;  726,706;   -0,346;   -0,318
447,857;  651,841;    0,018;   -1,773
448,445;  540,375;    0,563;    1,318
449,034;  452,003;   -1,528;   -1,136
449,622;  420,828;   -1,073;    3,500
450,210;  857,845;    2,017;    2,227
450,799;  718,528;    0,290;   -0,591
451,387;  592,614;    1,381;   -0,591
451,975;  554,177;    2,654;    0,864
452,563;  677,387;    3,472;    2,318
453,151;  365,491;   -0,528;   -1,227
453,739;  442,734;   -1,347;    0,136
454,328;  606,887;    2,381;   -2,136
454,916;  480,572;    2,562;   -0,136
455,504;  476,322;    1,017;    1,227
456,092;  303,085;    0,017;   -1,591
456,679;  220,619;    1,472;    0,682
457,267;  786,298;    4,017;    1,045
457,855;  334,801;    1,017;    1,409
458,443;  130,235;   -0,165;    1,682
459,031;  383,952;    0,108;    2,409
459,619;  312,014;   -1,801;    2,864
460,206;  146,653;    0,835;    2,045
460,794;  154,870;   -2,983;   -0,227
461,382;  221,195;   -0,529;   -0,864
461,970;  201,585;    1,198;    1,864
462,557;   91,877;   -0,711;   -0,682
463,145;  271,134;   -3,165;   -1,682
463,732;  569,713;    2,016;   -1,045
464,320;  265,543;   -0,075;   -3,045
464,907;  459,723;    2,743;   -0,773
465,495;  344,194;    0,743;   -1,227
466,082;  223,192;   -1,984;   -0,045
466,670;  236,309;   -2,529;    1,227
467,257;   93,922;   -1,711;    2,045
467,844;  230,379;   -0,075;    0,045
468,432;  197,256;    0,834;    3,500
469,019;  136,776;    0,925;   -1,773
469,606;  236,726;    0,470;    3,682
470,193;  273,572;   -1,439;    0,227
470,780;  210,890;   -2,075;    0,864
471,368;  115,953;   -1,257;   -0,773
471,955;  256,256;    1,379;   -0,682
472,542;  193,190;    0,652;   -1,136
473,129;   38,627;   -0,166;    0,136
473,716;   49,911;    1,470;    0,591
474,303;   87,107;    0,652;   -0,864
474,890;   95,182;   -1,439;   -0,500
475,477;  208,873;   -1,621;    0,409
476,064;   87,068;    1,106;   -1,591
476,650;  212,985;    0,288;    0,318
477,237;  116,075;   -0,258;    0,955
477,824;   88,694;   -1,076;    0,864
478,411;  -17,606;   -1,894;   -0,318
478,997;  -20,451;    0,560;   -0,773
479,584;  -84,100;    1,196;   -0,409
480,171;  118,274;   -0,440;   -0,773
480,757;  190,215;    2,651;    0,773
481,344;   54,891;    0,469;    0,409
481,931;  -48,416;    1,105;    1,045
482,517;   94,447;   -1,258;    0,318
483,104;  181,958;    1,106;    2,864
483,690;   30,524;   -1,804;    0,045
484,276;    6,613;   -0,895;    0,227
484,863;  246,798;    2,469;    1,136
485,449;   76,280;   -0,077;    0,318
486,035;   25,157;   -1,986;   -0,136
486,622;  120,198;   -0,895;    0,045
487,208;   31,350;    1,378;    1,500
487,794;  -53,308;    0,741;    0,318
488,380;  -47,618;    0,105;   -1,409
488,967;  -46,810;   -1,168;   -0,409
489,553;  -28,430;   -1,895;   -1,409
490,139;   57,823;    1,559;    0,773
490,725;  -22,870;    0,741;   -0,227
491,311;   29,063;    3,287;    3,045
491,897;    0,720;   -0,986;    1,500
492,483;   18,352;    0,105;    1,227
493,069;  485,442;    3,923;    0,864
493,655;  181,874;    1,650;    0,682
494,241;   40,808;    1,377;   -0,955
494,826;   61,745;    0,287;   -1,045
495,412;  143,050;    2,559;   -0,682
495,998;   33,484;   -0,805;   -0,318
496,584;  107,338;    0,377;    1,045
497,169;  128,834;    1,014;   -0,682
497,755;   58,861;    0,650;    1,227
498,341;  226,100;    0,559;    0,318
498,926;  361,175;    1,832;    1,955
499,512;   67,738;    1,286;    2,955
500,097;   83,601;    0,195;   -0,318
500,683;  123,338;   -0,350;    2,136
501,268;   53,475;   -0,169;   -0,955
501,854;  100,523;   -0,169;    1,227
502,439;   83,348;   -0,624;   -1,773
503,024;  173,908;    0,195;    0,500
503,610;  246,284;   -0,078;   -0,682
504,195;  151,845;    0,558;    1,955
504,780;  322,775;    2,922;    1,227
505,366;  496,825;    3,013;    2,864
505,951;  429,847;    0,740;    1,045
506,536;  351,657;   -3,260;   -3,682
507,121;  493,609;    0,285;   -0,318
507,706;  465,266;    2,376;    1,045
508,291;  445,944;    2,649;    1,136
508,876;  546,892;   -0,988;    2,591
509,461;  736,115;   -0,169;   -0,773
510,046;  916,938;    0,194;    0,318
510,631; 1005,733;   -0,351;   -0,773
511,216; 1039,340;    2,467;   -0,500
511,801; 1360,190;   -0,442;    2,591
512,386; 1564,391;    0,740;    0,500
512,971; 1818,943;   -2,988;    0,955
513,555; 2059,055;   -0,897;   -1,500
514,140; 2482,226;   -0,442;   -3,136
514,725; 2787,863;   -0,715;   -1,136
515,309; 3123,550;   -0,533;    0,318
515,894; 3315,056;   -0,624;   -2,227
516,479; 3893,850;   -0,624;   -0,955
517,063; 4128,699;    0,376;    1,227
517,648; 4674,362;    1,012;   -1,136
518,232; 4802,815;   -0,261;   -1,409
518,817; 5553,159;   -0,079;    1,682
519,401; 6203,178;    2,194;    0,591
519,985; 6210,851;    1,103;    1,136
520,570; 6566,277;    0,830;   -1,955
521,154; 7265,521;    2,102;    0,591
521,738; 7812,436;   -2,352;    2,409
522,323; 8699,389;   -0,170;    1,682
522,907; 8856,383;    0,466;   -0,136
523,491; 9032,949;    0,557;    0,955
524,075; 9407,475;    2,284;    0,591
524,659; 9872,030;    1,466;    0,591
525,243; 9742,089;    1,739;    0,409
525,827;10261,359;    0,648;   -0,045
526,411;11308,575;   -1,989;   -0,136
526,995;11756,610;   -0,352;    1,409
527,579;11652,950;   -0,443;   -1,045
528,163;12204,726;    0,375;   -1,500
528,747;12352,693;    2,466;   -0,773
529,331;12814,601;   -0,080;   -1,409
529,915;13214,863;    1,738;    0,955
530,499;13323,830;   -0,807;    1,227
531,082;13236,573;   -0,534;    1,591
531,666;12856,024;    1,374;    0,773
532,250;13657,128;    1,284;    2,682
532,833;14115,049;    0,920;    2,773
533,417;14085,277;   -1,807;    0,864
534,001;14132,528;    1,647;   -0,318
534,584;14923,702;    0,374;    0,500
535,168;14835,143;    0,465;    1,409
535,751;14966,700;    0,647;    0,045
536,334;14499,397;   -0,898;   -0,409
536,918;15169,409;    0,011;    1,591
537,501;15361,503;   -0,899;    1,318
538,085;15391,823;   -0,444;    1,045
538,668;15569,804;    0,829;    2,409
539,251;15997,148;    1,829;    3,773
539,834;16047,758;    0,101;    0,773
540,418;16019,070;   -1,990;    4,318
541,001;16166,801;   -0,990;    1,773
541,584;16202,994;    2,101;    2,227
542,167;15942,493;    1,374;    2,955
542,750;16100,767;    1,919;   -0,773
543,333;15732,684;    0,555;    2,136
543,916;16544,478;    0,192;    2,500
544,499;17225,967;   -1,354;    0,227
545,082;17199,136;    1,374;    3,591
545,665;17345,115;    1,919;    1,500
546,248;17780,684;    1,010;   -0,318
546,830;17443,072;   -0,445;    1,955
547,413;17849,103;    1,010;   -0,773
547,996;18418,249;    0,555;    0,500
548,579;18167,604;    0,919;    0,955
549,161;17970,773;    1,828;    2,682
549,744;17785,128;   -0,809;    0,409
550,326;18327,050;   -0,809;   -1,136
550,909;18135,021;    2,737;    0,591
551,492;18507,192;   -0,263;    0,227
552,074;18311,743;   -0,173;   -1,318
552,657;18870,627;    2,373;    0,045
553,239;18627,115;   -0,173;   -0,773
553,821;18560,708;   -1,082;    1,045
554,404;18101,042;    1,282;    1,136
554,986;18490,213;    0,464;    1,045
555,568;19123,156;    1,191;   -0,955
556,151;18305,046;    1,191;   -0,227
556,733;18503,816;   -0,264;   -0,864
557,315;18992,395;    0,100;    0,500
557,897;18792,245;    0,554;   -0,500
558,479;18931,200;   -1,991;    1,318
559,061;19106,947;   -0,719;   -0,864
559,643;19411,729;   -0,264;    0,045
560,225;19781,053;    1,645;    2,864
560,807;19797,366;    0,918;    0,318
561,389;19301,919;    0,554;    2,318
561,971;20117,992;    0,463;    2,136
562,553;19872,259;   -1,628;    1,591
563,135;20029,907;   -0,537;    1,136
563,717;19650,141;    3,372;    1,136
564,298;20385,604;    3,645;   -0,045
564,880;20135,770;    0,645;   -1,409
565,462;20290,224;    0,645;    1,318
566,043;21467,126;   -0,446;    2,318
566,625;20988,392;    1,918;    1,227
567,207;20895,331;    1,099;    1,682
567,788;22038,547;   -1,264;    1,500
568,370;22873,773;    1,917;   -0,500
568,951;22734,561;    0,190;    0,227
569,533;23630,776;   -0,628;   -0,500
570,114;24108,492;   -0,446;    0,682
570,695;24617,936;   -0,174;   -1,318
571,277;25162,289;   -0,265;   -1,682
571,858;25954,345;    2,008;   -1,136
572,439;26897,862;    1,554;   -1,045
573,021;27055,887;    2,099;   -2,773
573,602;27588,254;   -1,265;    0,318
574,183;28574,036;   -2,083;    2,227
574,764;28689,074;   -1,629;    0,409
575,345;29274,057;    0,917;   -0,136
575,926;29893,617;   -0,356;    0,136
576,507;29855,793;    1,099;   -0,227
577,088;31044,033;    3,099;    1,682
577,669;31119,037;    0,735;    1,955
578,250;31925,763;    0,644;   -1,045
578,831;32564,868;   -1,356;   -2,227
579,412;32821,927;   -0,810;    0,955
579,993;33731,278;    1,008;    0,227
580,573;34050,136;   -0,629;   -0,955
581,154;33030,258;    0,735;   -0,591
581,735;33886,362;    0,644;    0,773
582,315;33459,271;   -0,629;    2,136
582,896;33759,347;   -0,174;    1,227
583,477;33111,872;    0,189;    1,227
584,057;33321,791;    0,553;    0,955
584,638;33730,097;    2,553;    2,318
585,218;33654,414;   -0,538;    2,682
585,799;33858,393;    0,281;   -0,227
586,379;33777,760;    0,372;    1,591
586,959;32494,010;    0,735;    0,318
587,540;31742,205;   -0,629;    2,227
588,120;31255,971;    1,007;   -0,045
588,700;30236,122;    2,553;    2,136
589,281;30580,344;    0,462;   -0,955
589,861;30536,053;    0,099;   -1,682
590,441;30347,448;    2,371;   -2,682
591,021;29306,363;   -0,265;   -2,591
591,601;29475,109;   -0,537;    0,500
592,181;29480,388;   -0,719;   -0,773
592,761;28737,805;    0,007;    1,409
593,341;28666,426;   -0,901;    0,045
593,921;28667,819;   -0,265;    1,591
594,501;28542,043;   -0,538;    1,318
595,081;28359,656;    0,917;   -0,318
595,661;28780,879;   -1,447;    0,955
596,240;29310,778;   -0,537;    0,136
596,820;28992,410;    0,372;    1,955
597,400;29159,437;    2,008;    0,773
597,980;29357,212;    2,008;    1,045
598,559;29355,689;    2,735;   -0,227
599,139;29091,457;   -0,174;   -1,227
599,718;28961,184;   -0,174;   -0,409
600,298;29221,177;    0,735;    0,682
600,877;29480,868;    2,917;    1,409
601,457;29769,409;    2,281;    1,136
602,036;29649,557;    0,190;    2,045
602,616;29907,932;    0,644;    1,682
603,195;30213,494;   -0,355;    3,500
603,774;29790,047;   -0,901;    2,045
604,354;29685,573;    0,826;   -0,500
604,933;29134,998;    0,463;    1,864
605,512;29225,924;    3,554;    0,591
606,091;29319,959;   -0,537;    3,773
606,671;30117,202;    0,281;    0,773
607,250;29171,942;    1,644;    3,136
607,829;29447,606;    2,372;    3,227
608,408;29300,095;    1,190;    2,591
608,987;28260,978;    1,281;    3,409
609,566;28563,340;   -1,265;   -2,500
610,145;28691,972;   -1,082;    0,682
610,723;29137,759;    4,372;    6,864
611,302;28389,736;   -0,446;    1,682
611,881;27844,517;    5,008;   11,227
612,460;28678,868;    1,645;    3,955
613,039;29128,584;   -0,082;    2,045
613,617;27854,665;    1,736;    4,773
614,196;28055,264;    1,099;    1,227
614,775;28358,265;    1,009;    2,409
615,353;28258,886;    0,736;    0,864
615,932;28038,056;    0,100;    2,409
616,510;28666,168;    0,554;    0,591
617,089;28134,043;    7,100;   17,591
617,667;27831,244;    2,372;    6,136
618,246;27751,651;   -1,537;    1,318
618,824;27914,736;   -3,355;   -0,955
619,402;27446,288;   -2,900;   -1,773
619,981;27956,928;   -0,173;   -1,045
620,559;27785,471;    0,009;    1,682
621,137;27239,752;   -0,718;    1,864
621,715;27286,993;   -1,173;   -0,682
622,293;27217,167;   -0,537;   -0,773
622,871;27641,031;   -0,718;    0,500
623,450;27240,422;    0,373;   -0,864
624,028;27120,861;    0,191;   -0,955
624,606;26747,365;   -1,718;    1,682
625,183;27167,875;   -1,536;   -1,136
625,761;26806,050;    1,009;    1,136
626,339;27101,002;    1,373;    2,591
626,917;27473,636;   -0,172;   -0,045
627,495;27521,143;   -0,354;    1,318
628,073;26934,802;   -0,263;    2,864
628,650;26608,658;    0,100;    2,136
629,228;27024,701;    0,373;    4,409
629,806;26493,035;    2,282;    1,136
630,383;26708,434;    1,464;   -0,318
630,961;26510,159;    2,555;   -0,955
631,539;26271,479;    2,464;    0,227
632,116;25632,886;   11,373;   15,409
632,694;26162,447;    2,555;    6,500
633,271;26472,083;    0,828;    2,682
633,848;26373,995;    1,828;    2,045
634,426;26409,438;   -1,081;    1,773
635,003;25551,891;    1,101;   -0,409
635,580;25846,227;    1,192;    3,682
636,158;26394,474;    3,737;    1,227
636,735;26383,570;    0,555;   -0,500
637,312;26574,542;   -0,809;   -0,682
637,889;26618,917;   -4,354;   -0,682
638,466;26083,369;   -3,990;   -0,409
639,043;26086,661;    2,101;   -1,136
639,620;26419,622;   -2,262;   -0,955
640,197;26767,330;    1,100;    1,682
640,774;26896,120;   -0,172;    1,136
641,351;27272,000;    0,737;    1,136
641,928;26676,244;   -0,627;    1,409
642,505;26402,851;    0,828;   -0,500
643,082;26443,550;   -1,718;    1,227
643,658;25427,430;   -0,718;    1,500
644,235;26196,401;    1,191;    2,500
644,812;26559,554;    1,918;    0,773
645,388;26298,798;   -0,991;    1,409
645,965;26373,405;   -0,809;    1,682
646,542;26475,467;   -1,445;   -0,227
647,118;26435,711;    1,009;   -0,955
647,695;26721,682;   -0,263;    1,136
648,271;26663,108;   -0,536;    0,500
648,848;26944,988;    0,736;    2,227
649,424;26767,595;    0,827;    1,318
650,000;26612,385;   -0,354;   -1,045
650,577;26351,174;   -0,627;   -0,955
651,153;26857,600;   -1,809;    0,955
651,729;27877,571;    1,191;    0,864
652,305;28325,905;    0,645;    2,773
652,881;33334,240;   -0,082;    1,136
653,458;40420,848;    1,100;    0,227
654,034;44107,728;    0,282;    1,591
654,610;45504,062;    0,554;    0,773
655,186;46775,397;    0,645;    3,045
655,762;46456,187;   -0,991;    0,409
656,338;46506,158;    0,100;    0,136
656,913;47449,583;   -0,082;    0,409
657,489;46724,645;    0,827;   -0,318
658,065;46688,162;   -0,173;   -1,591
658,641;47381,860;   -0,900;   -0,864
659,217;46722,286;   -0,991;    0,409
659,792;46056,711;    0,645;   -0,409
660,368;46312,864;   -2,173;   -0,682
660,944;45802,472;   -2,082;    1,227
661,519;40556,988;   -0,628;    0,409
662,095;34300,050;   -1,719;    0,591
662,670;29773,203;    1,281;   -0,136
663,246;28762,447;    1,009;   -0,409
663,821;28164,055;    0,281;    1,682
664,396;27623,389;    0,009;    1,864
664,972;27908,815;    0,009;   -0,500
665,547;28228,422;    1,372;    0,136
666,122;28296,485;   -1,082;    0,318
666,698;28530,637;   -0,173;    0,318
667,273;27887,063;   -0,173;    0,136
667,848;28677,943;    2,372;    1,500
668,423;28529,642;    2,190;    2,318
668,998;29076,885;    2,827;   -0,682
669,573;29639,038;   -3,264;   -1,500
670,148;29441,737;   -1,446;   -0,682
670,723;29281,799;   -1,810;    0,318
671,298;29674,043;    2,372;    1,045
671,873;29846,105;   -0,082;   -0,136
672,448;29820,076;    0,645;    0,136
673,023;30146,229;   -1,992;   -0,227
673,597;30446,472;    0,827;    2,318
674,172;30183,625;   -0,355;    0,318
674,747;29690,869;    0,372;   -1,045
675,321;29503,113;   -0,628;    3,318
675,896;29059,630;    0,645;    1,045
676,471;30119,510;    2,645;    1,591
677,045;29858,117;   -1,264;    0,682
677,620;29980,088;    0,190;    1,136
678,194;30254,150;   -2,628;    1,136
678,769;29769,576;   -1,083;   -0,318
679,343;30084,002;   -0,628;    1,773
679,917;29943,336;   -1,446;    1,955
680,492;30023,671;    0,826;    3,227
681,066;30145,460;    3,372;    0,409
681,640;30157,250;    1,463;   -0,318
682,214;31021,221;    0,735;    0,500
682,788;30566,192;   -1,356;   -0,773
683,363;30501,254;   -1,810;    1,682
683,937;30217,861;   -1,719;   -0,318
684,511;30967,014;    0,463;   -0,591
685,085;30666,804;   -1,356;    0,318
685,659;30434,684;   -2,538;    0,864
686,232;30711,200;   -0,356;   -0,318
686,806;30420,535;   -0,901;    0,409
687,380;31083,415;   -0,174;    0,591
687,954;31271,386;   -1,174;    1,136
688,528;30962,357;   -0,719;    1,955
689,101;31724,965;   -3,992;    1,045
689,675;31292,663;   -0,356;   -0,136
690,249;30708,271;   -0,719;    0,409
690,822;31006,424;    0,280;    0,318
691,396;31091,031;   -0,265;    1,227
691,969;30527,457;    1,280;    0,136
692,543;30983,428;   -0,447;   -1,955
693,116;30674,399;   -0,265;   -1,409
693,690;30509,461;    0,099;    0,500
694,263;31030,341;   -1,083;    2,955
694,836;31094,221;    1,371;    3,591
695,410;29768,829;   -0,265;    1,773
695,983;30231,618;    0,189;    0,591
696,556;30219,498;   -0,447;   -1,045
697,129;30616,742;   -0,356;    1,409
697,703;30237,895;   -1,629;    1,955
698,276;30150,684;    1,462;   -0,773
698,849;30000,837;    1,280;    1,409
699,422;30373,717;   -1,083;    0,591
699,995;30041,052;    0,007;    0,136
700,568;30552,478;   -0,629;    3,045
701,140;30566,085;   -2,811;    1,682
701,713;30269,056;   -0,174;    2,409
702,286;30079,573;   -0,538;    0,864
702,859;29942,180;   -0,902;   -0,591
703,432;29035,788;    0,825;    0,682
704,004;29542,850;    0,462;    0,318
704,577;29455,821;   -0,629;    0,136
705,150;30072,883;    0,189;    2,500
705,722;29816,763;   -0,356;   -3,227
706,295;29593,552;   -0,175;   -0,591
706,867;29494,705;   -0,175;    1,955
707,440;29741,676;   -1,720;   -0,409
708,012;30001,829;    0,462;    0,591
708,584;29866,073;    2,462;    0,227
709,157;30130,772;    1,825;   -0,591
709,729;29766,106;    2,280;    2,045
710,301;30616,441;    0,734;    0,045
710,874;30619,321;   -1,447;   -0,227
711,446;29461,929;    0,371;    0,864
712,018;29310,354;    0,098;    0,500
712,590;29095,325;   -1,993;    1,682
713,162;29658,024;    0,825;    1,318
713,734;29861,995;    1,825;   -2,045
714,306;29760,784;   -1,902;   -0,409
714,878;28468,028;    0,825;    0,864
715,450;29288,636;    0,643;    0,864
716,022;29522,698;    1,552;    1,318
716,593;29662,941;    0,189;    0,591
717,165;29660,731;   -3,175;   -1,227
717,737;29332,884;    0,280;    0,409
718,309;28972,400;    0,280;   -0,045
718,880;28951,008;   -0,539;   -1,409
719,452;29192,797;   -0,175;   -1,591
720,024;28771,586;    0,734;   -0,591
720,595;29338,466;   -2,902;    0,955
721,167;28853,165;    0,370;   -2,045
721,738;28383,318;   -0,812;   -1,045
722,309;28360,925;   -0,993;   -1,227
722,881;28135,078;   -1,357;    0,773
723,452;28767,504;   -2,630;    2,864
724,023;28957,293;   -0,721;    2,682
724,595;28719,810;    0,007;    0,682
725,166;28448,781;    0,007;   -0,409
725,737;28096,752;    1,734;    0,227
726,308;28130,905;   -0,266;    0,318
726,879;28629,421;   -1,630;    1,227
727,450;28520,029;    0,552;   -0,045
728,021;28452,818;    3,097;    0,682
728,592;28224,334;    0,734;    0,500
729,163;28590,669;    0,643;   -0,136
729,734;28575,186;    0,188;   -0,227
730,305;28943,339;    1,734;    0,136
730,876;29315,310;    0,188;    2,955
731,447;29026,190;    2,188;    2,682
732,017;29080,525;    1,097;    1,864
732,588;28589,041;    0,734;    1,227
733,159;28818,831;    0,643;   -1,045
733,729;28647,620;    0,006;    0,409
734,300;27887,773;    0,915;    0,864
734,870;28356,198;    3,461;    0,591
735,441;28896,170;    0,370;   -0,591
736,011;28626,595;    0,643;   -1,591
736,582;28627,930;   -0,812;    0,045
737,152;28080,719;   -1,721;   -2,045
737,722;28467,145;   -0,267;   -0,682
738,293;28215,752;   -1,358;    1,318
738,863;28084,451;    2,461;    2,318
739,433;27840,967;    5,279;    0,318
740,003;28488,302;   -0,994;   -0,682
740,573;27918,091;    2,097;   -1,591
741,143;27856,790;   -1,085;    0,318
741,713;28653,215;    1,188;   -0,500
742,283;28342,459;    0,915;    1,591
742,853;28057,521;    1,915;    1,591
743,423;27528,310;    1,733;    0,045
743,993;27677,918;   -0,358;    1,500
744,563;27094,253;    0,097;   -0,864
745,133;26981,133;   -0,812;   -0,864
745,702;27711,104;   -0,267;    1,773
746,272;26900,257;   -0,176;    0,591
746,842;26693,228;   -1,358;   -0,591
747,411;27103,472;   -0,267;   -0,318
747,981;27311,170;    0,097;    0,500
748,551;27327,414;    2,278;   -1,045
749,120;27192,476;    0,642;   -0,227
749,690;27507,356;   -0,631;    2,409
750,259;27874,418;    1,369;    2,955
750,828;27791,662;    1,551;   -1,955
751,398;28114,088;    1,278;   -0,045
751,967;27662,422;    2,187;    0,409
752,536;27834,666;   -0,813;   -0,227
753,105;28264,819;    0,096;    0,227
753,675;28082,427;    0,096;    1,773
754,244;27977,670;   -0,904;    3,591
754,813;27972,551;    0,551;    1,227
755,382;27582,158;    0,460;    0,955
755,951;28159,129;    1,551;    3,682
756,520;27668,828;   -0,085;    1,864
757,089;28220,708;    0,278;    0,500
757,658;28415,770;    1,733;    1,227
758,227;28338,468;    1,096;    0,318
758,795;28632,621;    1,187;    1,136
759,364;28893,865;   -0,086;   -0,591
759,933;27912,745;   -1,176;   -0,045
760,501;27412,807;    0,733;   -1,318
761,070;27905,505;   -2,813;   -1,409
761,639;28625,567;   -1,904;    1,318
762,207;27983,084;    1,551;   -0,955
762,776;27853,419;    0,369;    0,864
763,344;27807,208;   -0,995;    0,591
763,913;26880,270;   -0,722;    1,409
764,481;27650,332;    1,005;   -0,136
765,049;27423,121;   -1,358;    1,409
765,618;27294,547;   -0,086;    0,318
766,186;27337,518;    0,278;    0,136
766,754;27557,762;    0,005;    1,864
767,322;26567,733;   -1,995;    0,409
767,890;26621,250;   -0,722;   -1,773
768,459;27024,584;   -2,177;   -0,318
769,027;27238,555;    1,641;    3,409
769,595;26138,526;    3,278;    2,591
770,163;26581,952;    3,823;    2,955
770,730;26308,650;    0,732;   -0,136
771,298;26167,985;    0,187;   -1,409
771,866;26220,774;   -1,541;    4,955
772,434;26592,564;   -0,631;   -1,864
773,002;26746,808;    0,005;    0,682
773,569;26404,506;    0,914;    1,682
774,137;26178,841;   -0,268;   -0,045
774,705;26994,903;    0,278;   -0,136
775,272;26489,147;    0,641;    0,682
775,840;26196,845;   -0,177;    2,682
776,407;25766,543;    0,277;    1,955
776,975;25369,787;   -0,632;    0,318
777,542;26389,940;   -1,086;   -0,045
778,110;26223,002;   -1,268;   -0,045
778,677;25853,610;   -2,359;   -0,864
779,244;25569,217;    2,186;    1,045
779,812;25728,734;    1,823;    0,864
780,379;25579,977;    0,005;    1,136
780,946;25844,858;    1,005;   -0,773
781,513;26117,283;   -1,450;    0,318
782,080;25498,527;   -0,086;    2,864
782,647;26291,498;   -0,268;    3,045
783,214;25902,197;   -0,177;    3,864
783,781;25510,259;   -0,723;   -0,682
784,348;25362,866;   -0,632;    1,500
784,915;25823,201;   -3,177;    0,318
785,482;25549,808;    1,368;    2,591
786,049;25987,961;    0,186;   -0,591
786,615;26096,205;    0,277;   -0,955
787,182;25824,994;    0,186;   -0,682
787,749;25535,783;   -2,814;    1,409
788,315;24847,027;   -1,632;   -0,409
788,882;25119,089;    1,550;   -1,227
789,448;25863,788;    1,732;   -0,955
790,015;25882,395;    1,095;    3,227
790,581;25423,003;    1,459;    0,227
791,148;25349,337;    0,641;    1,045
791,714;25558,945;   -0,541;    3,136
792,280;25229,280;    0,186;    1,591
792,847;24752,069;    0,550;    2,500
793,413;25320,495;   -0,269;   -0,318
793,979;24871,738;    3,459;   -1,318
794,545;24967,255;    4,459;    2,682
795,111;24392,044;    2,186;    1,318
795,678;24531,652;    0,731;   -1,682
796,244;24177,168;    3,368;    0,136
796,810;24707,139;    1,731;    0,773
797,375;24376,747;    0,549;   -2,136
797,941;24451,263;   -0,541;    0,591
798,507;24600,234;   -0,451;   -0,955
799,073;24136,933;   -0,360;    0,591
799,639;24213,813;   -2,632;    3,136
800,205;24225,330;    0,095;    2,682
800,770;23734,392;    0,640;    1,773
801,336;23846,090;    1,368;   -0,955
801,901;23555,152;    4,549;    3,136
802,467;24109,123;   -0,542;    2,045
803,033;23493,912;   -0,087;    0,864
803,598;23654,611;    1,913;   -1,045
804,163;23687,036;    1,095;   -0,318
804,729;23656,462;   -0,178;    1,136
805,294;24019,706;    0,822;    2,227
805,859;23846,313;    0,731;   -0,409
806,425;23270,193;    1,186;    2,682
806,990;22920,074;    2,186;    4,318
807,555;23439,499;   -1,451;    2,591
808,120;23286,834;    0,822;   -0,409
808,685;23361,987;    0,185;   -2,500
809,250;22869,594;    0,004;   -0,500
809,815;23153,838;    1,913;    0,682
810,380;23675,173;   -0,269;    1,591
810,945;24234,326;   -1,087;    2,045
811,510;23400,024;    2,094;    1,591
812,075;23113,723;   -0,633;   -1,409
812,640;23169,421;    2,003;    1,409
813,204;23251,665;    0,822;   -0,227
813,769;23707,272;    2,094;   -0,045
814,334;23133,516;    0,458;    0,864
814,898;23157,305;    0,367;    0,591
815,463;22975,640;    1,276;   -0,773
816,027;22998,975;   -0,724;   -2,318
816,592;23055,128;    0,640;   -2,045
817,156;22567,372;    2,094;    1,136
817,721;22462,797;    4,276;    2,318
818,285;22426,132;    2,912;    1,500
818,849;23060,467;   -1,451;    1,682
819,414;22987,256;   -0,269;    2,955
819,978;22501,864;   -1,269;    1,773
820,542;23070,380;    2,003;    0,500
821,106;22762,169;   -0,815;    0,682
821,670;22856,322;   -0,815;    2,591
822,234;22625,293;   -0,270;    1,409
822,798;22007,537;    0,003;    0,500
823,362;21948,054;   -0,633;    4,227
823,926;21271,934;    0,094;    1,136
824,490;21502,269;   -0,997;   -0,682
825,054;21980,422;   -0,088;   -1,136
825,618;21639,938;   -1,542;   -1,500
826,181;21536,000;    0,458;   -1,318
826,745;21493,880;    1,367;   -1,045
827,309;21833,942;    1,185;    1,318
827,872;21193,641;    1,367;    0,955
828,436;22189,794;    1,185;   -0,773
828,999;22246,674;   -0,997;    1,227
829,563;21032,190;   -0,179;    1,136
830,126;20817,707;   -0,179;   -0,591
830,690;20860,042;   -1,997;    2,864
831,253;20366,831;   -0,543;    2,227
831,816;20513,348;   -1,906;    0,500
832,380;20417,864;    0,185;    0,864
832,943;20654,835;   -1,361;   -0,500
833,506;20066,261;    2,639;   -1,227
834,069;20877,414;    3,912;   -0,955
834,632;21018,294;    1,730;    1,318
835,195;20897,174;    1,003;    0,955
835,758;20047,418;   -0,997;    1,955
836,321;19887,480;    0,730;   -1,045
836,884;20005,178;   -0,725;   -0,955
837,447;19998,968;   -2,816;    1,773
838,010;20289,939;    0,366;    3,227
838,573;20605,637;   -1,179;    0,773
839,135;20535,972;   -1,361;   -0,955
839,698;19991,761;    1,275;    0,409
840,261;19492,550;    1,003;   -0,227
840,823;19352,794;   -0,543;    0,864
841,386;19658,311;   -0,452;   -2,409
841,948;19496,464;   -1,361;    1,773
842,511;19250,071;    0,912;    1,682
843,073;19386,406;    1,912;    0,227
843,636;19146,286;   -0,361;   -0,227
844,198;19107,075;    0,911;    0,591
844,760;19255,865;    1,093;    1,955
845,322;18921,927;    0,548;    1,136
845,885;19338,443;    0,730;    0,591
846,447;19735,960;   -1,998;    0,227
847,009;19349,931;    1,911;   -0,682
847,571;19676,266;    0,820;   -2,045
848,133;19751,055;   -1,089;   -1,864
848,695;19563,299;   -0,543;    1,409
849,257;19159,633;   -1,089;   -1,682
849,819;19341,786;   -0,998;   -0,409
850,381;19371,212;   -0,725;   -0,864
850,942;19730,729;    1,093;   -0,591
851,504;19702,063;    1,184;    0,227
852,066;19712,398;    1,275;   -1,591
852,628;19193,733;   -0,180;    1,955
853,189;18752,613;    1,638;    2,682
853,751;18880,584;   -0,907;    1,409
854,312;18706,192;   -0,453;   -1,682
854,874;19200,526;   -2,089;   -0,773
855,435;19720,497;   -0,907;   -1,682
855,997;19905,287;   -1,816;   -0,136
856,558;19147,440;    0,366;    1,773
857,119;19275,865;    0,820;    2,864
857,681;18971,200;    0,002;    0,318
858,242;19044,898;    1,911;   -2,136
858,803;19471,051;    0,456;   -0,773
859,364;20061,568;    0,184;   -4,773
859,925;19310,357;   -2,453;   -0,955
860,486;19198,783;   -0,453;   -0,955
861,047;18914,663;   -0,544;   -1,227
861,608;18741,089;   -1,089;   -0,773
862,169;18842,969;    0,638;   -0,045
862,730;18653,394;    0,456;    1,409
863,291;18915,638;   -0,635;   -0,500
863,852;19298,882;   -0,635;    1,955
864,412;18711,217;   -0,271;   -0,864
864,973;17285,733;   -0,089;    0,500
865,534;17141,341;   -1,726;    0,227
866,094;18673,039;    1,820;    0,227
866,655;18322,647;    1,274;    3,318
867,215;18621,891;    0,274;    0,136
867,776;18401,589;    0,547;   -0,136
868,336;18565,651;   -1,453;    0,136
868,897;18050,531;    2,638;    1,682
869,457;17764,139;    1,365;    0,318
870,017;17969,382;    0,547;   -1,227
870,578;18496,899;   -0,817;    0,773
871,138;18200,052;   -2,089;   -0,955
871,698;17734,114;   -0,817;   -1,318
872,258;17630,176;   -0,453;   -2,864
872,818;18009,420;    2,729;    0,045
873,378;17939,391;    0,638;    1,045
873,938;17435,907;    0,547;    0,500
874,498;17842,333;    0,274;   -1,955
875,058;17683,304;    2,183;    1,773
875,618;17572,912;    1,910;   -2,682
876,177;17502,974;    1,274;    0,136
876,737;17095,672;   -0,090;    1,955
877,297;17104,007;    0,183;    1,955
877,856;17103,523;   -0,362;    0,318
878,416;17052,676;    1,183;   -0,136
878,976;17273,465;   -1,817;    0,409
879,535;17454,800;    0,092;    3,136
880,095;17177,226;   -0,544;    0,045
880,654;17296,197;   -1,090;    1,318
881,213;17411,168;    2,456;    1,500
881,773;17054,048;    2,637;    2,682
882,332;17408,928;    3,365;    5,136
882,891;17269,172;    3,092;    2,136
883,451;17761,325;   -1,272;    1,682
884,010;17151,205;   -2,908;   -0,409
884,569;17222,176;   -0,999;   -0,045
885,128;17386,875;    2,819;   -1,864
885,687;17450,937;    4,455;    0,682
886,246;17162,999;    1,455;    2,136
886,805;16948,788;    2,455;    2,045
887,364;17236,396;   -0,999;   -0,500
887,922;17582,185;   -1,181;    0,045
888,481;17089,611;   -1,545;    0,591
889,040;17399,309;    1,183;    2,136
889,599;18082,916;    2,455;    1,409
890,157;18133,069;    1,455;    2,409
890,716;17832,495;   -0,090;    0,227
891,274;17613,739;    0,092;   -1,136
891,833;18022,710;    1,546;    0,864
892,391;17935,045;   -0,454;    0,500
892,950;18018,198;    1,819;   -0,773
893,508;18386,896;    0,455;   -0,409
894,067;17728,594;    0,637;    0,136
894,625;17634,384;   -0,636;   -1,500
895,183;17864,082;   -0,363;   -0,682
895,741;17737,144;    1,728;   -1,773
896,299;17548,479;   -0,545;   -2,409
896,858;17758,722;    0,819;   -1,591
897,416;17901,421;    2,728;   -1,318
897,974;17617,392;    1,819;    0,318
898,532;17803,727;    6,091;    2,682
899,089;17673,516;    2,091;   -0,682
899,647;17678,578;   -1,454;    1,318
900,205;17402,276;    1,182;    1,045
900,763;17624,793;   -0,454;    0,227
901,321;17614,855;    2,364;   -1,409
901,878;17044,735;   -1,000;   -0,773
902,436;16913,524;   -1,363;    1,318
902,994;17282,768;    4,728;    3,682
903,551;16706,376;    0,728;    0,409
904,109;17140,165;    0,182;   -1,409
904,666;16722,682;    2,455;    1,045
905,224;16569,198;    0,182;   -0,409
905,781;16275,169;    0,727;   -0,318
906,338;16331,958;   -1,363;    1,045
906,895;16274,475;    0,637;    2,045
907,453;16220,628;    1,727;    1,136
908,010;16257,144;   -0,909;    0,409
908,567;15906,297;    1,273;    0,591
909,124;15401,087;    0,364;   -1,500
909,681;15469,149;   -2,909;    0,682
910,238;15589,756;    0,636;   -1,318
910,795;15898,545;   -0,273;   -1,136
911,352;15512,909;   -2,909;   -2,682
911,909;14942,818;   -1,364;   -0,864
912,466;15447,545;   -3,182;    1,500
913,022;14978,000;   -1,636;    0,500
913,579;15355,455;   -0,909;    2,045
914,136;15024,727;    1,636;    0,955
914,692;15373,000;    0,091;   -1,227
915,249;14955,273;    1,455;    0,409
915,806;15211,636;    0,182;    1,955
916,362;14950,000;    1,909;    1,864
916,918;14494,000;    2,000;    1,045
917,475;14479,455;   -1,182;    0,955
918,031;14523,636;    3,364;   -0,045
918,587;13987,636;   -0,909;   -0,318
919,144;14185,091;   -2,273;    0,227
919,700;14515,273;    1,727;    0,773
920,256;14109,636;    0,727;    0,045
920,812;13734,182;   -0,727;   -1,045
921,368;13711,364;   -1,727;   -1,045
921,924;13364,364;    0,182;   -0,136
922,480;12941,000;   -0,545;    1,227
923,036;13547,091;    1,273;    1,955
923,592;13477,545;    0,455;    0,318
924,148;13404,636;    0,455;   -0,955
924,704;12698,364;   -1,364;   -0,409
925,259;12954,455;   -0,273;    0,591
925,815;12730,455;    1,455;    0,500
926,371;12205,818;    2,909;    1,409
926,926;12122,636;    2,091;    0,591
927,482;11716,455;   -1,364;    0,773
928,037;11585,000;    0,909;    2,045
928,593;11890,091;    1,636;    1,045
929,148;11728,909;   -1,818;   -1,500
929,704;11205,636;   -1,455;   -0,500
930,259;11422,727;    0,091;   -0,136
930,814;10505,000;   -0,818;    1,955
931,369;10166,364;    1,091;   -0,773
931,925;10058,182;   -0,091;    0,136
932,480; 9945,000;   -2,818;   -2,591
933,035; 9822,545;    0,545;   -0,318
933,590; 9583,636;    0,364;   -1,773
934,145; 9207,818;   -1,364;   -0,318
934,700; 9547,182;    0,455;   -0,591
935,255; 9322,091;   -0,091;    0,045
935,809; 8593,727;    3,182;    0,864
936,364; 7695,455;   -0,455;   -0,136
936,919; 7658,000;    0,455;   -1,773
937,474; 7528,000;    1,455;    0,136
938,028; 7288,273;   -1,636;    1,136
938,583; 6763,364;    1,818;    4,682
939,138; 7030,455;    2,091;    2,136
939,692; 6483,000;    1,636;   -1,136
940,247; 6210,091;   -0,727;   -1,045
940,801; 5728,545;   -0,636;    0,227
941,355; 5615,727;   -0,364;    2,591
941,910; 5249,818;   -0,273;   -2,136
942,464; 5357,818;   -0,818;   -0,318
943,018; 5133,545;    1,000;   -0,227
943,572; 5078,273;    2,545;   -0,682
944,126; 4490,727;    0,091;   -0,409
944,681; 4365,727;    3,091;    0,227
945,235; 4351,000;    1,000;   -0,591
945,789; 4308,273;    0,364;   -1,864
946,342; 4381,000;    0,455;   -0,591
946,896; 4209,455;   -2,273;    0,955
947,450; 3954,000;    1,545;   -0,227
948,004; 4147,636;    1,727;   -0,045
948,558; 4157,182;    0,273;   -0,864
949,111; 4067,636;   -0,273;   -0,318
949,665; 4078,364;    1,636;   -0,682
950,219; 3960,545;   -0,091;   -1,045
950,772; 4056,364;   -1,909;    1,864
951,326; 3954,636;    0,545;   -0,955
951,879; 4079,455;    0,727;   -2,318
952,433; 4098,000;    0,000;    2,227
952,986; 3914,273;    2,909;    0,682
953,539; 3878,727;   -0,273;    0,591
954,093; 3782,909;    0,545;   -1,318
954,646; 3933,364;    0,909;    1,318
955,199; 3752,909;    0,000;   -0,500
955,752; 3630,909;   -0,455;    1,773
956,305; 3583,818;   -0,091;    2,955
956,858; 3766,909;    0,818;   -0,318
957,411; 3941,727;   -0,545;    2,136
957,964; 3772,727;    1,364;    2,136
958,517; 3762,364;   -1,545;    3,136
959,070; 3575,455;   -0,455;    1,955
959,623; 3641,455;    1,091;    1,500
960,176; 3411,455;    1,727;    2,045
960,728; 3402,091;   -2,727;    0,773
961,281; 3447,091;    0,545;    0,500
961,834; 3491,364;   -0,909;    0,864
962,386; 3410,818;    1,727;    1,045
962,939; 3342,545;    0,364;   -0,318
963,491; 3482,818;    0,455;    1,136
964,043; 3343,818;    1,182;    2,409
964,596; 3484,455;   -1,000;    2,227
965,148; 3324,182;   -1,000;    1,773
965,700; 3237,455;    1,091;   -0,227
966,253; 3403,182;   -0,636;    0,318
966,805; 3234,364;   -2,273;    0,773
967,357; 3280,636;    1,091;   -1,500
967,909; 3248,273;    0,455;   -1,227
968,461; 3335,636;    0,545;    3,136
969,013; 3278,000;   -0,182;   -0,864
969,565; 3362,000;   -0,455;   -1,136
970,117; 3408,818;   -0,364;    1,045
970,669; 3233,909;    0,182;   -0,136
971,220; 3098,455;   -0,455;   -1,500
971,772; 3033,909;   -0,636;   -0,318
972,324; 3158,455;    0,091;   -0,500
972,876; 3079,909;    0,818;   -0,045
973,427; 3230,636;    1,909;   -1,045
973,979; 3208,545;   -0,727;   -2,500
974,530; 3258,364;    1,818;    1,318
975,082; 3258,545;   -0,545;    1,682
975,633; 3148,273;    1,091;    1,682
976,184; 3282,636;    0,909;    0,773
976,736; 3062,182;    0,091;    0,227
977,287; 2856,727;   -0,909;   -0,500
977,838; 3046,545;    0,909;   -0,318
978,389; 3114,818;   -1,000;   -0,500
978,940; 2979,000;    0,545;   -0,409
979,491; 3001,636;    0,091;   -0,500
980,042; 2969,818;    0,182;    3,045
980,593; 3040,273;   -2,545;    0,227
981,144; 3081,455;    2,545;   -0,500
981,695; 3028,000;    1,455;    1,500
982,246; 2990,455;   -0,273;    1,045
982,797; 3161,000;   -1,727;    0,682
983,347; 3280,000;    0,364;    0,591
983,898; 3432,636;    3,091;    0,409
984,449; 3263,273;    2,182;    0,773
984,999; 3154,182;    1,455;   -1,136
985,550; 2910,727;    0,182;   -0,318
986,100; 2952,364;   -0,455;   -0,318
986,651; 2998,000;   -0,818;    0,045
987,201; 2973,182;   -1,000;   -0,591
987,751; 3063,273;    0,818;    2,864
988,302; 3046,000;    2,636;    1,500
988,852; 3083,273;    0,455;   -1,136
989,402; 3116,909;    0,091;    0,682
989,952; 3036,273;   -2,182;    0,864
990,502; 3129,182;   -0,091;    0,682
991,052; 3073,636;   -0,727;    0,045
991,602; 2945,273;   -2,909;    1,318
992,152; 2947,364;    0,455;    0,682
992,702; 2938,182;    1,364;   -0,045
993,252; 2876,727;   -3,000;   -0,500
993,802; 2954,909;   -0,273;    1,318
994,352; 3186,000;   -1,545;    1,136
994,901; 3258,182;   -0,182;    3,227
995,451; 3178,727;   -0,182;    0,318
996,000; 3269,273;    1,636;    0,318
996,550; 2971,182;    2,273;    0,227
997,100; 2975,455;    1,273;   -0,045
997,649; 3279,818;    2,182;    0,955
998,198; 2890,818;    1,727;   -1,500
998,748; 3098,273;    1,091;   -2,318
999,297; 3005,909;   -0,818;   -0,409
999,846; 3069,545;    1,000;   -0,773
1000,395; 3104,364;   -0,818;    0,500
1000,945; 3053,545;    1,818;   -0,773
1001,494; 3154,273;    2,364;    0,682
1002,043; 3144,000;    4,636;    0,864
1002,592; 2973,091;   -1,091;    1,955
1003,141; 3128,364;   -0,455;   -0,682
1003,690; 2966,091;    1,727;    0,500
1004,238; 3071,273;    1,455;   -0,045
1004,787; 2711,545;    1,364;    1,227
1005,336; 2937,727;    0,364;    0,682
1005,885; 3072,545;    1,364;   -2,773
1006,433; 3225,727;    0,545;    0,955
1006,982; 3273,000;    0,455;    1,682
1007,531; 3157,545;   -1,818;   -0,227
1008,079; 3139,727;   -2,273;    0,500
1008,627; 3278,000;   -1,455;    0,409
1009,176; 3013,909;    0,000;   -1,955
1009,724; 3068,000;    1,091;    0,864
1010,273; 3116,364;    1,273;    0,500
1010,821; 3210,455;    0,091;    1,409
1011,369; 2944,364;   -1,364;    1,318
1011,917; 2940,091;   -1,364;   -0,591
1012,465; 3228,909;    1,273;   -1,591
1013,013; 3350,182;    2,091;   -1,682
1013,561; 3211,091;    0,455;   -0,773
1014,109; 3255,364;   -1,909;    1,682
1014,657; 3124,545;    0,364;    0,591
1015,205; 3254,909;    1,636;   -0,955
1015,753; 3304,091;   -0,545;   -1,409
1016,301; 3330,818;   -2,636;    3,045
1016,848; 3344,273;   -1,273;    0,409
1017,396; 3378,636;    2,545;    0,045
1017,944; 3504,273;    1,182;    1,864
1018,491; 3271,727;    0,273;    1,409
1019,039; 3401,545;    0,455;    0,591
1019,586; 3306,818;   -1,364;    1,682
1020,134; 3415,364;    0,455;    1,500
1020,681; 3423,091;    0,182;   -1,136
1021,228; 3442,364;    2,909;   -2,227
1021,776; 3282,909;    1,182;   -1,136
1022,323; 3502,636;    0,455;    0,773
1022,870; 3427,727;   -1,000;   -0,045
1023,417; 3320,909;    2,636;    1,864
1023,964; 3469,091;    2,636;    1,227
1024,511; 3297,545;    1,000;    0,773
1025,058; 3112,909;    3,182;   -0,045
1025,605; 3154,273;   -2,273;    3,136
1026,152; 3382,182;    1,727;   -0,591
1026,699; 3094,273;    1,818;    1,318
1027,245; 3254,091;   -0,091;    0,318
1027,792; 3477,000;   -1,000;    1,409
1028,339; 3358,818;    2,364;   -0,045
1028,885; 3224,182;    1,000;   -0,227
1029,432; 3143,545;   -0,091;    0,227
1029,978; 3202,273;   -1,000;   -1,591
1030,525; 3121,727;    1,000;    0,409
1031,071; 3365,364;   -1,364;    1,136
1031,618; 3469,364;    0,364;    1,682
1032,164; 3239,909;   -0,091;    3,045
1032,710; 3278,273;    1,636;   -1,500
1033,256; 3207,727;   -0,636;   -0,136
1033,803; 3202,364;   -0,545;    1,500
1034,349; 2901,909;   -1,364;    0,136
1034,895; 3068,091;    0,000;   -0,318
1035,441; 3042,727;   -0,818;    0,318
1035,987; 3039,909;   -2,364;   -0,682
1036,533; 3034,909;   -1,455;   -0,955
1037,078; 3243,636;    1,455;    1,682
1037,624; 3066,545;    2,455;   -0,955
1038,170; 3081,364;    0,455;   -0,318
1038,716; 3001,727;    1,636;   -0,409
1039,261; 2923,636;   -2,273;   -0,773
1039,807; 2849,636;   -0,091;    3,409
1040,352; 2911,273;   -1,909;   -0,318
1040,898; 2950,091;   -1,545;   -0,682
1041,443; 2859,364;   -1,455;   -2,591
1041,989; 2880,091;    1,091;    1,591
1042,534; 2765,455;   -0,364;    2,591
1043,079; 2866,273;    2,909;    0,955
1043,625; 2677,727;    1,818;    0,500
1044,170; 2715,000;   -1,364;    1,045
1044,715; 2960,909;    2,455;    0,955
1045,260; 2770,818;    2,182;   -0,955
1045,805; 2836,182;    1,182;   -0,591
1046,350; 2763,273;    1,364;   -0,409
1046,895; 2725,727;    2,909;    1,591
1047,440; 2671,909;    5,364;    0,409
1047,985; 2576,727;    2,818;   -0,955
1048,530; 2484,091;    1,545;    1,227
1049,074; 2561,909;    0,000;    0,318
1049,619; 2528,909;   -1,364;    1,955
1050,164; 2322,455;    0,455;    0,227
1050,708; 2378,909;   -0,455;    0,045
1051,253; 2750,545;    1,273;   -2,227
1051,797; 2447,909;    0,818;   -1,318
1052,342; 2463,091;   -1,182;    1,045
1052,886; 2457,273;    0,364;   -1,409
1053,430; 2308,364;   -1,364;    0,136
1053,975; 2338,091;   -0,818;   -0,318
1054,519; 2340,000;   -0,727;    3,227
1055,063; 2342,727;    0,909;    1,318
1055,607; 2226,182;   -0,182;    0,227
1056,151; 2249,818;    2,909;    1,682
1056,695; 2173,818;    2,273;   -1,136
1057,239; 2242,909;   -1,727;   -0,682
1057,783; 2249,545;    0,818;   -1,500
1058,327; 2191,818;    0,000;    1,409
1058,871; 2430,727;   -0,545;    1,318
1059,415; 2131,727;   -0,818;   -0,045
1059,958; 2388,364;    1,455;    2,591
1060,502; 2114,636;   -1,000;   -0,773
1061,046; 2009,727;    0,364;   -0,955
1061,589; 1995,455;   -3,000;   -1,136
1062,133; 1874,727;   -1,273;    1,864
1062,676; 1820,091;    1,182;    0,864
1063,220; 1819,545;    1,091;    0,500
1063,763; 1841,182;    0,909;    1,136
1064,306; 1931,455;   -0,909;    1,864
1064,849; 1804,727;   -0,909;    0,591
1065,393; 1812,455;    2,000;   -1,500
1065,936; 1923,273;    0,182;   -0,409
1066,479; 1801,636;   -1,455;    1,318
1067,022; 1822,636;   -0,273;   -0,227
1067,565; 1737,545;   -0,091;   -1,318
1068,108; 1759,364;    0,727;   -0,591
1068,651; 1721,909;   -0,636;    1,409
1069,194; 1648,545;   -0,455;   -1,682
1069,736; 1655,545;   -1,273;    0,955
1070,279; 1634,273;   -1,364;   -0,500
1070,822; 1698,818;   -2,000;   -0,318
1071,364; 1772,273;   -0,364;    1,318
1071,907; 1590,273;   -0,727;    3,227
1072,450; 1488,455;    0,000;   -0,045
1072,992; 1488,091;   -0,273;    3,136
1073,535; 1643,636;    2,091;    2,136
1074,077; 1417,545;   -0,727;    2,045
1074,619; 1384,909;   -1,364;    0,591
1075,161; 1420,182;   -1,091;    1,500
1075,704; 1608,818;    1,545;    1,227
1076,246; 1392,909;   -0,182;    0,682
1076,788; 1335,182;   -0,364;    1,773
1077,330; 1404,909;    1,273;    2,136
1077,872; 1375,909;    0,909;    0,955
1078,414; 1603,818;    2,727;    0,773
1078,956; 1330,182;    1,273;   -0,227
1079,498; 1590,727;    1,636;    0,318
1080,040; 1290,000;    1,909;   -1,318
1080,581; 1235,818;    1,636;   -0,318
1081,123; 1143,455;    0,091;   -0,773
1081,665; 1197,182;   -1,182;   -0,955
1082,206; 1504,000;    1,364;   -0,500
1082,748; 1366,636;    0,727;    2,045
1083,289; 1253,273;   -2,000;    1,318
1083,831; 1155,909;   -0,545;    0,227
1084,372; 1181,909;    0,000;    0,591
1084,913; 1188,273;    1,091;    0,864
1085,455; 1159,636;   -1,909;   -2,045
1085,996; 1128,364;   -2,273;    0,136
1086,537; 1144,545;   -0,091;    0,864
1087,078; 1183,182;   -0,909;   -2,136
1087,619; 1225,000;   -1,273;    0,227
1088,160; 1131,000;    0,000;    1,318
1088,701; 1122,727;   -1,091;    0,682
1089,242; 1068,455;    1,364;   -2,227
1089,783; 1159,636;   -0,273;    1,409
1090,324; 1127,636;    0,455;    0,682
1090,865;  991,909;    2,727;   -0,409
1091,405;  961,909;    0,727;    2,227
1091,946; 1003,818;    0,182;   -0,955
1092,487;  922,545;    0,818;   -1,409
1093,027; 1104,000;   -1,364;   -1,500
1093,568;  951,818;   -0,364;    1,227
1094,108; 1056,000;    0,273;    1,773
1094,649;  981,182;   -1,182;    0,136
1095,189;  903,818;   -0,636;   -0,682
1095,729;  862,818;   -0,091;    0,955
1096,269;  864,818;    0,727;   -0,955
1096,810; 1188,455;   -1,364;    0,500
1097,350; 1023,364;    1,364;   -0,773
1097,890;  917,000;    0,364;    1,227
1098,430; 1177,909;    2,364;    2,864
1098,970; 1050,182;    2,182;    1,682
1099,510;  902,091;    0,545;   -2,318
1100,050;  827,091;    1,000;   -1,591
1100,589;  793,636;   -0,727;   -0,318
1101,129;  929,545;    0,818;   -0,955
1101,669; 1078,727;    1,727;    2,136
1102,209;  901,091;   -0,091;    2,227
1102,748;  838,909;    0,000;    0,955
1103,288;  834,636;    1,273;   -1,227
1103,827;  875,909;    3,091;   -2,227
1104,367;  732,000;   -0,091;   -2,409
1104,906;  703,182;    1,364;   -1,136
1105,445;  775,545;    0,636;   -1,136
1105,985;  729,455;   -0,727;    1,500
1106,524;  773,727;   -1,727;   -0,682
1107,063;  742,545;   -2,727;    1,409
1107,602;  720,091;   -1,909;   -1,500
1108,141;  644,727;   -1,909;    1,500
1108,680;  756,455;   -3,455;   -0,591
1109,219;  682,273;   -0,909;   -0,500
1109,758;  683,091;    0,455;    0,682
1110,297;  652,636;    1,000;   -0,682
1110,836;  597,909;   -0,727;    0,955
1111,375;  779,364;   -2,545;    0,409
1111,913;  787,727;   -1,000;    0,773
1112,452;  717,636;   -0,273;    0,136
1112,991;  591,000;    1,091;    1,955
1113,529;  552,727;   -0,818;   -0,045
1114,068;  622,818;   -0,273;    2,955
1114,606;  517,727;   -0,364;   -0,955
1115,144;  688,364;   -1,273;    1,045
1115,683;  623,273;   -0,727;    0,318
1116,221;  678,545;   -0,455;   -0,864
1116,759;  582,273;    0,636;   -0,864
1117,297;  786,455;    0,000;    1,864
1117,836;  587,273;   -2,182;   -1,227
1118,374;  597,636;    0,182;   -0,682
1118,912;  535,364;    0,909;    2,682
1119,450;  523,182;    1,000;    0,864
1119,988;  580,000;    1,545;    2,136
1120,525; 1037,909;    5,091;    3,318
1121,063;  737,091;    1,182;    1,864
1121,601;  537,545;   -0,909;   -1,227
1122,139;  492,364;   -0,727;   -2,045
1122,676;  698,273;   -0,727;    2,773
1123,214;  632,818;   -1,182;    4,409
1123,751;  438,818;    1,727;    2,227
1124,289;  561,455;   -0,091;   -0,409
1124,826;  433,727;    1,727;    0,227
1125,364;  352,636;    1,727;   -0,955
1125,901;  552,091;    1,182;    1,227
1126,438;  668,818;    0,818;    0,955
1126,975;  380,000;   -0,727;   -0,773
1127,513;  455,091;    0,273;    2,136
1128,050;  363,818;    1,636;   -0,682
1128,587;  468,364;    2,000;   -0,227
1129,124;  506,909;    0,091;    1,318
1129,661;  367,636;    0,273;    0,227
1130,198;  539,818;    1,636;    0,773
1130,734;  480,000;    0,182;    1,409
1131,271;  339,182;   -0,909;    0,864
1131,808;  517,636;    2,909;    3,045
1132,345;  387,000;    1,545;    0,318
1132,881;  251,000;   -1,545;   -1,864
1133,418;  394,091;    0,727;   -1,136
1133,954;  329,909;    2,455;   -2,682
1134,491;  410,545;    1,364;   -0,773
1135,027;  297,636;    2,364;    0,864
1135,564;  403,000;    0,273;    2,955
1136,100;  378,818;    0,364;    2,136
1136,636;  257,364;   -1,273;   -1,045
1137,172;  361,364;    0,000;   -1,045
1137,708;  284,455;   -1,364;   -1,045
1138,245;  287,636;    1,273;   -1,227
1138,781;  234,636;    1,091;   -3,318
1139,317;  309,545;    1,273;   -1,409
1139,852;  293,909;    3,091;    0,136
1140,388;  421,818;   -1,182;   -0,409
1140,924;  294,727;   -1,091;   -2,227
1141,460;  229,182;   -1,636;    0,136
1141,996;  164,091;   -1,364;    2,682
1142,531;  215,818;    1,364;    3,318
1143,067;  437,909;    1,182;    1,045
1143,602;  504,091;   -0,091;   -0,318
1144,138;  342,727;   -2,636;    1,045
1144,673;  199,818;   -1,455;    1,409
1145,209;  268,818;   -1,909;   -0,318
1145,744;  180,818;   -0,727;    0,864
1146,279;  330,909;    1,818;   -0,136
1146,815;  240,545;    1,545;   -2,682
1147,350;  274,182;   -1,364;    0,045
1147,885;  189,182;   -0,818;   -1,318
1148,420;  198,182;   -2,273;    0,773
1148,955;  169,455;   -1,727;    1,864
1149,490;  199,000;   -0,909;   -1,591
1150,025;  191,636;    0,455;   -1,773
1150,560;  312,727;    1,091;   -0,955
1151,094;  267,636;    1,455;   -0,591
1151,629;  271,818;    1,636;    0,864
1152,164;  194,909;    1,364;    1,318
1152,698;  146,727;   -0,182;   -0,136
1153,233;   99,000;    0,091;   -0,682
1153,767;  159,545;   -3,000;   -2,318
1154,302;  216,727;   -1,455;    1,773
1154,836;  210,273;   -0,455;   -2,136
1155,371;  255,273;   -1,364;    3,682
1155,905;  211,909;   -0,636;    1,682
1156,439;  182,818;   -0,636;   -0,500
1156,973;  216,091;    0,364;    0,318
1157,507;  143,818;   -0,364;    0,682
1158,042;  178,182;   -0,727;    1,045
1158,576;  226,455;    0,182;    1,773
1159,110;  220,818;   -0,818;    2,409
1159,643;  185,909;    0,636;   -0,045
1160,177;  121,727;   -1,545;    1,500

