
Integration time [ms]:   0,040
Averaging Nr. [scans]: 11
Smoothing Nr. [pixels]: 0
Data measured with spectrometer [name]: 7318044SP
Wave   ;Sample   ;Dark     ;Reference
[nm]   ;[counts] ;[counts] ;[counts] 

186,757;   22,651;   31,551;    1,318
187,357;   59,821;   22,551;    0,955
187,958;   36,982;   15,460;   -1,591
188,558;   73,513;    8,915;   -1,227
189,159;   41,390;    6,733;   -4,500
189,759;   20,390;    7,278;   -3,591
190,360;   22,690;    2,824;   -2,136
190,960;   61,966;    2,915;   -4,136
191,560;   70,720;    3,189;   -6,591
192,161;  303,202;    4,372;   -3,500
192,761;  148,393;    4,010;   -3,227
193,361;   97,204;    1,556;   -3,773
193,962;  145,228;    2,010;   -2,682
194,562;   77,541;    1,189;   -3,955
195,162;  107,981;   -2,448;   -2,227
195,762;  255,143;   -3,176;   -0,045
196,362;  205,875;    1,370;   -2,500
196,963;   83,064;    2,006;   -0,864
197,563;  151,309;    1,551;   -0,955
198,163;   93,915;    0,096;   -0,682
198,763;  118,317;    1,733;   -0,500
199,363;  218,955;    3,096;   -0,500
199,963;  179,877;    0,369;    0,409
200,563;  159,065;    2,823;   -1,409
201,163;  134,003;    3,277;   -0,227
201,763;  224,024;    3,732;    0,318
202,363;  162,982;    1,459;    1,500
202,963;  267,489;    1,459;    1,045
203,563;  369,212;    0,277;    0,500
204,162;  225,032;    2,096;   -1,864
204,762;  210,073;    0,550;    0,591
205,362;  177,793;    3,004;    1,955
205,962;  281,844;    3,096;    1,955
206,562;  281,835;    1,823;    2,318
207,161;  242,896;   -0,087;    0,318
207,761;  393,403;    1,277;    2,409
208,361;  269,351;   -0,268;    1,409
208,960;  364,810;    0,459;    1,500
209,560;  432,733;    1,277;    1,591
210,160;  425,318;    0,550;    1,864
210,759;  380,201;    4,186;    1,227
211,359;  383,853;    1,459;    1,045
211,958;  651,433;    1,277;    2,045
212,558;  722,749;    1,732;    1,864
213,157;  554,913;    1,822;    1,500
213,757;  982,265;    3,822;   -0,227
214,356;  680,008;    1,277;   -0,409
214,956; 1014,905;    3,095;    0,409
215,555;  637,244;    2,095;    2,136
216,154;  572,540;   -2,723;   -0,591
216,754;  578,948;    0,277;    0,773
217,353;  701,303;   -0,268;   -1,045
217,952;  558,389;   -0,178;    0,318
218,552;  804,276;    1,368;   -0,773
219,151;  675,031;    0,277;    0,955
219,750;  668,744;    0,004;   -0,227
220,349;  758,324;   -0,451;    1,045
220,948;  850,102;   -1,360;    1,136
221,548;  819,774;    0,913;    1,227
222,147;  927,726;   -0,087;   -0,409
222,746; 1227,260;   -0,451;   -0,955
223,345; 1091,330;    0,731;    0,500
223,944; 1085,913;   -0,451;    0,773
224,543; 1226,112;    1,004;   -1,409
225,142; 1345,225;    0,094;    0,136
225,741; 1232,734;   -0,814;    1,045
226,340; 1240,100;   -0,451;   -0,955
226,939; 1640,407;   -0,996;   -0,136
227,538; 1529,278;   -0,360;   -0,773
228,137; 1709,745;   -0,814;    0,864
228,735; 1788,312;   -0,541;    1,227
229,334; 1543,630;   -0,905;   -0,227
229,933; 1913,540;    0,459;    0,591
230,532; 2021,808;    1,186;   -0,409
231,131; 2082,918;    1,732;    0,318
231,729; 2138,015;   -2,450;   -2,318
232,328; 2176,332;   -0,723;   -1,500
232,927; 2223,302;    1,004;   -0,500
233,525; 2309,842;    3,640;    0,045
234,124; 2500,966;    2,368;   -1,591
234,723; 2482,152;    0,913;   -1,045
235,321; 2598,408;    2,277;    0,136
235,920; 2771,811;    1,186;   -1,227
236,518; 3007,340;    3,459;    0,318
237,117; 3099,092;    0,004;   -0,227
237,715; 3224,494;    0,640;   -0,500
238,314; 3267,286;   -0,087;   -2,318
238,912; 3384,309;   -0,723;   -1,409
239,510; 3366,944;    0,459;   -1,227
240,109; 3518,685;    0,004;    3,773
240,707; 3538,823;   -0,996;    1,227
241,305; 3796,235;    0,550;    0,136
241,904; 3989,963;   -0,178;   -2,045
242,502; 3978,532;   -0,632;   -0,227
243,100; 3853,265;   -0,087;   -0,955
243,698; 4058,031;    0,732;    1,682
244,297; 4189,335;   -0,632;    0,682
244,895; 4058,817;   -0,269;   -2,318
245,493; 4356,480;    2,186;   -0,591
246,091; 4351,546;    1,368;   -1,318
246,689; 4303,205;    1,004;    0,591
247,287; 4448,204;    0,822;   -1,136
247,885; 4661,031;   -1,451;    1,227
248,483; 4721,385;    1,822;   -0,500
249,081; 4794,675;    0,185;    1,591
249,679; 4933,151;   -0,178;    1,682
250,277; 5153,914;   -1,723;    0,864
250,875; 5119,607;   -1,087;   -1,045
251,473; 5136,820;   -1,178;    0,500
252,071; 5306,931;    1,459;    1,045
252,669; 5429,095;   -1,814;    0,318
253,267; 5612,155;   -0,087;    0,773
253,864; 5530,113;   -0,360;    0,682
254,462; 5490,280;    1,640;    1,591
255,060; 5384,573;   -0,269;    1,318
255,658; 5630,731;    0,822;   -0,136
256,255; 6052,227;    0,186;   -2,045
256,853; 5916,122;   -0,269;    1,409
257,451; 5898,161;    0,822;    1,864
258,048; 6193,818;    1,822;    1,864
258,646; 5898,938;    1,731;   -1,045
259,243; 6068,122;   -0,087;    2,227
259,841; 6091,959;   -0,814;    0,318
260,438; 6004,077;   -0,087;    0,864
261,036; 6593,062;   -1,905;    1,409
261,633; 6496,414;   -0,087;    2,227
262,231; 6290,730;    2,731;   -0,045
262,828; 6369,491;   -0,905;    1,136
263,425; 6363,771;    0,913;   -0,591
264,023; 6616,846;    0,186;    0,045
264,620; 6217,074;   -0,360;   -0,318
265,217; 6498,254;   -2,087;    3,136
265,815; 6595,629;   -1,905;    2,136
266,412; 6426,392;    0,731;    0,136
267,009; 6440,092;   -1,451;    0,773
267,606; 6402,938;    0,822;   -0,955
268,203; 6349,814;   -0,269;   -0,591
268,801; 6595,322;    1,731;    0,591
269,398; 6842,350;   -0,360;    2,500
269,995; 6826,219;    0,277;    1,591
270,592; 6624,198;   -0,632;   -0,500
271,189; 6770,737;    0,186;    0,409
271,786; 6890,499;   -0,632;    1,227
272,383; 6787,109;   -1,087;    0,227
272,980; 6925,661;    0,277;    0,318
273,577; 7338,375;    0,004;    1,227
274,174; 6906,308;    0,822;    2,591
274,771; 6906,549;   -0,814;   -0,773
275,367; 7098,670;    2,277;    1,409
275,964; 7050,811;    0,731;   -0,500
276,561; 7099,210;    1,549;   -1,045
277,158; 7253,514;    0,095;   -1,773
277,755; 7401,221;    2,185;    0,409
278,351; 6850,506;   -0,451;   -1,500
278,948; 7141,038;   -0,815;    0,045
279,545; 7122,420;   -1,360;    2,318
280,141; 7691,159;   -1,723;   -2,045
280,738; 7537,049;   -0,451;   -0,136
281,334; 7672,350;   -1,633;    0,591
281,931; 7142,410;   -0,087;   -1,318
282,528; 7299,271;    0,822;   -0,500
283,124; 7924,825;   -1,087;   -0,500
283,721; 7779,863;   -0,451;    1,409
284,317; 7613,888;    0,185;    2,500
284,913; 8107,977;   -1,360;    0,591
285,510; 8296,613;    0,640;   -0,318
286,106; 8309,971;   -2,269;   -0,955
286,703; 7882,991;   -0,360;    1,955
287,299; 8095,686;   -1,451;   -0,591
287,895; 8297,551;    0,822;   -1,045
288,491; 8766,441;    0,186;    2,136
289,088; 8541,127;   -2,360;    2,409
289,684; 8626,731;   -1,723;    1,500
290,280; 8623,408;    0,368;    0,682
290,876; 8688,437;    1,822;    5,500
291,472; 8598,356;    1,276;    2,227
292,068; 8691,109;    1,367;    0,227
292,665; 8381,323;    2,095;    0,773
293,261; 8113,874;    0,276;    2,136
293,857; 8508,271;    2,913;    2,136
294,453; 8402,562;    3,550;    0,955
295,049; 8316,198;   -0,268;    1,955
295,644; 8319,369;    0,095;    0,136
296,240; 8254,180;   -0,905;   -0,136
296,836; 8301,580;   -0,995;    0,318
297,432; 8567,368;    1,096;   -0,500
298,028; 8607,141;    0,732;    0,773
298,624; 8922,876;    1,459;    1,864
299,220; 9110,054;    2,368;    0,591
299,815; 8827,469;    1,005;   -0,409
300,411; 8662,926;    0,914;    1,773
301,007; 8671,480;    1,368;    0,227
301,602; 8678,694;   -0,541;   -2,318
302,198; 8806,794;    0,732;   -0,773
302,794; 9109,735;    1,187;   -0,500
303,389; 9200,213;   -1,177;    1,045
303,985; 9255,305;    0,550;    1,409
304,580; 9249,484;    1,459;    1,591
305,176; 9213,721;   -3,086;    0,136
305,771; 9142,543;   -1,268;   -1,227
306,367; 9062,909;    4,095;    0,136
306,962; 9326,330;    0,641;    1,500
307,558; 9079,830;   -0,450;    0,136
308,153; 8991,426;    1,095;   -1,136
308,748; 9174,173;   -0,814;    1,682
309,344; 9170,205;   -0,632;   -1,318
309,939; 9306,338;   -1,905;   -1,318
310,534; 9495,635;   -0,086;   -1,682
311,130; 9413,924;    0,459;   -2,500
311,725; 9131,836;    1,004;   -0,500
312,320; 9410,717;    2,459;    0,045
312,915; 9343,976;    1,459;   -1,045
313,510; 9418,928;    1,550;   -0,500
314,105; 9816,573;    1,096;    1,409
314,700; 9235,213;   -3,086;   -1,045
315,295; 8923,212;   -0,904;    0,045
315,890; 8551,920;    1,277;    0,864
316,485; 8838,701;   -0,359;   -0,318
317,080; 8939,468;   -3,086;    1,591
317,675; 9431,422;    2,005;   -0,682
318,270; 8943,592;    5,550;    3,318
318,865; 8935,523;    3,278;    3,045
319,460; 8782,671;   -0,904;    0,591
320,055; 8978,974;   -0,541;   -1,227
320,650; 8684,153;   -1,995;   -0,591
321,244; 8757,771;   -0,177;   -1,409
321,839; 9617,691;   -1,541;   -0,227
322,434; 9464,445;   -1,086;   -1,591
323,029; 9173,503;    1,732;    1,591
323,623; 9022,719;    1,550;    0,773
324,218; 8861,205;    2,368;    1,409
324,812; 8748,349;    1,096;    1,591
325,407; 8595,762;   -0,814;    2,045
326,002; 8550,785;    0,277;   -0,409
326,596; 8813,098;    0,914;    1,318
327,191; 8935,352;    0,823;   -1,045
327,785; 8587,643;   -0,813;   -0,227
328,379; 8801,920;    1,368;    0,136
328,974; 8601,579;    0,914;   -3,955
329,568; 8845,440;    0,186;   -2,409
330,163; 8687,209;    2,096;    1,045
330,757; 9009,611;    2,459;    1,591
331,351; 8465,970;    0,459;    0,682
331,945; 8743,939;    0,914;    1,409
332,540; 8383,311;   -1,723;   -0,591
333,134; 8522,362;   -1,086;    0,773
333,728; 8751,016;    0,005;    0,318
334,322; 9020,442;   -1,177;   -0,864
334,916; 8359,548;    0,277;    0,955
335,510; 8684,129;   -0,450;   -0,136
336,105; 8928,079;   -1,086;    1,591
336,699; 8661,608;   -1,086;    0,591
337,293; 8606,206;   -1,723;    0,318
337,887; 8716,649;   -2,723;    1,955
338,481; 8828,720;    0,459;    0,591
339,074; 8999,389;   -0,359;    2,682
339,668; 8845,568;   -1,632;    1,227
340,262; 9130,453;    1,732;    3,227
340,856; 8631,120;    1,822;   -0,682
341,450; 8061,715;    1,004;    1,864
342,044; 8852,933;    1,459;    0,136
342,637; 8688,230;    0,913;   -2,136
343,231; 8543,843;   -2,360;    0,682
343,825; 8485,630;   -1,086;   -0,591
344,419; 8500,987;   -1,995;    0,500
345,012; 8391,119;    2,459;    4,045
345,606; 8385,321;    4,641;    1,591
346,199; 8197,634;   -1,813;   -0,227
346,793; 7815,996;    1,914;    2,045
347,386; 7967,985;   -0,813;   -1,136
347,980; 7976,377;   -0,268;   -0,045
348,573; 7810,802;    2,278;    0,409
349,167; 7586,271;    5,278;    4,773
349,760; 7907,068;    2,914;    2,682
350,354; 7866,957;   -0,813;    1,136
350,947; 7644,603;    1,096;    1,682
351,540; 7344,852;   -0,358;   -1,409
352,134; 7300,636;    1,096;    1,136
352,727; 7411,488;   -0,086;    1,136
353,320; 7220,093;    0,005;    0,591
353,913; 7061,437;   -1,995;    1,864
354,507; 7263,507;    0,823;   -1,227
355,100; 7284,550;    0,460;    0,864
355,693; 6659,102;    2,005;    2,409
356,286; 6723,568;    0,823;    2,773
356,879; 7008,841;   -0,722;    1,227
357,472; 6635,070;   -0,904;    1,500
358,065; 6841,859;   -0,722;    2,500
358,658; 6754,318;   -0,540;    2,318
359,251; 6463,728;   -1,631;   -0,591
359,844; 6070,107;   -1,904;   -1,136
360,437; 6265,846;   -2,995;    0,045
361,030; 6458,069;    1,369;   -0,682
361,623; 6118,603;    2,824;    0,318
362,215; 6167,767;   -0,086;    2,045
362,808; 6041,087;   -2,358;   -1,682
363,401; 6224,577;   -2,449;    0,136
363,994; 6005,573;   -0,631;   -1,500
364,586; 5927,152;    0,824;   -1,500
365,179; 6095,758;   -0,449;   -1,136
365,772; 5650,673;   -1,995;    2,045
366,364; 5893,649;    1,915;   -3,227
366,957; 6112,129;    2,279;   -0,045
367,549; 6092,147;    2,188;   -0,864
368,142; 5820,250;    1,825;   -1,500
368,734; 5976,842;    0,734;   -2,136
369,327; 5951,630;    1,643;   -0,500
369,919; 5884,616;   -1,538;    0,409
370,512; 5769,073;   -1,083;   -0,500
371,104; 5548,604;   -0,901;    1,591
371,696; 5724,811;    1,191;   -0,955
372,289; 5767,557;    0,373;    1,136
372,881; 5880,964;   -2,080;    1,318
373,473; 5781,856;   -2,170;    1,136
374,066; 5675,010;   -0,169;    0,500
374,658; 5572,095;    0,378;    1,136
375,250; 5848,389;    0,653;   -1,409
375,842; 5714,694;    0,473;   -0,045
376,434; 5592,907;   -0,435;   -0,409
377,026; 6071,931;    0,204;   -2,500
377,618; 5994,005;   -0,158;   -0,682
378,210; 5843,250;   -0,338;   -1,955
378,802; 5715,410;    0,754;   -0,591
379,394; 5747,445;    1,846;    0,682
379,986; 6215,154;    1,393;   -0,955
380,578; 6288,119;   -0,153;    0,773
381,170; 5748,706;   -0,972;    0,045
381,762; 5696,101;    0,755;    1,409
382,354; 5838,224;   -0,065;   -1,318
382,945; 5918,030;   -2,976;    0,318
383,537; 6060,639;   -2,705;   -1,955
384,129; 6098,662;   -2,160;   -1,136
384,721; 6227,368;   -0,252;    0,955
385,312; 6153,430;   -0,161;   -0,955
385,904; 6265,986;   -2,706;    1,591
386,496; 5691,017;   -0,979;    1,045
387,087; 5844,923;    1,022;    2,500
387,679; 5856,569;   -1,160;    0,045
388,270; 5989,355;    2,840;    2,045
388,862; 6070,748;    1,295;   -0,318
389,453; 5941,244;   -0,887;    1,045
390,045; 6184,403;   -0,705;   -2,682
390,636; 6128,073;    0,204;   -0,591
391,227; 6000,679;   -0,523;   -0,045
391,819; 6107,481;    0,204;    0,773
392,410; 6170,560;    1,022;    0,045
393,001; 6095,272;   -0,979;   -1,591
393,593; 6340,142;    1,930;   -0,045
394,184; 6241,318;    1,385;   -0,409
394,775; 6114,318;    1,839;    2,136
395,366; 6292,099;    1,385;    0,773
395,957; 6256,538;    0,113;    0,136
396,548; 6528,140;   -0,342;    2,682
397,139; 6843,396;   -2,433;    0,591
397,730; 6621,302;   -1,888;    0,955
398,321; 6633,494;   -1,252;    0,955
398,912; 6615,702;   -0,615;    0,136
399,503; 6728,133;   -3,524;   -1,409
400,094; 6242,708;    0,294;    1,682
400,685; 6104,515;   -0,433;    0,045
401,276; 6179,512;    0,930;   -0,955
401,867; 6443,634;   -0,888;    0,773
402,458; 6540,443;   -2,251;   -2,318
403,048; 6521,477;    1,112;    0,591
403,639; 6165,442;    0,840;    0,864
404,230; 6426,001;    2,476;    0,318
404,821; 6373,679;   -0,615;    0,045
405,411; 6503,573;    1,203;   -2,591
406,002; 6114,456;   -1,252;   -1,136
406,592; 6038,080;    2,294;    0,045
407,183; 6277,094;    0,566;   -1,500
407,774; 6173,997;    3,475;   -0,136
408,364; 6446,630;    0,930;    0,409
408,954; 6113,271;    0,384;    1,227
409,545; 6189,247;    1,021;    1,045
410,135; 5765,986;    1,293;    0,500
410,726; 5904,348;    1,838;    0,318
411,316; 6275,128;    0,111;    0,773
411,906; 5950,388;   -0,253;   -0,409
412,497; 5540,145;   -1,070;   -0,045
413,087; 6041,419;   -1,980;   -0,227
413,677; 6392,007;   -0,707;    3,864
414,267; 6244,619;    0,656;    1,409
414,857; 6239,304;   -2,980;    4,227
415,448; 6461,694;    0,839;    0,500
416,038; 6190,332;    0,020;   -0,591
416,628; 6169,074;   -0,889;    0,409
417,218; 5748,830;    0,565;    3,318
417,808; 5995,151;    0,202;   -0,409
418,398; 6332,788;    0,020;    2,682
418,988; 6314,653;    2,020;    0,591
419,578; 6511,396;   -0,707;    1,409
420,168; 6841,161;   -1,343;   -0,955
420,757; 6511,898;   -1,343;   -1,500
421,347; 6189,526;    0,111;   -0,227
421,937; 6331,889;    2,292;    1,409
422,527; 6315,053;    0,838;   -0,773
423,116; 6140,651;   -0,253;   -0,045
423,706; 6405,611;   -1,889;    0,318
424,296; 6360,747;    1,384;    0,682
424,885; 6766,383;   -0,071;   -3,045
425,475; 7008,957;    1,474;   -2,864
426,065; 6886,025;   -0,980;   -0,318
426,654; 6572,156;   -0,435;   -0,318
427,244; 6716,255;    0,020;    1,409
427,833; 6241,229;    1,383;   -0,500
428,423; 6624,651;   -0,526;    1,136
429,012; 7277,686;   -0,344;   -1,136
429,601; 6834,214;   -1,344;    0,136
430,191; 7007,635;    1,292;    4,318
430,780; 6672,766;   -0,344;   -0,409
431,369; 6669,101;    0,746;   -0,045
431,959; 7198,285;   -1,254;    0,500
432,548; 6998,150;   -1,163;   -0,045
433,137; 7043,337;   -1,254;   -1,318
433,726; 7530,447;    0,292;    0,500
434,315; 7003,678;   -0,526;    2,409
434,905; 7081,081;   -1,254;    1,409
435,494; 7010,369;    0,746;    0,955
436,083; 7373,040;   -0,981;   -0,955
436,672; 7269,136;    0,110;    0,500
437,261; 6930,350;    0,292;   -1,955
437,850; 7057,641;    1,383;    0,682
438,439; 7042,974;    3,291;    1,955
439,027; 6917,614;    3,655;    1,773
439,616; 7211,918;    2,927;    1,227
440,205; 7025,592;    0,200;   -2,136
440,794; 7044,898;    2,109;   -0,045
441,383; 7254,317;   -1,346;   -0,591
441,971; 7128,315;   -2,436;    0,591
442,560; 6991,349;    0,563;   -1,773
443,149; 6742,991;    0,379;   -1,318
443,737; 6869,676;   -0,074;   -2,318
444,326; 7138,191;    0,018;    0,318
444,915; 7168,780;   -1,982;    0,864
445,503; 7489,570;   -2,891;   -0,318
446,092; 6901,301;    0,382;    2,136
446,680; 7348,239;    0,382;    0,318
447,269; 7453,652;   -0,346;   -0,318
447,857; 7284,660;    0,018;   -1,773
448,445; 7374,164;    0,563;    1,318
449,034; 7601,866;   -1,528;   -1,136
449,622; 7659,934;   -1,073;    3,500
450,210; 7093,884;    2,017;    2,227
450,799; 7531,001;    0,290;   -0,591
451,387; 7440,755;    1,381;   -0,591
451,975; 7158,818;    2,654;    0,864
452,563; 7277,742;    3,472;    2,318
453,151; 7270,732;   -0,528;   -1,227
453,739; 7197,976;   -1,347;    0,136
454,328; 7093,880;    2,381;   -2,136
454,916; 6847,637;    2,562;   -0,136
455,504; 6992,176;    1,017;    1,227
456,092; 7143,125;    0,017;   -1,591
456,679; 7127,762;    1,472;    0,682
457,267; 7156,316;    4,017;    1,045
457,855; 7210,389;    1,017;    1,409
458,443; 6948,581;   -0,165;    1,682
459,031; 7140,371;    0,108;    2,409
459,619; 7516,001;   -1,801;    2,864
460,206; 7560,278;    0,835;    2,045
460,794; 7660,352;   -2,983;   -0,227
461,382; 7820,161;   -0,529;   -0,864
461,970; 7447,115;    1,198;    1,864
462,557; 7475,091;   -0,711;   -0,682
463,145; 7650,677;   -3,165;   -1,682
463,732; 7800,600;    2,016;   -1,045
464,320; 7721,451;   -0,075;   -3,045
464,907; 7440,811;    2,743;   -0,773
465,495; 7323,354;    0,743;   -1,227
466,082; 7462,359;   -1,984;   -0,045
466,670; 7347,906;   -2,529;    1,227
467,257; 7730,411;   -1,711;    2,045
467,844; 7879,869;   -0,075;    0,045
468,432; 7910,621;    0,834;    3,500
469,019; 7448,428;    0,925;   -1,773
469,606; 7869,853;    0,470;    3,682
470,193; 7749,482;   -1,439;    0,227
470,780; 7386,379;   -2,075;    0,864
471,368; 7666,636;   -1,257;   -0,773
471,955; 7500,655;    1,379;   -0,682
472,542; 7193,735;    0,652;   -1,136
473,129; 7379,680;   -0,166;    0,136
473,716; 7130,995;    1,470;    0,591
474,303; 7270,496;    0,652;   -0,864
474,890; 7549,289;   -1,439;   -0,500
475,477; 7602,794;   -1,621;    0,409
476,064; 7498,693;    1,106;   -1,591
476,650; 7383,909;    0,288;    0,318
477,237; 7230,909;   -0,258;    0,955
477,824; 7413,707;   -1,076;    0,864
478,411; 7409,069;   -1,894;   -0,318
478,997; 7563,284;    0,560;   -0,773
479,584; 7598,683;    1,196;   -0,409
480,171; 8200,950;   -0,440;   -0,773
480,757; 7913,644;    2,651;    0,773
481,344; 8139,428;    0,469;    0,409
481,931; 7676,144;    1,105;    1,045
482,517; 8544,630;   -1,258;    0,318
483,104; 8981,114;    1,106;    2,864
483,690; 9169,320;   -1,804;    0,045
484,276; 9410,034;   -0,895;    0,227
484,863; 9192,324;    2,469;    1,136
485,449; 9658,724;   -0,077;    0,318
486,035; 9661,112;   -1,986;   -0,136
486,622;10054,580;   -0,895;    0,045
487,208; 9987,972;    1,378;    1,500
487,794; 9830,299;    0,741;    0,318
488,380; 9908,120;    0,105;   -1,409
488,967; 9980,523;   -1,168;   -0,409
489,553;10051,085;   -1,895;   -1,409
490,139;10281,926;    1,559;    0,773
490,725; 9765,906;    0,741;   -0,227
491,311; 9410,722;    3,287;    3,045
491,897; 8833,473;   -0,986;    1,500
492,483; 8782,408;    0,105;    1,227
493,069; 8743,997;    3,923;    0,864
493,655; 8646,233;    1,650;    0,682
494,241; 8572,867;    1,377;   -0,955
494,826; 8878,562;    0,287;   -1,045
495,412; 8407,039;    2,559;   -0,682
495,998; 8545,265;   -0,805;   -0,318
496,584; 8636,032;    0,377;    1,045
497,169; 8652,492;    1,014;   -0,682
497,755; 8601,666;    0,650;    1,227
498,341; 9126,514;    0,559;    0,318
498,926; 8746,770;    1,832;    1,955
499,512; 8877,486;    1,286;    2,955
500,097; 8950,608;    0,195;   -0,318
500,683; 8904,876;   -0,350;    2,136
501,268; 9239,763;   -0,169;   -0,955
501,854; 9019,381;   -0,169;    1,227
502,439; 8948,030;   -0,624;   -1,773
503,024; 9091,998;    0,195;    0,500
503,610; 9170,543;   -0,078;   -0,682
504,195; 9162,138;    0,558;    1,955
504,780; 9323,946;    2,922;    1,227
505,366; 9208,807;    3,013;    2,864
505,951; 8969,449;    0,740;    1,045
506,536; 8956,879;   -3,260;   -3,682
507,121; 8930,715;    0,285;   -0,318
507,706; 9370,011;    2,376;    1,045
508,291; 9727,972;    2,649;    1,136
508,876; 9237,769;   -0,988;    2,591
509,461; 8797,237;   -0,169;   -0,773
510,046; 9149,349;    0,194;    0,318
510,631; 9353,274;   -0,351;   -0,773
511,216; 9058,029;    2,467;   -0,500
511,801; 9418,880;   -0,442;    2,591
512,386; 9679,891;    0,740;    0,500
512,971; 9568,811;   -2,988;    0,955
513,555; 9212,031;   -0,897;   -1,500
514,140; 9896,897;   -0,442;   -3,136
514,725; 9877,252;   -0,715;   -1,136
515,309; 9981,295;   -0,533;    0,318
515,894; 9538,839;   -0,624;   -2,227
516,479; 9904,616;   -0,624;   -0,955
517,063; 9719,726;    0,376;    1,227
517,648; 9886,546;    1,012;   -1,136
518,232; 9481,476;   -0,261;   -1,409
518,817; 9854,045;   -0,079;    1,682
519,401;10058,065;    2,194;    0,591
519,985; 9570,789;    1,103;    1,136
520,570; 9467,047;    0,830;   -1,955
521,154; 9734,712;    2,102;    0,591
521,738; 9893,632;   -2,352;    2,409
522,323;10409,391;   -0,170;    1,682
522,907;10129,040;    0,466;   -0,136
523,491; 9878,610;    0,557;    0,955
524,075; 9889,269;    2,284;    0,591
524,659; 9994,126;    1,466;    0,591
525,243; 9540,878;    1,739;    0,409
525,827; 9714,952;    0,648;   -0,045
526,411;10435,399;   -1,989;   -0,136
526,995;10622,426;   -0,352;    1,409
527,579;10266,419;   -0,443;   -1,045
528,163;10519,721;    0,375;   -1,500
528,747;10465,196;    2,466;   -0,773
529,331;10703,240;   -0,080;   -1,409
529,915;10868,154;    1,738;    0,955
530,499;10822,313;   -0,807;    1,227
531,082;10566,190;   -0,534;    1,591
531,666;10087,346;    1,374;    0,773
532,250;10641,492;    1,284;    2,682
532,833;10940,343;    0,920;    2,773
533,417;10815,685;   -1,807;    0,864
534,001;10750,375;    1,647;   -0,318
534,584;11380,203;    0,374;    0,500
535,168;11215,974;    0,465;    1,409
535,751;11276,346;    0,647;    0,045
536,334;10736,964;   -0,898;   -0,409
536,918;11265,781;    0,011;    1,591
537,501;11339,014;   -0,899;    1,318
538,085;11323,312;   -0,444;    1,045
538,668;11413,063;    0,829;    2,409
539,251;11743,268;    1,829;    3,773
539,834;11787,721;    0,101;    0,773
540,418;11699,847;   -1,990;    4,318
541,001;11734,457;   -0,990;    1,773
541,584;11739,931;    2,101;    2,227
542,167;11446,235;    1,374;    2,955
542,750;11537,966;    1,919;   -0,773
543,333;11152,935;    0,555;    2,136
543,916;11831,539;    0,192;    2,500
544,499;12344,566;   -1,354;    0,227
545,082;12361,113;    1,374;    3,591
545,665;12477,041;    1,919;    1,500
546,248;12750,480;    1,010;   -0,318
546,830;12421,841;   -0,445;    1,955
547,413;12756,306;    1,010;   -0,773
547,996;13256,447;    0,555;    0,500
548,579;13026,682;    0,919;    0,955
549,161;12810,410;    1,828;    2,682
549,744;12600,735;   -0,809;    0,409
550,326;13078,509;   -0,809;   -1,136
550,909;12892,719;    2,737;    0,591
551,492;13235,097;   -0,263;    0,227
552,074;13057,382;   -0,173;   -1,318
552,657;13535,519;    2,373;    0,045
553,239;13326,316;   -0,173;   -0,773
553,821;13248,035;   -1,082;    1,045
554,404;12801,700;    1,282;    1,136
554,986;13115,705;    0,464;    1,045
555,568;13643,684;    1,191;   -0,955
556,151;12954,617;    1,191;   -0,227
556,733;13132,544;   -0,264;   -0,864
557,315;13495,921;    0,100;    0,500
557,897;13289,896;    0,554;   -0,500
558,479;13374,602;   -1,991;    1,318
559,061;13544,478;   -0,719;   -0,864
559,643;13813,495;   -0,264;    0,045
560,225;14091,685;    1,645;    2,864
560,807;14123,040;    0,918;    0,318
561,389;13660,065;    0,554;    2,318
561,971;14268,127;    0,463;    2,136
562,553;14126,206;   -1,628;    1,591
563,135;14222,478;   -0,537;    1,136
563,717;13861,295;    3,372;    1,136
564,298;14459,641;    3,645;   -0,045
564,880;14211,749;    0,645;   -1,409
565,462;14305,659;    0,645;    1,318
566,043;15336,690;   -0,446;    2,318
566,625;14915,076;    1,918;    1,227
567,207;14703,675;    1,099;    1,682
567,788;15622,381;   -1,264;    1,500
568,370;16319,619;    1,917;   -0,500
568,951;16100,111;    0,190;    0,227
569,533;16804,398;   -0,628;   -0,500
570,114;17240,149;   -0,446;    0,682
570,695;17594,824;   -0,174;   -1,318
571,277;17866,102;   -0,265;   -1,682
571,858;18462,984;    2,008;   -1,136
572,439;19169,979;    1,554;   -1,045
573,021;19267,274;    2,099;   -2,773
573,602;19631,382;   -1,265;    0,318
574,183;20430,433;   -2,083;    2,227
574,764;20392,204;   -1,629;    0,409
575,345;20802,777;    0,917;   -0,136
575,926;21296,698;   -0,356;    0,136
576,507;21268,859;    1,099;   -0,227
577,088;22223,200;    3,099;    1,682
577,669;22203,844;    0,735;    1,955
578,250;22903,160;    0,644;   -1,045
578,831;23352,561;   -1,356;   -2,227
579,412;23498,322;   -0,810;    0,955
579,993;24277,050;    1,008;    0,227
580,573;24513,687;   -0,629;   -0,955
581,154;23537,026;    0,735;   -0,591
581,735;24374,571;    0,644;    0,773
582,315;23841,480;   -0,629;    2,136
582,896;24115,295;   -0,174;    1,227
583,477;23642,396;    0,189;    1,227
584,057;23817,300;    0,553;    0,955
584,638;24045,778;    2,553;    2,318
585,218;24092,799;   -0,538;    2,682
585,799;24192,546;    0,281;   -0,227
586,379;24242,927;    0,372;    1,591
586,959;23246,570;    0,735;    0,318
587,540;22682,832;   -0,629;    2,227
588,120;22329,958;    1,007;   -0,045
588,700;21489,130;    2,553;    2,136
589,281;21857,005;    0,462;   -0,955
589,861;21830,440;    0,099;   -1,682
590,441;21660,233;    2,371;   -2,682
591,021;20732,618;   -0,265;   -2,591
591,601;20979,742;   -0,537;    0,500
592,181;21033,127;   -0,719;   -0,773
592,761;20387,246;    0,007;    1,409
593,341;20401,933;   -0,901;    0,045
593,921;20382,086;   -0,265;    1,591
594,501;20256,229;   -0,538;    1,318
595,081;20080,154;    0,917;   -0,318
595,661;20476,613;   -1,447;    0,955
596,240;20966,129;   -0,537;    0,136
596,820;20542,939;    0,372;    1,955
597,400;20632,611;    2,008;    0,773
597,980;20840,330;    2,008;    1,045
598,559;20882,406;    2,735;   -0,227
599,139;20655,908;   -0,174;   -1,227
599,718;20550,363;   -0,174;   -0,409
600,298;20838,156;    0,735;    0,682
600,877;21071,718;    2,917;    1,409
601,457;21244,619;    2,281;    1,136
602,036;21226,583;    0,190;    2,045
602,616;21351,898;    0,644;    1,682
603,195;21626,641;   -0,355;    3,500
603,774;21190,303;   -0,901;    2,045
604,354;21075,872;    0,826;   -0,500
604,933;20674,900;    0,463;    1,864
605,512;20791,055;    3,554;    0,591
606,091;20826,956;   -0,537;    3,773
606,671;21585,392;    0,281;    0,773
607,250;20796,257;    1,644;    3,136
607,829;21007,133;    2,372;    3,227
608,408;20903,433;    1,190;    2,591
608,987;20077,761;    1,281;    3,409
609,566;20299,590;   -1,265;   -2,500
610,145;20406,194;   -1,082;    0,682
610,723;20790,855;    4,372;    6,864
611,302;20117,598;   -0,446;    1,682
611,881;19715,874;    5,008;   11,227
612,460;20435,511;    1,645;    3,955
613,039;20814,071;   -0,082;    2,045
613,617;19673,612;    1,736;    4,773
614,196;19819,352;    1,099;    1,227
614,775;20141,638;    1,009;    2,409
615,353;20084,861;    0,736;    0,864
615,932;19912,498;    0,100;    2,409
616,510;20452,388;    0,554;    0,591
617,089;20075,681;    7,100;   17,591
617,667;19883,021;    2,372;    6,136
618,246;19733,766;   -1,537;    1,318
618,824;19836,291;   -3,355;   -0,955
619,402;19401,359;   -2,900;   -1,773
619,981;19878,013;   -0,173;   -1,045
620,559;19787,282;    0,009;    1,682
621,137;19331,943;   -0,718;    1,864
621,715;19370,331;   -1,173;   -0,682
622,293;19316,306;   -0,537;   -0,773
622,871;19768,103;   -0,718;    0,500
623,450;19337,252;    0,373;   -0,864
624,028;19269,327;    0,191;   -0,955
624,606;18923,868;   -1,718;    1,682
625,183;19299,884;   -1,536;   -1,136
625,761;19008,634;    1,009;    1,136
626,339;19325,642;    1,373;    2,591
626,917;19570,739;   -0,172;   -0,045
627,495;19573,422;   -0,354;    1,318
628,073;19119,507;   -0,263;    2,864
628,650;18848,767;    0,100;    2,136
629,228;19228,728;    0,373;    4,409
629,806;18722,631;    2,282;    1,136
630,383;18934,351;    1,464;   -0,318
630,961;18823,654;    2,555;   -0,955
631,539;18546,009;    2,464;    0,227
632,116;18063,109;   11,373;   15,409
632,694;18544,852;    2,555;    6,500
633,271;18734,225;    0,828;    2,682
633,848;18724,276;    1,828;    2,045
634,426;18726,971;   -1,081;    1,773
635,003;17991,023;    1,101;   -0,409
635,580;18248,022;    1,192;    3,682
636,158;18723,011;    3,737;    1,227
636,735;18705,793;    0,555;   -0,500
637,312;18809,415;   -0,809;   -0,682
637,889;18886,423;   -4,354;   -0,682
638,466;18469,246;   -3,990;   -0,409
639,043;18452,643;    2,101;   -1,136
639,620;18741,915;   -2,262;   -0,955
640,197;18993,210;    1,100;    1,682
640,774;19115,290;   -0,172;    1,136
641,351;19457,189;    0,737;    1,136
641,928;19003,542;   -0,627;    1,409
642,505;18694,259;    0,828;   -0,500
643,082;18757,885;   -1,718;    1,227
643,658;17903,419;   -0,718;    1,500
644,235;18536,227;    1,191;    2,500
644,812;18862,853;    1,918;    0,773
645,388;18635,388;   -0,991;    1,409
645,965;18653,287;   -0,809;    1,682
646,542;18743,003;   -1,445;   -0,227
647,118;18790,811;    1,009;   -0,955
647,695;18998,892;   -0,263;    1,136
648,271;18926,881;   -0,536;    0,500
648,848;19135,598;    0,736;    2,227
649,424;19003,587;    0,827;    1,318
650,000;18766,577;   -0,354;   -1,045
650,577;18661,021;   -0,627;   -0,955
651,153;18982,920;   -1,809;    0,955
651,729;19831,818;    1,191;    0,864
652,305;20074,444;    0,645;    2,773
652,881;23681,706;   -0,082;    1,136
653,458;28960,332;    1,100;    0,227
654,034;31550,322;    0,282;    1,591
654,610;32484,402;    0,554;    0,773
655,186;33554,119;    0,645;    3,045
655,762;33193,199;   -0,991;    0,409
656,338;33213,462;    0,100;    0,136
656,913;34102,542;   -0,082;    0,409
657,489;33363,077;    0,827;   -0,318
658,065;33390,067;   -0,173;   -1,591
658,641;34018,874;   -0,900;   -0,864
659,217;33410,318;   -0,991;    0,409
659,792;32883,126;    0,645;   -0,409
660,368;33151,207;   -2,173;   -0,682
660,944;32941,923;   -2,082;    1,227
661,519;29151,549;   -0,628;    0,409
662,095;24589,993;   -1,719;    0,591
662,670;21241,801;    1,281;   -0,136
663,246;20528,518;    1,009;   -0,409
663,821;20067,598;    0,281;    1,682
664,396;19579,042;    0,009;    1,864
664,972;19822,759;    0,009;   -0,500
665,547;20077,294;    1,372;    0,136
666,122;20123,920;   -1,082;    0,318
666,698;20334,546;   -0,173;    0,318
667,273;19709,535;   -0,173;    0,136
667,848;20426,525;    2,372;    1,500
668,423;20172,151;    2,190;    2,318
668,998;20605,322;    2,827;   -0,682
669,573;21086,221;   -3,264;   -1,500
670,148;20972,483;   -1,446;   -0,682
670,723;20695,382;   -1,810;    0,318
671,298;21117,644;    2,372;    1,045
671,873;21186,179;   -0,082;   -0,136
672,448;21163,805;    0,645;    0,136
673,023;21445,794;   -1,992;   -0,227
673,597;21763,420;    0,827;    2,318
674,172;21565,955;   -0,355;    0,318
674,747;21075,399;    0,372;   -1,045
675,321;20855,207;   -0,628;    3,318
675,896;20462,196;    0,645;    1,045
676,471;21387,277;    2,645;    1,591
677,045;21143,085;   -1,264;    0,682
677,620;21150,983;    0,190;    1,136
678,194;21468,973;   -2,628;    1,136
678,769;21095,689;   -1,083;   -0,318
679,343;21400,043;   -0,628;    1,773
679,917;21269,123;   -1,446;    1,955
680,492;21248,567;    0,826;    3,227
681,066;21380,193;    3,372;    0,409
681,640;21425,728;    1,463;   -0,318
682,214;22151,718;    0,735;    0,500
682,788;21691,889;   -1,356;   -0,773
683,363;21619,787;   -1,810;    1,682
683,937;21385,050;   -1,719;   -0,318
684,511;22061,494;    0,463;   -0,591
685,085;21776,029;   -1,356;    0,318
685,659;21499,655;   -2,538;    0,864
686,232;21786,008;   -0,356;   -0,318
686,806;21547,725;   -0,901;    0,409
687,380;22090,351;   -0,174;    0,591
687,954;22259,158;   -1,174;    1,136
688,528;21933,602;   -0,719;    1,955
689,101;22675,137;   -3,992;    1,045
689,675;22275,763;   -0,356;   -0,136
690,249;21690,025;   -0,719;    0,409
690,822;22040,106;    0,280;    0,318
691,396;22152,914;   -0,265;    1,227
691,969;21647,721;    1,280;    0,136
692,543;22083,165;   -0,447;   -1,955
693,116;21761,246;   -0,265;   -1,409
693,690;21671,326;    0,099;    0,500
694,263;22151,498;   -1,083;    2,955
694,836;22157,032;    1,371;    3,591
695,410;20932,295;   -0,265;    1,773
695,983;21330,375;    0,189;    0,591
696,556;21391,728;   -0,447;   -1,045
697,129;21650,627;   -0,356;    1,409
697,703;21327,253;   -1,629;    1,955
698,276;21385,515;    1,462;   -0,773
698,849;21225,141;    1,280;    1,409
699,422;21567,585;   -1,083;    0,591
699,995;21314,484;    0,007;    0,136
700,568;21747,746;   -0,629;    3,045
701,140;21732,099;   -2,811;    1,682
701,713;21520,816;   -0,174;    2,409
702,286;21325,169;   -0,538;    0,864
702,859;21131,068;   -0,902;   -0,591
703,432;20480,057;    0,825;    0,682
704,004;20890,865;    0,462;    0,318
704,577;20751,763;   -0,629;    0,136
705,150;21215,298;    0,189;    2,500
705,722;21070,015;   -0,356;   -3,227
706,295;20899,368;   -0,175;   -0,591
706,867;20722,812;   -0,175;    1,955
707,440;20988,075;   -1,720;   -0,409
708,012;21260,337;    0,462;    0,591
708,584;21127,690;    2,462;    0,227
709,157;21377,316;    1,825;   -0,591
709,729;21112,942;    2,280;    2,045
710,301;21852,204;    0,734;    0,045
710,874;21851,466;   -1,447;   -0,227
711,446;20788,547;    0,371;    0,864
712,018;20641,627;    0,098;    0,500
712,590;20450,708;   -1,993;    1,682
713,162;20940,424;    0,825;    1,318
713,734;21166,959;    1,825;   -2,045
714,306;21094,313;   -1,902;   -0,409
714,878;19918,029;    0,825;    0,864
715,450;20675,928;    0,643;    0,864
716,022;20916,736;    1,552;    1,318
716,593;21066,543;    0,189;    0,591
717,165;21018,260;   -3,175;   -1,227
717,737;20854,068;    0,280;    0,409
718,309;20516,239;    0,280;   -0,045
718,880;20432,592;   -0,539;   -1,409
719,452;20637,037;   -0,175;   -1,591
720,024;20337,208;    0,734;   -0,591
720,595;20835,561;   -2,902;    0,955
721,167;20426,460;    0,370;   -2,045
721,738;20008,449;   -0,812;   -1,045
722,309;20089,802;   -0,993;   -1,227
722,881;19903,792;   -1,357;    0,773
723,452;20427,963;   -2,630;    2,864
724,023;20557,953;   -0,721;    2,682
724,595;20340,488;    0,007;    0,682
725,166;20015,568;    0,007;   -0,409
725,737;19802,467;    1,734;    0,227
726,308;19924,820;   -0,266;    0,318
726,879;20323,809;   -1,630;    1,227
727,450;20137,163;    0,552;   -0,045
728,021;20062,334;    3,097;    0,682
728,592;19939,051;    0,734;    0,500
729,163;20245,858;    0,643;   -0,136
729,734;20221,302;    0,188;   -0,227
730,305;20559,474;    1,734;    0,136
730,876;20835,372;    0,188;    2,955
731,447;20622,453;    2,188;    2,682
732,017;20745,351;    1,097;    1,864
732,588;20277,523;    0,734;    1,227
733,159;20411,694;    0,643;   -1,045
733,729;20199,229;    0,006;    0,409
734,300;19639,673;    0,915;    0,864
734,870;19994,117;    3,461;    0,591
735,441;20466,289;    0,370;   -0,591
736,011;20262,733;    0,643;   -1,591
736,582;20223,904;   -0,812;    0,045
737,152;19721,348;   -1,721;   -2,045
737,722;20171,792;   -0,267;   -0,682
738,293;19900,418;   -1,358;    1,318
738,863;19808,135;    2,461;    2,318
739,433;19699,306;    5,279;    0,318
740,003;20244,659;   -0,994;   -0,682
740,573;19683,013;    2,097;   -1,591
741,143;19662,547;   -1,085;    0,318
741,713;20339,355;    1,188;   -0,500
742,283;20110,527;    0,915;    1,591
742,853;19941,880;    1,915;    1,591
743,423;19423,778;    1,733;    0,045
743,993;19551,859;   -0,358;    1,500
744,563;18976,757;    0,097;   -0,864
745,133;18941,474;   -0,812;   -0,864
745,702;19596,009;   -0,267;    1,773
746,272;18890,090;   -0,176;    0,591
746,842;18708,897;   -1,358;   -0,591
747,411;19114,705;   -0,267;   -0,318
747,981;19228,240;    0,097;    0,500
748,551;19238,502;    2,278;   -1,045
749,120;19154,037;    0,642;   -0,227
749,690;19465,845;   -0,631;    2,409
750,259;19768,925;    1,369;    2,955
750,828;19646,278;    1,551;   -1,955
751,398;19917,541;    1,278;   -0,045
751,967;19531,076;    2,187;    0,409
752,536;19710,702;   -0,813;   -0,227
753,105;20120,782;    0,096;    0,227
753,675;19890,044;    0,096;    1,773
754,244;19771,034;   -0,904;    3,591
754,813;19812,932;    0,551;    1,227
755,382;19373,649;    0,460;    0,955
755,951;19859,275;    1,551;    3,682
756,520;19512,628;   -0,085;    1,864
757,089;20032,709;    0,278;    0,500
757,658;20088,062;    1,733;    1,227
758,227;20068,233;    1,096;    0,318
758,795;20320,223;    1,187;    1,136
759,364;20603,849;   -0,086;   -0,591
759,933;19664,293;   -1,176;   -0,045
760,501;19229,919;    0,733;   -1,318
761,070;19654,999;   -2,813;   -1,409
761,639;20326,625;   -1,904;    1,318
762,207;19740,069;    1,551;   -0,955
762,776;19675,604;    0,369;    0,864
763,344;19626,593;   -0,995;    0,591
763,913;18725,038;   -0,722;    1,409
764,481;19473,391;    1,005;   -0,136
765,049;19357,744;   -1,358;    1,409
765,618;19214,188;   -0,086;    0,318
766,186;19286,541;    0,278;    0,136
766,754;19504,258;    0,005;    1,864
767,322;18634,247;   -1,995;    0,409
767,890;18615,601;   -0,722;   -1,773
768,459;19022,499;   -2,177;   -0,318
769,027;19138,670;    1,641;    3,409
769,595;18229,933;    3,278;    2,591
770,163;18685,377;    3,823;    2,955
770,730;18541,548;    0,732;   -0,136
771,298;18357,265;    0,187;   -1,409
771,866;18430,709;   -1,541;    4,955
772,434;18698,880;   -0,631;   -1,864
773,002;18873,143;    0,005;    0,682
773,569;18607,950;    0,914;    1,682
774,137;18444,303;   -0,268;   -0,045
774,705;19132,202;    0,278;   -0,136
775,272;18743,283;    0,641;    0,682
775,840;18558,272;   -0,177;    2,682
776,407;18057,080;    0,277;    1,955
776,975;17728,524;   -0,632;    0,318
777,542;18623,332;   -1,086;   -0,045
778,110;18501,321;   -1,268;   -0,045
778,677;18150,492;   -2,359;   -0,864
779,244;17959,209;    2,186;    1,045
779,812;18058,381;    1,823;    0,864
780,379;17937,643;    0,005;    1,136
780,946;18178,450;    1,005;   -0,773
781,513;18474,167;   -1,450;    0,318
782,080;17904,157;   -0,086;    2,864
782,647;18523,419;   -0,268;    3,045
783,214;18216,227;   -0,177;    3,864
783,781;17921,853;   -0,723;   -0,682
784,348;17806,024;   -0,632;    1,500
784,915;18137,741;   -3,177;    0,318
785,482;17925,639;    1,368;    2,591
786,049;18350,447;    0,186;   -0,591
786,615;18503,164;    0,277;   -0,955
787,182;18256,699;    0,186;   -0,682
787,749;17974,961;   -2,814;    1,409
788,315;17373,405;   -1,632;   -0,409
788,882;17610,758;    1,550;   -1,227
789,448;18272,930;    1,732;   -0,955
790,015;18260,010;    1,095;    3,227
790,581;17897,454;    1,459;    0,227
791,148;17780,444;    0,641;    1,045
791,714;17945,161;   -0,541;    3,136
792,280;17710,514;    0,186;    1,591
792,847;17373,321;    0,550;    2,500
793,413;17783,765;   -0,269;   -0,318
793,979;17478,391;    3,459;   -1,318
794,545;17540,017;    4,459;    2,682
795,111;17075,825;    2,186;    1,318
795,678;17219,087;    0,731;   -1,682
796,244;16900,804;    3,368;    0,136
796,810;17376,339;    1,731;    0,773
797,375;17131,510;    0,549;   -2,136
797,941;17148,045;   -0,541;    0,591
798,507;17269,489;   -0,451;   -0,955
799,073;16849,024;   -0,360;    0,591
799,639;16917,650;   -2,632;    3,136
800,205;16951,094;    0,095;    2,682
800,770;16549,993;    0,640;    1,773
801,336;16643,073;    1,368;   -0,955
801,901;16435,881;    4,549;    3,136
802,467;16961,143;   -0,542;    2,045
803,033;16358,224;   -0,087;    0,864
803,598;16507,213;    1,913;   -1,045
804,163;16558,930;    1,095;   -0,318
804,729;16538,283;   -0,178;    1,136
805,294;16822,455;    0,822;    2,227
805,859;16656,262;    0,731;   -0,409
806,425;16301,524;    1,186;    2,682
806,990;15976,059;    2,186;    4,318
807,555;16383,504;   -1,451;    2,591
808,120;16340,038;    0,822;   -0,409
808,685;16297,483;    0,185;   -2,500
809,250;15909,018;    0,004;   -0,500
809,815;16140,643;    1,913;    0,682
810,380;16629,724;   -0,269;    1,591
810,945;17093,532;   -1,087;    2,045
811,510;16413,430;    2,094;    1,591
812,075;16120,783;   -0,633;   -1,409
812,640;16118,227;    2,003;    1,409
813,204;16253,035;    0,822;   -0,227
813,769;16644,025;    2,094;   -0,045
814,334;16131,196;    0,458;    0,864
814,898;16202,004;    0,367;    0,591
815,463;16059,811;    1,276;   -0,773
816,027;16046,619;   -0,724;   -2,318
816,592;16169,790;    0,640;   -2,045
817,156;15755,507;    2,094;    1,136
817,721;15654,497;    4,276;    2,318
818,285;15636,214;    2,912;    1,500
818,849;16178,385;   -1,451;    1,682
819,414;16085,920;   -0,269;    2,955
819,978;15701,000;   -1,269;    1,773
820,542;16234,808;    2,003;    0,500
821,106;16005,616;   -0,815;    0,682
821,670;16104,787;   -0,815;    2,591
822,234;15840,777;   -0,270;    1,409
822,798;15320,221;    0,003;    0,500
823,362;15374,392;   -0,633;    4,227
823,926;14803,654;    0,094;    1,136
824,490;14989,007;   -0,997;   -0,682
825,054;15379,542;   -0,088;   -1,136
825,618;15078,714;   -1,542;   -1,500
826,181;15071,067;    0,458;   -1,318
826,745;14971,602;    1,367;   -1,045
827,309;15280,591;    1,185;    1,318
827,872;14804,217;    1,367;    0,955
828,436;15647,570;    1,185;   -0,773
828,999;15701,924;   -0,997;    1,227
829,563;14714,731;   -0,179;    1,136
830,126;14540,630;   -0,179;   -0,591
830,690;14600,074;   -1,997;    2,864
831,253;14134,154;   -0,543;    2,227
831,816;14277,053;   -1,906;    0,500
832,380;14235,952;    0,185;    0,864
832,943;14488,214;   -1,361;   -0,500
833,506;14012,476;    2,639;   -1,227
834,069;14707,829;    3,912;   -0,955
834,632;14788,364;    1,730;    1,318
835,195;14696,536;    1,003;    0,955
835,758;13971,798;   -0,997;    1,955
836,321;13864,151;    0,730;   -1,045
836,884;13954,231;   -0,725;   -0,955
837,447;13992,494;   -2,816;    1,773
838,010;14229,029;    0,366;    3,227
838,573;14501,018;   -1,179;    0,773
839,135;14519,917;   -1,361;   -0,955
839,698;13979,997;    1,275;    0,409
840,261;13563,896;    1,003;   -0,227
840,823;13442,340;   -0,543;    0,864
841,386;13695,420;   -0,452;   -2,409
841,948;13651,137;   -1,361;    1,773
842,511;13364,854;    0,912;    1,682
843,073;13497,480;    1,912;    0,227
843,636;13336,106;   -0,361;   -0,227
844,198;13292,095;    0,911;    0,591
844,760;13419,903;    1,093;    1,955
845,322;13088,256;    0,548;    1,136
845,885;13455,064;    0,730;    0,591
846,447;13890,508;   -1,998;    0,227
847,009;13566,770;    1,911;   -0,682
847,571;13786,123;    0,820;   -2,045
848,133;13865,386;   -1,089;   -1,864
848,695;13683,739;   -0,543;    1,409
849,257;13326,819;   -1,089;   -1,682
849,819;13485,081;   -0,998;   -0,409
850,381;13480,435;   -0,725;   -0,864
850,942;13771,606;    1,093;   -0,591
851,504;13725,232;    1,184;    0,227
852,066;13752,676;    1,275;   -1,591
852,628;13407,665;   -0,180;    1,955
853,189;12945,928;    1,638;    2,682
853,751;13104,826;   -0,907;    1,409
854,312;12939,998;   -0,453;   -1,682
854,874;13399,805;   -2,089;   -0,773
855,435;13808,886;   -0,907;   -1,682
855,997;13940,330;   -1,816;   -0,136
856,558;13345,592;    0,366;    1,773
857,119;13437,400;    0,820;    2,864
857,681;13143,571;    0,002;    0,318
858,242;13235,561;    1,911;   -2,136
858,803;13584,005;    0,456;   -0,773
859,364;14119,267;    0,184;   -4,773
859,925;13569,256;   -2,453;   -0,955
860,486;13408,428;   -0,453;   -0,955
861,047;13179,145;   -0,544;   -1,227
861,608;13057,407;   -1,089;   -0,773
862,169;13194,396;    0,638;   -0,045
862,730;12986,840;    0,456;    1,409
863,291;13208,830;   -0,635;   -0,500
863,852;13512,819;   -0,635;    1,955
864,412;13054,173;   -0,271;   -0,864
864,973;11855,162;   -0,089;    0,500
865,534;11736,697;   -1,726;    0,227
866,094;13009,505;    1,820;    0,227
866,655;12730,676;    1,274;    3,318
867,215;12974,757;    0,274;    0,136
867,776;12867,019;    0,547;   -0,136
868,336;12928,736;   -1,453;    0,136
868,897;12515,634;    2,638;    1,682
869,457;12309,078;    1,365;    0,318
870,017;12531,068;    0,547;   -1,227
870,578;12993,603;   -0,817;    0,773
871,138;12652,956;   -2,089;   -0,955
871,698;12235,400;   -0,817;   -1,318
872,258;12165,117;   -0,453;   -2,864
872,818;12560,379;    2,729;    0,045
873,378;12516,096;    0,638;    1,045
873,938;12104,540;    0,547;    0,500
874,498;12388,075;    0,274;   -1,955
875,058;12325,246;    2,183;    1,773
875,618;12178,236;    1,910;   -2,682
876,177;12110,498;    1,274;    0,136
876,737;11780,851;   -0,090;    1,955
877,297;11868,204;    0,183;    1,955
877,856;11884,921;   -0,362;    0,318
878,416;11807,729;    1,183;   -0,136
878,976;11997,900;   -1,817;    0,409
879,535;12170,981;    0,092;    3,136
880,095;11976,970;   -0,544;    0,045
880,654;12050,960;   -1,090;    1,318
881,213;12167,404;    2,456;    1,500
881,773;11811,484;    2,637;    2,682
882,332;12181,292;    3,365;    5,136
882,891;12005,281;    3,092;    2,136
883,451;12380,907;   -1,272;    1,682
884,010;11872,442;   -2,908;   -0,409
884,569;12016,886;   -0,999;   -0,045
885,128;12131,512;    2,819;   -1,864
885,687;12197,774;    4,455;    0,682
886,246;11933,128;    1,455;    2,136
886,805;11714,844;    2,455;    2,045
887,364;11897,289;   -0,999;   -0,500
887,922;12266,187;   -1,181;    0,045
888,481;11810,904;   -1,545;    0,591
889,040;12066,530;    1,183;    2,136
889,599;12568,338;    2,455;    1,409
890,157;12642,600;    1,455;    2,409
890,716;12308,862;   -0,090;    0,227
891,274;12150,579;    0,092;   -1,136
891,833;12553,568;    1,546;    0,864
892,391;12389,285;   -0,454;    0,500
892,950;12476,820;    1,819;   -0,773
893,508;12803,173;    0,455;   -0,409
894,067;12201,254;    0,637;    0,136
894,625;12119,970;   -0,636;   -1,500
895,183;12338,415;   -0,363;   -0,682
895,741;12283,950;    1,728;   -1,773
896,299;12084,212;   -0,545;   -2,409
896,858;12270,656;    0,819;   -1,591
897,416;12407,736;    2,728;   -1,318
897,974;12205,180;    1,819;    0,318
898,532;12387,624;    6,091;    2,682
899,089;12291,068;    2,091;   -0,682
899,647;12344,422;   -1,454;    1,318
900,205;12132,411;    1,182;    1,045
900,763;12254,492;   -0,454;    0,227
901,321;12277,845;    2,364;   -1,409
901,878;11781,471;   -1,000;   -0,773
902,436;11682,915;   -1,363;    1,318
902,994;12093,813;    4,728;    3,682
903,551;11614,348;    0,728;    0,409
904,109;11968,883;    0,182;   -1,409
904,666;11642,327;    2,455;    1,045
905,224;11507,771;    0,182;   -0,409
905,781;11322,216;    0,727;   -0,318
906,338;11341,750;   -1,363;    1,045
906,895;11285,649;    0,637;    2,045
907,453;11237,275;    1,727;    1,136
908,010;11255,719;   -0,909;    0,409
908,567;10987,436;    1,273;    0,591
909,124;10524,062;    0,364;   -1,500
909,681;10583,506;   -2,909;    0,682
910,238;10786,404;    0,636;   -1,318
910,795;11068,121;   -0,273;   -1,136
911,352;10739,121;   -2,909;   -2,682
911,909;10262,121;   -1,364;   -0,864
912,466;10748,394;   -3,182;    1,500
913,022;10307,303;   -1,636;    0,500
913,579;10635,939;   -0,909;    2,045
914,136;10410,212;    1,636;    0,955
914,692;10680,576;    0,091;   -1,227
915,249;10340,303;    1,455;    0,409
915,806;10548,485;    0,182;    1,955
916,362;10396,939;    1,909;    1,864
916,918; 9972,394;    2,000;    1,045
917,475;10009,758;   -1,182;    0,955
918,031;10094,667;    3,364;   -0,045
918,587; 9622,394;   -0,909;   -0,318
919,144; 9854,212;   -2,273;    0,227
919,700;10108,121;    1,727;    0,773
920,256; 9706,667;    0,727;    0,045
920,812; 9417,939;   -0,727;   -1,045
921,368; 9482,758;   -1,727;   -1,045
921,924; 9146,212;    0,182;   -0,136
922,480; 8829,576;   -0,545;    1,227
923,036; 9385,485;    1,273;    1,955
923,592; 9330,212;    0,455;    0,318
924,148; 9296,212;    0,455;   -0,955
924,704; 8735,576;   -1,364;   -0,409
925,259; 9010,121;   -0,273;    0,591
925,815; 8793,030;    1,455;    0,500
926,371; 8394,576;    2,909;    1,409
926,926; 8342,303;    2,091;    0,591
927,482; 8060,030;   -1,364;    0,773
928,037; 8000,303;    0,909;    2,045
928,593; 8298,030;    1,636;    1,045
929,148; 8134,303;   -1,818;   -1,500
929,704; 7737,848;   -1,455;   -0,500
930,259; 7887,212;    0,091;   -0,136
930,814; 7165,758;   -0,818;    1,955
931,369; 6932,394;    1,091;   -0,773
931,925; 6844,030;   -0,091;    0,136
932,480; 6773,030;   -2,818;   -2,591
933,035; 6794,030;    0,545;   -0,318
933,590; 6607,394;    0,364;   -1,773
934,145; 6331,394;   -1,364;   -0,318
934,700; 6595,667;    0,455;   -0,591
935,255; 6459,485;   -0,091;    0,045
935,809; 5964,212;    3,182;    0,864
936,364; 5255,576;   -0,455;   -0,136
936,919; 5267,030;    0,455;   -1,773
937,474; 5236,485;    1,455;    0,136
938,028; 5052,394;   -1,636;    1,136
938,583; 4717,667;    1,818;    4,682
939,138; 4882,212;    2,091;    2,136
939,692; 4416,758;    1,636;   -1,136
940,247; 4226,212;   -0,727;   -1,045
940,801; 3942,848;   -0,636;    0,227
941,355; 3881,303;   -0,364;    2,591
941,910; 3578,212;   -0,273;   -2,136
942,464; 3689,030;   -0,818;   -0,318
943,018; 3627,848;    1,000;   -0,227
943,572; 3551,576;    2,545;   -0,682
944,126; 3140,394;    0,091;   -0,409
944,681; 3038,121;    3,091;    0,227
945,235; 3014,394;    1,000;   -0,591
945,789; 2966,485;    0,364;   -1,864
946,342; 3153,667;    0,455;   -0,591
946,896; 2910,758;   -2,273;    0,955
947,450; 2686,030;    1,545;   -0,227
948,004; 2933,303;    1,727;   -0,045
948,558; 2890,394;    0,273;   -0,864
949,111; 2821,848;   -0,273;   -0,318
949,665; 2959,303;    1,636;   -0,682
950,219; 2846,121;   -0,091;   -1,045
950,772; 2860,576;   -1,909;    1,864
951,326; 2797,394;    0,545;   -0,955
951,879; 2833,121;    0,727;   -2,318
952,433; 2887,485;    0,000;    2,227
952,986; 2718,030;    2,909;    0,682
953,539; 2666,667;   -0,273;    0,591
954,093; 2616,212;    0,545;   -1,318
954,646; 2749,394;    0,909;    1,318
955,199; 2591,667;    0,000;   -0,500
955,752; 2582,485;   -0,455;    1,773
956,305; 2508,394;   -0,091;    2,955
956,858; 2647,212;    0,818;   -0,318
957,411; 2785,576;   -0,545;    2,136
957,964; 2642,576;    1,364;    2,136
958,517; 2602,121;   -1,545;    3,136
959,070; 2455,939;   -0,455;    1,955
959,623; 2637,939;    1,091;    1,500
960,176; 2446,303;    1,727;    2,045
960,728; 2412,667;   -2,727;    0,773
961,281; 2462,121;    0,545;    0,500
961,834; 2467,667;   -0,909;    0,864
962,386; 2392,212;    1,727;    1,045
962,939; 2316,667;    0,364;   -0,318
963,491; 2433,121;    0,455;    1,136
964,043; 2329,394;    1,182;    2,409
964,596; 2485,394;   -1,000;    2,227
965,148; 2327,121;   -1,000;    1,773
965,700; 2243,121;    1,091;   -0,227
966,253; 2401,212;   -0,636;    0,318
966,805; 2294,121;   -2,273;    0,773
967,357; 2297,667;    1,091;   -1,500
967,909; 2317,758;    0,455;   -1,227
968,461; 2347,303;    0,545;    3,136
969,013; 2268,485;   -0,182;   -0,864
969,565; 2364,303;   -0,455;   -1,136
970,117; 2568,667;   -0,364;    1,045
970,669; 2305,758;    0,182;   -0,136
971,220; 2146,212;   -0,455;   -1,500
971,772; 2113,030;   -0,636;   -0,318
972,324; 2254,758;    0,091;   -0,500
972,876; 2168,121;    0,818;   -0,045
973,427; 2341,758;    1,909;   -1,045
973,979; 2325,485;   -0,727;   -2,500
974,530; 2253,485;    1,818;    1,318
975,082; 2286,121;   -0,545;    1,682
975,633; 2202,212;    1,091;    1,682
976,184; 2330,303;    0,909;    0,773
976,736; 2183,576;    0,091;    0,227
977,287; 2056,030;   -0,909;   -0,500
977,838; 2173,303;    0,909;   -0,318
978,389; 2207,667;   -1,000;   -0,500
978,940; 2054,212;    0,545;   -0,409
979,491; 2095,485;    0,091;   -0,500
980,042; 2086,030;    0,182;    3,045
980,593; 2109,121;   -2,545;    0,227
981,144; 2211,394;    2,545;   -0,500
981,695; 2235,394;    1,455;    1,500
982,246; 2185,939;   -0,273;    1,045
982,797; 2233,394;   -1,727;    0,682
983,347; 2347,394;    0,364;    0,591
983,898; 2545,939;    3,091;    0,409
984,449; 2402,576;    2,182;    0,773
984,999; 2247,121;    1,455;   -1,136
985,550; 2082,030;    0,182;   -0,318
986,100; 2059,030;   -0,455;   -0,318
986,651; 2082,485;   -0,818;    0,045
987,201; 2086,485;   -1,000;   -0,591
987,751; 2133,394;    0,818;    2,864
988,302; 2152,303;    2,636;    1,500
988,852; 2172,212;    0,455;   -1,136
989,402; 2238,576;    0,091;    0,682
989,952; 2184,939;   -2,182;    0,864
990,502; 2211,758;   -0,091;    0,682
991,052; 2118,485;   -0,727;    0,045
991,602; 2040,758;   -2,909;    1,318
992,152; 2074,576;    0,455;    0,682
992,702; 2068,939;    1,364;   -0,045
993,252; 1993,030;   -3,000;   -0,500
993,802; 2116,848;   -0,273;    1,318
994,352; 2256,848;   -1,545;    1,136
994,901; 2290,212;   -0,182;    3,227
995,451; 2226,939;   -0,182;    0,318
996,000; 2294,485;    1,636;    0,318
996,550; 2082,939;    2,273;    0,227
997,100; 2084,212;    1,273;   -0,045
997,649; 2348,485;    2,182;    0,955
998,198; 2029,394;    1,727;   -1,500
998,748; 2230,848;    1,091;   -2,318
999,297; 2106,576;   -0,818;   -0,409
999,846; 2219,848;    1,000;   -0,773
1000,395; 2210,303;   -0,818;    0,500
1000,945; 2237,667;    1,818;   -0,773
1001,494; 2300,121;    2,364;    0,682
1002,043; 2253,939;    4,636;    0,864
1002,592; 2082,121;   -1,091;    1,955
1003,141; 2223,576;   -0,455;   -0,682
1003,690; 2152,121;    1,727;    0,500
1004,238; 2155,939;    1,455;   -0,045
1004,787; 1856,667;    1,364;    1,227
1005,336; 2125,121;    0,364;    0,682
1005,885; 2186,576;    1,364;   -2,773
1006,433; 2259,576;    0,545;    0,955
1006,982; 2431,485;    0,455;    1,682
1007,531; 2277,303;   -1,818;   -0,227
1008,079; 2177,485;   -2,273;    0,500
1008,627; 2282,576;   -1,455;    0,409
1009,176; 2099,667;    0,000;   -1,955
1009,724; 2127,212;    1,091;    0,864
1010,273; 2243,303;    1,273;    0,500
1010,821; 2276,212;    0,091;    1,409
1011,369; 2052,303;   -1,364;    1,318
1011,917; 2053,485;   -1,364;   -0,591
1012,465; 2302,212;    1,273;   -1,591
1013,013; 2355,576;    2,091;   -1,682
1013,561; 2310,485;    0,455;   -0,773
1014,109; 2406,303;   -1,909;    1,682
1014,657; 2265,576;    0,364;    0,591
1015,205; 2309,576;    1,636;   -0,955
1015,753; 2294,576;   -0,545;   -1,409
1016,301; 2338,394;   -2,636;    3,045
1016,848; 2375,758;   -1,273;    0,409
1017,396; 2424,758;    2,545;    0,045
1017,944; 2496,576;    1,182;    1,864
1018,491; 2258,667;    0,273;    1,409
1019,039; 2552,121;    0,455;    0,591
1019,586; 2349,121;   -1,364;    1,682
1020,134; 2401,212;    0,455;    1,500
1020,681; 2451,758;    0,182;   -1,136
1021,228; 2401,485;    2,909;   -2,227
1021,776; 2264,212;    1,182;   -1,136
1022,323; 2539,758;    0,455;    0,773
1022,870; 2436,121;   -1,000;   -0,045
1023,417; 2408,303;    2,636;    1,864
1023,964; 2440,576;    2,636;    1,227
1024,511; 2332,030;    1,000;    0,773
1025,058; 2177,667;    3,182;   -0,045
1025,605; 2216,576;   -2,273;    3,136
1026,152; 2468,485;    1,727;   -0,591
1026,699; 2194,939;    1,818;    1,318
1027,245; 2311,576;   -0,091;    0,318
1027,792; 2441,667;   -1,000;    1,409
1028,339; 2444,939;    2,364;   -0,045
1028,885; 2297,485;    1,000;   -0,227
1029,432; 2227,394;   -0,091;    0,227
1029,978; 2319,030;   -1,000;   -1,591
1030,525; 2228,758;    1,000;    0,409
1031,071; 2353,576;   -1,364;    1,136
1031,618; 2569,848;    0,364;    1,682
1032,164; 2330,212;   -0,091;    3,045
1032,710; 2389,939;    1,636;   -1,500
1033,256; 2294,667;   -0,636;   -0,136
1033,803; 2212,394;   -0,545;    1,500
1034,349; 1983,121;   -1,364;    0,136
1034,895; 2120,030;    0,000;   -0,318
1035,441; 2129,939;   -0,818;    0,318
1035,987; 2144,939;   -2,364;   -0,682
1036,533; 2190,848;   -1,455;   -0,955
1037,078; 2409,394;    1,455;    1,682
1037,624; 2201,576;    2,455;   -0,955
1038,170; 2193,939;    0,455;   -0,318
1038,716; 2173,030;    1,636;   -0,409
1039,261; 2043,667;   -2,273;   -0,773
1039,807; 2003,212;   -0,091;    3,409
1040,352; 2089,848;   -1,909;   -0,318
1040,898; 2101,030;   -1,545;   -0,682
1041,443; 1995,212;   -1,455;   -2,591
1041,989; 2157,212;    1,091;    1,591
1042,534; 1973,848;   -0,364;    2,591
1043,079; 1999,758;    2,909;    0,955
1043,625; 1913,212;    1,818;    0,500
1044,170; 1959,303;   -1,364;    1,045
1044,715; 2226,576;    2,455;    0,955
1045,260; 2036,212;    2,182;   -0,955
1045,805; 2013,939;    1,182;   -0,591
1046,350; 1936,939;    1,364;   -0,409
1046,895; 2022,667;    2,909;    1,591
1047,440; 2000,212;    5,364;    0,409
1047,985; 1850,576;    2,818;   -0,955
1048,530; 1767,667;    1,545;    1,227
1049,074; 1859,939;    0,000;    0,318
1049,619; 1806,758;   -1,364;    1,955
1050,164; 1668,212;    0,455;    0,227
1050,708; 1731,212;   -0,455;    0,045
1051,253; 2118,758;    1,273;   -2,227
1051,797; 1817,576;    0,818;   -1,318
1052,342; 1751,394;   -1,182;    1,045
1052,886; 1792,485;    0,364;   -1,409
1053,430; 1643,667;   -1,364;    0,136
1053,975; 1679,303;   -0,818;   -0,318
1054,519; 1690,667;   -0,727;    3,227
1055,063; 1764,485;    0,909;    1,318
1055,607; 1665,576;   -0,182;    0,227
1056,151; 1682,939;    2,909;    1,682
1056,695; 1565,303;    2,273;   -1,136
1057,239; 1623,576;   -1,727;   -0,682
1057,783; 1651,030;    0,818;   -1,500
1058,327; 1665,212;    0,000;    1,409
1058,871; 1894,303;   -0,545;    1,318
1059,415; 1613,212;   -0,818;   -0,045
1059,958; 1899,939;    1,455;    2,591
1060,502; 1606,394;   -1,000;   -0,773
1061,046; 1472,030;    0,364;   -0,955
1061,589; 1441,758;   -3,000;   -1,136
1062,133; 1351,576;   -1,273;    1,864
1062,676; 1322,394;    1,182;    0,864
1063,220; 1347,485;    1,091;    0,500
1063,763; 1386,939;    0,909;    1,136
1064,306; 1452,848;   -0,909;    1,864
1064,849; 1374,576;   -0,909;    0,591
1065,393; 1366,667;    2,000;   -1,500
1065,936; 1453,303;    0,182;   -0,409
1066,479; 1317,485;   -1,455;    1,318
1067,022; 1347,121;   -0,273;   -0,227
1067,565; 1263,848;   -0,091;   -1,318
1068,108; 1267,394;    0,727;   -0,591
1068,651; 1239,212;   -0,636;    1,409
1069,194; 1191,848;   -0,455;   -1,682
1069,736; 1220,848;   -1,273;    0,955
1070,279; 1178,121;   -1,364;   -0,500
1070,822; 1277,758;   -2,000;   -0,318
1071,364; 1400,030;   -0,364;    1,318
1071,907; 1200,485;   -0,727;    3,227
1072,450; 1037,394;    0,000;   -0,045
1072,992; 1073,485;   -0,273;    3,136
1073,535; 1230,848;    2,091;    2,136
1074,077; 1043,030;   -0,727;    2,045
1074,619; 1021,212;   -1,364;    0,591
1075,161; 1075,121;   -1,091;    1,500
1075,704; 1259,939;    1,545;    1,227
1076,246; 1037,303;   -0,182;    0,682
1076,788;  945,667;   -0,364;    1,773
1077,330;  994,576;    1,273;    2,136
1077,872; 1004,758;    0,909;    0,955
1078,414; 1249,394;    2,727;    0,773
1078,956; 1008,758;    1,273;   -0,227
1079,498; 1278,212;    1,636;    0,318
1080,040;  978,939;    1,909;   -1,318
1080,581;  907,939;    1,636;   -0,318
1081,123;  822,758;    0,091;   -0,773
1081,665;  866,485;   -1,182;   -0,955
1082,206; 1196,758;    1,364;   -0,500
1082,748; 1049,667;    0,727;    2,045
1083,289;  905,212;   -2,000;    1,318
1083,831;  841,848;   -0,545;    0,227
1084,372;  909,758;    0,000;    0,591
1084,913;  908,394;    1,091;    0,864
1085,455;  842,394;   -1,909;   -2,045
1085,996;  838,939;   -2,273;    0,136
1086,537;  877,848;   -0,091;    0,864
1087,078;  902,303;   -0,909;   -2,136
1087,619;  949,848;   -1,273;    0,227
1088,160;  851,667;    0,000;    1,318
1088,701;  834,576;   -1,091;    0,682
1089,242;  792,576;    1,364;   -2,227
1089,783;  898,667;   -0,273;    1,409
1090,324;  870,303;    0,455;    0,682
1090,865;  746,939;    2,727;   -0,409
1091,405;  703,758;    0,727;    2,227
1091,946;  735,848;    0,182;   -0,955
1092,487;  655,485;    0,818;   -1,409
1093,027;  846,394;   -1,364;   -1,500
1093,568;  702,667;   -0,364;    1,227
1094,108;  801,939;    0,273;    1,773
1094,649;  753,030;   -1,182;    0,136
1095,189;  686,939;   -0,636;   -0,682
1095,729;  648,939;   -0,091;    0,955
1096,269;  644,303;    0,727;   -0,955
1096,810;  951,848;   -1,364;    0,500
1097,350;  797,848;    1,364;   -0,773
1097,890;  697,212;    0,364;    1,227
1098,430;  962,667;    2,364;    2,864
1098,970;  850,030;    2,182;    1,682
1099,510;  669,303;    0,545;   -2,318
1100,050;  610,939;    1,000;   -1,591
1100,589;  597,303;   -0,727;   -0,318
1101,129;  724,303;    0,818;   -0,955
1101,669;  876,485;    1,727;    2,136
1102,209;  712,212;   -0,091;    2,227
1102,748;  660,485;    0,000;    0,955
1103,288;  658,576;    1,273;   -1,227
1103,827;  678,394;    3,091;   -2,227
1104,367;  559,667;   -0,091;   -2,409
1104,906;  533,667;    1,364;   -1,136
1105,445;  615,485;    0,636;   -1,136
1105,985;  567,576;   -0,727;    1,500
1106,524;  606,121;   -1,727;   -0,682
1107,063;  586,667;   -2,727;    1,409
1107,602;  536,485;   -1,909;   -1,500
1108,141;  479,303;   -1,909;    1,500
1108,680;  597,576;   -3,455;   -0,591
1109,219;  536,121;   -0,909;   -0,500
1109,758;  525,848;    0,455;    0,682
1110,297;  500,485;    1,000;   -0,682
1110,836;  460,121;   -0,727;    0,955
1111,375;  614,303;   -2,545;    0,409
1111,913;  631,758;   -1,000;    0,773
1112,452;  566,848;   -0,273;    0,136
1112,991;  446,212;    1,091;    1,955
1113,529;  418,939;   -0,818;   -0,045
1114,068;  490,758;   -0,273;    2,955
1114,606;  395,121;   -0,364;   -0,955
1115,144;  554,758;   -1,273;    1,045
1115,683;  491,485;   -0,727;    0,318
1116,221;  540,212;   -0,455;   -0,864
1116,759;  450,303;    0,636;   -0,864
1117,297;  639,576;    0,000;    1,864
1117,836;  455,758;   -2,182;   -1,227
1118,374;  473,848;    0,182;   -0,682
1118,912;  423,394;    0,909;    2,682
1119,450;  410,576;    1,000;    0,864
1119,988;  449,667;    1,545;    2,136
1120,525;  890,394;    5,091;    3,318
1121,063;  619,485;    1,182;    1,864
1121,601;  428,303;   -0,909;   -1,227
1122,139;  378,667;   -0,727;   -2,045
1122,676;  566,303;   -0,727;    2,773
1123,214;  517,121;   -1,182;    4,409
1123,751;  338,121;    1,727;    2,227
1124,289;  458,485;   -0,091;   -0,409
1124,826;  342,303;    1,727;    0,227
1125,364;  262,939;    1,727;   -0,955
1125,901;  444,667;    1,182;    1,227
1126,438;  546,576;    0,818;    0,955
1126,975;  294,303;   -0,727;   -0,773
1127,513;  360,848;    0,273;    2,136
1128,050;  271,576;    1,636;   -0,682
1128,587;  364,758;    2,000;   -0,227
1129,124;  412,212;    0,091;    1,318
1129,661;  280,576;    0,273;    0,227
1130,198;  444,121;    1,636;    0,773
1130,734;  389,576;    0,182;    1,409
1131,271;  266,303;   -0,909;    0,864
1131,808;  425,212;    2,909;    3,045
1132,345;  299,485;    1,545;    0,318
1132,881;  178,939;   -1,545;   -1,864
1133,418;  318,030;    0,727;   -1,136
1133,954;  257,667;    2,455;   -2,682
1134,491;  327,030;    1,364;   -0,773
1135,027;  239,030;    2,364;    0,864
1135,564;  322,848;    0,273;    2,955
1136,100;  306,212;    0,364;    2,136
1136,636;  204,667;   -1,273;   -1,045
1137,172;  294,212;    0,000;   -1,045
1137,708;  220,576;   -1,364;   -1,045
1138,245;  225,576;    1,273;   -1,227
1138,781;  171,030;    1,091;   -3,318
1139,317;  238,212;    1,273;   -1,409
1139,852;  238,758;    3,091;    0,136
1140,388;  346,848;   -1,182;   -0,409
1140,924;  236,848;   -1,091;   -2,227
1141,460;  175,848;   -1,636;    0,136
1141,996;  114,576;   -1,364;    2,682
1142,531;  168,939;    1,364;    3,318
1143,067;  366,576;    1,182;    1,045
1143,602;  417,212;   -0,091;   -0,318
1144,138;  273,939;   -2,636;    1,045
1144,673;  159,303;   -1,455;    1,409
1145,209;  215,394;   -1,909;   -0,318
1145,744;  138,212;   -0,727;    0,864
1146,279;  264,030;    1,818;   -0,136
1146,815;  190,939;    1,545;   -2,682
1147,350;  235,303;   -1,364;    0,045
1147,885;  153,485;   -0,818;   -1,318
1148,420;  148,485;   -2,273;    0,773
1148,955;  135,485;   -1,727;    1,864
1149,490;  152,576;   -0,909;   -1,591
1150,025;  135,667;    0,455;   -1,773
1150,560;  245,303;    1,091;   -0,955
1151,094;  211,758;    1,455;   -0,591
1151,629;  218,485;    1,636;    0,864
1152,164;  150,303;    1,364;    1,318
1152,698;  117,303;   -0,182;   -0,136
1153,233;   69,485;    0,091;   -0,682
1153,767;  113,485;   -3,000;   -2,318
1154,302;  157,303;   -1,455;    1,773
1154,836;  163,576;   -0,455;   -2,136
1155,371;  213,212;   -1,364;    3,682
1155,905;  165,212;   -0,636;    1,682
1156,439;  144,303;   -0,636;   -0,500
1156,973;  173,667;    0,364;    0,318
1157,507;  114,121;   -0,364;    0,682
1158,042;  135,576;   -0,727;    1,045
1158,576;  181,121;    0,182;    1,773
1159,110;  177,848;   -0,818;    2,409
1159,643;  140,485;    0,636;   -0,045
1160,177;   80,303;   -1,545;    1,500

