
Integration time [ms]:   0,040
Averaging Nr. [scans]: 11
Smoothing Nr. [pixels]: 0
Data measured with spectrometer [name]: 7318044SP
Wave   ;Sample   ;Dark     ;Reference
[nm]   ;[counts] ;[counts] ;[counts] 

186,757;   24,423;   31,551;    1,318
187,357;   59,883;   22,551;    0,955
187,958;   33,859;   15,460;   -1,591
188,558;   74,468;    8,915;   -1,227
189,159;   53,087;    6,733;   -4,500
189,759;   15,542;    7,278;   -3,591
190,360;   16,597;    2,824;   -2,136
190,960;   54,993;    2,915;   -4,136
191,560;   69,538;    3,189;   -6,591
192,161;  291,151;    4,372;   -3,500
192,761;  146,103;    4,010;   -3,227
193,361;  105,925;    1,556;   -3,773
193,962;  151,878;    2,010;   -2,682
194,562;   71,298;    1,189;   -3,955
195,162;  109,747;   -2,448;   -2,227
195,762;  275,325;   -3,176;   -0,045
196,362;  210,413;    1,370;   -2,500
196,963;   84,773;    2,006;   -0,864
197,563;  160,809;    1,551;   -0,955
198,163;  105,119;    0,096;   -0,682
198,763;  122,532;    1,733;   -0,500
199,363;  224,350;    3,096;   -0,500
199,963;  182,525;    0,369;    0,409
200,563;  157,249;    2,823;   -1,409
201,163;  138,632;    3,277;   -0,227
201,763;  235,837;    3,732;    0,318
202,363;  165,790;    1,459;    1,500
202,963;  271,104;    1,459;    1,045
203,563;  381,288;    0,277;    0,500
204,162;  232,379;    2,096;   -1,864
204,762;  219,483;    0,550;    0,591
205,362;  181,214;    3,004;    1,955
205,962;  287,927;    3,096;    1,955
206,562;  281,443;    1,823;    2,318
207,161;  242,844;   -0,087;    0,318
207,761;  395,011;    1,277;    2,409
208,361;  261,151;   -0,268;    1,409
208,960;  373,967;    0,459;    1,500
209,560;  437,050;    1,277;    1,591
210,160;  418,371;    0,550;    1,864
210,759;  376,805;    4,186;    1,227
211,359;  382,888;    1,459;    1,045
211,958;  644,757;    1,277;    2,045
212,558;  720,804;    1,732;    1,864
213,157;  562,415;    1,822;    1,500
213,757;  996,295;    3,822;   -0,227
214,356;  685,685;    1,277;   -0,409
214,956; 1025,874;    3,095;    0,409
215,555;  639,726;    2,095;    2,136
216,154;  573,567;   -2,723;   -0,591
216,754;  578,249;    0,277;    0,773
217,353;  707,709;   -0,268;   -1,045
217,952;  560,040;   -0,178;    0,318
218,552;  801,108;    1,368;   -0,773
219,151;  677,400;    0,277;    0,955
219,750;  680,373;    0,004;   -0,227
220,349;  770,607;   -0,451;    1,045
220,948;  853,831;   -1,360;    1,136
221,548;  846,791;    0,913;    1,227
222,147;  949,565;   -0,087;   -0,409
222,746; 1225,718;   -0,451;   -0,955
223,345; 1080,876;    0,731;    0,500
223,944; 1076,289;   -0,451;    0,773
224,543; 1228,678;    1,004;   -1,409
225,142; 1350,031;    0,094;    0,136
225,741; 1242,379;   -0,814;    1,045
226,340; 1239,014;   -0,451;   -0,955
226,939; 1677,338;   -0,996;   -0,136
227,538; 1545,197;   -0,360;   -0,773
228,137; 1732,044;   -0,814;    0,864
228,735; 1802,340;   -0,541;    1,227
229,334; 1566,022;   -0,905;   -0,227
229,933; 1944,476;    0,459;    0,591
230,532; 2050,751;    1,186;   -0,409
231,131; 2088,230;    1,732;    0,318
231,729; 2148,864;   -2,450;   -2,318
232,328; 2205,001;   -0,723;   -1,500
232,927; 2251,527;    1,004;   -0,500
233,525; 2328,041;    3,640;    0,045
234,124; 2529,547;    2,368;   -1,591
234,723; 2502,272;    0,913;   -1,045
235,321; 2610,974;    2,277;    0,136
235,920; 2808,659;    1,186;   -1,227
236,518; 3039,451;    3,459;    0,318
237,117; 3111,654;    0,004;   -0,227
237,715; 3242,613;    0,640;   -0,500
238,314; 3298,864;   -0,087;   -2,318
238,912; 3422,614;   -0,723;   -1,409
239,510; 3409,615;    0,459;   -1,227
240,109; 3548,097;    0,004;    3,773
240,707; 3543,960;   -0,996;    1,227
241,305; 3791,640;    0,550;    0,136
241,904; 3981,913;   -0,178;   -2,045
242,502; 3979,480;   -0,632;   -0,227
243,100; 3894,750;   -0,087;   -0,955
243,698; 4096,526;    0,732;    1,682
244,297; 4248,363;   -0,632;    0,682
244,895; 4107,929;   -0,269;   -2,318
245,493; 4376,222;    2,186;   -0,591
246,091; 4369,382;    1,368;   -1,318
246,689; 4316,314;    1,004;    0,591
247,287; 4434,678;    0,822;   -1,136
247,885; 4679,764;   -1,451;    1,227
248,483; 4725,587;    1,822;   -0,500
249,081; 4838,487;    0,185;    1,591
249,679; 4983,602;   -0,178;    1,682
250,277; 5163,198;   -1,723;    0,864
250,875; 5131,909;   -1,087;   -1,045
251,473; 5153,836;   -1,178;    0,500
252,071; 5333,315;    1,459;    1,045
252,669; 5418,562;   -1,814;    0,318
253,267; 5603,782;   -0,087;    0,773
253,864; 5557,223;   -0,360;    0,682
254,462; 5524,288;    1,640;    1,591
255,060; 5410,130;   -0,269;    1,318
255,658; 5660,107;    0,822;   -0,136
256,255; 6043,246;    0,186;   -2,045
256,853; 5921,946;   -0,269;    1,409
257,451; 5896,359;    0,822;    1,864
258,048; 6194,292;    1,822;    1,864
258,646; 5920,765;    1,731;   -1,045
259,243; 6117,128;   -0,087;    2,227
259,841; 6117,425;   -0,814;    0,318
260,438; 6004,173;   -0,087;    0,864
261,036; 6569,635;   -1,905;    1,409
261,633; 6486,425;   -0,087;    2,227
262,231; 6272,926;    2,731;   -0,045
262,828; 6324,432;   -0,905;    1,136
263,425; 6371,701;    0,913;   -0,591
264,023; 6640,857;    0,186;    0,045
264,620; 6231,084;   -0,360;   -0,318
265,217; 6532,175;   -2,087;    3,136
265,815; 6611,352;   -1,905;    2,136
266,412; 6465,493;    0,731;    0,136
267,009; 6457,563;   -1,451;    0,773
267,606; 6426,765;    0,822;   -0,955
268,203; 6357,748;   -0,269;   -0,591
268,801; 6590,244;    1,731;    0,591
269,398; 6831,173;   -0,360;    2,500
269,995; 6804,432;    0,277;    1,591
270,592; 6637,499;   -0,632;   -0,500
271,189; 6807,286;    0,186;    0,409
271,786; 6913,519;   -0,632;    1,227
272,383; 6816,317;   -1,087;    0,227
272,980; 6894,858;    0,277;    0,318
273,577; 7293,593;    0,004;    1,227
274,174; 6894,069;    0,822;    2,591
274,771; 6893,562;   -0,814;   -0,773
275,367; 7075,889;    2,277;    1,409
275,964; 7016,204;    0,731;   -0,500
276,561; 7102,039;    1,549;   -1,045
277,158; 7274,420;    0,095;   -1,773
277,755; 7409,487;    2,185;    0,409
278,351; 6857,697;   -0,451;   -1,500
278,948; 7135,033;   -0,815;    0,045
279,545; 7119,786;   -1,360;    2,318
280,141; 7701,269;   -1,723;   -2,045
280,738; 7545,062;   -0,451;   -0,136
281,334; 7687,082;   -1,633;    0,591
281,931; 7178,574;   -0,087;   -1,318
282,528; 7268,985;    0,822;   -0,500
283,124; 7880,288;   -1,087;   -0,500
283,721; 7780,484;   -0,451;    1,409
284,317; 7594,597;    0,185;    2,500
284,913; 8083,507;   -1,360;    0,591
285,510; 8291,689;    0,640;   -0,318
286,106; 8308,873;   -2,269;   -0,955
286,703; 7864,534;   -0,360;    1,955
287,299; 8049,698;   -1,451;   -0,591
287,895; 8213,106;    0,822;   -1,045
288,491; 8728,900;    0,186;    2,136
289,088; 8551,489;   -2,360;    2,409
289,684; 8589,289;   -1,723;    1,500
290,280; 8609,065;    0,368;    0,682
290,876; 8684,720;    1,822;    5,500
291,472; 8586,443;    1,276;    2,227
292,068; 8657,828;    1,367;    0,227
292,665; 8369,244;    2,095;    0,773
293,261; 8087,877;    0,276;    2,136
293,857; 8450,747;    2,913;    2,136
294,453; 8362,499;    3,550;    0,955
295,049; 8277,625;   -0,268;    1,955
295,644; 8320,505;    0,095;    0,136
296,240; 8239,691;   -0,905;   -0,136
296,836; 8276,286;   -0,995;    0,318
297,432; 8535,086;    1,096;   -0,500
298,028; 8586,949;    0,732;    0,773
298,624; 8918,490;    1,459;    1,864
299,220; 9111,947;    2,368;    0,591
299,815; 8780,080;    1,005;   -0,409
300,411; 8619,170;    0,914;    1,773
301,007; 8604,200;    1,368;    0,227
301,602; 8608,218;   -0,541;   -2,318
302,198; 8758,793;    0,732;   -0,773
302,794; 9091,357;    1,187;   -0,500
303,389; 9148,470;   -1,177;    1,045
303,985; 9198,924;    0,550;    1,409
304,580; 9202,289;    1,459;    1,591
305,176; 9157,420;   -3,086;    0,136
305,771; 9057,873;   -1,268;   -1,227
306,367; 9027,417;    4,095;    0,136
306,962; 9273,400;    0,641;    1,500
307,558; 9001,900;   -0,450;    0,136
308,153; 8937,125;    1,095;   -1,136
308,748; 9124,058;   -0,814;    1,682
309,344; 9143,348;   -0,632;   -1,318
309,939; 9251,214;   -1,905;   -1,318
310,534; 9426,327;   -0,086;   -1,682
311,130; 9340,535;    0,459;   -2,500
311,725; 9116,897;    1,004;   -0,500
312,320; 9407,149;    2,459;    0,045
312,915; 9302,576;    1,459;   -1,045
313,510; 9377,805;    1,550;   -0,500
314,105; 9767,926;    1,096;    1,409
314,700; 9194,197;   -3,086;   -1,045
315,295; 8861,562;   -0,904;    0,045
315,890; 8489,627;    1,277;    0,864
316,485; 8813,760;   -0,359;   -0,318
317,080; 8878,899;   -3,086;    1,591
317,675; 9377,217;    2,005;   -0,682
318,270; 8939,315;    5,550;    3,318
318,865; 8897,429;    3,278;    3,045
319,460; 8710,013;   -0,904;    0,591
320,055; 8933,340;   -0,541;   -1,227
320,650; 8633,795;   -1,995;   -0,591
321,244; 8681,861;   -0,177;   -1,409
321,839; 9530,219;   -1,541;   -0,227
322,434; 9420,695;   -1,086;   -1,591
323,029; 9094,586;    1,732;    1,591
323,623; 8955,876;    1,550;    0,773
324,218; 8811,020;    2,368;    1,409
324,812; 8692,516;    1,096;    1,591
325,407; 8528,922;   -0,814;    2,045
326,002; 8495,218;    0,277;   -0,409
326,596; 8782,175;    0,914;    1,318
327,191; 8928,605;    0,823;   -1,045
327,785; 8549,721;   -0,813;   -0,227
328,379; 8778,082;    1,368;    0,136
328,974; 8565,196;    0,914;   -3,955
329,568; 8792,879;    0,186;   -2,409
330,163; 8614,654;    2,096;    1,045
330,757; 8946,396;    2,459;    1,591
331,351; 8367,125;    0,459;    0,682
331,945; 8655,198;    0,914;    1,409
332,540; 8339,193;   -1,723;   -0,591
333,134; 8492,782;   -1,086;    0,773
333,728; 8703,534;    0,005;    0,318
334,322; 8982,060;   -1,177;   -0,864
334,916; 8325,234;    0,277;    0,955
335,510; 8638,466;   -0,450;   -0,136
336,105; 8861,060;   -1,086;    1,591
336,699; 8606,397;   -1,086;    0,591
337,293; 8546,711;   -1,723;    0,318
337,887; 8650,627;   -2,723;    1,955
338,481; 8753,784;    0,459;    0,591
339,074; 8924,257;   -0,359;    2,682
339,668; 8787,621;   -1,632;    1,227
340,262; 9062,418;    1,732;    3,227
340,856; 8578,618;    1,822;   -0,682
341,450; 8023,843;    1,004;    1,864
342,044; 8799,893;    1,459;    0,136
342,637; 8605,915;    0,913;   -2,136
343,231; 8458,949;   -2,360;    0,682
343,825; 8431,965;   -1,086;   -0,591
344,419; 8425,606;   -1,995;    0,500
345,012; 8325,926;    2,459;    4,045
345,606; 8342,404;    4,641;    1,591
346,199; 8148,089;   -1,813;   -0,227
346,793; 7780,636;    1,914;    2,045
347,386; 7914,970;   -0,813;   -1,136
347,980; 7903,297;   -0,268;   -0,045
348,573; 7753,006;    2,278;    0,409
349,167; 7528,123;    5,278;    4,773
349,760; 7835,736;    2,914;    2,682
350,354; 7794,020;   -0,813;    1,136
350,947; 7569,106;    1,096;    1,682
351,540; 7301,720;   -0,358;   -1,409
352,134; 7258,759;    1,096;    1,136
352,727; 7334,594;   -0,086;    1,136
353,320; 7179,031;    0,005;    0,591
353,913; 7002,097;   -1,995;    1,864
354,507; 7209,983;    0,823;   -1,227
355,100; 7236,393;    0,460;    0,864
355,693; 6655,060;    2,005;    2,409
356,286; 6643,873;    0,823;    2,773
356,879; 6929,054;   -0,722;    1,227
357,472; 6581,917;   -0,904;    1,500
358,065; 6799,080;   -0,722;    2,500
358,658; 6716,441;   -0,540;    2,318
359,251; 6415,758;   -1,631;   -0,591
359,844; 6020,330;   -1,904;   -1,136
360,437; 6214,052;   -2,995;    0,045
361,030; 6421,827;    1,369;   -0,682
361,623; 6080,742;    2,824;    0,318
362,215; 6136,626;   -0,086;    2,045
362,808; 5997,579;   -2,358;   -1,682
363,401; 6168,539;   -2,449;    0,136
363,994; 5987,087;   -0,631;   -1,500
364,586; 5900,775;    0,824;   -1,500
365,179; 6092,665;   -0,449;   -1,136
365,772; 5632,355;   -1,995;    2,045
366,364; 5881,276;    1,915;   -3,227
366,957; 6083,696;    2,279;   -0,045
367,549; 6070,721;    2,188;   -0,864
368,142; 5787,386;    1,825;   -1,500
368,734; 5945,101;    0,734;   -2,136
369,327; 5929,810;    1,643;   -0,500
369,919; 5842,636;   -1,538;    0,409
370,512; 5734,215;   -1,083;   -0,500
371,104; 5536,802;   -0,901;    1,591
371,696; 5700,347;    1,191;   -0,955
372,289; 5747,952;    0,373;    1,136
372,881; 5856,341;   -2,080;    1,318
373,473; 5787,930;   -2,170;    1,136
374,066; 5653,014;   -0,169;    0,500
374,658; 5538,974;    0,378;    1,136
375,250; 5814,954;    0,653;   -1,409
375,842; 5692,418;    0,473;   -0,045
376,434; 5595,484;   -0,435;   -0,409
377,026; 6065,498;    0,204;   -2,500
377,618; 5967,009;   -0,158;   -0,682
378,210; 5827,491;   -0,338;   -1,955
378,802; 5674,754;    0,754;   -0,591
379,394; 5727,783;    1,846;    0,682
379,986; 6194,646;    1,393;   -0,955
380,578; 6251,084;   -0,153;    0,773
381,170; 5739,426;   -0,972;    0,045
381,762; 5674,193;    0,755;    1,409
382,354; 5806,470;   -0,065;   -1,318
382,945; 5903,338;   -2,976;    0,318
383,537; 6023,179;   -2,705;   -1,955
384,129; 6060,552;   -2,160;   -1,136
384,721; 6181,403;   -0,252;    0,955
385,312; 6100,803;   -0,161;   -0,955
385,904; 6221,651;   -2,706;    1,591
386,496; 5661,249;   -0,979;    1,045
387,087; 5823,195;    1,022;    2,500
387,679; 5845,497;   -1,160;    0,045
388,270; 5959,934;    2,840;    2,045
388,862; 6050,862;    1,295;   -0,318
389,453; 5919,728;   -0,887;    1,045
390,045; 6174,432;   -0,705;   -2,682
390,636; 6099,847;    0,204;   -0,591
391,227; 5986,976;   -0,523;   -0,045
391,819; 6058,677;    0,204;    0,773
392,410; 6130,922;    1,022;    0,045
393,001; 6077,224;   -0,979;   -1,591
393,593; 6307,993;    1,930;   -0,045
394,184; 6221,360;    1,385;   -0,409
394,775; 6078,178;    1,839;    2,136
395,366; 6277,072;    1,385;    0,773
395,957; 6234,080;    0,113;    0,136
396,548; 6509,847;   -0,342;    2,682
397,139; 6798,402;   -2,433;    0,591
397,730; 6563,186;   -1,888;    0,955
398,321; 6612,817;   -1,252;    0,955
398,912; 6586,475;   -0,615;    0,136
399,503; 6673,270;   -3,524;   -1,409
400,094; 6208,926;    0,294;    1,682
400,685; 6095,295;   -0,433;    0,045
401,276; 6164,934;    0,930;   -0,955
401,867; 6404,498;   -0,888;    0,773
402,458; 6480,230;   -2,251;   -2,318
403,048; 6482,064;    1,112;    0,591
403,639; 6133,867;    0,840;    0,864
404,230; 6395,859;    2,476;    0,318
404,821; 6353,452;   -0,615;    0,045
405,411; 6432,335;    1,203;   -2,591
406,002; 6088,586;   -1,252;   -1,136
406,592; 6020,285;    2,294;    0,045
407,183; 6214,369;    0,566;   -1,500
407,774; 6134,281;    3,475;   -0,136
408,364; 6435,192;    0,930;    0,409
408,954; 6133,826;    0,384;    1,227
409,545; 6172,622;    1,021;    1,045
410,135; 5746,343;    1,293;    0,500
410,726; 5870,855;    1,838;    0,318
411,316; 6221,113;    0,111;    0,773
411,906; 5901,812;   -0,253;   -0,409
412,497; 5509,866;   -1,070;   -0,045
413,087; 6032,047;   -1,980;   -0,227
413,677; 6344,877;   -0,707;    3,864
414,267; 6231,128;    0,656;    1,409
414,857; 6215,173;   -2,980;    4,227
415,448; 6462,501;    0,839;    0,500
416,038; 6190,681;    0,020;   -0,591
416,628; 6139,674;   -0,889;    0,409
417,218; 5726,511;    0,565;    3,318
417,808; 5963,556;    0,202;   -0,409
418,398; 6305,646;    0,020;    2,682
418,988; 6317,600;    2,020;    0,591
419,578; 6537,081;   -0,707;    1,409
420,168; 6818,039;   -1,343;   -0,955
420,757; 6492,705;   -1,343;   -1,500
421,347; 6187,095;    0,111;   -0,227
421,937; 6326,641;    2,292;    1,409
422,527; 6316,161;    0,838;   -0,773
423,116; 6155,601;   -0,253;   -0,045
423,706; 6389,098;   -1,889;    0,318
424,296; 6340,689;    1,384;    0,682
424,885; 6763,598;   -0,071;   -3,045
425,475; 7012,072;    1,474;   -2,864
426,065; 6877,959;   -0,980;   -0,318
426,654; 6544,427;   -0,435;   -0,318
427,244; 6722,731;    0,020;    1,409
427,833; 6236,800;    1,383;   -0,500
428,423; 6630,293;   -0,526;    1,136
429,012; 7259,401;   -0,344;   -1,136
429,601; 6825,193;   -1,344;    0,136
430,191; 7024,449;    1,292;    4,318
430,780; 6678,407;   -0,344;   -0,409
431,369; 6690,170;    0,746;   -0,045
431,959; 7225,624;   -1,254;    0,500
432,548; 7007,941;   -1,163;   -0,045
433,137; 7086,575;   -1,254;   -1,318
433,726; 7548,327;    0,292;    0,500
434,315; 7018,461;   -0,526;    2,409
434,905; 7108,748;   -1,254;    1,409
435,494; 7029,320;    0,746;    0,955
436,083; 7388,826;   -0,981;   -0,955
436,672; 7273,732;    0,110;    0,500
437,261; 6942,841;    0,292;   -1,955
437,850; 7068,320;    1,383;    0,682
438,439; 7085,540;    3,291;    1,955
439,027; 6953,901;    3,655;    1,773
439,616; 7218,192;    2,927;    1,227
440,205; 7076,333;    0,200;   -2,136
440,794; 7080,805;    2,109;   -0,045
441,383; 7310,390;   -1,346;   -0,591
441,971; 7176,209;   -2,436;    0,591
442,560; 7049,045;    0,563;   -1,773
443,149; 6821,414;    0,379;   -1,318
443,737; 6957,869;   -0,074;   -2,318
444,326; 7183,794;    0,018;    0,318
444,915; 7198,659;   -1,982;    0,864
445,503; 7582,184;   -2,891;   -0,318
446,092; 6953,455;    0,382;    2,136
446,680; 7387,474;    0,382;    0,318
447,269; 7519,791;   -0,346;   -0,318
447,857; 7324,059;    0,018;   -1,773
448,445; 7443,285;    0,563;    1,318
449,034; 7638,627;   -1,528;   -1,136
449,622; 7728,422;   -1,073;    3,500
450,210; 7136,162;    2,017;    2,227
450,799; 7596,729;    0,290;   -0,591
451,387; 7538,114;    1,381;   -0,591
451,975; 7233,911;    2,654;    0,864
452,563; 7350,302;    3,472;    2,318
453,151; 7317,636;   -0,528;   -1,227
453,739; 7257,400;   -1,347;    0,136
454,328; 7174,130;    2,381;   -2,136
454,916; 6932,786;    2,562;   -0,136
455,504; 7051,244;    1,017;    1,227
456,092; 7192,565;    0,017;   -1,591
456,679; 7171,109;    1,472;    0,682
457,267; 7221,469;    4,017;    1,045
457,855; 7291,261;    1,017;    1,409
458,443; 7021,256;   -0,165;    1,682
459,031; 7206,328;    0,108;    2,409
459,619; 7620,694;   -1,801;    2,864
460,206; 7651,965;    0,835;    2,045
460,794; 7720,939;   -2,983;   -0,227
461,382; 7924,728;   -0,529;   -0,864
461,970; 7551,046;    1,198;    1,864
462,557; 7607,296;   -0,711;   -0,682
463,145; 7761,253;   -3,165;   -1,682
463,732; 7874,974;    2,016;   -1,045
464,320; 7795,627;   -0,075;   -3,045
464,907; 7537,538;    2,743;   -0,773
465,495; 7399,051;    0,743;   -1,227
466,082; 7557,901;   -1,984;   -0,045
466,670; 7438,263;   -2,529;    1,227
467,257; 7834,579;   -1,711;    2,045
467,844; 7993,123;   -0,075;    0,045
468,432; 8013,599;    0,834;    3,500
469,019; 7560,479;    0,925;   -1,773
469,606; 7983,369;    0,470;    3,682
470,193; 7845,157;   -1,439;    0,227
470,780; 7467,800;   -2,075;    0,864
471,368; 7789,318;   -1,257;   -0,773
471,955; 7611,797;    1,379;   -0,682
472,542; 7270,223;    0,652;   -1,136
473,129; 7477,183;   -0,166;    0,136
473,716; 7218,412;    1,470;    0,591
474,303; 7396,093;    0,652;   -0,864
474,890; 7670,946;   -1,439;   -0,500
475,477; 7733,443;   -1,621;    0,409
476,064; 7623,505;    1,106;   -1,591
476,650; 7513,647;    0,288;    0,318
477,237; 7371,192;   -0,258;    0,955
477,824; 7535,987;   -1,076;    0,864
478,411; 7500,169;   -1,894;   -0,318
478,997; 7671,823;    0,560;   -0,773
479,584; 7735,839;    1,196;   -0,409
480,171; 8361,115;   -0,440;   -0,773
480,757; 8045,336;    2,651;    0,773
481,344; 8293,683;    0,469;    0,409
481,931; 7820,710;    1,105;    1,045
482,517; 8699,763;   -1,258;    0,318
483,104; 9156,726;    1,106;    2,864
483,690; 9356,748;   -1,804;    0,045
484,276; 9587,720;   -0,895;    0,227
484,863; 9356,928;    2,469;    1,136
485,449; 9856,762;   -0,077;    0,318
486,035; 9823,602;   -1,986;   -0,136
486,622;10221,811;   -0,895;    0,045
487,208;10132,376;    1,378;    1,500
487,794;10018,781;    0,741;    0,318
488,380;10110,052;    0,105;   -1,409
488,967;10143,429;   -1,168;   -0,409
489,553;10207,183;   -1,895;   -1,409
490,139;10401,114;    1,559;    0,773
490,725; 9921,272;    0,741;   -0,227
491,311; 9586,910;    3,287;    3,045
491,897; 8991,659;   -0,986;    1,500
492,483; 8898,862;    0,105;    1,227
493,069; 8839,545;    3,923;    0,864
493,655; 8732,131;    1,650;    0,682
494,241; 8649,860;    1,377;   -0,955
494,826; 9010,024;    0,287;   -1,045
495,412; 8528,683;    2,559;   -0,682
495,998; 8662,240;   -0,805;   -0,318
496,584; 8751,652;    0,377;    1,045
497,169; 8737,831;    1,014;   -0,682
497,755; 8710,891;    0,650;    1,227
498,341; 9230,127;    0,559;    0,318
498,926; 8867,101;    1,832;    1,955
499,512; 8996,856;    1,286;    2,955
500,097; 9033,727;    0,195;   -0,318
500,683; 8963,820;   -0,350;    2,136
501,268; 9310,524;   -0,169;   -0,955
501,854; 9059,317;   -0,169;    1,227
502,439; 8987,311;   -0,624;   -1,773
503,024; 9149,566;    0,195;    0,500
503,610; 9224,384;   -0,078;   -0,682
504,195; 9191,973;    0,558;    1,955
504,780; 9281,342;    2,922;    1,227
505,366; 9201,479;    3,013;    2,864
505,951; 8939,715;    0,740;    1,045
506,536; 8992,239;   -3,260;   -3,682
507,121; 8939,355;    0,285;   -0,318
507,706; 9411,832;    2,376;    1,045
508,291; 9719,601;    2,649;    1,136
508,876; 9186,179;   -0,988;    2,591
509,461; 8738,116;   -0,169;   -0,773
510,046; 9124,867;    0,194;    0,318
510,631; 9344,348;   -0,351;   -0,773
511,216; 9019,731;    2,467;   -0,500
511,801; 9391,420;   -0,442;    2,591
512,386; 9567,869;    0,740;    0,500
512,971; 9500,590;   -2,988;    0,955
513,555; 9162,185;   -0,897;   -1,500
514,140; 9855,683;   -0,442;   -3,136
514,725; 9813,835;   -0,715;   -1,136
515,309; 9907,882;   -0,533;    0,318
515,894; 9470,064;   -0,624;   -2,227
516,479; 9848,380;   -0,624;   -0,955
517,063; 9667,678;    0,376;    1,227
517,648; 9815,222;    1,012;   -1,136
518,232; 9451,848;   -0,261;   -1,409
518,817; 9768,779;   -0,079;    1,682
519,401; 9988,349;    2,194;    0,591
519,985; 9533,351;    1,103;    1,136
520,570; 9378,960;    0,830;   -1,955
521,154; 9649,980;    2,102;    0,591
521,738; 9822,155;   -2,352;    2,409
522,323;10339,845;   -0,170;    1,682
522,907;10044,747;    0,466;   -0,136
523,491; 9791,769;    0,557;    0,955
524,075; 9782,337;    2,284;    0,591
524,659; 9872,750;    1,466;    0,591
525,243; 9437,226;    1,739;    0,409
525,827; 9619,291;    0,648;   -0,045
526,411;10335,932;   -1,989;   -0,136
526,995;10522,043;   -0,352;    1,409
527,579;10169,376;   -0,443;   -1,045
528,163;10431,667;    0,375;   -1,500
528,747;10361,237;    2,466;   -0,773
529,331;10631,738;   -0,080;   -1,409
529,915;10755,917;    1,738;    0,955
530,499;10717,167;   -0,807;    1,227
531,082;10478,694;   -0,534;    1,591
531,666;10007,275;    1,374;    0,773
532,250;10571,441;    1,284;    2,682
532,833;10817,549;    0,920;    2,773
533,417;10698,708;   -1,807;    0,864
534,001;10657,749;    1,647;   -0,318
534,584;11273,471;    0,374;    0,500
535,168;11096,336;    0,465;    1,409
535,751;11184,548;    0,647;    0,045
536,334;10638,614;   -0,898;   -0,409
536,918;11149,342;    0,011;    1,591
537,501;11168,475;   -0,899;    1,318
538,085;11219,314;   -0,444;    1,045
538,668;11320,609;    0,829;    2,409
539,251;11618,541;    1,829;    3,773
539,834;11656,814;    0,101;    0,773
540,418;11616,195;   -1,990;    4,318
541,001;11675,083;   -0,990;    1,773
541,584;11616,072;    2,101;    2,227
542,167;11344,944;    1,374;    2,955
542,750;11439,669;    1,919;   -0,773
543,333;11044,889;    0,555;    2,136
543,916;11772,507;    0,192;    2,500
544,499;12236,710;   -1,354;    0,227
545,082;12231,164;    1,374;    3,591
545,665;12349,552;    1,919;    1,500
546,248;12603,798;    1,010;   -0,318
546,830;12257,163;   -0,445;    1,955
547,413;12648,885;    1,010;   -0,773
547,996;13105,564;    0,555;    0,500
548,579;12889,515;    0,919;    0,955
549,161;12691,332;    1,828;    2,682
549,744;12451,374;   -0,809;    0,409
550,326;12929,237;   -0,809;   -1,136
550,909;12789,621;    2,737;    0,591
551,492;13167,920;   -0,263;    0,227
552,074;12930,641;   -0,173;   -1,318
552,657;13390,959;    2,373;    0,045
553,239;13194,299;   -0,173;   -0,773
553,821;13129,304;   -1,082;    1,045
554,404;12666,687;    1,282;    1,136
554,986;13004,957;    0,464;    1,045
555,568;13514,570;    1,191;   -0,955
556,151;12852,683;    1,191;   -0,227
556,733;12999,708;   -0,264;   -0,864
557,315;13413,610;    0,100;    0,500
557,897;13131,043;    0,554;   -0,500
558,479;13247,111;   -1,991;    1,318
559,061;13419,513;   -0,719;   -0,864
559,643;13692,175;   -0,264;    0,045
560,225;13968,478;    1,645;    2,864
560,807;13997,721;    0,918;    0,318
561,389;13557,379;    0,554;    2,318
561,971;14125,870;    0,463;    2,136
562,553;13983,695;   -1,628;    1,591
563,135;14130,422;   -0,537;    1,136
563,717;13731,423;    3,372;    1,136
564,298;14311,216;    3,645;   -0,045
564,880;14062,479;    0,645;   -1,409
565,462;14165,115;    0,645;    1,318
566,043;15173,623;   -0,446;    2,318
566,625;14752,009;    1,918;    1,227
567,207;14551,324;    1,099;    1,682
567,788;15475,209;   -1,264;    1,500
568,370;16170,431;    1,917;   -0,500
568,951;15935,571;    0,190;    0,227
569,533;16646,109;   -0,628;   -0,500
570,114;17040,984;   -0,446;    0,682
570,695;17406,089;   -0,174;   -1,318
571,277;17705,905;   -0,265;   -1,682
571,858;18352,066;    2,008;   -1,136
572,439;19048,705;    1,554;   -1,045
573,021;19114,421;    2,099;   -2,773
573,602;19502,992;   -1,265;    0,318
574,183;20250,307;   -2,083;    2,227
574,764;20226,535;   -1,629;    0,409
575,345;20620,374;    0,917;   -0,136
575,926;21059,038;   -0,356;    0,136
576,507;21068,833;    1,099;   -0,227
577,088;22057,356;    3,099;    1,682
577,669;22041,443;    0,735;    1,955
578,250;22672,580;    0,644;   -1,045
578,831;23109,413;   -1,356;   -2,227
579,412;23282,101;   -0,810;    0,955
579,993;24074,464;    1,008;    0,227
580,573;24347,100;   -0,629;   -0,955
581,154;23352,988;    0,735;   -0,591
581,735;24173,716;    0,644;    0,773
582,315;23703,443;   -0,629;    2,136
582,896;23889,990;   -0,174;    1,227
583,477;23395,803;    0,189;    1,227
584,057;23668,896;    0,553;    0,955
584,638;23881,464;    2,553;    2,318
585,218;23892,578;   -0,538;    2,682
585,799;24008,967;    0,281;   -0,227
586,379;23998,719;    0,372;    1,591
586,959;22951,443;    0,735;    0,318
587,540;22457,051;   -0,629;    2,227
588,120;22100,976;    1,007;   -0,045
588,700;21330,254;    2,553;    2,136
589,281;21644,055;    0,462;   -0,955
589,861;21595,485;    0,099;   -1,682
590,441;21413,646;    2,371;   -2,682
591,021;20534,578;   -0,265;   -2,591
591,601;20812,539;   -0,537;    0,500
592,181;20876,654;   -0,719;   -0,773
592,761;20206,457;    0,007;    1,409
593,341;20191,353;   -0,901;    0,045
593,921;20179,060;   -0,265;    1,591
594,501;20104,648;   -0,538;    1,318
595,081;19948,765;    0,917;   -0,318
595,661;20275,217;   -1,447;    0,955
596,240;20741,925;   -0,537;    0,136
596,820;20387,384;    0,372;    1,955
597,400;20436,400;    2,008;    0,773
597,980;20634,132;    2,008;    1,045
598,559;20708,196;    2,735;   -0,227
599,139;20481,513;   -0,174;   -1,227
599,718;20313,604;   -0,174;   -0,409
600,298;20576,673;    0,735;    0,682
600,877;20873,790;    2,917;    1,409
601,457;21092,249;    2,281;    1,136
602,036;20997,835;    0,190;    2,045
602,616;21143,155;    0,644;    1,682
603,195;21450,090;   -0,355;    3,500
603,774;20942,475;   -0,901;    2,045
604,354;20841,316;    0,826;   -0,500
604,933;20482,699;    0,463;    1,864
605,512;20587,679;    3,554;    0,591
606,091;20629,682;   -0,537;    3,773
606,671;21391,749;    0,281;    0,773
607,250;20634,521;    1,644;    3,136
607,829;20863,776;    2,372;    3,227
608,408;20725,342;    1,190;    2,591
608,987;19836,144;    1,281;    3,409
609,566;20074,922;   -1,265;   -2,500
610,145;20247,666;   -1,082;    0,682
610,723;20602,324;    4,372;    6,864
611,302;19918,715;   -0,446;    1,682
611,881;19485,895;    5,008;   11,227
612,460;20228,439;    1,645;    3,955
613,039;20591,739;   -0,082;    2,045
613,617;19450,434;    1,736;    4,773
614,196;19626,462;    1,099;    1,227
614,775;19951,490;    1,009;    2,409
615,353;19897,901;    0,736;    0,864
615,932;19749,174;    0,100;    2,409
616,510;20280,240;    0,554;    0,591
617,089;19860,173;    7,100;   17,591
617,667;19673,060;    2,372;    6,136
618,246;19522,540;   -1,537;    1,318
618,824;19606,880;   -3,355;   -0,955
619,402;19232,311;   -2,900;   -1,773
619,981;19688,064;   -0,173;   -1,045
620,559;19543,430;    0,009;    1,682
621,137;19162,724;   -0,718;    1,864
621,715;19160,564;   -1,173;   -0,682
622,293;19100,543;   -0,537;   -0,773
622,871;19553,792;   -0,718;    0,500
623,450;19191,593;    0,373;   -0,864
624,028;19096,203;    0,191;   -0,955
624,606;18721,114;   -1,718;    1,682
625,183;19056,504;   -1,536;   -1,136
625,761;18784,345;    1,009;    1,136
626,339;19101,431;    1,373;    2,591
626,917;19413,918;   -0,172;   -0,045
627,495;19431,053;   -0,354;    1,318
628,073;18925,420;   -0,263;    2,864
628,650;18626,392;    0,100;    2,136
629,228;19052,071;    0,373;    4,409
629,806;18509,255;    2,282;    1,136
630,383;18768,714;    1,464;   -0,318
630,961;18662,278;    2,555;   -0,955
631,539;18386,010;    2,464;    0,227
632,116;17877,187;   11,373;   15,409
632,694;18354,304;    2,555;    6,500
633,271;18555,243;    0,828;    2,682
633,848;18576,286;    1,828;    2,045
634,426;18570,450;   -1,081;    1,773
635,003;17832,345;    1,101;   -0,409
635,580;18074,164;    1,192;    3,682
636,158;18564,498;    3,737;    1,227
636,735;18553,629;    0,555;   -0,500
637,312;18604,603;   -0,809;   -0,682
637,889;18705,815;   -4,354;   -0,682
638,466;18307,847;   -3,990;   -0,409
639,043;18305,899;    2,101;   -1,136
639,620;18541,626;   -2,262;   -0,955
640,197;18793,586;    1,100;    1,682
640,774;18920,483;   -0,172;    1,136
641,351;19257,925;    0,737;    1,136
641,928;18863,913;   -0,627;    1,409
642,505;18524,174;    0,828;   -0,500
643,082;18589,616;   -1,718;    1,227
643,658;17750,240;   -0,718;    1,500
644,235;18364,683;    1,191;    2,500
644,812;18618,762;    1,918;    0,773
645,388;18400,841;   -0,991;    1,409
645,965;18478,192;   -0,809;    1,682
646,542;18562,725;   -1,445;   -0,227
647,118;18597,350;    1,009;   -0,955
647,695;18786,429;   -0,263;    1,136
648,271;18715,962;   -0,536;    0,500
648,848;18976,768;    0,736;    2,227
649,424;18880,938;    0,827;    1,318
650,000;18624,835;   -0,354;   -1,045
650,577;18455,186;   -0,627;   -0,955
651,153;18796,992;   -1,809;    0,955
651,729;19658,435;    1,191;    0,864
652,305;19893,786;    0,645;    2,773
652,881;23448,774;   -0,082;    1,136
653,458;28615,126;    1,100;    0,227
654,034;31209,932;    0,282;    1,591
654,610;32189,829;    0,554;    0,773
655,186;33283,635;    0,645;    3,045
655,762;32909,168;   -0,991;    0,409
656,338;32912,338;    0,100;    0,136
656,913;33768,053;   -0,082;    0,409
657,489;33068,678;    0,827;   -0,318
658,065;33062,575;   -0,173;   -1,591
658,641;33717,108;   -0,900;   -0,864
659,217;33088,369;   -0,991;    0,409
659,792;32540,356;    0,645;   -0,409
660,368;32819,890;   -2,173;   -0,682
660,944;32698,878;   -2,082;    1,227
661,519;28961,775;   -0,628;    0,409
662,095;24394,854;   -1,719;    0,591
662,670;21037,023;    1,281;   -0,136
663,246;20341,557;    1,009;   -0,409
663,821;19863,454;    0,281;    1,682
664,396;19380,896;    0,009;    1,864
664,972;19608,793;    0,009;   -0,500
665,547;19890,508;    1,372;    0,136
666,122;19896,405;   -1,082;    0,318
666,698;20150,757;   -0,173;    0,318
667,273;19538,472;   -0,173;    0,136
667,848;20227,096;    2,372;    1,500
668,423;20069,084;    2,190;    2,318
668,998;20458,254;    2,827;   -0,682
669,573;20927,696;   -3,264;   -1,500
670,148;20830,775;   -1,446;   -0,682
670,723;20552,672;   -1,810;    0,318
671,298;20935,842;    2,372;    1,045
671,873;20985,466;   -0,082;   -0,136
672,448;20972,727;    0,645;    0,136
673,023;21234,897;   -1,992;   -0,227
673,597;21552,066;    0,827;    2,318
674,172;21359,781;   -0,355;    0,318
674,747;20864,588;    0,372;   -1,045
675,321;20623,121;   -0,628;    3,318
675,896;20291,018;    0,645;    1,045
676,471;21128,097;    2,645;    1,591
677,045;20949,812;   -1,264;    0,682
677,620;20990,345;    0,190;    1,136
678,194;21277,333;   -2,628;    1,136
678,769;20938,685;   -1,083;   -0,318
679,343;21220,218;   -0,628;    1,773
679,917;21053,297;   -1,446;    1,955
680,492;21068,376;    0,826;    3,227
681,066;21183,545;    3,372;    0,409
681,640;21223,352;    1,463;   -0,318
682,214;21927,885;    0,735;    0,500
682,788;21504,964;   -1,356;   -0,773
683,363;21417,043;   -1,810;    1,682
683,937;21151,030;   -1,719;   -0,318
684,511;21803,200;    0,463;   -0,591
685,085;21577,097;   -1,356;    0,318
685,659;21282,267;   -2,538;    0,864
686,232;21591,528;   -0,356;   -0,318
686,806;21338,243;   -0,901;    0,409
687,380;21867,776;   -0,174;    0,591
687,954;22024,673;   -1,174;    1,136
688,528;21764,570;   -0,719;    1,955
689,101;22477,558;   -3,992;    1,045
689,675;22074,273;   -0,356;   -0,136
690,249;21501,625;   -0,719;    0,409
690,822;21838,340;    0,280;    0,318
691,396;21947,510;   -0,265;    1,227
691,969;21439,679;    1,280;    0,136
692,543;21880,849;   -0,447;   -1,955
693,116;21580,110;   -0,265;   -1,409
693,690;21448,734;    0,099;    0,500
694,263;21931,267;   -1,083;    2,955
694,836;21955,255;    1,371;    3,591
695,410;20752,243;   -0,265;    1,773
695,983;21161,777;    0,189;    0,591
696,556;21150,219;   -0,447;   -1,045
697,129;21483,752;   -0,356;    1,409
697,703;21203,013;   -1,629;    1,955
698,276;21218,274;    1,462;   -0,773
698,849;21066,534;    1,280;    1,409
699,422;21380,431;   -1,083;    0,591
699,995;21150,146;    0,007;    0,136
700,568;21549,862;   -0,629;    3,045
701,140;21534,395;   -2,811;    1,682
701,713;21285,383;   -0,174;    2,409
702,286;21083,644;   -0,538;    0,864
702,859;20988,086;   -0,902;   -0,591
703,432;20302,074;    0,825;    0,682
704,004;20686,971;    0,462;    0,318
704,577;20497,231;   -0,629;    0,136
705,150;21046,765;    0,189;    2,500
705,722;20895,844;   -0,356;   -3,227
706,295;20712,559;   -0,175;   -0,591
706,867;20589,365;   -0,175;    1,955
707,440;20797,535;   -1,720;   -0,409
708,012;21031,704;    0,462;    0,591
708,584;20886,056;    2,462;    0,227
709,157;21131,953;    1,825;   -0,591
709,729;20919,486;    2,280;    2,045
710,301;21686,474;    0,734;    0,045
710,874;21677,008;   -1,447;   -0,227
711,446;20597,723;    0,371;    0,864
712,018;20466,165;    0,098;    0,500
712,590;20291,880;   -1,993;    1,682
713,162;20745,777;    0,825;    1,318
713,734;20997,583;    1,825;   -2,045
714,306;20901,208;   -1,902;   -0,409
714,878;19762,650;    0,825;    0,864
715,450;20499,820;    0,643;    0,864
716,022;20765,444;    1,552;    1,318
716,593;20904,614;    0,189;    0,591
717,165;20802,693;   -3,175;   -1,227
717,737;20598,953;    0,280;    0,409
718,309;20282,214;    0,280;   -0,045
718,880;20213,202;   -0,539;   -1,409
719,452;20455,826;   -0,175;   -1,591
720,024;20136,723;    0,734;   -0,591
720,595;20611,075;   -2,902;    0,955
721,167;20237,426;    0,370;   -2,045
721,738;19757,505;   -0,812;   -1,045
722,309;19821,857;   -0,993;   -1,227
722,881;19648,935;   -1,357;    0,773
723,452;20168,287;   -2,630;    2,864
724,023;20394,002;   -0,721;    2,682
724,595;20197,808;    0,007;    0,682
725,166;19936,433;    0,007;   -0,409
725,737;19650,420;    1,734;    0,227
726,308;19723,499;   -0,266;    0,318
726,879;20127,305;   -1,630;    1,227
727,450;19980,384;    0,552;   -0,045
728,021;19914,918;    3,097;    0,682
728,592;19709,996;    0,734;    0,500
729,163;20061,257;    0,643;   -0,136
729,734;20056,154;    0,188;   -0,227
730,305;20392,324;    1,734;    0,136
730,876;20640,584;    0,188;    2,955
731,447;20402,845;    2,188;    2,682
732,017;20484,106;    1,097;    1,864
732,588;20059,912;    0,734;    1,227
733,159;20219,354;    0,643;   -1,045
733,729;20000,069;    0,006;    0,409
734,300;19441,148;    0,915;    0,864
734,870;19762,136;    3,461;    0,591
735,441;20276,033;    0,370;   -0,591
736,011;20101,385;    0,643;   -1,591
736,582;20042,736;   -0,812;    0,045
737,152;19521,633;   -1,721;   -2,045
737,722;19944,530;   -0,267;   -0,682
738,293;19630,245;   -1,358;    1,318
738,863;19574,779;    2,461;    2,318
739,433;19472,858;    5,279;    0,318
740,003;20036,391;   -0,994;   -0,682
740,573;19526,742;    2,097;   -1,591
741,143;19505,458;   -1,085;    0,318
741,713;20143,991;    1,188;   -0,500
742,283;19955,070;    0,915;    1,591
742,853;19749,058;    1,915;    1,591
743,423;19272,500;    1,733;    0,045
743,993;19328,488;   -0,358;    1,500
744,563;18777,021;    0,097;   -0,864
745,133;18741,282;   -0,812;   -0,864
745,702;19390,088;   -0,267;    1,773
746,272;18695,531;   -0,176;    0,591
746,842;18557,791;   -1,358;   -0,591
747,411;18940,506;   -0,267;   -0,318
747,981;19084,949;    0,097;    0,500
748,551;19122,300;    2,278;   -1,045
749,120;18996,561;    0,642;   -0,227
749,690;19279,458;   -0,631;    2,409
750,259;19586,173;    1,369;    2,955
750,828;19491,525;    1,551;   -1,955
751,398;19739,149;    1,278;   -0,045
751,967;19329,955;    2,187;    0,409
752,536;19488,489;   -0,813;   -0,227
753,105;19911,113;    0,096;    0,227
753,675;19627,192;    0,096;    1,773
754,244;19559,180;   -0,904;    3,591
754,813;19597,258;    0,551;    1,227
755,382;19207,519;    0,460;    0,955
755,951;19678,325;    1,551;    3,682
756,520;19326,131;   -0,085;    1,864
757,089;19809,665;    0,278;    0,500
757,658;19864,471;    1,733;    1,227
758,227;19897,731;    1,096;    0,318
758,795;20169,356;    1,187;    1,136
759,364;20435,162;   -0,086;   -0,591
759,933;19520,786;   -1,176;   -0,045
760,501;19074,683;    0,733;   -1,318
761,070;19446,125;   -2,813;   -1,409
761,639;20120,659;   -1,904;    1,318
762,207;19569,647;    1,551;   -0,955
762,776;19477,725;    0,369;    0,864
763,344;19433,077;   -0,995;    0,591
763,913;18549,974;   -0,722;    1,409
764,481;19292,598;    1,005;   -0,136
765,049;19146,677;   -1,358;    1,409
765,618;19034,574;   -0,086;    0,318
766,186;19077,562;    0,278;    0,136
766,754;19284,004;    0,005;    1,864
767,322;18436,811;   -1,995;    0,409
767,890;18430,708;   -0,722;   -1,773
768,459;18865,695;   -2,177;   -0,318
769,027;18994,229;    1,641;    3,409
769,595;18045,217;    3,278;    2,591
770,163;18472,841;    3,823;    2,955
770,730;18312,283;    0,732;   -0,136
771,298;18166,544;    0,187;   -1,409
771,866;18229,441;   -1,541;    4,955
772,434;18536,793;   -0,631;   -1,864
773,002;18703,599;    0,005;    0,682
773,569;18432,223;    0,914;    1,682
774,137;18264,575;   -0,268;   -0,045
774,705;18918,562;    0,278;   -0,136
775,272;18529,187;    0,641;    0,682
775,840;18355,538;   -0,177;    2,682
776,407;17918,526;    0,277;    1,955
776,975;17555,696;   -0,632;    0,318
777,542;18423,411;   -1,086;   -0,045
778,110;18330,308;   -1,268;   -0,045
778,677;18004,751;   -2,359;   -0,864
779,244;17810,557;    2,186;    1,045
779,812;17894,635;    1,823;    0,864
780,379;17783,078;    0,005;    1,136
780,946;17991,975;    1,005;   -0,773
781,513;18259,054;   -1,450;    0,318
782,080;17731,587;   -0,086;    2,864
782,647;18332,939;   -0,268;    3,045
783,214;18034,472;   -0,177;    3,864
783,781;17713,824;   -0,723;   -0,682
784,348;17574,175;   -0,632;    1,500
784,915;17979,436;   -3,177;    0,318
785,482;17807,151;    1,368;    2,591
786,049;18232,139;    0,186;   -0,591
786,615;18321,763;    0,277;   -0,955
787,182;18046,206;    0,186;   -0,682
787,749;17825,375;   -2,814;    1,409
788,315;17191,090;   -1,632;   -0,409
788,882;17469,351;    1,550;   -1,227
789,448;18127,066;    1,732;   -0,955
790,015;18139,600;    1,095;    3,227
790,581;17788,315;    1,459;    0,227
791,148;17666,848;    0,641;    1,045
791,714;17829,109;   -0,541;    3,136
792,280;17569,824;    0,186;    1,591
792,847;17235,812;    0,550;    2,500
793,413;17661,527;   -0,269;   -0,318
793,979;17263,242;    3,459;   -1,318
794,545;17392,412;    4,459;    2,682
795,111;16896,582;    2,186;    1,318
795,678;17063,206;    0,731;   -1,682
796,244;16765,921;    3,368;    0,136
796,810;17222,727;    1,731;    0,773
797,375;16949,261;    0,549;   -2,136
797,941;16938,976;   -0,541;    0,591
798,507;17082,055;   -0,451;   -0,955
799,073;16688,497;   -0,360;    0,591
799,639;16738,576;   -2,632;    3,136
800,205;16809,109;    0,095;    2,682
800,770;16414,188;    0,640;    1,773
801,336;16453,812;    1,368;   -0,955
801,901;16270,437;    4,549;    3,136
802,467;16799,879;   -0,542;    2,045
803,033;16176,140;   -0,087;    0,864
803,598;16358,764;    1,913;   -1,045
804,163;16412,297;    1,095;   -0,318
804,729;16404,103;   -0,178;    1,136
805,294;16698,364;    0,822;    2,227
805,859;16503,352;    0,731;   -0,409
806,425;16105,249;    1,186;    2,682
806,990;15797,146;    2,186;    4,318
807,555;16139,952;   -1,451;    2,591
808,120;16099,395;    0,822;   -0,409
808,685;16200,473;    0,185;   -2,500
809,250;15753,461;    0,004;   -0,500
809,815;15955,358;    1,913;    0,682
810,380;16423,710;   -0,269;    1,591
810,945;16909,698;   -1,087;    2,045
811,510;16218,231;    2,094;    1,591
812,075;15942,946;   -0,633;   -1,409
812,640;15990,025;    2,003;    1,409
813,204;16061,558;    0,822;   -0,227
813,769;16521,910;    2,094;   -0,045
814,334;16031,262;    0,458;    0,864
814,898;16056,431;    0,367;    0,591
815,463;15873,056;    1,276;   -0,773
816,027;15893,862;   -0,724;   -2,318
816,592;15996,213;    0,640;   -2,045
817,156;15618,747;    2,094;    1,136
817,721;15485,734;    4,276;    2,318
818,285;15490,450;    2,912;    1,500
818,849;16021,165;   -1,451;    1,682
819,414;15914,516;   -0,269;    2,955
819,978;15550,232;   -1,269;    1,773
820,542;16110,492;    2,003;    0,500
821,106;15899,935;   -0,815;    0,682
821,670;15962,650;   -0,815;    2,591
822,234;15722,638;   -0,270;    1,409
822,798;15202,807;    0,003;    0,500
823,362;15209,250;   -0,633;    4,227
823,926;14646,238;    0,094;    1,136
824,490;14857,771;   -0,997;   -0,682
825,054;15233,395;   -0,088;   -1,136
825,618;14938,929;   -1,542;   -1,500
826,181;14905,189;    0,458;   -1,318
826,745;14823,086;    1,367;   -1,045
827,309;15149,256;    1,185;    1,318
827,872;14657,062;    1,367;    0,955
828,436;15539,959;    1,185;   -0,773
828,999;15659,220;   -0,997;    1,227
829,563;14623,299;   -0,179;    1,136
830,126;14441,105;   -0,179;   -0,591
830,690;14472,184;   -1,997;    2,864
831,253;14003,262;   -0,543;    2,227
831,816;14157,978;   -1,906;    0,500
832,380;14138,329;    0,185;    0,864
832,943;14355,681;   -1,361;   -0,500
833,506;13866,123;    2,639;   -1,227
834,069;14594,384;    3,912;   -0,955
834,632;14654,463;    1,730;    1,318
835,195;14550,087;    1,003;    0,955
835,758;13856,075;   -0,997;    1,955
836,321;13749,790;    0,730;   -1,045
836,884;13842,142;   -0,725;   -0,955
837,447;13866,311;   -2,816;    1,773
838,010;14131,663;    0,366;    3,227
838,573;14367,287;   -1,179;    0,773
839,135;14351,002;   -1,361;   -0,955
839,698;13846,899;    1,275;    0,409
840,261;13440,887;    1,003;   -0,227
840,823;13308,511;   -0,543;    0,864
841,386;13599,136;   -0,452;   -2,409
841,948;13512,124;   -1,361;    1,773
842,511;13260,021;    0,912;    1,682
843,073;13381,645;    1,912;    0,227
843,636;13223,633;   -0,361;   -0,227
844,198;13191,712;    0,911;    0,591
844,760;13287,972;    1,093;    1,955
845,322;12969,142;    0,548;    1,136
845,885;13343,403;    0,730;    0,591
846,447;13735,845;   -1,998;    0,227
847,009;13419,651;    1,911;   -0,682
847,571;13650,094;    0,820;   -2,045
848,133;13728,081;   -1,089;   -1,864
848,695;13564,251;   -0,543;    1,409
849,257;13205,330;   -1,089;   -1,682
849,819;13369,227;   -0,998;   -0,409
850,381;13348,579;   -0,725;   -0,864
850,942;13660,839;    1,093;   -0,591
851,504;13579,373;    1,184;    0,227
852,066;13626,179;    1,275;   -1,591
852,628;13293,167;   -0,180;    1,955
853,189;12838,700;    1,638;    2,682
853,751;12980,415;   -0,907;    1,409
854,312;12781,130;   -0,453;   -1,682
854,874;13256,755;   -2,089;   -0,773
855,435;13688,379;   -0,907;   -1,682
855,997;13873,003;   -1,816;   -0,136
856,558;13234,900;    0,366;    1,773
857,119;13285,888;    0,820;    2,864
857,681;12996,967;    0,002;    0,318
858,242;13061,773;    1,911;   -2,136
858,803;13434,397;    0,456;   -0,773
859,364;13984,567;    0,184;   -4,773
859,925;13450,646;   -2,453;   -0,955
860,486;13356,543;   -0,453;   -0,955
861,047;13058,712;   -0,544;   -1,227
861,608;12922,337;   -1,089;   -0,773
862,169;13065,688;    0,638;   -0,045
862,730;12823,767;    0,456;    1,409
863,291;13060,391;   -0,635;   -0,500
863,852;13349,288;   -0,635;    1,955
864,412;12914,549;   -0,271;   -0,864
864,973;11733,628;   -0,089;    0,500
865,534;11603,161;   -1,726;    0,227
866,094;12904,149;    1,820;    0,227
866,655;12597,682;    1,274;    3,318
867,215;12913,489;    0,274;    0,136
867,776;12744,204;    0,547;   -0,136
868,336;12795,919;   -1,453;    0,136
868,897;12429,361;    2,638;    1,682
869,457;12195,531;    1,365;    0,318
870,017;12420,246;    0,547;   -1,227
870,578;12862,416;   -0,817;    0,773
871,138;12516,858;   -2,089;   -0,955
871,698;12128,483;   -0,817;   -1,318
872,258;12015,198;   -0,453;   -2,864
872,818;12397,459;    2,729;    0,045
873,378;12398,174;    0,638;    1,045
873,938;11950,253;    0,547;    0,500
874,498;12225,695;    0,274;   -1,955
875,058;12198,501;    2,183;    1,773
875,618;12078,580;    1,910;   -2,682
876,177;11990,295;    1,274;    0,136
876,737;11651,465;   -0,090;    1,955
877,297;11720,362;    0,183;    1,955
877,856;11781,622;   -0,362;    0,318
878,416;11699,065;    1,183;   -0,136
878,976;11853,144;   -1,817;    0,409
879,535;12016,223;    0,092;    3,136
880,095;11805,756;   -0,544;    0,045
880,654;11902,380;   -1,090;    1,318
881,213;12046,277;    2,456;    1,500
881,773;11710,901;    2,637;    2,682
882,332;12075,708;    3,365;    5,136
882,891;11911,786;    3,092;    2,136
883,451;12316,320;   -1,272;    1,682
884,010;11774,489;   -2,908;   -0,409
884,569;11901,750;   -0,999;   -0,045
885,128;12001,738;    2,819;   -1,864
885,687;12127,908;    4,455;    0,682
886,246;11852,805;    1,455;    2,136
886,805;11602,520;    2,455;    2,045
887,364;11811,326;   -0,999;   -0,500
887,922;12134,859;   -1,181;    0,045
888,481;11675,484;   -1,545;    0,591
889,040;11977,017;    1,183;    2,136
889,599;12480,914;    2,455;    1,409
890,157;12529,720;    1,455;    2,409
890,716;12181,981;   -0,090;    0,227
891,274;12015,150;    0,092;   -1,136
891,833;12382,047;    1,546;    0,864
892,391;12280,399;   -0,454;    0,500
892,950;12329,478;    1,819;   -0,773
893,508;12668,466;    0,455;   -0,409
894,067;12055,908;    0,637;    0,136
894,625;12001,805;   -0,636;   -1,500
895,183;12194,520;   -0,363;   -0,682
895,741;12136,326;    1,728;   -1,773
896,299;11959,678;   -0,545;   -2,409
896,858;12160,575;    0,819;   -1,591
897,416;12269,927;    2,728;   -1,318
897,974;12052,460;    1,819;    0,318
898,532;12237,357;    6,091;    2,682
899,089;12168,799;    2,091;   -0,682
899,647;12198,151;   -1,454;    1,318
900,205;12016,775;    1,182;    1,045
900,763;12144,309;   -0,454;    0,227
901,321;12177,206;    2,364;   -1,409
901,878;11642,557;   -1,000;   -0,773
902,436;11570,727;   -1,363;    1,318
902,994;12005,442;    4,728;    3,682
903,551;11464,430;    0,728;    0,409
904,109;11812,872;    0,182;   -1,409
904,666;11534,588;    2,455;    1,045
905,224;11405,666;    0,182;   -0,409
905,781;11178,927;    0,727;   -0,318
906,338;11222,733;   -1,363;    1,045
906,895;11169,721;    0,637;    2,045
907,453;11124,891;    1,727;    1,136
908,010;11140,697;   -0,909;    0,409
908,567;10858,867;    1,273;    0,591
909,124;10402,764;    0,364;   -1,500
909,681;10482,206;   -2,909;    0,682
910,238;10698,467;    0,636;   -1,318
910,795;10960,182;   -0,273;   -1,136
911,352;10682,727;   -2,909;   -2,682
911,909;10193,909;   -1,364;   -0,864
912,466;10629,455;   -3,182;    1,500
913,022;10221,182;   -1,636;    0,500
913,579;10545,273;   -0,909;    2,045
914,136;10325,455;    1,636;    0,955
914,692;10634,091;    0,091;   -1,227
915,249;10235,636;    1,455;    0,409
915,806;10398,818;    0,182;    1,955
916,362;10287,727;    1,909;    1,864
916,918; 9876,545;    2,000;    1,045
917,475; 9911,727;   -1,182;    0,955
918,031; 9961,909;    3,364;   -0,045
918,587; 9515,455;   -0,909;   -0,318
919,144; 9755,182;   -2,273;    0,227
919,700; 9986,727;    1,727;    0,773
920,256; 9629,091;    0,727;    0,045
920,812; 9348,364;   -0,727;   -1,045
921,368; 9393,909;   -1,727;   -1,045
921,924; 9081,182;    0,182;   -0,136
922,480; 8742,273;   -0,545;    1,227
923,036; 9289,273;    1,273;    1,955
923,592; 9278,545;    0,455;    0,318
924,148; 9219,182;    0,455;   -0,955
924,704; 8619,909;   -1,364;   -0,409
925,259; 8913,364;   -0,273;    0,591
925,815; 8732,636;    1,455;    0,500
926,371; 8309,818;    2,909;    1,409
926,926; 8240,727;    2,091;    0,591
927,482; 7953,182;   -1,364;    0,773
928,037; 7899,818;    0,909;    2,045
928,593; 8205,091;    1,636;    1,045
929,148; 8065,091;   -1,818;   -1,500
929,704; 7643,091;   -1,455;   -0,500
930,259; 7824,364;    0,091;   -0,136
930,814; 7111,091;   -0,818;    1,955
931,369; 6877,636;    1,091;   -0,773
931,925; 6783,182;   -0,091;    0,136
932,480; 6727,364;   -2,818;   -2,591
933,035; 6704,364;    0,545;   -0,318
933,590; 6553,091;    0,364;   -1,773
934,145; 6244,545;   -1,364;   -0,318
934,700; 6522,727;    0,455;   -0,591
935,255; 6383,818;   -0,091;    0,045
935,809; 5899,545;    3,182;    0,864
936,364; 5193,909;   -0,455;   -0,136
936,919; 5248,455;    0,455;   -1,773
937,474; 5174,000;    1,455;    0,136
938,028; 4963,182;   -1,636;    1,136
938,583; 4627,545;    1,818;    4,682
939,138; 4828,091;    2,091;    2,136
939,692; 4383,000;    1,636;   -1,136
940,247; 4171,818;   -0,727;   -1,045
940,801; 3915,364;   -0,636;    0,227
941,355; 3837,091;   -0,364;    2,591
941,910; 3543,182;   -0,273;   -2,136
942,464; 3664,000;   -0,818;   -0,318
943,018; 3593,091;    1,000;   -0,227
943,572; 3517,727;    2,545;   -0,682
944,126; 3108,273;    0,091;   -0,409
944,681; 3017,636;    3,091;    0,227
945,235; 2970,455;    1,000;   -0,591
945,789; 2925,182;    0,364;   -1,864
946,342; 3119,364;    0,455;   -0,591
946,896; 2874,091;   -2,273;    0,955
947,450; 2666,909;    1,545;   -0,227
948,004; 2926,545;    1,727;   -0,045
948,558; 2855,727;    0,273;   -0,864
949,111; 2798,364;   -0,273;   -0,318
949,665; 2928,909;    1,636;   -0,682
950,219; 2805,727;   -0,091;   -1,045
950,772; 2828,455;   -1,909;    1,864
951,326; 2780,545;    0,545;   -0,955
951,879; 2804,091;    0,727;   -2,318
952,433; 2860,818;    0,000;    2,227
952,986; 2685,727;    2,909;    0,682
953,539; 2631,545;   -0,273;    0,591
954,093; 2590,273;    0,545;   -1,318
954,646; 2742,273;    0,909;    1,318
955,199; 2564,182;    0,000;   -0,500
955,752; 2561,818;   -0,455;    1,773
956,305; 2482,364;   -0,091;    2,955
956,858; 2622,727;    0,818;   -0,318
957,411; 2756,182;   -0,545;    2,136
957,964; 2595,182;    1,364;    2,136
958,517; 2568,455;   -1,545;    3,136
959,070; 2448,545;   -0,455;    1,955
959,623; 2626,091;    1,091;    1,500
960,176; 2418,364;    1,727;    2,045
960,728; 2394,818;   -2,727;    0,773
961,281; 2436,545;    0,545;    0,500
961,834; 2426,091;   -0,909;    0,864
962,386; 2365,545;    1,727;    1,045
962,939; 2310,545;    0,364;   -0,318
963,491; 2423,364;    0,455;    1,136
964,043; 2317,455;    1,182;    2,409
964,596; 2454,182;   -1,000;    2,227
965,148; 2305,364;   -1,000;    1,773
965,700; 2222,727;    1,091;   -0,227
966,253; 2387,636;   -0,636;    0,318
966,805; 2278,182;   -2,273;    0,773
967,357; 2277,636;    1,091;   -1,500
967,909; 2293,091;    0,455;   -1,227
968,461; 2298,727;    0,545;    3,136
969,013; 2254,273;   -0,182;   -0,864
969,565; 2346,455;   -0,455;   -1,136
970,117; 2547,727;   -0,364;    1,045
970,669; 2288,364;    0,182;   -0,136
971,220; 2116,636;   -0,455;   -1,500
971,772; 2101,364;   -0,636;   -0,318
972,324; 2227,818;    0,091;   -0,500
972,876; 2150,455;    0,818;   -0,045
973,427; 2312,000;    1,909;   -1,045
973,979; 2294,455;   -0,727;   -2,500
974,530; 2234,455;    1,818;    1,318
975,082; 2243,091;   -0,545;    1,682
975,633; 2164,182;    1,091;    1,682
976,184; 2326,091;    0,909;    0,773
976,736; 2174,727;    0,091;    0,227
977,287; 2028,091;   -0,909;   -0,500
977,838; 2154,091;    0,909;   -0,318
978,389; 2196,545;   -1,000;   -0,500
978,940; 2051,091;    0,545;   -0,409
979,491; 2068,182;    0,091;   -0,500
980,042; 2081,364;    0,182;    3,045
980,593; 2086,091;   -2,545;    0,227
981,144; 2190,545;    2,545;   -0,500
981,695; 2209,727;    1,455;    1,500
982,246; 2148,182;   -0,273;    1,045
982,797; 2190,455;   -1,727;    0,682
983,347; 2314,818;    0,364;    0,591
983,898; 2516,727;    3,091;    0,409
984,449; 2379,818;    2,182;    0,773
984,999; 2203,636;    1,455;   -1,136
985,550; 2057,636;    0,182;   -0,318
986,100; 2042,182;   -0,455;   -0,318
986,651; 2061,455;   -0,818;    0,045
987,201; 2065,455;   -1,000;   -0,591
987,751; 2135,818;    0,818;    2,864
988,302; 2139,455;    2,636;    1,500
988,852; 2141,636;    0,455;   -1,136
989,402; 2233,455;    0,091;    0,682
989,952; 2178,727;   -2,182;    0,864
990,502; 2188,636;   -0,091;    0,682
991,052; 2110,545;   -0,727;    0,045
991,602; 2032,182;   -2,909;    1,318
992,152; 2060,636;    0,455;    0,682
992,702; 2061,273;    1,364;   -0,045
993,252; 1992,455;   -3,000;   -0,500
993,802; 2087,273;   -0,273;    1,318
994,352; 2242,364;   -1,545;    1,136
994,901; 2245,273;   -0,182;    3,227
995,451; 2210,273;   -0,182;    0,318
996,000; 2268,818;    1,636;    0,318
996,550; 2060,455;    2,273;    0,227
997,100; 2072,000;    1,273;   -0,045
997,649; 2335,364;    2,182;    0,955
998,198; 2025,455;    1,727;   -1,500
998,748; 2206,182;    1,091;   -2,318
999,297; 2093,455;   -0,818;   -0,409
999,846; 2196,273;    1,000;   -0,773
1000,395; 2187,273;   -0,818;    0,500
1000,945; 2233,000;    1,818;   -0,773
1001,494; 2286,636;    2,364;    0,682
1002,043; 2254,909;    4,636;    0,864
1002,592; 2064,727;   -1,091;    1,955
1003,141; 2183,000;   -0,455;   -0,682
1003,690; 2133,000;    1,727;    0,500
1004,238; 2113,818;    1,455;   -0,045
1004,787; 1833,818;    1,364;    1,227
1005,336; 2106,091;    0,364;    0,682
1005,885; 2171,545;    1,364;   -2,773
1006,433; 2229,818;    0,545;    0,955
1006,982; 2406,636;    0,455;    1,682
1007,531; 2254,091;   -1,818;   -0,227
1008,079; 2178,455;   -2,273;    0,500
1008,627; 2260,091;   -1,455;    0,409
1009,176; 2058,182;    0,000;   -1,955
1009,724; 2101,000;    1,091;    0,864
1010,273; 2226,273;    1,273;    0,500
1010,821; 2238,818;    0,091;    1,409
1011,369; 2025,455;   -1,364;    1,318
1011,917; 2037,727;   -1,364;   -0,591
1012,465; 2280,727;    1,273;   -1,591
1013,013; 2321,545;    2,091;   -1,682
1013,561; 2306,545;    0,455;   -0,773
1014,109; 2372,727;   -1,909;    1,682
1014,657; 2244,364;    0,364;    0,591
1015,205; 2280,364;    1,636;   -0,955
1015,753; 2259,000;   -0,545;   -1,409
1016,301; 2317,727;   -2,636;    3,045
1016,848; 2349,000;   -1,273;    0,409
1017,396; 2387,545;    2,545;    0,045
1017,944; 2461,636;    1,182;    1,864
1018,491; 2232,545;    0,273;    1,409
1019,039; 2533,909;    0,455;    0,591
1019,586; 2343,364;   -1,364;    1,682
1020,134; 2392,818;    0,455;    1,500
1020,681; 2452,636;    0,182;   -1,136
1021,228; 2384,909;    2,909;   -2,227
1021,776; 2248,727;    1,182;   -1,136
1022,323; 2520,909;    0,455;    0,773
1022,870; 2441,545;   -1,000;   -0,045
1023,417; 2395,455;    2,636;    1,864
1023,964; 2408,000;    2,636;    1,227
1024,511; 2315,000;    1,000;    0,773
1025,058; 2158,000;    3,182;   -0,045
1025,605; 2197,182;   -2,273;    3,136
1026,152; 2452,364;    1,727;   -0,591
1026,699; 2184,727;    1,818;    1,318
1027,245; 2283,273;   -0,091;    0,318
1027,792; 2418,636;   -1,000;    1,409
1028,339; 2431,182;    2,364;   -0,045
1028,885; 2259,909;    1,000;   -0,227
1029,432; 2195,273;   -0,091;    0,227
1029,978; 2300,818;   -1,000;   -1,591
1030,525; 2216,364;    1,000;    0,409
1031,071; 2343,273;   -1,364;    1,136
1031,618; 2566,091;    0,364;    1,682
1032,164; 2318,091;   -0,091;    3,045
1032,710; 2371,000;    1,636;   -1,500
1033,256; 2264,818;   -0,636;   -0,136
1033,803; 2197,455;   -0,545;    1,500
1034,349; 1972,545;   -1,364;    0,136
1034,895; 2112,909;    0,000;   -0,318
1035,441; 2102,273;   -0,818;    0,318
1035,987; 2142,909;   -2,364;   -0,682
1036,533; 2175,091;   -1,455;   -0,955
1037,078; 2402,273;    1,455;    1,682
1037,624; 2194,909;    2,455;   -0,955
1038,170; 2164,909;    0,455;   -0,318
1038,716; 2134,818;    1,636;   -0,409
1039,261; 2011,182;   -2,273;   -0,773
1039,807; 1977,545;   -0,091;    3,409
1040,352; 2069,091;   -1,909;   -0,318
1040,898; 2088,091;   -1,545;   -0,682
1041,443; 1991,000;   -1,455;   -2,591
1041,989; 2148,182;    1,091;    1,591
1042,534; 1963,091;   -0,364;    2,591
1043,079; 1989,727;    2,909;    0,955
1043,625; 1884,909;    1,818;    0,500
1044,170; 1943,727;   -1,364;    1,045
1044,715; 2216,000;    2,455;    0,955
1045,260; 2026,909;    2,182;   -0,955
1045,805; 1993,091;    1,182;   -0,591
1046,350; 1915,455;    1,364;   -0,409
1046,895; 1990,545;    2,909;    1,591
1047,440; 1992,909;    5,364;    0,409
1047,985; 1844,182;    2,818;   -0,955
1048,530; 1765,273;    1,545;    1,227
1049,074; 1854,364;    0,000;    0,318
1049,619; 1799,727;   -1,364;    1,955
1050,164; 1655,182;    0,455;    0,227
1050,708; 1708,000;   -0,455;    0,045
1051,253; 2108,000;    1,273;   -2,227
1051,797; 1809,545;    0,818;   -1,318
1052,342; 1726,545;   -1,182;    1,045
1052,886; 1783,909;    0,364;   -1,409
1053,430; 1636,545;   -1,364;    0,136
1053,975; 1669,000;   -0,818;   -0,318
1054,519; 1685,000;   -0,727;    3,227
1055,063; 1741,364;    0,909;    1,318
1055,607; 1660,364;   -0,182;    0,227
1056,151; 1671,727;    2,909;    1,682
1056,695; 1538,000;    2,273;   -1,136
1057,239; 1622,000;   -1,727;   -0,682
1057,783; 1641,091;    0,818;   -1,500
1058,327; 1647,455;    0,000;    1,409
1058,871; 1875,909;   -0,545;    1,318
1059,415; 1603,909;   -0,818;   -0,045
1059,958; 1899,364;    1,455;    2,591
1060,502; 1594,182;   -1,000;   -0,773
1061,046; 1457,909;    0,364;   -0,955
1061,589; 1429,909;   -3,000;   -1,136
1062,133; 1328,000;   -1,273;    1,864
1062,676; 1319,273;    1,182;    0,864
1063,220; 1348,909;    1,091;    0,500
1063,763; 1384,818;    0,909;    1,136
1064,306; 1449,364;   -0,909;    1,864
1064,849; 1364,909;   -0,909;    0,591
1065,393; 1376,909;    2,000;   -1,500
1065,936; 1435,545;    0,182;   -0,409
1066,479; 1304,545;   -1,455;    1,318
1067,022; 1333,909;   -0,273;   -0,227
1067,565; 1255,818;   -0,091;   -1,318
1068,108; 1258,364;    0,727;   -0,591
1068,651; 1227,273;   -0,636;    1,409
1069,194; 1169,727;   -0,455;   -1,682
1069,736; 1200,182;   -1,273;    0,955
1070,279; 1167,364;   -1,364;   -0,500
1070,822; 1258,000;   -2,000;   -0,318
1071,364; 1391,545;   -0,364;    1,318
1071,907; 1176,818;   -0,727;    3,227
1072,450; 1021,909;    0,000;   -0,045
1072,992; 1077,364;   -0,273;    3,136
1073,535; 1237,727;    2,091;    2,136
1074,077; 1033,182;   -0,727;    2,045
1074,619; 1025,182;   -1,364;    0,591
1075,161; 1069,545;   -1,091;    1,500
1075,704; 1252,909;    1,545;    1,227
1076,246; 1018,455;   -0,182;    0,682
1076,788;  934,364;   -0,364;    1,773
1077,330;  985,091;    1,273;    2,136
1077,872;  999,455;    0,909;    0,955
1078,414; 1249,091;    2,727;    0,773
1078,956;  994,909;    1,273;   -0,227
1079,498; 1259,727;    1,636;    0,318
1080,040;  983,818;    1,909;   -1,318
1080,581;  911,636;    1,636;   -0,318
1081,123;  821,091;    0,091;   -0,773
1081,665;  860,273;   -1,182;   -0,955
1082,206; 1184,455;    1,364;   -0,500
1082,748; 1044,818;    0,727;    2,045
1083,289;  895,091;   -2,000;    1,318
1083,831;  835,273;   -0,545;    0,227
1084,372;  899,091;    0,000;    0,591
1084,913;  903,364;    1,091;    0,864
1085,455;  831,909;   -1,909;   -2,045
1085,996;  823,636;   -2,273;    0,136
1086,537;  879,000;   -0,091;    0,864
1087,078;  894,455;   -0,909;   -2,136
1087,619;  932,455;   -1,273;    0,227
1088,160;  848,000;    0,000;    1,318
1088,701;  826,727;   -1,091;    0,682
1089,242;  784,727;    1,364;   -2,227
1089,783;  896,636;   -0,273;    1,409
1090,324;  867,273;    0,455;    0,682
1090,865;  750,091;    2,727;   -0,409
1091,405;  696,364;    0,727;    2,227
1091,946;  737,364;    0,182;   -0,955
1092,487;  660,000;    0,818;   -1,409
1093,027;  853,091;   -1,364;   -1,500
1093,568;  706,727;   -0,364;    1,227
1094,108;  804,727;    0,273;    1,773
1094,649;  746,091;   -1,182;    0,136
1095,189;  676,727;   -0,636;   -0,682
1095,729;  647,182;   -0,091;    0,955
1096,269;  629,818;    0,727;   -0,955
1096,810;  938,364;   -1,364;    0,500
1097,350;  792,273;    1,364;   -0,773
1097,890;  685,545;    0,364;    1,227
1098,430;  954,545;    2,364;    2,864
1098,970;  830,727;    2,182;    1,682
1099,510;  667,727;    0,545;   -2,318
1100,050;  613,636;    1,000;   -1,591
1100,589;  598,364;   -0,727;   -0,318
1101,129;  722,818;    0,818;   -0,955
1101,669;  879,364;    1,727;    2,136
1102,209;  701,182;   -0,091;    2,227
1102,748;  658,000;    0,000;    0,955
1103,288;  644,909;    1,273;   -1,227
1103,827;  669,909;    3,091;   -2,227
1104,367;  553,909;   -0,091;   -2,409
1104,906;  530,091;    1,364;   -1,136
1105,445;  608,727;    0,636;   -1,136
1105,985;  563,273;   -0,727;    1,500
1106,524;  597,273;   -1,727;   -0,682
1107,063;  574,636;   -2,727;    1,409
1107,602;  534,182;   -1,909;   -1,500
1108,141;  468,455;   -1,909;    1,500
1108,680;  593,818;   -3,455;   -0,591
1109,219;  526,545;   -0,909;   -0,500
1109,758;  519,455;    0,455;    0,682
1110,297;  503,091;    1,000;   -0,682
1110,836;  449,636;   -0,727;    0,955
1111,375;  599,000;   -2,545;    0,409
1111,913;  626,091;   -1,000;    0,773
1112,452;  554,727;   -0,273;    0,136
1112,991;  434,273;    1,091;    1,955
1113,529;  412,364;   -0,818;   -0,045
1114,068;  480,909;   -0,273;    2,955
1114,606;  387,000;   -0,364;   -0,955
1115,144;  552,000;   -1,273;    1,045
1115,683;  490,091;   -0,727;    0,318
1116,221;  529,727;   -0,455;   -0,864
1116,759;  445,727;    0,636;   -0,864
1117,297;  637,818;    0,000;    1,864
1117,836;  449,364;   -2,182;   -1,227
1118,374;  453,455;    0,182;   -0,682
1118,912;  412,091;    0,909;    2,682
1119,450;  409,455;    1,000;    0,864
1119,988;  452,727;    1,545;    2,136
1120,525;  901,000;    5,091;    3,318
1121,063;  603,000;    1,182;    1,864
1121,601;  427,364;   -0,909;   -1,227
1122,139;  391,636;   -0,727;   -2,045
1122,676;  575,364;   -0,727;    2,773
1123,214;  508,273;   -1,182;    4,409
1123,751;  330,545;    1,727;    2,227
1124,289;  449,455;   -0,091;   -0,409
1124,826;  334,818;    1,727;    0,227
1125,364;  266,364;    1,727;   -0,955
1125,901;  449,545;    1,182;    1,227
1126,438;  541,273;    0,818;    0,955
1126,975;  286,909;   -0,727;   -0,773
1127,513;  348,818;    0,273;    2,136
1128,050;  273,000;    1,636;   -0,682
1128,587;  361,545;    2,000;   -0,227
1129,124;  409,909;    0,091;    1,318
1129,661;  273,364;    0,273;    0,227
1130,198;  436,000;    1,636;    0,773
1130,734;  383,818;    0,182;    1,409
1131,271;  263,000;   -0,909;    0,864
1131,808;  419,455;    2,909;    3,045
1132,345;  306,636;    1,545;    0,318
1132,881;  183,182;   -1,545;   -1,864
1133,418;  320,909;    0,727;   -1,136
1133,954;  255,364;    2,455;   -2,682
1134,491;  325,273;    1,364;   -0,773
1135,027;  232,545;    2,364;    0,864
1135,564;  313,909;    0,273;    2,955
1136,100;  306,000;    0,364;    2,136
1136,636;  204,909;   -1,273;   -1,045
1137,172;  292,909;    0,000;   -1,045
1137,708;  220,818;   -1,364;   -1,045
1138,245;  221,455;    1,273;   -1,227
1138,781;  172,364;    1,091;   -3,318
1139,317;  244,818;    1,273;   -1,409
1139,852;  234,455;    3,091;    0,136
1140,388;  343,364;   -1,182;   -0,409
1140,924;  230,091;   -1,091;   -2,227
1141,460;  182,091;   -1,636;    0,136
1141,996;  121,636;   -1,364;    2,682
1142,531;  163,364;    1,364;    3,318
1143,067;  365,364;    1,182;    1,045
1143,602;  418,636;   -0,091;   -0,318
1144,138;  274,909;   -2,636;    1,045
1144,673;  153,909;   -1,455;    1,409
1145,209;  222,636;   -1,909;   -0,318
1145,744;  135,818;   -0,727;    0,864
1146,279;  263,909;    1,818;   -0,136
1146,815;  183,000;    1,545;   -2,682
1147,350;  225,000;   -1,364;    0,045
1147,885;  148,455;   -0,818;   -1,318
1148,420;  146,909;   -2,273;    0,773
1148,955;  127,909;   -1,727;    1,864
1149,490;  152,182;   -0,909;   -1,591
1150,025;  137,727;    0,455;   -1,773
1150,560;  240,545;    1,091;   -0,955
1151,094;  217,545;    1,455;   -0,591
1151,629;  211,182;    1,636;    0,864
1152,164;  149,636;    1,364;    1,318
1152,698;  113,545;   -0,182;   -0,136
1153,233;   75,727;    0,091;   -0,682
1153,767;  120,636;   -3,000;   -2,318
1154,302;  166,000;   -1,455;    1,773
1154,836;  159,455;   -0,455;   -2,136
1155,371;  211,909;   -1,364;    3,682
1155,905;  167,818;   -0,636;    1,682
1156,439;  138,182;   -0,636;   -0,500
1156,973;  168,091;    0,364;    0,318
1157,507;  113,909;   -0,364;    0,682
1158,042;  139,000;   -0,727;    1,045
1158,576;  175,909;    0,182;    1,773
1159,110;  173,182;   -0,818;    2,409
1159,643;  151,636;    0,636;   -0,045
1160,177;   90,182;   -1,545;    1,500

