
Integration time [ms]:   0,040
Averaging Nr. [scans]: 11
Smoothing Nr. [pixels]: 0
Data measured with spectrometer [name]: 7318044SP
Wave   ;Sample   ;Dark     ;Reference
[nm]   ;[counts] ;[counts] ;[counts] 

186,757;   -4,986;   31,551;    1,318
187,357;   24,285;   22,551;    0,955
187,958;    4,453;   15,460;   -1,591
188,558;   35,641;    8,915;   -1,227
189,159;    8,390;    6,733;   -4,500
189,759;  -15,828;    7,278;   -3,591
190,360;   -9,058;    2,824;   -2,136
190,960;   14,916;    2,915;   -4,136
191,560;   25,315;    3,189;   -6,591
192,161;  227,589;    4,372;   -3,500
192,761;   84,796;    4,010;   -3,227
193,361;   34,376;    1,556;   -3,773
193,962;   75,187;    2,010;   -2,682
194,562;    6,853;    1,189;   -3,955
195,162;   20,983;   -2,448;   -2,227
195,762;  137,923;   -3,176;   -0,045
196,362;   89,524;    1,370;   -2,500
196,963;   -3,457;    2,006;   -0,864
197,563;   44,827;    1,551;   -0,955
198,163;    1,566;    0,096;   -0,682
198,763;   11,338;    1,733;   -0,500
199,363;   56,320;    3,096;   -0,500
199,963;   33,922;    0,369;    0,409
200,563;   13,650;    2,823;   -1,409
201,163;   -1,245;    3,277;   -0,227
201,763;   31,459;    3,732;    0,318
202,363;    0,287;    1,459;    1,500
202,963;   34,970;    1,459;    1,045
203,563;   87,860;    0,277;    0,500
204,162;   19,606;    2,096;   -1,864
204,762;    9,440;    0,550;    0,591
205,362;  -11,579;    3,004;    1,955
205,962;   24,296;    3,096;    1,955
206,562;   14,593;    1,823;    2,318
207,161;   -2,723;   -0,087;    0,318
207,761;   77,353;    1,277;    2,409
208,361;   12,433;   -0,268;    1,409
208,960;   28,180;    0,459;    1,500
209,560;   23,091;    1,277;    1,591
210,160;   30,753;    0,550;    1,864
210,759;   10,194;    4,186;    1,227
211,359;    1,978;    1,459;    1,045
211,958;  102,858;    1,277;    2,045
212,558;  104,558;    1,732;    1,864
213,157;   34,345;    1,822;    1,500
213,757;  179,096;    3,822;   -0,227
214,356;   67,691;    1,277;   -0,409
214,956;  161,526;    3,095;    0,409
215,555;   40,119;    2,095;    2,136
216,154;   13,969;   -2,723;   -0,591
216,754;    0,869;    0,277;    0,773
217,353;   21,923;   -0,268;   -1,045
217,952;  -20,361;   -0,178;    0,318
218,552;   50,280;    1,368;   -0,773
219,151;    9,003;    0,277;    0,955
219,750;   -1,300;    0,004;   -0,227
220,349;  -10,456;   -0,451;    1,045
220,948;   56,699;   -1,360;    1,136
221,548;    1,707;    0,913;    1,227
222,147;   14,170;   -0,087;   -0,409
222,746;   83,140;   -0,451;   -0,955
223,345;   24,617;    0,731;    0,500
223,944;   26,862;   -0,451;    0,773
224,543;   36,893;    1,004;   -1,409
225,142;   28,496;    0,094;    0,136
225,741;   23,953;   -0,814;    1,045
226,340;   24,281;   -0,451;   -0,955
226,939;   71,979;   -0,996;   -0,136
227,538;   15,789;   -0,360;   -0,773
228,137;   67,092;   -0,814;    0,864
228,735;   43,179;   -0,541;    1,227
229,334;   -9,103;   -0,905;   -0,227
229,933;   71,515;    0,459;    0,591
230,532;   66,641;    1,186;   -0,409
231,131;  116,091;    1,732;    0,318
231,729;   48,856;   -2,450;   -2,318
232,328;   21,446;   -0,723;   -1,500
232,927;   27,395;    1,004;   -0,500
233,525;   16,257;    3,640;    0,045
234,124;   20,337;    2,368;   -1,591
234,723;    6,192;    0,913;   -1,045
235,321;   -6,948;    2,277;    0,136
235,920;   13,042;    1,186;   -1,227
236,518;   76,175;    3,459;    0,318
237,117;    6,316;    0,004;   -0,227
237,715;   15,597;    0,640;   -0,500
238,314;   25,655;   -0,087;   -2,318
238,912;   74,596;   -0,723;   -1,409
239,510;   41,214;    0,459;   -1,227
240,109;   91,845;    0,004;    3,773
240,707;   63,290;   -0,996;    1,227
241,305;   -7,555;    0,550;    0,136
241,904;   26,355;   -0,178;   -2,045
242,502;  101,732;   -0,632;   -0,227
243,100;   49,497;   -0,087;   -0,955
243,698;    0,323;    0,732;    1,682
244,297;   14,083;   -0,632;    0,682
244,895;   18,497;   -0,269;   -2,318
245,493;   88,057;    2,186;   -0,591
246,091;   96,098;    1,368;   -1,318
246,689;   58,184;    1,004;    0,591
247,287;   45,784;    0,822;   -1,136
247,885;   31,149;   -1,451;    1,227
248,483;    5,929;    1,822;   -0,500
249,081;   48,750;    0,185;    1,591
249,679;   51,581;   -0,178;    1,682
250,277;   -0,065;   -1,723;    0,864
250,875;   39,865;   -1,087;   -1,045
251,473;   10,352;   -1,178;    0,500
252,071;   51,747;    1,459;    1,045
252,669;   17,316;   -1,814;    0,318
253,267;    1,200;   -0,087;    0,773
253,864;   12,966;   -0,360;    0,682
254,462;   62,044;    1,640;    1,591
255,060;   -1,888;   -0,269;    1,318
255,658;   -5,047;    0,822;   -0,136
256,255;   16,052;    0,186;   -2,045
256,853;   34,603;   -0,269;    1,409
257,451;   14,957;    0,822;    1,864
258,048;  185,479;    1,822;    1,864
258,646;   67,767;    1,731;   -1,045
259,243;  108,512;   -0,087;    2,227
259,841;   54,744;   -0,814;    0,318
260,438;   -2,242;   -0,087;    0,864
261,036;   43,210;   -1,905;    1,409
261,633;    7,871;   -0,087;    2,227
262,231;  -13,484;    2,731;   -0,045
262,828;   -7,185;   -0,905;    1,136
263,425;    6,925;    0,913;   -0,591
264,023;    5,476;    0,186;    0,045
264,620;   49,485;   -0,360;   -0,318
265,217;   89,685;   -2,087;    3,136
265,815;   19,559;   -1,905;    2,136
266,412;   49,421;    0,731;    0,136
267,009;   43,680;   -1,451;    0,773
267,606;   71,494;    0,822;   -0,955
268,203;   16,352;   -0,269;   -0,591
268,801;   20,707;    1,731;    0,591
269,398;   -2,987;   -0,360;    2,500
269,995;   46,815;    0,277;    1,591
270,592;   25,565;   -0,632;   -0,500
271,189;   -4,137;    0,186;    0,409
271,786;  -16,312;   -0,632;    1,227
272,383;   59,947;   -1,087;    0,227
272,980;   16,021;    0,277;    0,318
273,577;    3,873;    0,004;    1,227
274,174;   -0,804;    0,822;    2,591
274,771;   45,953;   -0,814;   -0,773
275,367;  216,141;    2,277;    1,409
275,964;  103,533;    0,731;   -0,500
276,561;   18,966;    1,549;   -1,045
277,158;   -6,873;    0,095;   -1,773
277,755;   72,113;    2,185;    0,409
278,351;   45,580;   -0,451;   -1,500
278,948;   65,441;   -0,815;    0,045
279,545;   33,599;   -1,360;    2,318
280,141;   88,938;   -1,723;   -2,045
280,738;   94,853;   -0,451;   -0,136
281,334;   19,740;   -1,633;    0,591
281,931;    7,951;   -0,087;   -1,318
282,528;   60,323;    0,822;   -0,500
283,124;   80,499;   -1,087;   -0,500
283,721;   77,660;   -0,451;    1,409
284,317;   32,474;    0,185;    2,500
284,913;   87,819;   -1,360;    0,591
285,510;  156,728;    0,640;   -0,318
286,106;   93,454;   -2,269;   -0,955
286,703;   42,759;   -0,360;    1,955
287,299;   15,835;   -1,451;   -0,591
287,895;   13,426;    0,822;   -1,045
288,491;    8,194;    0,186;    2,136
289,088;   43,477;   -2,360;    2,409
289,684;   52,771;   -1,723;    1,500
290,280;  123,561;    0,368;    0,682
290,876;   96,994;    1,822;    5,500
291,472;   74,522;    1,276;    2,227
292,068;   85,373;    1,367;    0,227
292,665;   38,380;    2,095;    0,773
293,261;    8,145;    0,276;    2,136
293,857;   84,643;    2,913;    2,136
294,453;   55,692;    3,550;    0,955
295,049;  157,593;   -0,268;    1,955
295,644;   83,418;    0,095;    0,136
296,240;   26,762;   -0,905;   -0,136
296,836;   82,661;   -0,995;    0,318
297,432;  154,428;    1,096;   -0,500
298,028;  161,583;    0,732;    0,773
298,624;  104,947;    1,459;    1,864
299,220;  100,965;    2,368;    0,591
299,815;  106,902;    1,005;   -0,409
300,411;  171,957;    0,914;    1,773
301,007;  237,660;    1,368;    0,227
301,602;  136,638;   -0,541;   -2,318
302,198;  233,432;    0,732;   -0,773
302,794;  151,647;    1,187;   -0,500
303,389;  102,297;   -1,177;    1,045
303,985;  133,552;    0,550;    1,409
304,580;  247,278;    1,459;    1,591
305,176;  179,653;   -3,086;    0,136
305,771;   88,635;   -1,268;   -1,227
306,367;  387,544;    4,095;    0,136
306,962;  211,729;    0,641;    1,500
307,558;  244,847;   -0,450;    0,136
308,153;  268,384;    1,095;   -1,136
308,748;  128,325;   -0,814;    1,682
309,344;  398,849;   -0,632;   -1,318
309,939;  391,567;   -1,905;   -1,318
310,534;  173,526;   -0,086;   -1,682
311,130;  149,211;    0,459;   -2,500
311,725;  120,521;    1,004;   -0,500
312,320;  149,888;    2,459;    0,045
312,915;  205,894;    1,459;   -1,045
313,510;  350,012;    1,550;   -0,500
314,105;  144,860;    1,096;    1,409
314,700;   58,442;   -3,086;   -1,045
315,295;  107,369;   -0,904;    0,045
315,890;   77,175;    1,277;    0,864
316,485;  141,712;   -0,359;   -0,318
317,080;   69,829;   -3,086;    1,591
317,675;  263,893;    2,005;   -0,682
318,270;  397,182;    5,550;    3,318
318,865;  294,450;    3,278;    3,045
319,460;  196,879;   -0,904;    0,591
320,055;   83,832;   -0,541;   -1,227
320,650;   82,777;   -1,995;   -0,591
321,244;   82,127;   -0,177;   -1,409
321,839;   73,911;   -1,541;   -0,227
322,434;  102,161;   -1,086;   -1,591
323,029;   67,601;    1,732;    1,591
323,623;   49,870;    1,550;    0,773
324,218;  163,114;    2,368;    1,409
324,812;  124,106;    1,096;    1,591
325,407;  120,879;   -0,814;    2,045
326,002;  206,584;    0,277;   -0,409
326,596;  166,428;    0,914;    1,318
327,191;   71,743;    0,823;   -1,045
327,785;   81,610;   -0,813;   -0,227
328,379;   70,956;    1,368;    0,136
328,974;  108,806;    0,914;   -3,955
329,568;  131,870;    0,186;   -2,409
330,163;  189,551;    2,096;    1,045
330,757;   92,058;    2,459;    1,591
331,351;   64,311;    0,459;    0,682
331,945;   56,733;    0,914;    1,409
332,540;  173,043;   -1,723;   -0,591
333,134;  180,217;   -1,086;    0,773
333,728;  196,102;    0,005;    0,318
334,322;  117,706;   -1,177;   -0,864
334,916;  137,872;    0,277;    0,955
335,510;  288,152;   -0,450;   -0,136
336,105;  288,834;   -1,086;    1,591
336,699;  225,421;   -1,086;    0,591
337,293;  283,104;   -1,723;    0,318
337,887;  251,557;   -2,723;    1,955
338,481;  414,798;    0,459;    0,591
339,074;  540,595;   -0,359;    2,682
339,668;  538,540;   -1,632;    1,227
340,262; 1148,253;    1,732;    3,227
340,856;  795,886;    1,822;   -0,682
341,450;  468,259;    1,004;    1,864
342,044;  584,467;    1,459;    0,136
342,637;  784,117;    0,913;   -2,136
343,231;  851,657;   -2,360;    0,682
343,825;  712,780;   -1,086;   -0,591
344,419;  722,761;   -1,995;    0,500
345,012; 1387,569;    2,459;    4,045
345,606; 1209,328;    4,641;    1,591
346,199;  887,027;   -1,813;   -0,227
346,793; 1090,336;    1,914;    2,045
347,386;  921,433;   -0,813;   -1,136
347,980;  816,494;   -0,268;   -0,045
348,573; 1004,843;    2,278;    0,409
349,167; 1341,638;    5,278;    4,773
349,760; 1341,224;    2,914;    2,682
350,354; 1276,312;   -0,813;    1,136
350,947; 1378,623;    1,096;    1,682
351,540; 1159,645;   -0,358;   -1,409
352,134; 1028,892;    1,096;    1,136
352,727; 1140,562;   -0,086;    1,136
353,320; 1195,675;    0,005;    0,591
353,913; 1070,552;   -1,995;    1,864
354,507; 1362,848;    0,823;   -1,227
355,100; 1283,911;    0,460;    0,864
355,693; 1678,286;    2,005;    2,409
356,286; 1390,251;    0,823;    2,773
356,879; 1241,233;   -0,722;    1,227
357,472; 1175,643;   -0,904;    1,500
358,065; 1282,355;   -0,722;    2,500
358,658; 1137,774;   -0,540;    2,318
359,251; 1031,874;   -1,631;   -0,591
359,844; 1206,342;   -1,904;   -1,136
360,437; 1329,252;   -2,995;    0,045
361,030; 1174,388;    1,369;   -0,682
361,623; 1112,023;    2,824;    0,318
362,215; 1350,828;   -0,086;    2,045
362,808; 1155,674;   -2,358;   -1,682
363,401; 1068,409;   -2,449;    0,136
363,994; 1317,608;   -0,631;   -1,500
364,586; 1044,506;    0,824;   -1,500
365,179;  986,728;   -0,449;   -1,136
365,772;  762,009;   -1,995;    2,045
366,364;  917,806;    1,915;   -3,227
366,957; 1056,321;    2,279;   -0,045
367,549;  933,389;    2,188;   -0,864
368,142;  905,819;    1,825;   -1,500
368,734;  856,802;    0,734;   -2,136
369,327;  764,624;    1,643;   -0,500
369,919;  805,077;   -1,538;    0,409
370,512;  832,069;   -1,083;   -0,500
371,104; 1099,641;   -0,901;    1,591
371,696; 1158,658;    1,191;   -0,955
372,289;  976,336;    0,373;    1,136
372,881;  902,147;   -2,080;    1,318
373,473;  734,992;   -2,170;    1,136
374,066;  864,463;   -0,169;    0,500
374,658;  797,140;    0,378;    1,136
375,250;  722,322;    0,653;   -1,409
375,842;  767,371;    0,473;   -0,045
376,434;  705,173;   -0,435;   -0,409
377,026;  736,403;    0,204;   -2,500
377,618;  744,715;   -0,158;   -0,682
378,210;  631,433;   -0,338;   -1,955
378,802;  558,396;    0,754;   -0,591
379,394; 1074,370;    1,846;    0,682
379,986;  810,069;    1,393;   -0,955
380,578;  699,362;   -0,153;    0,773
381,170;  950,932;   -0,972;    0,045
381,762;  813,526;    0,755;    1,409
382,354;  773,728;   -0,065;   -1,318
382,945;  689,975;   -2,976;    0,318
383,537;  640,192;   -2,705;   -1,955
384,129;  655,847;   -2,160;   -1,136
384,721;  800,896;   -0,252;    0,955
385,312;  685,380;   -0,161;   -0,955
385,904;  830,029;   -2,706;    1,591
386,496;  650,327;   -0,979;    1,045
387,087;  831,773;    1,022;    2,500
387,679;  738,912;   -1,160;    0,045
388,270;  758,261;    2,840;    2,045
388,862;  701,639;    1,295;   -0,318
389,453;  623,229;   -0,887;    1,045
390,045;  680,379;   -0,705;   -2,682
390,636;  576,223;    0,204;   -0,591
391,227;  617,743;   -0,523;   -0,045
391,819;  645,185;    0,204;    0,773
392,410;  947,809;    1,022;    0,045
393,001;  728,532;   -0,979;   -1,591
393,593;  814,996;    1,930;   -0,045
394,184;  880,359;    1,385;   -0,409
394,775;  671,032;    1,839;    2,136
395,366;  639,925;    1,385;    0,773
395,957;  874,669;    0,113;    0,136
396,548;  725,061;   -0,342;    2,682
397,139;  905,422;   -2,433;    0,591
397,730;  773,248;   -1,888;    0,955
398,321;  762,631;   -1,252;    0,955
398,912;  686,154;   -0,615;    0,136
399,503;  723,632;   -3,524;   -1,409
400,094;  723,373;    0,294;    1,682
400,685;  708,554;   -0,433;    0,045
401,276;  608,971;    0,930;   -0,955
401,867;  608,786;   -0,888;    0,773
402,458;  563,385;   -2,251;   -2,318
403,048;  779,546;    1,112;    0,591
403,639;  641,039;    0,840;    0,864
404,230;  852,041;    2,476;    0,318
404,821;  903,177;   -0,615;    0,045
405,411;  748,383;    1,203;   -2,591
406,002;  592,041;   -1,252;   -1,136
406,592;  896,156;    2,294;    0,045
407,183;  694,249;    0,566;   -1,500
407,774;  628,794;    3,475;   -0,136
408,364;  586,993;    0,930;    0,409
408,954;  733,921;    0,384;    1,227
409,545;  710,998;    1,021;    1,045
410,135;  606,764;    1,293;    0,500
410,726;  545,480;    1,838;    0,318
411,316;  789,283;    0,111;    0,773
411,906;  525,234;   -0,253;   -0,409
412,497;  495,823;   -1,070;   -0,045
413,087;  414,896;   -1,980;   -0,227
413,677;  331,603;   -0,707;    3,864
414,267;  291,553;    0,656;    1,409
414,857;  252,126;   -2,980;    4,227
415,448;  230,223;    0,839;    0,500
416,038;  254,187;    0,020;   -0,591
416,628;  312,498;   -0,889;    0,409
417,218;  384,076;    0,565;    3,318
417,808;  547,468;    0,202;   -0,409
418,398;  354,686;    0,020;    2,682
418,988;  187,859;    2,020;    0,591
419,578;  285,872;   -0,707;    1,409
420,168;  207,607;   -1,343;   -0,955
420,757;  367,528;   -1,343;   -1,500
421,347;  231,142;    0,111;   -0,227
421,937;  172,251;    2,292;    1,409
422,527;  325,766;    0,838;   -0,773
423,116;  456,622;   -0,253;   -0,045
423,706;  127,741;   -1,889;    0,318
424,296;   60,550;    1,384;    0,682
424,885;  203,096;   -0,071;   -3,045
425,475;  168,619;    1,474;   -2,864
426,065;   40,097;   -0,980;   -0,318
426,654;    5,258;   -0,435;   -0,318
427,244;  281,488;    0,020;    1,409
427,833;  251,092;    1,383;   -0,500
428,423;   96,357;   -0,526;    1,136
429,012;   91,209;   -0,344;   -1,136
429,601;  219,669;   -1,344;    0,136
430,191;  105,672;    1,292;    4,318
430,780;   -2,847;   -0,344;   -0,409
431,369;  197,310;    0,746;   -0,045
431,959;   75,092;   -1,254;    0,500
432,548;    2,320;   -1,163;   -0,045
433,137;  -61,989;   -1,254;   -1,318
433,726;   18,970;    0,292;    0,500
434,315;   35,343;   -0,526;    2,409
434,905;  138,286;   -1,254;    1,409
435,494;  138,044;    0,746;    0,955
436,083;    1,688;   -0,981;   -0,955
436,672;   88,289;    0,110;    0,500
437,261;   41,358;    0,292;   -1,955
437,850;  271,371;    1,383;    0,682
438,439;  322,146;    3,291;    1,955
439,027;  420,456;    3,655;    1,773
439,616;  343,671;    2,927;    1,227
440,205;  116,642;    0,200;   -2,136
440,794;   64,694;    2,109;   -0,045
441,383;    1,414;   -1,346;   -0,591
441,971;  -26,150;   -2,436;    0,591
442,560;  -22,190;    0,563;   -1,773
443,149; -102,314;    0,379;   -1,318
443,737;  -59,626;   -0,074;   -2,318
444,326;  -27,540;    0,018;    0,318
444,915;   16,106;   -1,982;    0,864
445,503;   20,691;   -2,891;   -0,318
446,092;  267,274;    0,382;    2,136
446,680;  201,888;    0,382;    0,318
447,269;  105,443;   -0,346;   -0,318
447,857;   99,899;    0,018;   -1,773
448,445;   57,054;    0,563;    1,318
449,034;   -8,306;   -1,528;   -1,136
449,622;    0,517;   -1,073;    3,500
450,210;  278,170;    2,017;    2,227
450,799;  196,475;    0,290;   -0,591
451,387;  149,453;    1,381;   -0,591
451,975;  142,220;    2,654;    0,864
452,563;  216,833;    3,472;    2,318
453,151;   37,239;   -0,528;   -1,227
453,739;   81,760;   -1,347;    0,136
454,328;  194,668;    2,381;   -2,136
454,916;  113,228;    2,562;   -0,136
455,504;  142,191;    1,017;    1,227
456,092;   33,799;    0,017;   -1,591
456,679;   -5,764;    1,472;    0,682
457,267;  401,055;    4,017;    1,045
457,855;   84,624;    1,017;    1,409
458,443;  -54,084;   -0,165;    1,682
459,031;  105,211;    0,108;    2,409
459,619;   67,483;   -1,801;    2,864
460,206;  -30,626;    0,835;    2,045
460,794;  -38,893;   -2,983;   -0,227
461,382;   20,277;   -0,529;   -0,864
461,970;   22,759;    1,198;    1,864
462,557;  -55,310;   -0,711;   -0,682
463,145;   67,790;   -3,165;   -1,682
463,732;  316,937;    2,016;   -1,045
464,320;   85,807;   -0,075;   -3,045
464,907;  229,097;    2,743;   -0,773
465,495;  133,650;    0,743;   -1,227
466,082;   55,370;   -1,984;   -0,045
466,670;   78,298;   -2,529;    1,227
467,257;  -29,929;   -1,711;    2,045
467,844;   77,781;   -0,075;    0,045
468,432;   43,285;    0,834;    3,500
469,019;    7,019;    0,925;   -1,773
469,606;   92,550;    0,470;    3,682
470,193;  127,866;   -1,439;    0,227
470,780;   78,609;   -2,075;    0,864
471,368;    9,633;   -1,257;   -0,773
471,955;  120,683;    1,379;   -0,682
472,542;   82,470;    0,652;   -1,136
473,129;  -36,140;   -0,166;    0,136
473,716;  -26,749;    1,470;    0,591
474,303;    3,533;    0,652;   -0,864
474,890;   11,235;   -1,439;   -0,500
475,477;  111,445;   -1,621;    0,409
476,064;   13,942;    1,106;   -1,591
476,650;  139,005;    0,288;    0,318
477,237;   52,459;   -0,258;    0,955
477,824;   33,064;   -1,076;    0,864
478,411;  -45,773;   -1,894;   -0,318
478,997;  -58,121;    0,560;   -0,773
479,584; -115,015;    1,196;   -0,409
480,171;   67,384;   -0,440;   -0,773
480,757;  125,904;    2,651;    0,773
481,344;   16,544;    0,469;    0,409
481,931;  -75,388;    1,105;    1,045
482,517;   56,546;   -1,258;    0,318
483,104;  144,408;    1,106;    2,864
483,690;    2,603;   -1,804;    0,045
484,276;  -17,445;   -0,895;    0,227
484,863;  190,313;    2,469;    1,136
485,449;   46,274;   -0,077;    0,318
486,035;    6,324;   -1,986;   -0,136
486,622;   88,318;   -0,895;    0,045
487,208;    3,988;    1,378;    1,500
487,794;  -80,075;    0,741;    0,318
488,380;  -73,220;    0,105;   -1,409
488,967;  -65,768;   -1,168;   -0,409
489,553;  -43,355;   -1,895;   -1,409
490,139;   39,441;    1,559;    0,773
490,725;  -41,627;    0,741;   -0,227
491,311;    4,772;    3,287;    3,045
491,897;  -22,668;   -0,986;    1,500
492,483;  -18,327;    0,105;    1,227
493,069;  426,864;    3,923;    0,864
493,655;  137,529;    1,650;    0,682
494,241;   10,656;    1,377;   -0,955
494,826;   20,913;    0,287;   -1,045
495,412;   86,491;    2,559;   -0,682
495,998;  -16,911;   -0,805;   -0,318
496,584;   59,970;    0,377;    1,045
497,169;   74,534;    1,014;   -0,682
497,755;    9,214;    0,650;    1,227
498,341;  138,803;    0,559;    0,318
498,926;  260,844;    1,832;    1,955
499,512;    3,422;    1,286;    2,955
500,097;   12,083;    0,195;   -0,318
500,683;   40,665;   -0,350;    2,136
501,268;  -21,385;   -0,169;   -0,955
501,854;    0,002;   -0,169;    1,227
502,439;  -14,960;   -0,624;   -1,773
503,024;    6,825;    0,195;    0,500
503,610;   36,570;   -0,078;   -0,682
504,195;  -16,893;    0,558;    1,955
504,780;   77,633;    2,922;    1,227
505,366;  168,060;    3,013;    2,864
505,951;   97,305;    0,740;    1,045
506,536;   20,400;   -3,260;   -3,682
507,121;   78,013;    0,285;   -0,318
507,706;   20,572;    2,376;    1,045
508,291;  -28,872;    2,649;    1,136
508,876;  -29,314;   -0,988;    2,591
509,461;   22,043;   -0,169;   -0,773
510,046;   57,693;    0,194;    0,318
510,631;   73,251;   -0,351;   -0,773
511,216;   -1,807;    2,467;   -0,500
511,801;   53,200;   -0,442;    2,591
512,386;   89,165;    0,740;    0,500
512,971;  117,931;   -2,988;    0,955
513,555;  164,902;   -0,897;   -1,500
514,140;  145,785;   -0,442;   -3,136
514,725;  298,445;   -0,715;   -1,136
515,309;  238,236;   -0,533;    0,318
515,894;  158,381;   -0,624;   -2,227
516,479;  255,973;   -0,624;   -0,955
517,063;  315,841;    0,376;    1,227
517,648;  313,950;    1,012;   -1,136
518,232;  374,026;   -0,261;   -1,409
518,817;  595,912;   -0,079;    1,682
519,401;  911,580;    2,194;    0,591
519,985;  896,907;    1,103;    1,136
520,570;  876,385;    0,830;   -1,955
521,154; 1254,418;    2,102;    0,591
521,738; 1733,274;   -2,352;    2,409
522,323; 1919,299;   -0,170;    1,682
522,907; 2043,319;    0,466;   -0,136
523,491; 2254,969;    0,557;    0,955
524,075; 2564,129;    2,284;    0,591
524,659; 3047,900;    1,466;    0,591
525,243; 3238,951;    1,739;    0,409
525,827; 3691,919;    0,648;   -0,045
526,411; 4501,809;   -1,989;   -0,136
526,995; 5154,187;   -0,352;    1,409
527,579; 5360,176;   -0,443;   -1,045
528,163; 5973,281;    0,375;   -1,500
528,747; 6440,804;    2,466;   -0,773
529,331; 7059,449;   -0,080;   -1,409
529,915; 7562,686;    1,738;    0,955
530,499; 7993,109;   -0,807;    1,227
531,082; 8187,439;   -0,534;    1,591
531,666; 8167,797;    1,374;    0,773
532,250; 9066,963;    1,284;    2,682
532,833; 9660,924;    0,920;    2,773
533,417; 9894,965;   -1,807;    0,864
534,001;10149,993;    1,647;   -0,318
534,584;11067,849;    0,374;    0,500
535,168;11193,112;    0,465;    1,409
535,751;11553,197;    0,647;    0,045
536,334;11237,965;   -0,898;   -0,409
536,918;12012,620;    0,011;    1,591
537,501;12306,502;   -0,899;    1,318
538,085;12514,807;   -0,444;    1,045
538,668;12868,057;    0,829;    2,409
539,251;13372,580;    1,829;    3,773
539,834;13528,926;    0,101;    0,773
540,418;13631,359;   -1,990;    4,318
541,001;13859,745;   -0,990;    1,773
541,584;13958,020;    2,101;    2,227
542,167;13783,682;    1,374;    2,955
542,750;14028,483;    1,919;   -0,773
543,333;13753,148;    0,555;    2,136
543,916;14616,442;    0,192;    2,500
544,499;15297,729;   -1,354;    0,227
545,082;15388,984;    1,374;    3,591
545,665;15559,161;    1,919;    1,500
546,248;15952,694;    1,010;   -0,318
546,830;15686,275;   -0,445;    1,955
547,413;16173,167;    1,010;   -0,773
547,996;16771,377;    0,555;    0,500
548,579;16585,787;    0,919;    0,955
549,161;16452,588;    1,828;    2,682
549,744;16283,179;   -0,809;    0,409
550,326;16785,552;   -0,809;   -1,136
550,909;16663,403;    2,737;    0,591
551,492;17099,888;   -0,263;    0,227
552,074;16931,199;   -0,173;   -1,318
552,657;17493,263;    2,373;    0,045
553,239;17294,286;   -0,173;   -0,773
553,821;17230,012;   -1,082;    1,045
554,404;16797,863;    1,282;    1,136
554,986;17172,827;    0,464;    1,045
555,568;17782,850;    1,191;   -0,955
556,151;17064,737;    1,191;   -0,227
556,733;17273,986;   -0,264;   -0,864
557,315;17760,042;    0,100;    0,500
557,897;17622,901;    0,554;   -0,500
558,479;17783,760;   -1,991;    1,318
559,061;17888,717;   -0,719;   -0,864
559,643;18237,802;   -0,264;    0,045
560,225;18637,196;    1,645;    2,864
560,807;18685,439;    0,918;    0,318
561,389;18172,525;    0,554;    2,318
561,971;18955,518;    0,463;    2,136
562,553;18747,480;   -1,628;    1,591
563,135;18898,317;   -0,537;    1,136
563,717;18553,371;    3,372;    1,136
564,298;19270,813;    3,645;   -0,045
564,880;18990,888;    0,645;   -1,409
565,462;19159,524;    0,645;    1,318
566,043;20345,495;   -0,446;    2,318
566,625;19873,854;    1,918;    1,227
567,207;19754,664;    1,099;    1,682
567,788;20920,324;   -1,264;    1,500
568,370;21733,134;    1,917;   -0,500
568,951;21549,233;    0,190;    0,227
569,533;22469,017;   -0,628;   -0,500
570,114;22915,023;   -0,446;    0,682
570,695;23424,021;   -0,174;   -1,318
571,277;23940,258;   -0,265;   -1,682
571,858;24695,698;    2,008;   -1,136
572,439;25640,970;    1,554;   -1,045
573,021;25827,700;    2,099;   -2,773
573,602;26332,095;   -1,265;    0,318
574,183;27290,669;   -2,083;    2,227
574,764;27408,896;   -1,629;    0,409
575,345;27950,492;    0,917;   -0,136
575,926;28569,195;   -0,356;    0,136
576,507;28497,818;    1,099;   -0,227
577,088;29659,513;    3,099;    1,682
577,669;29721,933;    0,735;    1,955
578,250;30531,850;    0,644;   -1,045
578,831;31213,703;   -1,356;   -2,227
579,412;31465,910;   -0,810;    0,955
579,993;32336,437;    1,008;    0,227
580,573;32691,474;   -0,629;   -0,955
581,154;31749,333;    0,735;   -0,591
581,735;32605,169;    0,644;    0,773
582,315;32076,532;   -0,629;    2,136
582,896;32350,532;   -0,174;    1,227
583,477;31783,734;    0,189;    1,227
584,057;32005,769;    0,553;    0,955
584,638;32342,801;    2,553;    2,318
585,218;32349,760;   -0,538;    2,682
585,799;32524,846;    0,281;   -0,227
586,379;32464,331;    0,372;    1,591
586,959;31174,641;    0,735;    0,318
587,540;30490,139;   -0,629;    2,227
588,120;30083,390;    1,007;   -0,045
588,700;29085,316;    2,553;    2,136
589,281;29394,410;    0,462;   -0,955
589,861;29374,833;    0,099;   -1,682
590,441;29189,238;    2,371;   -2,682
591,021;28180,251;   -0,265;   -2,591
591,601;28395,604;   -0,537;    0,500
592,181;28360,163;   -0,719;   -0,773
592,761;27666,348;    0,007;    1,409
593,341;27534,605;   -0,901;    0,045
593,921;27572,481;   -0,265;    1,591
594,501;27463,764;   -0,538;    1,318
595,081;27302,231;    0,917;   -0,318
595,661;27698,159;   -1,447;    0,955
596,240;28222,272;   -0,537;    0,136
596,820;27886,944;    0,372;    1,955
597,400;28086,905;    2,008;    0,773
597,980;28311,722;    2,008;    1,045
598,559;28358,527;    2,735;   -0,227
599,139;28043,646;   -0,174;   -1,227
599,718;27948,918;   -0,174;   -0,409
600,298;28177,650;    0,735;    0,682
600,877;28436,644;    2,917;    1,409
601,457;28699,952;    2,281;    1,136
602,036;28622,054;    0,190;    2,045
602,616;28883,808;    0,644;    1,682
603,195;29255,766;   -0,355;    3,500
603,774;28782,398;   -0,901;    2,045
604,354;28610,921;    0,826;   -0,500
604,933;28088,408;    0,463;    1,864
605,512;28252,630;    3,554;    0,591
606,091;28297,247;   -0,537;    3,773
606,671;29084,743;    0,281;    0,773
607,250;28259,480;    1,644;    3,136
607,829;28422,010;    2,372;    3,227
608,408;28269,934;    1,190;    2,591
608,987;27346,427;    1,281;    3,409
609,566;27638,437;   -1,265;   -2,500
610,145;27785,596;   -1,082;    0,682
610,723;28181,555;    4,372;    6,864
611,302;27433,204;   -0,446;    1,682
611,881;26964,241;    5,008;   11,227
612,460;27824,677;    1,645;    3,955
613,039;28224,435;   -0,082;    2,045
613,617;26902,333;    1,736;    4,773
614,196;27079,255;    1,099;    1,227
614,775;27429,121;    1,009;    2,409
615,353;27380,312;    0,736;    0,864
615,932;27103,475;    0,100;    2,409
616,510;27748,208;    0,554;    0,591
617,089;27285,366;    7,100;   17,591
617,667;27008,662;    2,372;    6,136
618,246;26868,275;   -1,537;    1,318
618,824;27005,898;   -3,355;   -0,955
619,402;26569,993;   -2,900;   -1,773
619,981;27077,842;   -0,173;   -1,045
620,559;26882,496;    0,009;    1,682
621,137;26435,856;   -0,718;    1,864
621,715;26475,179;   -1,173;   -0,682
622,293;26431,456;   -0,537;   -0,773
622,871;26829,406;   -0,718;    0,500
623,450;26410,845;    0,373;   -0,864
624,028;26275,433;    0,191;   -0,955
624,606;25931,141;   -1,718;    1,682
625,183;26321,409;   -1,536;   -1,136
625,761;25961,949;    1,009;    1,136
626,339;26249,678;    1,373;    2,591
626,917;26647,762;   -0,172;   -0,045
627,495;26675,716;   -0,354;    1,318
628,073;26120,316;   -0,263;    2,864
628,650;25846,667;    0,100;    2,136
629,228;26258,132;    0,373;    4,409
629,806;25654,494;    2,282;    1,136
630,383;25912,202;    1,464;   -0,318
630,961;25693,526;    2,555;   -0,955
631,539;25494,343;    2,464;    0,227
632,116;24857,708;   11,373;   15,409
632,694;25386,757;    2,555;    6,500
633,271;25710,732;    0,828;    2,682
633,848;25630,615;    1,828;    2,045
634,426;25617,836;   -1,081;    1,773
635,003;24733,730;    1,101;   -0,409
635,580;25081,166;    1,192;    3,682
636,158;25672,808;    3,737;    1,227
636,735;25620,855;    0,555;   -0,500
637,312;25812,970;   -0,809;   -0,682
637,889;25926,327;   -4,354;   -0,682
638,466;25358,138;   -3,990;   -0,409
639,043;25349,309;    2,101;   -1,136
639,620;25702,909;   -2,262;   -0,955
640,197;26019,870;    1,100;    1,682
640,774;26128,745;   -0,172;    1,136
641,351;26562,620;    0,737;    1,136
641,928;25994,767;   -0,627;    1,409
642,505;25578,460;    0,828;   -0,500
643,082;25727,881;   -1,718;    1,227
643,658;24736,483;   -0,718;    1,500
644,235;25488,540;    1,191;    2,500
644,812;25821,687;    1,918;    0,773
645,388;25565,199;   -0,991;    1,409
645,965;25657,619;   -0,809;    1,682
646,542;25736,312;   -1,445;   -0,227
647,118;25699,732;    1,009;   -0,955
647,695;26015,335;   -0,263;    1,136
648,271;25903,119;   -0,536;    0,500
648,848;26231,630;    0,736;    2,227
649,424;26079,050;    0,827;    1,318
650,000;25811,925;   -0,354;   -1,045
650,577;25672,436;   -0,627;   -0,955
651,153;26122,130;   -1,809;    0,955
651,729;27153,641;    1,191;    0,864
652,305;27545,061;    0,645;    2,773
652,881;32512,572;   -0,082;    1,136
653,458;39452,720;    1,100;    0,227
654,034;43010,595;    0,282;    1,591
654,610;44425,561;    0,554;    0,773
655,186;45724,890;    0,645;    3,045
655,762;45354,492;   -0,991;    0,409
656,338;45347,276;    0,100;    0,136
656,913;46372,879;   -0,082;    0,409
657,489;45628,026;    0,827;   -0,318
658,065;45602,538;   -0,173;   -1,591
658,641;46268,322;   -0,900;   -0,864
659,217;45541,106;   -0,991;    0,409
659,792;44950,162;    0,645;   -0,409
660,368;45156,492;   -2,173;   -0,682
660,944;44703,639;   -2,082;    1,227
661,519;39541,242;   -0,628;    0,409
662,095;33439,026;   -1,719;    0,591
662,670;29028,355;    1,281;   -0,136
663,246;28022,321;    1,009;   -0,409
663,821;27422,832;    0,281;    1,682
664,396;26877,343;    0,009;    1,864
664,972;27220,309;    0,009;   -0,500
665,547;27507,184;    1,372;    0,136
666,122;27540,786;   -1,082;    0,318
666,698;27862,479;   -0,173;    0,318
667,273;27186,263;   -0,173;    0,136
667,848;28024,775;    2,372;    1,500
668,423;27788,559;    2,190;    2,318
668,998;28355,706;    2,827;   -0,682
669,573;28923,763;   -3,264;   -1,500
670,148;28744,820;   -1,446;   -0,682
670,723;28498,513;   -1,810;    0,318
671,298;28941,479;    2,372;    1,045
671,873;29077,808;   -0,082;   -0,136
672,448;29027,774;    0,645;    0,136
673,023;29321,194;   -1,992;   -0,227
673,597;29658,887;    0,827;    2,318
674,172;29461,671;   -0,355;    0,318
674,747;28943,910;    0,372;   -1,045
675,321;28738,603;   -0,628;    3,318
675,896;28271,751;    0,645;    1,045
676,471;29314,262;    2,645;    1,591
677,045;29126,773;   -1,264;    0,682
677,620;29169,921;    0,190;    1,136
678,194;29486,523;   -2,628;    1,136
678,769;29061,034;   -1,083;   -0,318
679,343;29324,909;   -0,628;    1,773
679,917;29206,511;   -1,446;    1,955
680,492;29271,386;    0,826;    3,227
681,066;29383,716;    3,372;    0,409
681,640;29415,227;    1,463;   -0,318
682,214;30229,193;    0,735;    0,500
682,788;29819,068;   -1,356;   -0,773
683,363;29799,488;   -1,810;    1,682
683,937;29469,636;   -1,719;   -0,318
684,511;30229,602;    0,463;   -0,591
685,085;29895,840;   -1,356;    0,318
685,659;29652,170;   -2,538;    0,864
686,232;29940,681;   -0,356;   -0,318
686,806;29607,374;   -0,901;    0,409
687,380;30293,794;   -0,174;    0,591
687,954;30474,760;   -1,174;    1,136
688,528;30176,908;   -0,719;    1,955
689,101;30969,237;   -3,992;    1,045
689,675;30535,294;   -0,356;   -0,136
690,249;29949,714;   -0,719;    0,409
690,822;30283,498;    0,280;    0,318
691,396;30453,191;   -0,265;    1,227
691,969;29851,066;    1,280;    0,136
692,543;30274,759;   -0,447;   -1,955
693,116;29875,543;   -0,265;   -1,409
693,690;29767,782;    0,099;    0,500
694,263;30329,475;   -1,083;    2,955
694,836;30401,077;    1,371;    3,591
695,410;29036,589;   -0,265;    1,773
695,983;29522,100;    0,189;    0,591
696,556;29467,520;   -0,447;   -1,045
697,129;29827,122;   -0,356;    1,409
697,703;29500,179;   -1,629;    1,955
698,276;29433,599;    1,462;   -0,773
698,849;29266,111;    1,280;    1,409
699,422;29616,167;   -1,083;    0,591
699,995;29348,861;    0,007;    0,136
700,568;29813,281;   -0,629;    3,045
701,140;29845,247;   -2,811;    1,682
701,713;29598,849;   -0,174;    2,409
702,286;29361,542;   -0,538;    0,864
702,859;29256,235;   -0,902;   -0,591
703,432;28389,928;    0,825;    0,682
704,004;28900,349;    0,462;    0,318
704,577;28776,405;   -0,629;    0,136
705,150;29367,007;    0,189;    2,500
705,722;29108,246;   -0,356;   -3,227
706,295;28850,757;   -0,175;   -0,591
706,867;28732,814;   -0,175;    1,955
707,440;28988,325;   -1,720;   -0,409
708,012;29267,382;    0,462;    0,591
708,584;29162,439;    2,462;    0,227
709,157;29405,223;    1,825;   -0,591
709,729;29036,552;    2,280;    2,045
710,301;29891,518;    0,734;    0,045
710,874;29894,847;   -1,447;   -0,227
711,446;28776,904;    0,371;    0,864
712,018;28652,052;    0,098;    0,500
712,590;28450,018;   -1,993;    1,682
713,162;28990,802;    0,825;    1,318
713,734;29240,677;    1,825;   -2,045
714,306;29143,097;   -1,902;   -0,409
714,878;27795,608;    0,825;    0,864
715,450;28618,210;    0,643;    0,864
716,022;28871,176;    1,552;    1,318
716,593;29000,142;    0,189;    0,591
717,165;28966,199;   -3,175;   -1,227
717,737;28667,528;    0,280;    0,409
718,309;28322,494;    0,280;   -0,045
718,880;28315,642;   -0,539;   -1,409
719,452;28509,971;   -0,175;   -1,591
720,024;28091,482;    0,734;   -0,591
720,595;28651,176;   -2,902;    0,955
721,167;28157,323;    0,370;   -2,045
721,738;27713,471;   -0,812;   -1,045
722,309;27717,709;   -0,993;   -1,227
722,881;27460,402;   -1,357;    0,773
723,452;28134,459;   -2,630;    2,864
724,023;28297,789;   -0,721;    2,682
724,595;28052,845;    0,007;    0,682
725,166;27763,720;    0,007;   -0,409
725,737;27427,777;    1,734;    0,227
726,308;27544,652;   -0,266;    0,318
726,879;28010,254;   -1,630;    1,227
727,450;27817,311;    0,552;   -0,045
728,021;27754,277;    3,097;    0,682
728,592;27588,152;    0,734;    0,500
729,163;27934,481;    0,643;   -0,136
729,734;27937,810;    0,188;   -0,227
730,305;28304,504;    1,734;    0,136
730,876;28659,197;    0,188;    2,955
731,447;28391,072;    2,188;    2,682
732,017;28488,128;    1,097;    1,864
732,588;27893,458;    0,734;    1,227
733,159;28093,605;    0,643;   -1,045
733,729;27924,208;    0,006;    0,409
734,300;27269,719;    0,915;    0,864
734,870;27656,412;    3,461;    0,591
735,441;28240,196;    0,370;   -0,591
736,011;27962,616;    0,643;   -1,591
736,582;27899,218;   -0,812;    0,045
737,152;27400,639;   -1,721;   -2,045
737,722;27831,968;   -0,267;   -0,682
738,293;27543,843;   -1,358;    1,318
738,863;27432,991;    2,461;    2,318
739,433;27303,138;    5,279;    0,318
740,003;27856,650;   -0,994;   -0,682
740,573;27271,525;    2,097;   -1,591
741,143;27239,672;   -1,085;    0,318
741,713;28038,911;    1,188;   -0,500
742,283;27764,695;    0,915;    1,591
742,853;27465,115;    1,915;    1,591
743,423;26934,081;    1,733;    0,045
743,993;27121,047;   -0,358;    1,500
744,563;26457,104;    0,097;   -0,864
745,133;26426,524;   -0,812;   -0,864
745,702;27078,217;   -0,267;    1,773
746,272;26281,546;   -0,176;    0,591
746,842;26039,421;   -1,358;   -0,591
747,411;26480,296;   -0,267;   -0,318
747,981;26693,353;    0,097;    0,500
748,551;26716,501;    2,278;   -1,045
749,120;26588,376;    0,642;   -0,227
749,690;26950,160;   -0,631;    2,409
750,259;27249,125;    1,369;    2,955
750,828;27226,364;    1,551;   -1,955
751,398;27528,512;    1,278;   -0,045
751,967;27036,477;    2,187;    0,409
752,536;27230,170;   -0,813;   -0,227
753,105;27644,045;    0,096;    0,227
753,675;27392,102;    0,096;    1,773
754,244;27322,977;   -0,904;    3,591
754,813;27374,761;    0,551;    1,227
755,382;26930,818;    0,460;    0,955
755,951;27499,693;    1,551;    3,682
756,520;27020,295;   -0,085;    1,864
757,089;27638,806;    0,278;    0,500
757,658;27799,681;    1,733;    1,227
758,227;27777,647;    1,096;    0,318
758,795;28106,976;    1,187;    1,136
759,364;28322,397;   -0,086;   -0,591
759,933;27310,908;   -1,176;   -0,045
760,501;26800,874;    0,733;   -1,318
761,070;27285,021;   -2,813;   -1,409
761,639;27987,714;   -1,904;    1,318
762,207;27390,498;    1,551;   -0,955
762,776;27295,282;    0,369;    0,864
763,344;27218,521;   -0,995;    0,591
763,913;26308,487;   -0,722;    1,409
764,481;27058,089;    1,005;   -0,136
765,049;26796,418;   -1,358;    1,409
765,618;26690,293;   -0,086;    0,318
766,186;26768,441;    0,278;    0,136
766,754;27016,589;    0,005;    1,864
767,322;25973,282;   -1,995;    0,409
767,890;26014,702;   -0,722;   -1,773
768,459;26438,123;   -2,177;   -0,318
769,027;26665,179;    1,641;    3,409
769,595;25542,963;    3,278;    2,591
770,163;25997,111;    3,823;    2,955
770,730;25769,168;    0,732;   -0,136
771,298;25584,406;    0,187;   -1,409
771,866;25639,645;   -1,541;    4,955
772,434;26028,792;   -0,631;   -1,864
773,002;26174,395;    0,005;    0,682
773,569;25817,997;    0,914;    1,682
774,137;25652,326;   -0,268;   -0,045
774,705;26407,201;    0,278;   -0,136
775,272;25927,076;    0,641;    0,682
775,840;25606,133;   -0,177;    2,682
776,407;25186,189;    0,277;    1,955
776,975;24781,428;   -0,632;    0,318
777,542;25810,121;   -1,086;   -0,045
778,110;25597,723;   -1,268;   -0,045
778,677;25267,235;   -2,359;   -0,864
779,244;25048,928;    2,186;    1,045
779,812;25195,166;    1,823;    0,864
780,379;25069,223;    0,005;    1,136
780,946;25296,461;    1,005;   -0,773
781,513;25592,155;   -1,450;    0,318
782,080;24967,848;   -0,086;    2,864
782,647;25720,632;   -0,268;    3,045
783,214;25321,052;   -0,177;    3,864
783,781;24897,200;   -0,723;   -0,682
784,348;24749,802;   -0,632;    1,500
784,915;25231,949;   -3,177;    0,318
785,482;24972,824;    1,368;    2,591
786,049;25421,608;    0,186;   -0,591
786,615;25577,301;    0,277;   -0,955
787,182;25284,722;    0,186;   -0,682
787,749;24933,869;   -2,814;    1,409
788,315;24305,653;   -1,632;   -0,409
788,882;24561,983;    1,550;   -1,227
789,448;25320,040;    1,732;   -0,955
790,015;25299,824;    1,095;    3,227
790,581;24874,880;    1,459;    0,227
791,148;24812,664;    0,641;    1,045
791,714;25000,630;   -0,541;    3,136
792,280;24642,596;    0,186;    1,591
792,847;24205,925;    0,550;    2,500
793,413;24755,800;   -0,269;   -0,318
793,979;24314,493;    3,459;   -1,318
794,545;24411,096;    4,459;    2,682
795,111;23816,152;    2,186;    1,318
795,678;23994,664;    0,731;   -1,682
796,244;23624,539;    3,368;    0,136
796,810;24200,959;    1,731;    0,773
797,375;23902,379;    0,549;   -2,136
797,941;23943,800;   -0,541;    0,591
798,507;24116,947;   -0,451;   -0,955
799,073;23601,459;   -0,360;    0,591
799,639;23587,061;   -2,632;    3,136
800,205;23665,117;    0,095;    2,682
800,770;23240,720;    0,640;    1,773
801,336;23335,322;    1,368;   -0,955
801,901;23064,924;    4,549;    3,136
802,467;23637,344;   -0,542;    2,045
803,033;22961,674;   -0,087;    0,864
803,598;23150,640;    1,913;   -1,045
804,163;23179,878;    1,095;   -0,318
804,729;23141,753;   -0,178;    1,136
805,294;23535,992;    0,822;    2,227
805,859;23292,685;    0,731;   -0,409
806,425;22792,651;    1,186;    2,682
806,990;22440,889;    2,186;    4,318
807,555;22914,219;   -1,451;    2,591
808,120;22809,639;    0,822;   -0,409
808,685;22856,150;    0,185;   -2,500
809,250;22367,298;    0,004;   -0,500
809,815;22651,264;    1,913;    0,682
810,380;23215,139;   -0,269;    1,591
810,945;23778,013;   -1,087;    2,045
811,510;22907,252;    2,094;    1,591
812,075;22628,036;   -0,633;   -1,409
812,640;22631,002;    2,003;    1,409
813,204;22677,059;    0,822;   -0,227
813,769;23181,570;    2,094;   -0,045
814,334;22600,354;    0,458;    0,864
814,898;22650,411;    0,367;    0,591
815,463;22553,195;    1,276;   -0,773
816,027;22528,979;   -0,724;   -2,318
816,592;22579,853;    0,640;   -2,045
817,156;22124,819;    2,094;    1,136
817,721;22008,512;    4,276;    2,318
818,285;21948,478;    2,912;    1,500
818,849;22631,171;   -1,451;    1,682
819,414;22481,592;   -0,269;    2,955
819,978;22043,103;   -1,269;    1,773
820,542;22644,069;    2,003;    0,500
821,106;22334,035;   -0,815;    0,682
821,670;22429,455;   -0,815;    2,591
822,234;22174,239;   -0,270;    1,409
822,798;21509,296;    0,003;    0,500
823,362;21445,352;   -0,633;    4,227
823,926;20787,591;    0,094;    1,136
824,490;21049,193;   -0,997;   -0,682
825,054;21454,704;   -0,088;   -1,136
825,618;21088,852;   -1,542;   -1,500
826,181;21063,909;    0,458;   -1,318
826,745;20990,602;    1,367;   -1,045
827,309;21370,840;    1,185;    1,318
827,872;20711,079;    1,367;    0,955
828,436;21737,408;    1,185;   -0,773
828,999;21764,829;   -0,997;    1,227
829,563;20561,249;   -0,179;    1,136
830,126;20397,397;   -0,179;   -0,591
830,690;20437,272;   -1,997;    2,864
831,253;19921,056;   -0,543;    2,227
831,816;20019,567;   -1,906;    0,500
832,380;20001,351;    0,185;    0,864
832,943;20239,953;   -1,361;   -0,500
833,506;19676,010;    2,639;   -1,227
834,069;20444,521;    3,912;   -0,955
834,632;20530,942;    1,730;    1,318
835,195;20449,635;    1,003;    0,955
835,758;19639,964;   -0,997;    1,955
836,321;19487,203;    0,730;   -1,045
836,884;19558,078;   -0,725;   -0,955
837,447;19576,680;   -2,816;    1,773
838,010;19825,555;    0,366;    3,227
838,573;20155,793;   -1,179;    0,773
839,135;20127,214;   -1,361;   -0,955
839,698;19576,634;    1,275;    0,409
840,261;19072,145;    1,003;   -0,227
840,823;18891,202;   -0,543;    0,864
841,386;19202,440;   -0,452;   -2,409
841,948;19123,861;   -1,361;    1,773
842,511;18854,736;    0,912;    1,682
843,073;18965,974;    1,912;    0,227
843,636;18799,486;   -0,361;   -0,227
844,198;18748,270;    0,911;    0,591
844,760;18849,599;    1,093;    1,955
845,322;18527,474;    0,548;    1,136
845,885;18920,803;    0,730;    0,591
846,447;19366,678;   -1,998;    0,227
847,009;18956,008;    1,911;   -0,682
847,571;19255,428;    0,820;   -2,045
848,133;19352,212;   -1,089;   -1,864
848,695;19188,632;   -0,543;    1,409
849,257;18762,326;   -1,089;   -1,682
849,819;18883,382;   -0,998;   -0,409
850,381;18925,803;   -0,725;   -0,864
850,942;19295,859;    1,093;   -0,591
851,504;19289,916;    1,184;    0,227
852,066;19275,882;    1,275;   -1,591
852,628;18800,575;   -0,180;    1,955
853,189;18341,904;    1,638;    2,682
853,751;18496,688;   -0,907;    1,409
854,312;18360,109;   -0,453;   -1,682
854,874;18830,620;   -2,089;   -0,773
855,435;19298,677;   -0,907;   -1,682
855,997;19474,188;   -1,816;   -0,136
856,558;18794,699;    0,366;    1,773
857,119;18905,211;    0,820;    2,864
857,681;18567,631;    0,002;    0,318
858,242;18594,960;    1,911;   -2,136
858,803;18991,563;    0,456;   -0,773
859,364;19592,710;    0,184;   -4,773
859,925;18926,676;   -2,453;   -0,955
860,486;18815,369;   -0,453;   -0,955
861,047;18566,517;   -0,544;   -1,227
861,608;18348,755;   -1,089;   -0,773
862,169;18477,812;    0,638;   -0,045
862,730;18268,505;    0,456;    1,409
863,291;18523,926;   -0,635;   -0,500
863,852;18878,891;   -0,635;    1,955
864,412;18331,675;   -0,271;   -0,864
864,973;16898,641;   -0,089;    0,500
865,534;16812,425;   -1,726;    0,227
866,094;18333,118;    1,820;    0,227
866,655;17976,720;    1,274;    3,318
867,215;18214,595;    0,274;    0,136
867,776;18031,925;    0,547;   -0,136
868,336;18157,436;   -1,453;    0,136
868,897;17691,402;    2,638;    1,682
869,457;17342,186;    1,365;    0,318
870,017;17576,606;    0,547;   -1,227
870,578;18114,208;   -0,817;    0,773
871,138;17822,265;   -2,089;   -0,955
871,698;17351,776;   -0,817;   -1,318
872,258;17207,742;   -0,453;   -2,864
872,818;17639,163;    2,729;    0,045
873,378;17605,674;    0,638;    1,045
873,938;17119,367;    0,547;    0,500
874,498;17495,333;    0,274;   -1,955
875,058;17333,390;    2,183;    1,773
875,618;17169,355;    1,910;   -2,682
876,177;17144,776;    1,274;    0,136
876,737;16741,651;   -0,090;    1,955
877,297;16761,253;    0,183;    1,955
877,856;16777,401;   -0,362;    0,318
878,416;16707,912;    1,183;   -0,136
878,976;16958,514;   -1,817;    0,409
879,535;17117,753;    0,092;    3,136
880,095;16834,173;   -0,544;    0,045
880,654;16972,593;   -1,090;    1,318
881,213;17064,923;    2,456;    1,500
881,773;16688,616;    2,637;    2,682
882,332;17060,854;    3,365;    5,136
882,891;16892,002;    3,092;    2,136
883,451;17352,422;   -1,272;    1,682
884,010;16794,570;   -2,908;   -0,409
884,569;16903,899;   -0,999;   -0,045
885,128;17014,593;    2,819;   -1,864
885,687;17095,831;    4,455;    0,682
886,246;16805,070;    1,455;    2,136
886,805;16595,308;    2,455;    2,045
887,364;16880,729;   -0,999;   -0,500
887,922;17232,513;   -1,181;    0,045
888,481;16706,569;   -1,545;    0,591
889,040;17029,171;    1,183;    2,136
889,599;17725,774;    2,455;    1,409
890,157;17776,103;    1,455;    2,409
890,716;17454,160;   -0,090;    0,227
891,274;17301,580;    0,092;   -1,136
891,833;17698,819;    1,546;    0,864
892,391;17546,694;   -0,454;    0,500
892,950;17607,387;    1,819;   -0,773
893,508;18041,898;    0,455;   -0,409
894,067;17388,137;    0,637;    0,136
894,625;17249,557;   -0,636;   -1,500
895,183;17466,614;   -0,363;   -0,682
895,741;17329,489;    1,728;   -1,773
896,299;17168,818;   -0,545;   -2,409
896,858;17382,511;    0,819;   -1,591
897,416;17533,204;    2,728;   -1,318
897,974;17244,352;    1,819;    0,318
898,532;17437,681;    6,091;    2,682
899,089;17331,465;    2,091;   -0,682
899,647;17327,431;   -1,454;    1,318
900,205;17059,488;    1,182;    1,045
900,763;17251,272;   -0,454;    0,227
901,321;17274,510;    2,364;   -1,409
901,878;16706,294;   -1,000;   -0,773
902,436;16563,078;   -1,363;    1,318
902,994;16952,499;    4,728;    3,682
903,551;16365,555;    0,728;    0,409
904,109;16777,158;    0,182;   -1,409
904,666;16346,851;    2,455;    1,045
905,224;16175,635;    0,182;   -0,409
905,781;15938,691;    0,727;   -0,318
906,338;16040,475;   -1,363;    1,045
906,895;15949,441;    0,637;    2,045
907,453;15882,316;    1,727;    1,136
908,010;15919,009;   -0,909;    0,409
908,567;15570,430;    1,273;    0,591
909,124;15045,577;    0,364;   -1,500
909,681;15120,270;   -2,909;    0,682
910,238;15262,691;    0,636;   -1,318
910,795;15581,020;   -0,273;   -1,136
911,352;15194,929;   -2,909;   -2,682
911,909;14608,929;   -1,364;   -0,864
912,466;15125,202;   -3,182;    1,500
913,022;14654,838;   -1,636;    0,500
913,579;15014,747;   -0,909;    2,045
914,136;14716,475;    1,636;    0,955
914,692;15032,657;    0,091;   -1,227
915,249;14655,202;    1,455;    0,409
915,806;14878,202;    0,182;    1,955
916,362;14635,838;    1,909;    1,864
916,918;14220,384;    2,000;    1,045
917,475;14182,384;   -1,182;    0,955
918,031;14225,929;    3,364;   -0,045
918,587;13686,657;   -0,909;   -0,318
919,144;13913,384;   -2,273;    0,227
919,700;14212,929;    1,727;    0,773
920,256;13795,384;    0,727;    0,045
920,812;13430,566;   -0,727;   -1,045
921,368;13397,020;   -1,727;   -1,045
921,924;13040,293;    0,182;   -0,136
922,480;12628,293;   -0,545;    1,227
923,036;13231,657;    1,273;    1,955
923,592;13157,020;    0,455;    0,318
924,148;13122,202;    0,455;   -0,955
924,704;12405,020;   -1,364;   -0,409
925,259;12669,838;   -0,273;    0,591
925,815;12490,747;    1,455;    0,500
926,371;11976,293;    2,909;    1,409
926,926;11855,657;    2,091;    0,591
927,482;11492,475;   -1,364;    0,773
928,037;11377,293;    0,909;    2,045
928,593;11687,384;    1,636;    1,045
929,148;11465,657;   -1,818;   -1,500
929,704;10970,929;   -1,455;   -0,500
930,259;11201,020;    0,091;   -0,136
930,814;10259,020;   -0,818;    1,955
931,369; 9949,475;    1,091;   -0,773
931,925; 9808,293;   -0,091;    0,136
932,480; 9699,202;   -2,818;   -2,591
933,035; 9608,202;    0,545;   -0,318
933,590; 9376,566;    0,364;   -1,773
934,145; 9013,657;   -1,364;   -0,318
934,700; 9345,202;    0,455;   -0,591
935,255; 9158,202;   -0,091;    0,045
935,809; 8402,838;    3,182;    0,864
936,364; 7536,566;   -0,455;   -0,136
936,919; 7511,475;    0,455;   -1,773
937,474; 7409,747;    1,455;    0,136
938,028; 7172,475;   -1,636;    1,136
938,583; 6627,111;    1,818;    4,682
939,138; 6889,111;    2,091;    2,136
939,692; 6341,475;    1,636;   -1,136
940,247; 6034,020;   -0,727;   -1,045
940,801; 5595,657;   -0,636;    0,227
941,355; 5488,111;   -0,364;    2,591
941,910; 5120,929;   -0,273;   -2,136
942,464; 5239,111;   -0,818;   -0,318
943,018; 5024,929;    1,000;   -0,227
943,572; 4949,747;    2,545;   -0,682
944,126; 4376,475;    0,091;   -0,409
944,681; 4268,293;    3,091;    0,227
945,235; 4263,384;    1,000;   -0,591
945,789; 4221,111;    0,364;   -1,864
946,342; 4318,020;    0,455;   -0,591
946,896; 4090,293;   -2,273;    0,955
947,450; 3859,475;    1,545;   -0,227
948,004; 4052,020;    1,727;   -0,045
948,558; 4051,657;    0,273;   -0,864
949,111; 4004,929;   -0,273;   -0,318
949,665; 4023,929;    1,636;   -0,682
950,219; 3893,929;   -0,091;   -1,045
950,772; 3969,657;   -1,909;    1,864
951,326; 3868,657;    0,545;   -0,955
951,879; 3987,929;    0,727;   -2,318
952,433; 4016,384;    0,000;    2,227
952,986; 3854,657;    2,909;    0,682
953,539; 3790,475;   -0,273;    0,591
954,093; 3719,202;    0,545;   -1,318
954,646; 3850,384;    0,909;    1,318
955,199; 3671,566;    0,000;   -0,500
955,752; 3549,020;   -0,455;    1,773
956,305; 3517,111;   -0,091;    2,955
956,858; 3683,111;    0,818;   -0,318
957,411; 3859,657;   -0,545;    2,136
957,964; 3686,293;    1,364;    2,136
958,517; 3673,202;   -1,545;    3,136
959,070; 3490,384;   -0,455;    1,955
959,623; 3582,020;    1,091;    1,500
960,176; 3344,838;    1,727;    2,045
960,728; 3331,929;   -2,727;    0,773
961,281; 3387,566;    0,545;    0,500
961,834; 3437,293;   -0,909;    0,864
962,386; 3340,202;    1,727;    1,045
962,939; 3246,475;    0,364;   -0,318
963,491; 3428,657;    0,455;    1,136
964,043; 3277,020;    1,182;    2,409
964,596; 3423,020;   -1,000;    2,227
965,148; 3262,020;   -1,000;    1,773
965,700; 3154,747;    1,091;   -0,227
966,253; 3308,929;   -0,636;    0,318
966,805; 3148,475;   -2,273;    0,773
967,357; 3210,747;    1,091;   -1,500
967,909; 3163,020;    0,455;   -1,227
968,461; 3263,384;    0,545;    3,136
969,013; 3209,838;   -0,182;   -0,864
969,565; 3288,384;   -0,455;   -1,136
970,117; 3331,566;   -0,364;    1,045
970,669; 3152,020;    0,182;   -0,136
971,220; 3036,020;   -0,455;   -1,500
971,772; 2963,566;   -0,636;   -0,318
972,324; 3097,747;    0,091;   -0,500
972,876; 3026,475;    0,818;   -0,045
973,427; 3178,838;    1,909;   -1,045
973,979; 3146,929;   -0,727;   -2,500
974,530; 3186,293;    1,818;    1,318
975,082; 3184,475;   -0,545;    1,682
975,633; 3058,111;    1,091;    1,682
976,184; 3205,929;    0,909;    0,773
976,736; 2992,293;    0,091;    0,227
977,287; 2814,475;   -0,909;   -0,500
977,838; 2979,747;    0,909;   -0,318
978,389; 3052,020;   -1,000;   -0,500
978,940; 2910,475;    0,545;   -0,409
979,491; 2931,293;    0,091;   -0,500
980,042; 2914,929;    0,182;    3,045
980,593; 2955,293;   -2,545;    0,227
981,144; 3005,566;    2,545;   -0,500
981,695; 2976,293;    1,455;    1,500
982,246; 2933,747;   -0,273;    1,045
982,797; 3097,475;   -1,727;    0,682
983,347; 3209,929;    0,364;    0,591
983,898; 3385,293;    3,091;    0,409
984,449; 3195,566;    2,182;    0,773
984,999; 3086,384;    1,455;   -1,136
985,550; 2864,384;    0,182;   -0,318
986,100; 2917,475;   -0,455;   -0,318
986,651; 2917,566;   -0,818;    0,045
987,201; 2893,020;   -1,000;   -0,591
987,751; 2994,202;    0,818;    2,864
988,302; 2978,202;    2,636;    1,500
988,852; 3000,293;    0,455;   -1,136
989,402; 3034,111;    0,091;    0,682
989,952; 2958,020;   -2,182;    0,864
990,502; 3066,111;   -0,091;    0,682
991,052; 3010,202;   -0,727;    0,045
991,602; 2896,202;   -2,909;    1,318
992,152; 2880,566;    0,455;    0,682
992,702; 2858,566;    1,364;   -0,045
993,252; 2792,838;   -3,000;   -0,500
993,802; 2905,838;   -0,273;    1,318
994,352; 3144,202;   -1,545;    1,136
994,901; 3196,384;   -0,182;    3,227
995,451; 3107,475;   -0,182;    0,318
996,000; 3200,929;    1,636;    0,318
996,550; 2918,475;    2,273;    0,227
997,100; 2920,384;    1,273;   -0,045
997,649; 3178,747;    2,182;    0,955
998,198; 2813,293;    1,727;   -1,500
998,748; 3036,566;    1,091;   -2,318
999,297; 2945,293;   -0,818;   -0,409
999,846; 2994,747;    1,000;   -0,773
1000,395; 3051,566;   -0,818;    0,500
1000,945; 3008,657;    1,818;   -0,773
1001,494; 3092,838;    2,364;    0,682
1002,043; 3083,384;    4,636;    0,864
1002,592; 2925,384;   -1,091;    1,955
1003,141; 3064,747;   -0,455;   -0,682
1003,690; 2914,929;    1,727;    0,500
1004,238; 2999,657;    1,455;   -0,045
1004,787; 2649,657;    1,364;    1,227
1005,336; 2881,111;    0,364;    0,682
1005,885; 3010,202;    1,364;   -2,773
1006,433; 3157,111;    0,545;    0,955
1006,982; 3227,111;    0,455;    1,682
1007,531; 3127,838;   -1,818;   -0,227
1008,079; 3070,475;   -2,273;    0,500
1008,627; 3204,475;   -1,455;    0,409
1009,176; 2955,657;    0,000;   -1,955
1009,724; 2977,202;    1,091;    0,864
1010,273; 3042,293;    1,273;    0,500
1010,821; 3159,111;    0,091;    1,409
1011,369; 2893,929;   -1,364;    1,318
1011,917; 2870,384;   -1,364;   -0,591
1012,465; 3154,838;    1,273;   -1,591
1013,013; 3254,747;    2,091;   -1,682
1013,561; 3140,657;    0,455;   -0,773
1014,109; 3215,384;   -1,909;    1,682
1014,657; 3088,657;    0,364;    0,591
1015,205; 3199,929;    1,636;   -0,955
1015,753; 3240,657;   -0,545;   -1,409
1016,301; 3262,384;   -2,636;    3,045
1016,848; 3275,202;   -1,273;    0,409
1017,396; 3305,475;    2,545;    0,045
1017,944; 3425,657;    1,182;    1,864
1018,491; 3193,657;    0,273;    1,409
1019,039; 3359,111;    0,455;    0,591
1019,586; 3256,566;   -1,364;    1,682
1020,134; 3347,566;    0,455;    1,500
1020,681; 3390,111;    0,182;   -1,136
1021,228; 3389,475;    2,909;   -2,227
1021,776; 3207,566;    1,182;   -1,136
1022,323; 3432,111;    0,455;    0,773
1022,870; 3373,111;   -1,000;   -0,045
1023,417; 3253,384;    2,636;    1,864
1023,964; 3392,111;    2,636;    1,227
1024,511; 3233,747;    1,000;    0,773
1025,058; 3028,020;    3,182;   -0,045
1025,605; 3073,475;   -2,273;    3,136
1026,152; 3323,929;    1,727;   -0,591
1026,699; 3039,020;    1,818;    1,318
1027,245; 3204,929;   -0,091;    0,318
1027,792; 3409,293;   -1,000;    1,409
1028,339; 3292,111;    2,364;   -0,045
1028,885; 3134,929;    1,000;   -0,227
1029,432; 3082,566;   -0,091;    0,227
1029,978; 3141,475;   -1,000;   -1,591
1030,525; 3058,111;    1,000;    0,409
1031,071; 3286,384;   -1,364;    1,136
1031,618; 3404,293;    0,364;    1,682
1032,164; 3192,202;   -0,091;    3,045
1032,710; 3247,838;    1,636;   -1,500
1033,256; 3148,838;   -0,636;   -0,136
1033,803; 3131,020;   -0,545;    1,500
1034,349; 2832,475;   -1,364;    0,136
1034,895; 2968,384;    0,000;   -0,318
1035,441; 2973,111;   -0,818;    0,318
1035,987; 2967,747;   -2,364;   -0,682
1036,533; 2984,475;   -1,455;   -0,955
1037,078; 3195,111;    1,455;    1,682
1037,624; 3001,111;    2,455;   -0,955
1038,170; 3025,293;    0,455;   -0,318
1038,716; 2941,293;    1,636;   -0,409
1039,261; 2856,566;   -2,273;   -0,773
1039,807; 2787,293;   -0,091;    3,409
1040,352; 2856,838;   -1,909;   -0,318
1040,898; 2910,020;   -1,545;   -0,682
1041,443; 2802,566;   -1,455;   -2,591
1041,989; 2844,475;    1,091;    1,591
1042,534; 2716,566;   -0,364;    2,591
1043,079; 2826,566;    2,909;    0,955
1043,625; 2625,384;    1,818;    0,500
1044,170; 2664,929;   -1,364;    1,045
1044,715; 2899,747;    2,455;    0,955
1045,260; 2726,384;    2,182;   -0,955
1045,805; 2765,475;    1,182;   -0,591
1046,350; 2699,111;    1,364;   -0,409
1046,895; 2668,111;    2,909;    1,591
1047,440; 2624,747;    5,364;    0,409
1047,985; 2516,202;    2,818;   -0,955
1048,530; 2437,020;    1,545;    1,227
1049,074; 2516,657;    0,000;    0,318
1049,619; 2468,111;   -1,364;    1,955
1050,164; 2266,475;    0,455;    0,227
1050,708; 2326,111;   -0,455;    0,045
1051,253; 2709,020;    1,273;   -2,227
1051,797; 2395,475;    0,818;   -1,318
1052,342; 2403,111;   -1,182;    1,045
1052,886; 2413,929;    0,364;   -1,409
1053,430; 2283,020;   -1,364;    0,136
1053,975; 2303,202;   -0,818;   -0,318
1054,519; 2270,929;   -0,727;    3,227
1055,063; 2307,202;    0,909;    1,318
1055,607; 2185,020;   -0,182;    0,227
1056,151; 2214,838;    2,909;    1,682
1056,695; 2116,293;    2,273;   -1,136
1057,239; 2196,020;   -1,727;   -0,682
1057,783; 2208,657;    0,818;   -1,500
1058,327; 2141,202;    0,000;    1,409
1058,871; 2398,747;   -0,545;    1,318
1059,415; 2101,475;   -0,818;   -0,045
1059,958; 2364,111;    1,455;    2,591
1060,502; 2066,566;   -1,000;   -0,773
1061,046; 1981,657;    0,364;   -0,955
1061,589; 1940,566;   -3,000;   -1,136
1062,133; 1819,929;   -1,273;    1,864
1062,676; 1761,384;    1,182;    0,864
1063,220; 1779,747;    1,091;    0,500
1063,763; 1808,566;    0,909;    1,136
1064,306; 1884,111;   -0,909;    1,864
1064,849; 1763,657;   -0,909;    0,591
1065,393; 1773,838;    2,000;   -1,500
1065,936; 1894,566;    0,182;   -0,409
1066,479; 1772,111;   -1,455;    1,318
1067,022; 1798,929;   -0,273;   -0,227
1067,565; 1694,838;   -0,091;   -1,318
1068,108; 1720,384;    0,727;   -0,591
1068,651; 1695,929;   -0,636;    1,409
1069,194; 1619,566;   -0,455;   -1,682
1069,736; 1623,929;   -1,273;    0,955
1070,279; 1601,657;   -1,364;   -0,500
1070,822; 1654,838;   -2,000;   -0,318
1071,364; 1744,566;   -0,364;    1,318
1071,907; 1564,929;   -0,727;    3,227
1072,450; 1458,384;    0,000;   -0,045
1072,992; 1459,384;   -0,273;    3,136
1073,535; 1597,111;    2,091;    2,136
1074,077; 1402,384;   -0,727;    2,045
1074,619; 1368,111;   -1,364;    0,591
1075,161; 1410,202;   -1,091;    1,500
1075,704; 1585,747;    1,545;    1,227
1076,246; 1372,293;   -0,182;    0,682
1076,788; 1302,838;   -0,364;    1,773
1077,330; 1372,293;    1,273;    2,136
1077,872; 1348,202;    0,909;    0,955
1078,414; 1567,929;    2,727;    0,773
1078,956; 1299,838;    1,273;   -0,227
1079,498; 1565,838;    1,636;    0,318
1080,040; 1274,111;    1,909;   -1,318
1080,581; 1203,929;    1,636;   -0,318
1081,123; 1130,929;    0,091;   -0,773
1081,665; 1185,747;   -1,182;   -0,955
1082,206; 1488,202;    1,364;   -0,500
1082,748; 1340,202;    0,727;    2,045
1083,289; 1209,111;   -2,000;    1,318
1083,831; 1117,838;   -0,545;    0,227
1084,372; 1161,657;    0,000;    0,591
1084,913; 1171,657;    1,091;    0,864
1085,455; 1126,020;   -1,909;   -2,045
1085,996; 1105,657;   -2,273;    0,136
1086,537; 1125,566;   -0,091;    0,864
1087,078; 1155,475;   -0,909;   -2,136
1087,619; 1216,929;   -1,273;    0,227
1088,160; 1114,838;    0,000;    1,318
1088,701; 1105,111;   -1,091;    0,682
1089,242; 1050,657;    1,364;   -2,227
1089,783; 1153,566;   -0,273;    1,409
1090,324; 1121,747;    0,455;    0,682
1090,865;  983,202;    2,727;   -0,409
1091,405;  942,475;    0,727;    2,227
1091,946;  970,475;    0,182;   -0,955
1092,487;  909,384;    0,818;   -1,409
1093,027; 1079,475;   -1,364;   -1,500
1093,568;  929,929;   -0,364;    1,227
1094,108; 1034,020;    0,273;    1,773
1094,649;  968,475;   -1,182;    0,136
1095,189;  903,384;   -0,636;   -0,682
1095,729;  847,111;   -0,091;    0,955
1096,269;  840,475;    0,727;   -0,955
1096,810; 1170,929;   -1,364;    0,500
1097,350; 1000,202;    1,364;   -0,773
1097,890;  886,657;    0,364;    1,227
1098,430; 1157,838;    2,364;    2,864
1098,970; 1044,384;    2,182;    1,682
1099,510;  896,111;    0,545;   -2,318
1100,050;  821,202;    1,000;   -1,591
1100,589;  787,111;   -0,727;   -0,318
1101,129;  917,202;    0,818;   -0,955
1101,669; 1064,566;    1,727;    2,136
1102,209;  888,929;   -0,091;    2,227
1102,748;  844,929;    0,000;    0,955
1103,288;  832,384;    1,273;   -1,227
1103,827;  852,111;    3,091;   -2,227
1104,367;  724,566;   -0,091;   -2,409
1104,906;  688,384;    1,364;   -1,136
1105,445;  767,111;    0,636;   -1,136
1105,985;  717,111;   -0,727;    1,500
1106,524;  763,838;   -1,727;   -0,682
1107,063;  735,293;   -2,727;    1,409
1107,602;  704,384;   -1,909;   -1,500
1108,141;  634,384;   -1,909;    1,500
1108,680;  739,293;   -3,455;   -0,591
1109,219;  669,838;   -0,909;   -0,500
1109,758;  667,384;    0,455;    0,682
1110,297;  634,111;    1,000;   -0,682
1110,836;  578,838;   -0,727;    0,955
1111,375;  753,657;   -2,545;    0,409
1111,913;  772,111;   -1,000;    0,773
1112,452;  699,929;   -0,273;    0,136
1112,991;  588,020;    1,091;    1,955
1113,529;  541,929;   -0,818;   -0,045
1114,068;  615,020;   -0,273;    2,955
1114,606;  514,657;   -0,364;   -0,955
1115,144;  688,475;   -1,273;    1,045
1115,683;  614,657;   -0,727;    0,318
1116,221;  662,293;   -0,455;   -0,864
1116,759;  577,929;    0,636;   -0,864
1117,297;  778,202;    0,000;    1,864
1117,836;  568,929;   -2,182;   -1,227
1118,374;  583,475;    0,182;   -0,682
1118,912;  523,475;    0,909;    2,682
1119,450;  517,384;    1,000;    0,864
1119,988;  560,475;    1,545;    2,136
1120,525; 1028,020;    5,091;    3,318
1121,063;  727,293;    1,182;    1,864
1121,601;  540,838;   -0,909;   -1,227
1122,139;  488,384;   -0,727;   -2,045
1122,676;  692,475;   -0,727;    2,773
1123,214;  616,566;   -1,182;    4,409
1123,751;  425,111;    1,727;    2,227
1124,289;  564,566;   -0,091;   -0,409
1124,826;  429,657;    1,727;    0,227
1125,364;  345,111;    1,727;   -0,955
1125,901;  543,929;    1,182;    1,227
1126,438;  653,475;    0,818;    0,955
1126,975;  384,020;   -0,727;   -0,773
1127,513;  449,384;    0,273;    2,136
1128,050;  350,566;    1,636;   -0,682
1128,587;  457,929;    2,000;   -0,227
1129,124;  503,566;    0,091;    1,318
1129,661;  365,293;    0,273;    0,227
1130,198;  531,747;    1,636;    0,773
1130,734;  476,111;    0,182;    1,409
1131,271;  327,202;   -0,909;    0,864
1131,808;  495,293;    2,909;    3,045
1132,345;  379,838;    1,545;    0,318
1132,881;  253,293;   -1,545;   -1,864
1133,418;  387,202;    0,727;   -1,136
1133,954;  317,293;    2,455;   -2,682
1134,491;  398,838;    1,364;   -0,773
1135,027;  297,384;    2,364;    0,864
1135,564;  386,747;    0,273;    2,955
1136,100;  368,929;    0,364;    2,136
1136,636;  266,475;   -1,273;   -1,045
1137,172;  360,838;    0,000;   -1,045
1137,708;  278,202;   -1,364;   -1,045
1138,245;  285,020;    1,273;   -1,227
1138,781;  232,475;    1,091;   -3,318
1139,317;  304,657;    1,273;   -1,409
1139,852;  292,111;    3,091;    0,136
1140,388;  415,747;   -1,182;   -0,409
1140,924;  296,929;   -1,091;   -2,227
1141,460;  226,475;   -1,636;    0,136
1141,996;  160,293;   -1,364;    2,682
1142,531;  209,747;    1,364;    3,318
1143,067;  435,384;    1,182;    1,045
1143,602;  498,657;   -0,091;   -0,318
1144,138;  334,929;   -2,636;    1,045
1144,673;  191,747;   -1,455;    1,409
1145,209;  255,293;   -1,909;   -0,318
1145,744;  178,566;   -0,727;    0,864
1146,279;  324,566;    1,818;   -0,136
1146,815;  236,566;    1,545;   -2,682
1147,350;  275,384;   -1,364;    0,045
1147,885;  192,657;   -0,818;   -1,318
1148,420;  189,384;   -2,273;    0,773
1148,955;  168,293;   -1,727;    1,864
1149,490;  198,020;   -0,909;   -1,591
1150,025;  177,657;    0,455;   -1,773
1150,560;  298,475;    1,091;   -0,955
1151,094;  263,657;    1,455;   -0,591
1151,629;  268,929;    1,636;    0,864
1152,164;  181,566;    1,364;    1,318
1152,698;  140,384;   -0,182;   -0,136
1153,233;  103,111;    0,091;   -0,682
1153,767;  144,747;   -3,000;   -2,318
1154,302;  196,747;   -1,455;    1,773
1154,836;  198,838;   -0,455;   -2,136
1155,371;  259,020;   -1,364;    3,682
1155,905;  207,838;   -0,636;    1,682
1156,439;  173,657;   -0,636;   -0,500
1156,973;  215,475;    0,364;    0,318
1157,507;  150,747;   -0,364;    0,682
1158,042;  177,657;   -0,727;    1,045
1158,576;  223,657;    0,182;    1,773
1159,110;  205,202;   -0,818;    2,409
1159,643;  177,202;    0,636;   -0,045
1160,177;  112,384;   -1,545;    1,500

