
Integration time [ms]:   0,040
Averaging Nr. [scans]: 11
Smoothing Nr. [pixels]: 0
Data measured with spectrometer [name]: 7318044SP
Wave   ;Sample   ;Dark     ;Reference
[nm]   ;[counts] ;[counts] ;[counts] 

186,757;   27,338;   31,551;    1,318
187,357;   59,603;   22,551;    0,955
187,958;   31,309;   15,460;   -1,591
188,558;   71,838;    8,915;   -1,227
189,159;   45,627;    6,733;   -4,500
189,759;   15,353;    7,278;   -3,591
190,360;   20,113;    2,824;   -2,136
190,960;   51,123;    2,915;   -4,136
191,560;   65,708;    3,189;   -6,591
192,161;  292,943;    4,372;   -3,500
192,761;  148,886;    4,010;   -3,227
193,361;  100,517;    1,556;   -3,773
193,962;  143,890;    2,010;   -2,682
194,562;   65,898;    1,189;   -3,955
195,162;  100,595;   -2,448;   -2,227
195,762;  258,294;   -3,176;   -0,045
196,362;  201,661;    1,370;   -2,500
196,963;   76,757;    2,006;   -0,864
197,563;  150,270;    1,551;   -0,955
198,163;   95,235;    0,096;   -0,682
198,763;  110,366;    1,733;   -0,500
199,363;  207,821;    3,096;   -0,500
199,963;  173,285;    0,369;    0,409
200,563;  154,380;    2,823;   -1,409
201,163;  131,226;    3,277;   -0,227
201,763;  215,247;    3,732;    0,318
202,363;  150,841;    1,459;    1,500
202,963;  251,982;    1,459;    1,045
203,563;  362,706;    0,277;    0,500
204,162;  211,162;    2,096;   -1,864
204,762;  201,470;    0,550;    0,591
205,362;  170,738;    3,004;    1,955
205,962;  270,612;    3,096;    1,955
206,562;  258,326;    1,823;    2,318
207,161;  225,655;   -0,087;    0,318
207,761;  380,622;    1,277;    2,409
208,361;  249,844;   -0,268;    1,409
208,960;  352,302;    0,459;    1,500
209,560;  401,857;    1,277;    1,591
210,160;  393,717;    0,550;    1,864
210,759;  352,964;    4,186;    1,227
211,359;  359,339;    1,459;    1,045
211,958;  616,559;    1,277;    2,045
212,558;  683,330;    1,732;    1,864
213,157;  528,583;    1,822;    1,500
213,757;  948,750;    3,822;   -0,227
214,356;  656,768;    1,277;   -0,409
214,956;  972,305;    3,095;    0,409
215,555;  602,365;    2,095;    2,136
216,154;  543,297;   -2,723;   -0,591
216,754;  547,615;    0,277;    0,773
217,353;  664,517;   -0,268;   -1,045
217,952;  520,962;   -0,178;    0,318
218,552;  764,303;    1,368;   -0,773
219,151;  629,148;    0,277;    0,955
219,750;  624,676;    0,004;   -0,227
220,349;  701,805;   -0,451;    1,045
220,948;  806,491;   -1,360;    1,136
221,548;  777,165;    0,913;    1,227
222,147;  880,846;   -0,087;   -0,409
222,746; 1161,194;   -0,451;   -0,955
223,345; 1015,900;    0,731;    0,500
223,944; 1014,031;   -0,451;    0,773
224,543; 1144,777;    1,004;   -1,409
225,142; 1263,247;    0,094;    0,136
225,741; 1143,760;   -0,814;    1,045
226,340; 1145,398;   -0,451;   -0,955
226,939; 1550,254;   -0,996;   -0,136
227,538; 1410,759;   -0,360;   -0,773
228,137; 1587,956;   -0,814;    0,864
228,735; 1651,524;   -0,541;    1,227
229,334; 1427,114;   -0,905;   -0,227
229,933; 1784,388;    0,459;    0,591
230,532; 1883,203;    1,186;   -0,409
231,131; 1950,768;    1,732;    0,318
231,729; 1971,136;   -2,450;   -2,318
232,328; 1989,181;   -0,723;   -1,500
232,927; 2012,880;    1,004;   -0,500
233,525; 2082,234;    3,640;    0,045
234,124; 2265,089;    2,368;   -1,591
234,723; 2239,273;    0,913;   -1,045
235,321; 2348,619;    2,277;    0,136
235,920; 2504,478;    1,186;   -1,227
236,518; 2754,369;    3,459;    0,318
237,117; 2812,120;    0,004;   -0,227
237,715; 2933,706;    0,640;   -0,500
238,314; 2989,408;   -0,087;   -2,318
238,912; 3112,522;   -0,723;   -1,409
239,510; 3074,793;    0,459;   -1,227
240,109; 3225,537;    0,004;    3,773
240,707; 3234,584;   -0,996;    1,227
241,305; 3476,268;    0,550;    0,136
241,904; 3668,995;   -0,178;   -2,045
242,502; 3673,564;   -0,632;   -0,227
243,100; 3573,114;   -0,087;   -0,955
243,698; 3772,518;    0,732;    1,682
244,297; 3916,910;   -0,632;    0,682
244,895; 3800,118;   -0,269;   -2,318
245,493; 4089,598;    2,186;   -0,591
246,091; 4089,029;    1,368;   -1,318
246,689; 4052,778;    1,004;    0,591
247,287; 4152,960;    0,822;   -1,136
247,885; 4384,420;   -1,451;    1,227
248,483; 4461,959;    1,822;   -0,500
249,081; 4552,153;    0,185;    1,591
249,679; 4677,266;   -0,178;    1,682
250,277; 4877,850;   -1,723;    0,864
250,875; 4863,819;   -1,087;   -1,045
251,473; 4849,393;   -1,178;    0,500
252,071; 5032,323;    1,459;    1,045
252,669; 5151,849;   -1,814;    0,318
253,267; 5305,268;   -0,087;    0,773
253,864; 5236,869;   -0,360;    0,682
254,462; 5193,306;    1,640;    1,591
255,060; 5107,963;   -0,269;    1,318
255,658; 5336,576;    0,822;   -0,136
256,255; 5733,891;    0,186;   -2,045
256,853; 5646,238;   -0,269;    1,409
257,451; 5623,552;    0,822;    1,864
258,048; 5934,755;    1,822;    1,864
258,646; 5646,964;    1,731;   -1,045
259,243; 5792,966;   -0,087;    2,227
259,841; 5813,804;   -0,814;    0,318
260,438; 5708,193;   -0,087;    0,864
261,036; 6296,092;   -1,905;    1,409
261,633; 6199,804;   -0,087;    2,227
262,231; 5983,485;    2,731;   -0,045
262,828; 6083,795;   -0,905;    1,136
263,425; 6115,436;    0,913;   -0,591
264,023; 6338,054;    0,186;    0,045
264,620; 5932,191;   -0,360;   -0,318
265,217; 6253,554;   -2,087;    3,136
265,815; 6292,016;   -1,905;    2,136
266,412; 6156,509;    0,731;    0,136
267,009; 6178,211;   -1,451;    0,773
267,606; 6161,783;    0,822;   -0,955
268,203; 6104,116;   -0,269;   -0,591
268,801; 6312,985;    1,731;    0,591
269,398; 6556,285;   -0,360;    2,500
269,995; 6521,068;    0,277;    1,591
270,592; 6348,592;   -0,632;   -0,500
271,189; 6505,035;    0,186;    0,409
271,786; 6605,346;   -0,632;    1,227
272,383; 6520,957;   -1,087;    0,227
272,980; 6611,234;    0,277;    0,318
273,577; 7003,315;    0,004;    1,227
274,174; 6605,703;    0,822;    2,591
274,771; 6582,395;   -0,814;   -0,773
275,367; 6792,792;    2,277;    1,409
275,964; 6763,205;    0,731;   -0,500
276,561; 6809,055;    1,549;   -1,045
277,158; 6986,447;    0,095;   -1,773
277,755; 7114,062;    2,185;    0,409
278,351; 6585,441;   -0,451;   -1,500
278,948; 6877,789;   -0,815;    0,045
279,545; 6858,717;   -1,360;    2,318
280,141; 7449,369;   -1,723;   -2,045
280,738; 7291,530;   -0,451;   -0,136
281,334; 7438,103;   -1,633;    0,591
281,931; 6911,158;   -0,087;   -1,318
282,528; 7001,384;    0,822;   -0,500
283,124; 7606,124;   -1,087;   -0,500
283,721; 7537,702;   -0,451;    1,409
284,317; 7366,545;    0,185;    2,500
284,913; 7875,817;   -1,360;    0,591
285,510; 8066,271;    0,640;   -0,318
286,106; 8061,631;   -2,269;   -0,955
286,703; 7667,288;   -0,360;    1,955
287,299; 7867,895;   -1,451;   -0,591
287,895; 8046,669;    0,822;   -1,045
288,491; 8551,103;    0,186;    2,136
289,088; 8344,606;   -2,360;    2,409
289,684; 8410,395;   -1,723;    1,500
290,280; 8403,073;    0,368;    0,682
290,876; 8531,100;    1,822;    5,500
291,472; 8424,107;    1,276;    2,227
292,068; 8512,586;    1,367;    0,227
292,665; 8223,168;    2,095;    0,773
293,261; 7952,990;    0,276;    2,136
293,857; 8315,299;    2,913;    2,136
294,453; 8230,319;    3,550;    0,955
295,049; 8144,417;   -0,268;    1,955
295,644; 8194,221;    0,095;    0,136
296,240; 8111,216;   -0,905;   -0,136
296,836; 8160,709;   -0,995;    0,318
297,432; 8432,226;    1,096;   -0,500
298,028; 8480,909;    0,732;    0,773
298,624; 8774,005;    1,459;    1,864
299,220; 8953,093;    2,368;    0,591
299,815; 8658,325;    1,005;   -0,409
300,411; 8506,872;    0,914;    1,773
301,007; 8520,158;    1,368;    0,227
301,602; 8497,823;   -0,541;   -2,318
302,198; 8672,564;    0,732;   -0,773
302,794; 8966,865;    1,187;   -0,500
303,389; 9019,162;   -1,177;    1,045
303,985; 9076,617;    0,550;    1,409
304,580; 9079,251;    1,459;    1,591
305,176; 9014,394;   -3,086;    0,136
305,771; 8943,851;   -1,268;   -1,227
306,367; 8909,035;    4,095;    0,136
306,962; 9134,459;    0,641;    1,500
307,558; 8884,868;   -0,450;    0,136
308,153; 8823,099;    1,095;   -1,136
308,748; 8993,211;   -0,814;    1,682
309,344; 9029,149;   -0,632;   -1,318
309,939; 9189,737;   -1,905;   -1,318
310,534; 9322,307;   -0,086;   -1,682
311,130; 9209,143;    0,459;   -2,500
311,725; 8975,236;    1,004;   -0,500
312,320; 9276,301;    2,459;    0,045
312,915; 9183,830;    1,459;   -1,045
313,510; 9265,691;    1,550;   -0,500
314,105; 9642,886;    1,096;    1,409
314,700; 9036,434;   -3,086;   -1,045
315,295; 8749,342;   -0,904;    0,045
315,890; 8362,595;    1,277;    0,864
316,485; 8670,919;   -0,359;   -0,318
317,080; 8752,869;   -3,086;    1,591
317,675; 9243,915;    2,005;   -0,682
318,270; 8802,452;    5,550;    3,318
318,865; 8761,201;    3,278;    3,045
319,460; 8620,709;   -0,904;    0,591
320,055; 8799,380;   -0,541;   -1,227
320,650; 8501,379;   -1,995;   -0,591
321,244; 8572,541;   -0,177;   -1,409
321,839; 9387,730;   -1,541;   -0,227
322,434; 9273,210;   -1,086;   -1,591
323,029; 9003,180;    1,732;    1,591
323,623; 8863,120;    1,550;    0,773
324,218; 8707,337;    2,368;    1,409
324,812; 8599,206;    1,096;    1,591
325,407; 8449,618;   -0,814;    2,045
326,002; 8375,824;    0,277;   -0,409
326,596; 8671,956;    0,914;    1,318
327,191; 8798,299;    0,823;   -1,045
327,785; 8444,956;   -0,813;   -0,227
328,379; 8685,595;    1,368;    0,136
328,974; 8465,527;    0,914;   -3,955
329,568; 8694,752;    0,186;   -2,409
330,163; 8557,522;    2,096;    1,045
330,757; 8839,556;    2,459;    1,591
331,351; 8236,735;    0,459;    0,682
331,945; 8593,069;    0,914;    1,409
332,540; 8269,076;   -1,723;   -0,591
333,134; 8391,125;   -1,086;    0,773
333,728; 8617,962;    0,005;    0,318
334,322; 8895,844;   -1,177;   -0,864
334,916; 8239,400;    0,277;    0,955
335,510; 8554,893;   -0,450;   -0,136
336,105; 8792,845;   -1,086;    1,591
336,699; 8514,463;   -1,086;    0,591
337,293; 8471,513;   -1,723;    0,318
337,887; 8576,687;   -2,723;    1,955
338,481; 8685,303;    0,459;    0,591
339,074; 8841,605;   -0,359;    2,682
339,668; 8717,512;   -1,632;    1,227
340,262; 9008,398;    1,732;    3,227
340,856; 8491,881;    1,822;   -0,682
341,450; 7946,838;    1,004;    1,864
342,044; 8724,968;    1,459;    0,136
342,637; 8528,173;    0,913;   -2,136
343,231; 8434,325;   -2,360;    0,682
343,825; 8387,940;   -1,086;   -0,591
344,419; 8364,389;   -1,995;    0,500
345,012; 8266,432;    2,459;    4,045
345,606; 8268,817;    4,641;    1,591
346,199; 8134,404;   -1,813;   -0,227
346,793; 7756,584;    1,914;    2,045
347,386; 7873,842;   -0,813;   -1,136
347,980; 7853,331;   -0,268;   -0,045
348,573; 7701,576;    2,278;    0,409
349,167; 7501,775;    5,278;    4,773
349,760; 7827,935;    2,914;    2,682
350,354; 7766,739;   -0,813;    1,136
350,947; 7560,473;    1,096;    1,682
351,540; 7256,359;   -0,358;   -1,409
352,134; 7198,685;    1,096;    1,136
352,727; 7316,534;   -0,086;    1,136
353,320; 7132,323;    0,005;    0,591
353,913; 6974,302;   -1,995;    1,864
354,507; 7175,735;    0,823;   -1,227
355,100; 7166,324;    0,460;    0,864
355,693; 6571,336;    2,005;    2,409
356,286; 6622,435;    0,823;    2,773
356,879; 6918,708;   -0,722;    1,227
357,472; 6550,573;   -0,904;    1,500
358,065; 6759,454;   -0,722;    2,500
358,658; 6681,640;   -0,540;    2,318
359,251; 6365,504;   -1,631;   -0,591
359,844; 5975,703;   -1,904;   -1,136
360,437; 6168,802;   -2,995;    0,045
361,030; 6399,663;    1,369;   -0,682
361,623; 6034,200;    2,824;    0,318
362,215; 6071,817;   -0,086;    2,045
362,808; 5927,683;   -2,358;   -1,682
363,401; 6120,539;   -2,449;    0,136
363,994; 5941,627;   -0,631;   -1,500
364,586; 5852,391;    0,824;   -1,500
365,179; 6008,636;   -0,449;   -1,136
365,772; 5565,452;   -1,995;    2,045
366,364; 5811,889;    1,915;   -3,227
366,957; 6015,103;    2,279;   -0,045
367,549; 5990,304;    2,188;   -0,864
368,142; 5747,410;    1,825;   -1,500
368,734; 5903,464;    0,734;   -2,136
369,327; 5847,799;    1,643;   -0,500
369,919; 5782,971;   -1,538;    0,409
370,512; 5659,979;   -1,083;   -0,500
371,104; 5455,522;   -0,901;    1,591
371,696; 5636,287;    1,191;   -0,955
372,289; 5696,132;    0,373;    1,136
372,881; 5810,644;   -2,080;    1,318
373,473; 5689,639;   -2,170;    1,136
374,066; 5567,997;   -0,169;    0,500
374,658; 5460,293;    0,378;    1,136
375,250; 5717,161;    0,653;   -1,409
375,842; 5629,224;    0,473;   -0,045
376,434; 5511,462;   -0,435;   -0,409
377,026; 5979,792;    0,204;   -2,500
377,618; 5882,808;   -0,158;   -0,682
378,210; 5747,446;   -0,338;   -1,955
378,802; 5599,080;    0,754;   -0,591
379,394; 5642,678;    1,846;    0,682
379,986; 6100,035;    1,393;   -0,955
380,578; 6174,822;   -0,153;    0,773
381,170; 5656,669;   -0,972;    0,045
381,762; 5603,503;    0,755;    1,409
382,354; 5731,693;   -0,065;   -1,318
382,945; 5830,293;   -2,976;    0,318
383,537; 5946,422;   -2,705;   -1,955
384,129; 5971,425;   -2,160;   -1,136
384,721; 6101,214;   -0,252;    0,955
385,312; 6056,908;   -0,161;   -0,955
385,904; 6167,558;   -2,706;    1,591
386,496; 5590,866;   -0,979;    1,045
387,087; 5732,234;    1,022;    2,500
387,679; 5759,067;   -1,160;    0,045
388,270; 5867,219;    2,840;    2,045
388,862; 5970,428;    1,295;   -0,318
389,453; 5840,562;   -0,887;    1,045
390,045; 6093,084;   -0,705;   -2,682
390,636; 6005,849;    0,204;   -0,591
391,227; 5888,995;   -0,523;   -0,045
391,819; 5995,796;    0,204;    0,773
392,410; 6059,598;    1,022;    0,045
393,001; 6009,938;   -0,979;   -1,591
393,593; 6256,624;    1,930;   -0,045
394,184; 6091,711;    1,385;   -0,409
394,775; 5992,075;    1,839;    2,136
395,366; 6174,132;    1,385;    0,773
395,957; 6155,304;    0,113;    0,136
396,548; 6409,811;   -0,342;    2,682
397,139; 6695,072;   -2,433;    0,591
397,730; 6463,245;   -1,888;    0,955
398,321; 6490,616;   -1,252;    0,955
398,912; 6491,641;   -0,615;    0,136
399,503; 6599,709;   -3,524;   -1,409
400,094; 6121,009;    0,294;    1,682
400,685; 5978,001;   -0,433;    0,045
401,276; 6026,363;    0,930;   -0,955
401,867; 6330,846;   -0,888;    0,773
402,458; 6386,112;   -2,251;   -2,318
403,048; 6366,779;    1,112;    0,591
403,639; 6041,475;    0,840;    0,864
404,230; 6315,303;    2,476;    0,318
404,821; 6245,527;   -0,615;    0,045
405,411; 6337,419;    1,203;   -2,591
406,002; 5994,030;   -1,252;   -1,136
406,592; 5955,469;    2,294;    0,045
407,183; 6139,297;    0,566;   -1,500
407,774; 6044,021;    3,475;   -0,136
408,364; 6326,654;    0,930;    0,409
408,954; 5998,930;    0,384;    1,227
409,545; 6057,452;    1,021;    1,045
410,135; 5647,097;    1,293;    0,500
410,726; 5772,907;    1,838;    0,318
411,316; 6115,692;    0,111;    0,773
411,906; 5805,221;   -0,253;   -0,409
412,497; 5394,619;   -1,070;   -0,045
413,087; 5886,166;   -1,980;   -0,227
413,677; 6211,384;   -0,707;    3,864
414,267; 6086,088;    0,656;    1,409
414,857; 6067,953;   -2,980;    4,227
415,448; 6313,622;    0,839;    0,500
416,038; 6039,714;    0,020;   -0,591
416,628; 5991,815;   -0,889;    0,409
417,218; 5590,206;    0,565;    3,318
417,808; 5822,889;    0,202;   -0,409
418,398; 6142,617;    0,020;    2,682
418,988; 6153,755;    2,020;    0,591
419,578; 6351,318;   -0,707;    1,409
420,168; 6638,994;   -1,343;   -0,955
420,757; 6311,190;   -1,343;   -1,500
421,347; 5960,716;    0,111;   -0,227
421,937; 6103,261;    2,292;    1,409
422,527; 6098,514;    0,838;   -0,773
423,116; 5940,844;   -0,253;   -0,045
423,706; 6180,621;   -1,889;    0,318
424,296; 6124,665;    1,384;    0,682
424,885; 6525,665;   -0,071;   -3,045
425,475; 6735,238;    1,474;   -2,864
426,065; 6628,942;   -0,980;   -0,318
426,654; 6317,886;   -0,435;   -0,318
427,244; 6465,535;    0,020;    1,409
427,833; 5995,146;    1,383;   -0,500
428,423; 6323,928;   -0,526;    1,136
429,012; 6953,686;   -0,344;   -1,136
429,601; 6524,850;   -1,344;    0,136
430,191; 6739,456;    1,292;    4,318
430,780; 6390,224;   -0,344;   -0,409
431,369; 6369,918;    0,746;   -0,045
431,959; 6865,829;   -1,254;    0,500
432,548; 6667,875;   -1,163;   -0,045
433,137; 6745,333;   -1,254;   -1,318
433,726; 7188,444;    0,292;    0,500
434,315; 6661,402;   -0,526;    2,409
434,905; 6737,891;   -1,254;    1,409
435,494; 6673,180;    0,746;    0,955
436,083; 7014,673;   -0,981;   -0,955
436,672; 6901,858;    0,110;    0,500
437,261; 6582,615;    0,292;   -1,955
437,850; 6722,453;    1,383;    0,682
438,439; 6679,600;    3,291;    1,955
439,027; 6574,239;    3,655;    1,773
439,616; 6829,540;    2,927;    1,227
440,205; 6654,398;    0,200;   -2,136
440,794; 6654,973;    2,109;   -0,045
441,383; 6851,844;   -1,346;   -0,591
441,971; 6713,934;   -2,436;    0,591
442,560; 6575,600;    0,563;   -1,773
443,149; 6326,570;    0,379;   -1,318
443,737; 6474,282;   -0,074;   -2,318
444,326; 6664,715;    0,018;    0,318
444,915; 6700,123;   -1,982;    0,864
445,503; 7025,460;   -2,891;   -0,318
446,092; 6434,917;    0,382;    2,136
446,680; 6878,035;    0,382;    0,318
447,269; 7001,265;   -0,346;   -0,318
447,857; 6762,998;    0,018;   -1,773
448,445; 6859,500;    0,563;    1,318
449,034; 7041,658;   -1,528;   -1,136
449,622; 7093,726;   -1,073;    3,500
450,210; 6565,125;    2,017;    2,227
450,799; 7008,878;    0,290;   -0,591
451,387; 6894,175;    1,381;   -0,591
451,975; 6632,240;    2,654;    0,864
452,563; 6737,712;    3,472;    2,318
453,151; 6734,425;   -0,528;   -1,227
453,739; 6664,483;   -1,347;    0,136
454,328; 6525,297;    2,381;   -2,136
454,916; 6320,779;    2,562;   -0,136
455,504; 6463,775;    1,017;    1,227
456,092; 6579,453;    0,017;   -1,591
456,679; 6537,636;    1,472;    0,682
457,267; 6612,278;    4,017;    1,045
457,855; 6659,077;    1,017;    1,409
458,443; 6362,629;   -0,165;    1,682
459,031; 6552,693;    0,108;    2,409
459,619; 6914,416;   -1,801;    2,864
460,206; 6943,146;    0,835;    2,045
460,794; 7026,582;   -2,983;   -0,227
461,382; 7192,387;   -0,529;   -0,864
461,970; 6851,341;    1,198;    1,864
462,557; 6880,045;   -0,711;   -0,682
463,145; 7050,906;   -3,165;   -1,682
463,732; 7188,460;    2,016;   -1,045
464,320; 7085,490;   -0,075;   -3,045
464,907; 6833,579;    2,743;   -0,773
465,495; 6709,297;    0,743;   -1,227
466,082; 6830,581;   -1,984;   -0,045
466,670; 6700,673;   -2,529;    1,227
467,257; 7070,994;   -1,711;    2,045
467,844; 7223,997;   -0,075;    0,045
468,432; 7223,930;    0,834;    3,500
469,019; 6828,642;    0,925;   -1,773
469,606; 7193,797;    0,470;    3,682
470,193; 7050,330;   -1,439;    0,227
470,780; 6741,412;   -2,075;    0,864
471,368; 7004,940;   -1,257;   -0,773
471,955; 6826,960;    1,379;   -0,682
472,542; 6524,309;    0,652;   -1,136
473,129; 6705,167;   -0,166;    0,136
473,716; 6500,392;    1,470;    0,591
474,303; 6592,983;    0,652;   -0,864
474,890; 6835,134;   -1,439;   -0,500
475,477; 6913,910;   -1,621;    0,409
476,064; 6806,169;    1,106;   -1,591
476,650; 6683,206;    0,288;    0,318
477,237; 6519,843;   -0,258;    0,955
477,824; 6640,913;   -1,076;    0,864
478,411; 6621,821;   -1,894;   -0,318
478,997; 6771,487;    0,560;   -0,773
479,584; 6811,791;    1,196;   -0,409
480,171; 7402,515;   -0,440;   -0,773
480,757; 7136,114;    2,651;    0,773
481,344; 7294,811;    0,469;    0,409
481,931; 6868,334;    1,105;    1,045
482,517; 7674,552;   -1,258;    0,318
483,104; 8095,495;    1,106;    2,864
483,690; 8258,610;   -1,804;    0,045
484,276; 8427,685;   -0,895;    0,227
484,863; 8242,067;    2,469;    1,136
485,449; 8654,826;   -0,077;    0,318
486,035; 8624,032;   -1,986;   -0,136
486,622; 8991,140;   -0,895;    0,045
487,208; 8947,712;    1,378;    1,500
487,794; 8820,217;    0,741;    0,318
488,380; 8901,674;    0,105;   -1,409
488,967; 8975,981;   -1,168;   -0,409
489,553; 9019,000;   -1,895;   -1,409
490,139; 9236,205;    1,559;    0,773
490,725; 8771,001;    0,741;   -0,227
491,311; 8480,636;    3,287;    3,045
491,897; 7955,478;   -0,986;    1,500
492,483; 7902,867;    0,105;    1,227
493,069; 7949,547;    3,923;    0,864
493,655; 7835,508;    1,650;    0,682
494,241; 7815,142;    1,377;   -0,955
494,826; 8109,386;    0,287;   -1,045
495,412; 7641,227;    2,559;   -0,682
495,998; 7806,173;   -0,805;   -0,318
496,584; 7886,852;    0,377;    1,045
497,169; 7917,764;    1,014;   -0,682
497,755; 7939,752;    0,650;    1,227
498,341; 8480,059;    0,559;    0,318
498,926; 8135,223;    1,832;    1,955
499,512; 8303,110;    1,286;    2,955
500,097; 8334,054;    0,195;   -0,318
500,683; 8334,869;   -0,350;    2,136
501,268; 8723,847;   -0,169;   -0,955
501,854; 8526,464;   -0,169;    1,227
502,439; 8457,472;   -0,624;   -1,773
503,024; 8621,807;    0,195;    0,500
503,610; 8717,352;   -0,078;   -0,682
504,195; 8733,673;    0,558;    1,955
504,780; 8897,484;    2,922;    1,227
505,366; 8804,164;    3,013;    2,864
505,951; 8583,616;    0,740;    1,045
506,536; 8638,228;   -3,260;   -3,682
507,121; 8624,338;    0,285;   -0,318
507,706; 9129,271;    2,376;    1,045
508,291; 9445,412;    2,649;    1,136
508,876; 8958,655;   -0,988;    2,591
509,461; 8534,854;   -0,169;   -0,773
510,046; 8921,330;    0,194;    0,318
510,631; 9157,893;   -0,351;   -0,773
511,216; 8882,738;    2,467;   -0,500
511,801; 9244,956;   -0,442;    2,591
512,386; 9506,418;    0,740;    0,500
512,971; 9447,699;   -2,988;    0,955
513,555; 9074,921;   -0,897;   -1,500
514,140; 9783,059;   -0,442;   -3,136
514,725; 9744,773;   -0,715;   -1,136
515,309; 9894,817;   -0,533;    0,318
515,894; 9457,089;   -0,624;   -2,227
516,479; 9831,774;   -0,624;   -0,955
517,063; 9626,158;    0,376;    1,227
517,648; 9761,250;    1,012;   -1,136
518,232; 9399,173;   -0,261;   -1,409
518,817; 9782,015;   -0,079;    1,682
519,401;10000,763;    2,194;    0,591
519,985; 9490,033;    1,103;    1,136
520,570; 9380,107;    0,830;   -1,955
521,154; 9682,043;    2,102;    0,591
521,738; 9814,142;   -2,352;    2,409
522,323;10338,177;   -0,170;    1,682
522,907;10083,823;    0,466;   -0,136
523,491; 9868,665;    0,557;    0,955
524,075; 9835,597;    2,284;    0,591
524,659; 9943,365;    1,466;    0,591
525,243; 9480,843;    1,739;    0,409
525,827; 9678,733;    0,648;   -0,045
526,411;10370,910;   -1,989;   -0,136
526,995;10564,481;   -0,352;    1,409
527,579;10225,288;   -0,443;   -1,045
528,163;10519,861;    0,375;   -1,500
528,747;10433,336;    2,466;   -0,773
529,331;10681,471;   -0,080;   -1,409
529,915;10834,020;    1,738;    0,955
530,499;10807,725;   -0,807;    1,227
531,082;10547,332;   -0,534;    1,591
531,666;10046,755;    1,374;    0,773
532,250;10642,996;    1,284;    2,682
532,833;10866,299;    0,920;    2,773
533,417;10739,913;   -1,807;    0,864
534,001;10692,691;    1,647;   -0,318
534,584;11354,516;    0,374;    0,500
535,168;11181,652;    0,465;    1,409
535,751;11231,210;    0,647;    0,045
536,334;10676,008;   -0,898;   -0,409
536,918;11211,825;    0,011;    1,591
537,501;11262,602;   -0,899;    1,318
538,085;11285,172;   -0,444;    1,045
538,668;11410,468;    0,829;    2,409
539,251;11724,037;    1,829;    3,773
539,834;11729,854;    0,101;    0,773
540,418;11676,249;   -1,990;    4,318
541,001;11733,042;   -0,990;    1,773
541,584;11685,510;    2,101;    2,227
542,167;11418,818;    1,374;    2,955
542,750;11484,003;    1,919;   -0,773
543,333;11117,967;    0,555;    2,136
543,916;11859,483;    0,192;    2,500
544,499;12328,509;   -1,354;    0,227
545,082;12336,146;    1,374;    3,591
545,665;12427,166;    1,919;    1,500
546,248;12689,421;    1,010;   -0,318
546,830;12365,238;   -0,445;    1,955
547,413;12720,972;    1,010;   -0,773
547,996;13223,294;    0,555;    0,500
548,579;13004,617;    0,919;    0,955
549,161;12770,254;    1,828;    2,682
549,744;12543,305;   -0,809;    0,409
550,326;13037,896;   -0,809;   -1,136
550,909;12869,923;    2,737;    0,591
551,492;13186,485;   -0,263;    0,227
552,074;13033,675;   -0,173;   -1,318
552,657;13520,085;    2,373;    0,045
553,239;13298,154;   -0,173;   -0,773
553,821;13196,421;   -1,082;    1,045
554,404;12750,812;    1,282;    1,136
554,986;13094,997;    0,464;    1,045
555,568;13584,703;    1,191;   -0,955
556,151;12921,272;    1,191;   -0,227
556,733;13106,745;   -0,264;   -0,864
557,315;13479,846;    0,100;    0,500
557,897;13252,276;    0,554;   -0,500
558,479;13361,254;   -1,991;    1,318
559,061;13489,672;   -0,719;   -0,864
559,643;13764,236;   -0,264;    0,045
560,225;14095,613;    1,645;    2,864
560,807;14097,509;    0,918;    0,318
561,389;13641,079;    0,554;    2,318
561,971;14253,954;    0,463;    2,136
562,553;14122,764;   -1,628;    1,591
563,135;14248,672;   -0,537;    1,136
563,717;13868,581;    3,372;    1,136
564,298;14430,834;    3,645;   -0,045
564,880;14162,119;    0,645;   -1,409
565,462;14296,028;    0,645;    1,318
566,043;15309,791;   -0,446;    2,318
566,625;14852,541;    1,918;    1,227
567,207;14675,683;    1,099;    1,682
567,788;15598,389;   -1,264;    1,500
568,370;16298,350;    1,917;   -0,500
568,951;16050,754;    0,190;    0,227
569,533;16778,673;   -0,628;   -0,500
570,114;17159,248;   -0,446;    0,682
570,695;17514,646;   -0,174;   -1,318
571,277;17854,559;   -0,265;   -1,682
571,858;18512,715;    2,008;   -1,136
572,439;19161,530;    1,554;   -1,045
573,021;19218,000;    2,099;   -2,773
573,602;19609,201;   -1,265;    0,318
574,183;20373,522;   -2,083;    2,227
574,764;20368,021;   -1,629;    0,409
575,345;20779,047;    0,917;   -0,136
575,926;21264,426;   -0,356;    0,136
576,507;21235,405;    1,099;   -0,227
577,088;22204,746;    3,099;    1,682
577,669;22174,478;    0,735;    1,955
578,250;22820,886;    0,644;   -1,045
578,831;23287,737;   -1,356;   -2,227
579,412;23436,502;   -0,810;    0,955
579,993;24223,957;    1,008;    0,227
580,573;24479,503;   -0,629;   -0,955
581,154;23494,297;    0,735;   -0,591
581,735;24312,660;    0,644;    0,773
582,315;23850,023;   -0,629;    2,136
582,896;24078,021;   -0,174;    1,227
583,477;23544,392;    0,189;    1,227
584,057;23803,116;    0,553;    0,955
584,638;24087,230;    2,553;    2,318
585,218;24109,252;   -0,538;    2,682
585,799;24229,636;    0,281;   -0,227
586,379;24213,655;    0,372;    1,591
586,959;23135,386;    0,735;    0,318
587,540;22651,281;   -0,629;    2,227
588,120;22287,949;    1,007;   -0,045
588,700;21501,397;    2,553;    2,136
589,281;21814,366;    0,462;   -0,955
589,861;21760,073;    0,099;   -1,682
590,441;21561,958;    2,371;   -2,682
591,021;20686,161;   -0,265;   -2,591
591,601;20934,016;   -0,537;    0,500
592,181;20978,038;   -0,719;   -0,773
592,761;20335,967;    0,007;    1,409
593,341;20326,840;   -0,901;    0,045
593,921;20374,814;   -0,265;    1,591
594,501;20259,409;   -0,538;    1,318
595,081;20119,518;    0,917;   -0,318
595,661;20455,248;   -1,447;    0,955
596,240;20910,403;   -0,537;    0,136
596,820;20551,761;    0,372;    1,955
597,400;20598,520;    2,008;    0,773
597,980;20804,423;    2,008;    1,045
598,559;20817,224;    2,735;   -0,227
599,139;20594,271;   -0,174;   -1,227
599,718;20518,362;   -0,174;   -0,409
600,298;20756,701;    0,735;    0,682
600,877;21061,083;    2,917;    1,409
601,457;21239,350;    2,281;    1,136
602,036;21129,584;    0,190;    2,045
602,616;21286,173;    0,644;    1,682
603,195;21639,555;   -0,355;    3,500
603,774;21109,125;   -0,901;    2,045
604,354;21012,966;    0,826;   -0,500
604,933;20618,538;    0,463;    1,864
605,512;20769,967;    3,554;    0,591
606,091;20837,780;   -0,537;    3,773
606,671;21518,942;    0,281;    0,773
607,250;20801,624;    1,644;    3,136
607,829;20988,776;    2,372;    3,227
608,408;20838,893;    1,190;    2,591
608,987;20008,679;    1,281;    3,409
609,566;20256,771;   -1,265;   -2,500
610,145;20402,657;   -1,082;    0,682
610,723;20747,500;    4,372;    6,864
611,302;20095,517;   -0,446;    1,682
611,881;19657,701;    5,008;   11,227
612,460;20389,520;    1,645;    3,955
613,039;20778,083;   -0,082;    2,045
613,617;19612,618;    1,736;    4,773
614,196;19763,816;    1,099;    1,227
614,775;20145,650;    1,009;    2,409
615,353;20073,238;    0,736;    0,864
615,932;19893,511;    0,100;    2,409
616,510;20418,127;    0,554;    0,591
617,089;19998,330;    7,100;   17,591
617,667;19783,307;    2,372;    6,136
618,246;19619,508;   -1,537;    1,318
618,824;19808,759;   -3,355;   -0,955
619,402;19420,646;   -2,900;   -1,773
619,981;19830,210;   -0,173;   -1,045
620,559;19724,026;    0,009;    1,682
621,137;19269,050;   -0,718;    1,864
621,715;19307,892;   -1,173;   -0,682
622,293;19256,595;   -0,537;   -0,773
622,871;19685,482;   -0,718;    0,500
623,450;19341,271;    0,373;   -0,864
624,028;19249,889;    0,191;   -0,955
624,606;18882,522;   -1,718;    1,682
625,183;19229,723;   -1,536;   -1,136
625,761;18940,745;    1,009;    1,136
626,339;19222,933;    1,373;    2,591
626,917;19532,034;   -0,172;   -0,045
627,495;19603,444;   -0,354;    1,318
628,073;19066,531;   -0,263;    2,864
628,650;18800,879;    0,100;    2,136
629,228;19195,656;    0,373;    4,409
629,806;18665,289;    2,282;    1,136
630,383;18932,556;    1,464;   -0,318
630,961;18812,948;    2,555;   -0,955
631,539;18520,851;    2,464;    0,227
632,116;18073,311;   11,373;   15,409
632,694;18531,602;    2,555;    6,500
633,271;18712,888;    0,828;    2,682
633,848;18703,847;    1,828;    2,045
634,426;18723,453;   -1,081;    1,773
635,003;17950,602;    1,101;   -0,409
635,580;18184,873;    1,192;    3,682
636,158;18690,859;    3,737;    1,227
636,735;18695,093;    0,555;   -0,500
637,312;18772,985;   -0,809;   -0,682
637,889;18853,815;   -4,354;   -0,682
638,466;18437,735;   -3,990;   -0,409
639,043;18422,045;    2,101;   -1,136
639,620;18684,590;   -2,262;   -0,955
640,197;18970,508;    1,100;    1,682
640,774;19095,134;   -0,172;    1,136
641,351;19442,487;    0,737;    1,136
641,928;18952,930;   -0,627;    1,409
642,505;18625,647;    0,828;   -0,500
643,082;18718,818;   -1,718;    1,227
643,658;17866,080;   -0,718;    1,500
644,235;18506,433;    1,191;    2,500
644,812;18782,513;    1,918;    0,773
645,388;18527,138;   -0,991;    1,409
645,965;18605,673;   -0,809;    1,682
646,542;18666,117;   -1,445;   -0,227
647,118;18737,560;    1,009;   -0,955
647,695;18934,913;   -0,263;    1,136
648,271;18817,084;   -0,536;    0,500
648,848;19106,255;    0,736;    2,227
649,424;19009,608;    0,827;    1,318
650,000;18699,325;   -0,354;   -1,045
650,577;18559,314;   -0,627;   -0,955
651,153;18920,121;   -1,809;    0,955
651,729;19813,020;    1,191;    0,864
652,305;20001,191;    0,645;    2,773
652,881;23635,362;   -0,082;    1,136
653,458;28808,805;    1,100;    0,227
654,034;31473,885;    0,282;    1,591
654,610;32434,147;    0,554;    0,773
655,186;33580,864;    0,645;    3,045
655,762;33124,853;   -0,991;    0,409
656,338;33128,570;    0,100;    0,136
656,913;34042,013;   -0,082;    0,409
657,489;33328,912;    0,827;   -0,318
658,065;33323,810;   -0,173;   -1,591
658,641;33980,981;   -0,900;   -0,864
659,217;33371,970;   -0,991;    0,409
659,792;32845,141;    0,645;   -0,409
660,368;33123,312;   -2,173;   -0,682
660,944;32929,210;   -2,082;    1,227
661,519;29126,381;   -0,628;    0,409
662,095;24560,280;   -1,719;    0,591
662,670;21171,996;    1,281;   -0,136
663,246;20527,622;    1,009;   -0,409
663,821;20067,156;    0,281;    1,682
664,396;19536,146;    0,009;    1,864
664,972;19764,589;    0,009;   -0,500
665,547;20059,488;    1,372;    0,136
666,122;20090,295;   -1,082;    0,318
666,698;20318,921;   -0,173;    0,318
667,273;19679,637;   -0,173;    0,136
667,848;20374,535;    2,372;    1,500
668,423;20153,252;    2,190;    2,318
668,998;20584,423;    2,827;   -0,682
669,573;21073,685;   -3,264;   -1,500
670,148;20956,765;   -1,446;   -0,682
670,723;20707,481;   -1,810;    0,318
671,298;21101,925;    2,372;    1,045
671,873;21160,278;   -0,082;   -0,136
672,448;21113,540;    0,645;    0,136
673,023;21400,802;   -1,992;   -0,227
673,597;21692,609;    0,827;    2,318
674,172;21519,962;   -0,355;    0,318
674,747;21026,133;    0,372;   -1,045
675,321;20795,122;   -0,628;    3,318
675,896;20433,021;    0,645;    1,045
676,471;21305,374;    2,645;    1,591
677,045;21098,726;   -1,264;    0,682
677,620;21137,897;    0,190;    1,136
678,194;21425,523;   -2,628;    1,136
678,769;21075,694;   -1,083;   -0,318
679,343;21301,956;   -0,628;    1,773
679,917;21185,036;   -1,446;    1,955
680,492;21178,662;    0,826;    3,227
681,066;21338,378;    3,372;    0,409
681,640;21379,004;    1,463;   -0,318
682,214;22098,266;    0,735;    0,500
682,788;21678,709;   -1,356;   -0,773
683,363;21601,153;   -1,810;    1,682
683,937;21319,051;   -1,719;   -0,318
684,511;21945,586;    0,463;   -0,591
685,085;21684,575;   -1,356;    0,318
685,659;21465,474;   -2,538;    0,864
686,232;21774,008;   -0,356;   -0,318
686,806;21492,361;   -0,901;    0,409
687,380;22035,623;   -0,174;    0,591
687,954;22239,885;   -1,174;    1,136
688,528;21940,329;   -0,719;    1,955
689,101;22648,409;   -3,992;    1,045
689,675;22202,580;   -0,356;   -0,136
690,249;21627,842;   -0,719;    0,409
690,822;22015,376;    0,280;    0,318
691,396;22128,456;   -0,265;    1,227
691,969;21612,173;    1,280;    0,136
692,543;22021,526;   -0,447;   -1,955
693,116;21695,242;   -0,265;   -1,409
693,690;21613,050;    0,099;    0,500
694,263;22082,039;   -1,083;    2,955
694,836;22119,937;    1,371;    3,591
695,410;20938,017;   -0,265;    1,773
695,983;21326,916;    0,189;    0,591
696,556;21360,814;   -0,447;   -1,045
697,129;21663,258;   -0,356;    1,409
697,703;21356,610;   -1,629;    1,955
698,276;21347,418;    1,462;   -0,773
698,849;21207,316;    1,280;    1,409
699,422;21550,123;   -1,083;    0,591
699,995;21262,385;    0,007;    0,136
700,568;21697,466;   -0,629;    3,045
701,140;21667,091;   -2,811;    1,682
701,713;21433,898;   -0,174;    2,409
702,286;21248,888;   -0,538;    0,864
702,859;21142,150;   -0,902;   -0,591
703,432;20411,775;    0,825;    0,682
704,004;20790,764;    0,462;    0,318
704,577;20712,663;   -0,629;    0,136
705,150;21200,470;    0,189;    2,500
705,722;21019,368;   -0,356;   -3,227
706,295;20851,630;   -0,175;   -0,591
706,867;20724,983;   -0,175;    1,955
707,440;20926,881;   -1,720;   -0,409
708,012;21186,598;    0,462;    0,591
708,584;21049,587;    2,462;    0,227
709,157;21282,485;    1,825;   -0,591
709,729;21017,566;    2,280;    2,045
710,301;21795,646;    0,734;    0,045
710,874;21798,998;   -1,447;   -0,227
711,446;20757,715;    0,371;    0,864
712,018;20639,068;    0,098;    0,500
712,590;20413,784;   -1,993;    1,682
713,162;20886,683;    0,825;    1,318
713,734;21114,854;    1,825;   -2,045
714,306;21063,116;   -1,902;   -0,409
714,878;19892,287;    0,825;    0,864
715,450;20675,185;    0,643;    0,864
716,022;20882,719;    1,552;    1,318
716,593;21048,800;    0,189;    0,591
717,165;20973,789;   -3,175;   -1,227
717,737;20741,596;    0,280;    0,409
718,309;20464,040;    0,280;   -0,045
718,880;20411,029;   -0,539;   -1,409
719,452;20652,927;   -0,175;   -1,591
720,024;20353,280;    0,734;   -0,591
720,595;20808,451;   -2,902;    0,955
721,167;20413,259;    0,370;   -2,045
721,738;19946,612;   -0,812;   -1,045
722,309;20005,419;   -0,993;   -1,227
722,881;19818,499;   -1,357;    0,773
723,452;20348,306;   -2,630;    2,864
724,023;20535,023;   -0,721;    2,682
724,595;20350,376;    0,007;    0,682
725,166;20070,910;    0,007;   -0,409
725,737;19764,354;    1,734;    0,227
726,308;19894,798;   -0,266;    0,318
726,879;20294,151;   -1,630;    1,227
727,450;20155,322;    0,552;   -0,045
728,021;20143,038;    3,097;    0,682
728,592;19941,846;    0,734;    0,500
729,163;20223,562;    0,643;   -0,136
729,734;20184,915;    0,188;   -0,227
730,305;20485,722;    1,734;    0,136
730,876;20804,166;    0,188;    2,955
731,447;20605,155;    2,188;    2,682
732,017;20660,235;    1,097;    1,864
732,588;20235,588;    0,734;    1,227
733,159;20319,214;    0,643;   -1,045
733,729;20146,112;    0,006;    0,409
734,300;19554,738;    0,915;    0,864
734,870;19936,363;    3,461;    0,591
735,441;20436,443;    0,370;   -0,591
736,011;20241,978;    0,643;   -1,591
736,582;20195,331;   -0,812;    0,045
737,152;19639,411;   -1,721;   -2,045
737,722;20099,946;   -0,267;   -0,682
738,293;19824,026;   -1,358;    1,318
738,863;19770,288;    2,461;    2,318
739,433;19637,277;    5,279;    0,318
740,003;20172,539;   -0,994;   -0,682
740,573;19664,073;    2,097;   -1,591
741,143;19679,790;   -1,085;    0,318
741,713;20315,052;    1,188;   -0,500
742,283;20101,132;    0,915;    1,591
742,853;19892,030;    1,915;    1,591
743,423;19345,838;    1,733;    0,045
743,993;19424,645;   -0,358;    1,500
744,563;18956,725;    0,097;   -0,864
745,133;18906,896;   -0,812;   -0,864
745,702;19536,613;   -0,267;    1,773
746,272;18844,966;   -0,176;    0,591
746,842;18686,773;   -1,358;   -0,591
747,411;19070,580;   -0,267;   -0,318
747,981;19228,842;    0,097;    0,500
748,551;19271,195;    2,278;   -1,045
749,120;19128,912;    0,642;   -0,227
749,690;19419,355;   -0,631;    2,409
750,259;19723,981;    1,369;    2,955
750,828;19607,061;    1,551;   -1,955
751,398;19849,050;    1,278;   -0,045
751,967;19447,494;    2,187;    0,409
752,536;19625,119;   -0,813;   -0,227
753,105;20051,836;    0,096;    0,227
753,675;19805,462;    0,096;    1,773
754,244;19711,451;   -0,904;    3,591
754,813;19722,713;    0,551;    1,227
755,382;19360,884;    0,460;    0,955
755,951;19794,055;    1,551;    3,682
756,520;19430,226;   -0,085;    1,864
757,089;19952,942;    0,278;    0,500
757,658;20029,295;    1,733;    1,227
758,227;20033,466;    1,096;    0,318
758,795;20335,910;    1,187;    1,136
759,364;20565,535;   -0,086;   -0,591
759,933;19667,615;   -1,176;   -0,045
760,501;19225,332;    0,733;   -1,318
761,070;19632,412;   -2,813;   -1,409
761,639;20285,310;   -1,904;    1,318
762,207;19672,300;    1,551;   -0,955
762,776;19607,016;    0,369;    0,864
763,344;19612,733;   -0,995;    0,591
763,913;18692,358;   -0,722;    1,409
764,481;19412,347;    1,005;   -0,136
765,049;19306,791;   -1,358;    1,409
765,618;19196,871;   -0,086;    0,318
766,186;19290,133;    0,278;    0,136
766,754;19460,577;    0,005;    1,864
767,322;18604,202;   -1,995;    0,409
767,890;18598,646;   -0,722;   -1,773
768,459;18994,363;   -2,177;   -0,318
769,027;19129,261;    1,641;    3,409
769,595;18253,432;    3,278;    2,591
770,163;18617,967;    3,823;    2,955
770,730;18433,138;    0,732;   -0,136
771,298;18286,945;    0,187;   -1,409
771,866;18390,389;   -1,541;    4,955
772,434;18690,651;   -0,631;   -1,864
773,002;18864,458;    0,005;    0,682
773,569;18551,175;    0,914;    1,682
774,137;18404,891;   -0,268;   -0,045
774,705;19106,335;    0,278;   -0,136
775,272;18658,506;    0,641;    0,682
775,840;18464,131;   -0,177;    2,682
776,407;18047,030;    0,277;    1,955
776,975;17663,928;   -0,632;    0,318
777,542;18608,554;   -1,086;   -0,045
778,110;18486,906;   -1,268;   -0,045
778,677;18170,896;   -2,359;   -0,864
779,244;17921,612;    2,186;    1,045
779,812;18017,965;    1,823;    0,864
780,379;17884,136;    0,005;    1,136
780,946;18131,762;    1,005;   -0,773
781,513;18437,023;   -1,450;    0,318
782,080;17870,104;   -0,086;    2,864
782,647;18556,820;   -0,268;    3,045
783,214;18206,809;   -0,177;    3,864
783,781;17861,344;   -0,723;   -0,682
784,348;17731,424;   -0,632;    1,500
784,915;18122,050;   -3,177;    0,318
785,482;17920,675;    1,368;    2,591
786,049;18325,846;    0,186;   -0,591
786,615;18459,744;    0,277;   -0,955
787,182;18222,279;    0,186;   -0,682
787,749;17924,177;   -2,814;    1,409
788,315;17310,076;   -1,632;   -0,409
788,882;17585,701;    1,550;   -1,227
789,448;18245,690;    1,732;   -0,955
790,015;18279,498;    1,095;    3,227
790,581;17872,123;    1,459;    0,227
791,148;17740,476;    0,641;    1,045
791,714;17922,193;   -0,541;    3,136
792,280;17656,364;    0,186;    1,591
792,847;17327,353;    0,550;    2,500
793,413;17759,888;   -0,269;   -0,318
793,979;17408,331;    3,459;   -1,318
794,545;17501,412;    4,459;    2,682
795,111;17031,219;    2,186;    1,318
795,678;17155,481;    0,731;   -1,682
796,244;16876,197;    3,368;    0,136
796,810;17366,277;    1,731;    0,773
797,375;17100,812;    0,549;   -2,136
797,941;17084,074;   -0,541;    0,591
798,507;17182,336;   -0,451;   -0,955
799,073;16788,598;   -0,360;    0,591
799,639;16875,860;   -2,632;    3,136
800,205;16930,758;    0,095;    2,682
800,770;16565,565;    0,640;    1,773
801,336;16622,100;    1,368;   -0,955
801,901;16440,998;    4,549;    3,136
802,467;16918,806;   -0,542;    2,045
803,033;16271,250;   -0,087;    0,864
803,598;16455,239;    1,913;   -1,045
804,163;16521,773;    1,095;   -0,318
804,729;16517,490;   -0,178;    1,136
805,294;16832,297;    0,822;    2,227
805,859;16649,923;    0,731;   -0,409
806,425;16273,548;    1,186;    2,682
806,990;15942,083;    2,186;    4,318
807,555;16324,800;   -1,451;    2,591
808,120;16292,425;    0,822;   -0,409
808,685;16317,233;    0,185;   -2,500
809,250;15893,858;    0,004;   -0,500
809,815;16120,575;    1,913;    0,682
810,380;16564,109;   -0,269;    1,591
810,945;17064,189;   -1,087;    2,045
811,510;16392,633;    2,094;    1,591
812,075;16081,986;   -0,633;   -1,409
812,640;16118,339;    2,003;    1,409
813,204;16249,237;    0,822;   -0,227
813,769;16671,044;    2,094;   -0,045
814,334;16151,943;    0,458;    0,864
814,898;16195,386;    0,367;    0,591
815,463;16037,739;    1,276;   -0,773
816,027;16000,638;   -0,724;   -2,318
816,592;16111,809;    0,640;   -2,045
817,156;15710,798;    2,094;    1,136
817,721;15656,605;    4,276;    2,318
818,285;15634,958;    2,912;    1,500
818,849;16154,675;   -1,451;    1,682
819,414;16029,209;   -0,269;    2,955
819,978;15640,653;   -1,269;    1,773
820,542;16206,733;    2,003;    0,500
821,106;16008,540;   -0,815;    0,682
821,670;16104,075;   -0,815;    2,591
822,234;15817,973;   -0,270;    1,409
822,798;15328,326;    0,003;    0,500
823,362;15376,134;   -0,633;    4,227
823,926;14776,305;    0,094;    1,136
824,490;14948,294;   -0,997;   -0,682
825,054;15352,374;   -0,088;   -1,136
825,618;15063,272;   -1,542;   -1,500
826,181;14990,171;    0,458;   -1,318
826,745;14933,614;    1,367;   -1,045
827,309;15288,967;    1,185;    1,318
827,872;14756,775;    1,367;    0,955
828,436;15613,491;    1,185;   -0,773
828,999;15709,208;   -0,997;    1,227
829,563;14696,742;   -0,179;    1,136
830,126;14537,095;   -0,179;   -0,591
830,690;14596,630;   -1,997;    2,864
831,253;14113,164;   -0,543;    2,227
831,816;14264,699;   -1,906;    0,500
832,380;14225,234;    0,185;    0,864
832,943;14441,405;   -1,361;   -0,500
833,506;13994,394;    2,639;   -1,227
834,069;14695,383;    3,912;   -0,955
834,632;14795,190;    1,730;    1,318
835,195;14655,725;    1,003;    0,955
835,758;13984,623;   -0,997;    1,955
836,321;13812,885;    0,730;   -1,045
836,884;13949,602;   -0,725;   -0,955
837,447;13959,955;   -2,816;    1,773
838,010;14229,398;    0,366;    3,227
838,573;14484,660;   -1,179;    0,773
839,135;14448,104;   -1,361;   -0,955
839,698;13989,457;    1,275;    0,409
840,261;13510,810;    1,003;   -0,227
840,823;13374,344;   -0,543;    0,864
841,386;13649,152;   -0,452;   -2,409
841,948;13616,232;   -1,361;    1,773
842,511;13381,403;    0,912;    1,682
843,073;13474,847;    1,912;    0,227
843,636;13319,836;   -0,361;   -0,227
844,198;13298,825;    0,911;    0,591
844,760;13407,723;    1,093;    1,955
845,322;13025,440;    0,548;    1,136
845,885;13432,338;    0,730;    0,591
846,447;13881,509;   -1,998;    0,227
847,009;13545,317;    1,911;   -0,682
847,571;13764,397;    0,820;   -2,045
848,133;13853,477;   -1,089;   -1,864
848,695;13679,921;   -0,543;    1,409
849,257;13303,637;   -1,089;   -1,682
849,819;13468,354;   -0,998;   -0,409
850,381;13462,434;   -0,725;   -0,864
850,942;13758,696;    1,093;   -0,591
851,504;13704,503;    1,184;    0,227
852,066;13731,219;    1,275;   -1,591
852,628;13398,663;   -0,180;    1,955
853,189;12949,289;    1,638;    2,682
853,751;13086,096;   -0,907;    1,409
854,312;12884,722;   -0,453;   -1,682
854,874;13362,256;   -2,089;   -0,773
855,435;13811,518;   -0,907;   -1,682
855,997;13970,053;   -1,816;   -0,136
856,558;13323,406;    0,366;    1,773
857,119;13406,122;    0,820;    2,864
857,681;13082,475;    0,002;    0,318
858,242;13153,464;    1,911;   -2,136
858,803;13593,726;    0,456;   -0,773
859,364;14081,534;    0,184;   -4,773
859,925;13515,977;   -2,453;   -0,955
860,486;13374,603;   -0,453;   -0,955
861,047;13152,047;   -0,544;   -1,227
861,608;13020,581;   -1,089;   -0,773
862,169;13165,843;    0,638;   -0,045
862,730;12946,378;    0,456;    1,409
863,291;13193,276;   -0,635;   -0,500
863,852;13479,629;   -0,635;    1,955
864,412;13018,436;   -0,271;   -0,864
864,973;11842,789;   -0,089;    0,500
865,534;11746,960;   -1,726;    0,227
866,094;12975,586;    1,820;    0,227
866,655;12718,484;    1,274;    3,318
867,215;13005,746;    0,274;    0,136
867,776;12846,008;    0,547;   -0,136
868,336;12926,179;   -1,453;    0,136
868,897;12518,896;    2,638;    1,682
869,457;12309,521;    1,365;    0,318
870,017;12553,692;    0,547;   -1,227
870,578;13002,590;   -0,817;    0,773
871,138;12619,761;   -2,089;   -0,955
871,698;12203,205;   -0,817;   -1,318
872,258;12130,649;   -0,453;   -2,864
872,818;12517,184;    2,729;    0,045
873,378;12508,173;    0,638;    1,045
873,938;12052,889;    0,547;    0,500
874,498;12309,424;    0,274;   -1,955
875,058;12260,868;    2,183;    1,773
875,618;12171,311;    1,910;   -2,682
876,177;12098,755;    1,274;    0,136
876,737;11778,381;   -0,090;    1,955
877,297;11864,097;    0,183;    1,955
877,856;11860,996;   -0,362;    0,318
878,416;11760,712;    1,183;   -0,136
878,976;11951,883;   -1,817;    0,409
879,535;12142,963;    0,092;    3,136
880,095;11940,316;   -0,544;    0,045
880,654;12017,396;   -1,090;    1,318
881,213;12152,203;    2,456;    1,500
881,773;11813,738;    2,637;    2,682
882,332;12154,091;    3,365;    5,136
882,891;12013,353;    3,092;    2,136
883,451;12360,615;   -1,272;    1,682
884,010;11856,604;   -2,908;   -0,409
884,569;11987,775;   -0,999;   -0,045
885,128;12104,855;    2,819;   -1,864
885,687;12174,844;    4,455;    0,682
886,246;11916,015;    1,455;    2,136
886,805;11666,096;    2,455;    2,045
887,364;11873,085;   -0,999;   -0,500
887,922;12212,619;   -1,181;    0,045
888,481;11731,336;   -1,545;    0,591
889,040;12058,325;    1,183;    2,136
889,599;12626,587;    2,455;    1,409
890,157;12643,940;    1,455;    2,409
890,716;12284,656;   -0,090;    0,227
891,274;12149,282;    0,092;   -1,136
891,833;12514,180;    1,546;    0,864
892,391;12388,624;   -0,454;    0,500
892,950;12421,250;    1,819;   -0,773
893,508;12798,057;    0,455;   -0,409
894,067;12192,955;    0,637;    0,136
894,625;12090,217;   -0,636;   -1,500
895,183;12288,752;   -0,363;   -0,682
895,741;12262,105;    1,728;   -1,773
896,299;12067,912;   -0,545;   -2,409
896,858;12261,356;    0,819;   -1,591
897,416;12409,709;    2,728;   -1,318
897,974;12168,698;    1,819;    0,318
898,532;12357,596;    6,091;    2,682
899,089;12245,858;    2,091;   -0,682
899,647;12303,029;   -1,454;    1,318
900,205;12111,291;    1,182;    1,045
900,763;12247,007;   -0,454;    0,227
901,321;12295,269;    2,364;   -1,409
901,878;11771,168;   -1,000;   -0,773
902,436;11663,066;   -1,363;    1,318
902,994;12099,692;    4,728;    3,682
903,551;11598,772;    0,728;    0,409
904,109;11928,852;    0,182;   -1,409
904,666;11583,841;    2,455;    1,045
905,224;11452,739;    0,182;   -0,409
905,781;11286,001;    0,727;   -0,318
906,338;11313,536;   -1,363;    1,045
906,895;11287,071;    0,637;    2,045
907,453;11229,787;    1,727;    1,136
908,010;11252,867;   -0,909;    0,409
908,567;10947,856;    1,273;    0,591
909,124;10484,300;    0,364;   -1,500
909,681;10575,471;   -2,909;    0,682
910,238;10753,915;    0,636;   -1,318
910,795;11034,995;   -0,273;   -1,136
911,352;10720,813;   -2,909;   -2,682
911,909;10259,359;   -1,364;   -0,864
912,466;10702,813;   -3,182;    1,500
913,022;10259,449;   -1,636;    0,500
913,579;10627,177;   -0,909;    2,045
914,136;10380,631;    1,636;    0,955
914,692;10700,177;    0,091;   -1,227
915,249;10324,813;    1,455;    0,409
915,806;10532,359;    0,182;    1,955
916,362;10381,540;    1,909;    1,864
916,918; 9981,540;    2,000;    1,045
917,475; 9991,540;   -1,182;    0,955
918,031;10027,813;    3,364;   -0,045
918,587; 9584,449;   -0,909;   -0,318
919,144; 9815,177;   -2,273;    0,227
919,700;10040,449;    1,727;    0,773
920,256; 9683,449;    0,727;    0,045
920,812; 9384,813;   -0,727;   -1,045
921,368; 9436,722;   -1,727;   -1,045
921,924; 9163,268;    0,182;   -0,136
922,480; 8776,631;   -0,545;    1,227
923,036; 9364,995;    1,273;    1,955
923,592; 9318,268;    0,455;    0,318
924,148; 9262,086;    0,455;   -0,955
924,704; 8705,177;   -1,364;   -0,409
925,259; 8980,722;   -0,273;    0,591
925,815; 8786,722;    1,455;    0,500
926,371; 8372,904;    2,909;    1,409
926,926; 8323,540;    2,091;    0,591
927,482; 8047,268;   -1,364;    0,773
928,037; 7978,449;    0,909;    2,045
928,593; 8284,813;    1,636;    1,045
929,148; 8120,086;   -1,818;   -1,500
929,704; 7717,813;   -1,455;   -0,500
930,259; 7915,540;    0,091;   -0,136
930,814; 7176,177;   -0,818;    1,955
931,369; 6915,449;    1,091;   -0,773
931,925; 6847,177;   -0,091;    0,136
932,480; 6784,086;   -2,818;   -2,591
933,035; 6762,359;    0,545;   -0,318
933,590; 6585,813;    0,364;   -1,773
934,145; 6309,995;   -1,364;   -0,318
934,700; 6584,904;    0,455;   -0,591
935,255; 6439,540;   -0,091;    0,045
935,809; 5956,359;    3,182;    0,864
936,364; 5214,631;   -0,455;   -0,136
936,919; 5262,540;    0,455;   -1,773
937,474; 5195,722;    1,455;    0,136
938,028; 5008,086;   -1,636;    1,136
938,583; 4672,086;    1,818;    4,682
939,138; 4857,177;    2,091;    2,136
939,692; 4414,631;    1,636;   -1,136
940,247; 4227,540;   -0,727;   -1,045
940,801; 3935,086;   -0,636;    0,227
941,355; 3873,540;   -0,364;    2,591
941,910; 3576,449;   -0,273;   -2,136
942,464; 3681,359;   -0,818;   -0,318
943,018; 3601,449;    1,000;   -0,227
943,572; 3545,540;    2,545;   -0,682
944,126; 3130,813;    0,091;   -0,409
944,681; 3029,268;    3,091;    0,227
945,235; 2999,995;    1,000;   -0,591
945,789; 2967,449;    0,364;   -1,864
946,342; 3155,631;    0,455;   -0,591
946,896; 2918,449;   -2,273;    0,955
947,450; 2688,540;    1,545;   -0,227
948,004; 2941,722;    1,727;   -0,045
948,558; 2895,813;    0,273;   -0,864
949,111; 2801,995;   -0,273;   -0,318
949,665; 2939,268;    1,636;   -0,682
950,219; 2832,813;   -0,091;   -1,045
950,772; 2863,359;   -1,909;    1,864
951,326; 2793,268;    0,545;   -0,955
951,879; 2818,086;    0,727;   -2,318
952,433; 2907,268;    0,000;    2,227
952,986; 2724,268;    2,909;    0,682
953,539; 2661,813;   -0,273;    0,591
954,093; 2604,359;    0,545;   -1,318
954,646; 2769,631;    0,909;    1,318
955,199; 2593,813;    0,000;   -0,500
955,752; 2596,722;   -0,455;    1,773
956,305; 2510,995;   -0,091;    2,955
956,858; 2643,540;    0,818;   -0,318
957,411; 2781,268;   -0,545;    2,136
957,964; 2610,449;    1,364;    2,136
958,517; 2577,177;   -1,545;    3,136
959,070; 2458,995;   -0,455;    1,955
959,623; 2637,177;    1,091;    1,500
960,176; 2437,449;    1,727;    2,045
960,728; 2416,268;   -2,727;    0,773
961,281; 2438,995;    0,545;    0,500
961,834; 2449,268;   -0,909;    0,864
962,386; 2370,540;    1,727;    1,045
962,939; 2324,540;    0,364;   -0,318
963,491; 2438,449;    0,455;    1,136
964,043; 2319,540;    1,182;    2,409
964,596; 2474,359;   -1,000;    2,227
965,148; 2334,995;   -1,000;    1,773
965,700; 2254,268;    1,091;   -0,227
966,253; 2390,086;   -0,636;    0,318
966,805; 2280,904;   -2,273;    0,773
967,357; 2294,086;    1,091;   -1,500
967,909; 2303,268;    0,455;   -1,227
968,461; 2342,813;    0,545;    3,136
969,013; 2278,813;   -0,182;   -0,864
969,565; 2366,086;   -0,455;   -1,136
970,117; 2561,631;   -0,364;    1,045
970,669; 2305,722;    0,182;   -0,136
971,220; 2131,631;   -0,455;   -1,500
971,772; 2107,268;   -0,636;   -0,318
972,324; 2237,177;    0,091;   -0,500
972,876; 2157,177;    0,818;   -0,045
973,427; 2326,177;    1,909;   -1,045
973,979; 2312,086;   -0,727;   -2,500
974,530; 2240,904;    1,818;    1,318
975,082; 2257,540;   -0,545;    1,682
975,633; 2198,995;    1,091;    1,682
976,184; 2336,722;    0,909;    0,773
976,736; 2187,086;    0,091;    0,227
977,287; 2040,268;   -0,909;   -0,500
977,838; 2165,631;    0,909;   -0,318
978,389; 2223,449;   -1,000;   -0,500
978,940; 2064,540;    0,545;   -0,409
979,491; 2089,449;    0,091;   -0,500
980,042; 2079,995;    0,182;    3,045
980,593; 2097,631;   -2,545;    0,227
981,144; 2208,995;    2,545;   -0,500
981,695; 2228,268;    1,455;    1,500
982,246; 2156,177;   -0,273;    1,045
982,797; 2208,359;   -1,727;    0,682
983,347; 2339,177;    0,364;    0,591
983,898; 2541,904;    3,091;    0,409
984,449; 2407,904;    2,182;    0,773
984,999; 2224,268;    1,455;   -1,136
985,550; 2084,449;    0,182;   -0,318
986,100; 2050,177;   -0,455;   -0,318
986,651; 2069,086;   -0,818;    0,045
987,201; 2066,813;   -1,000;   -0,591
987,751; 2145,268;    0,818;    2,864
988,302; 2154,359;    2,636;    1,500
988,852; 2154,086;    0,455;   -1,136
989,402; 2243,086;    0,091;    0,682
989,952; 2189,086;   -2,182;    0,864
990,502; 2207,268;   -0,091;    0,682
991,052; 2127,359;   -0,727;    0,045
991,602; 2037,086;   -2,909;    1,318
992,152; 2073,268;    0,455;    0,682
992,702; 2066,995;    1,364;   -0,045
993,252; 2003,086;   -3,000;   -0,500
993,802; 2113,722;   -0,273;    1,318
994,352; 2252,268;   -1,545;    1,136
994,901; 2268,268;   -0,182;    3,227
995,451; 2211,631;   -0,182;    0,318
996,000; 2282,086;    1,636;    0,318
996,550; 2086,995;    2,273;    0,227
997,100; 2088,359;    1,273;   -0,045
997,649; 2341,904;    2,182;    0,955
998,198; 2043,177;    1,727;   -1,500
998,748; 2227,177;    1,091;   -2,318
999,297; 2099,722;   -0,818;   -0,409
999,846; 2209,268;    1,000;   -0,773
1000,395; 2209,359;   -0,818;    0,500
1000,945; 2244,813;    1,818;   -0,773
1001,494; 2312,813;    2,364;    0,682
1002,043; 2260,631;    4,636;    0,864
1002,592; 2073,631;   -1,091;    1,955
1003,141; 2205,177;   -0,455;   -0,682
1003,690; 2159,086;    1,727;    0,500
1004,238; 2163,722;    1,455;   -0,045
1004,787; 1856,449;    1,364;    1,227
1005,336; 2142,813;    0,364;    0,682
1005,885; 2190,540;    1,364;   -2,773
1006,433; 2255,722;    0,545;    0,955
1006,982; 2439,086;    0,455;    1,682
1007,531; 2277,359;   -1,818;   -0,227
1008,079; 2181,722;   -2,273;    0,500
1008,627; 2271,722;   -1,455;    0,409
1009,176; 2102,359;    0,000;   -1,955
1009,724; 2127,722;    1,091;    0,864
1010,273; 2239,995;    1,273;    0,500
1010,821; 2261,086;    0,091;    1,409
1011,369; 2028,995;   -1,364;    1,318
1011,917; 2032,995;   -1,364;   -0,591
1012,465; 2288,904;    1,273;   -1,591
1013,013; 2340,086;    2,091;   -1,682
1013,561; 2297,813;    0,455;   -0,773
1014,109; 2386,813;   -1,909;    1,682
1014,657; 2247,631;    0,364;    0,591
1015,205; 2289,449;    1,636;   -0,955
1015,753; 2273,722;   -0,545;   -1,409
1016,301; 2338,722;   -2,636;    3,045
1016,848; 2360,177;   -1,273;    0,409
1017,396; 2406,449;    2,545;    0,045
1017,944; 2495,540;    1,182;    1,864
1018,491; 2261,359;    0,273;    1,409
1019,039; 2537,813;    0,455;    0,591
1019,586; 2345,359;   -1,364;    1,682
1020,134; 2380,995;    0,455;    1,500
1020,681; 2441,268;    0,182;   -1,136
1021,228; 2409,359;    2,909;   -2,227
1021,776; 2275,086;    1,182;   -1,136
1022,323; 2525,268;    0,455;    0,773
1022,870; 2443,268;   -1,000;   -0,045
1023,417; 2408,449;    2,636;    1,864
1023,964; 2422,359;    2,636;    1,227
1024,511; 2329,631;    1,000;    0,773
1025,058; 2168,177;    3,182;   -0,045
1025,605; 2203,086;   -2,273;    3,136
1026,152; 2469,268;    1,727;   -0,591
1026,699; 2190,449;    1,818;    1,318
1027,245; 2304,086;   -0,091;    0,318
1027,792; 2434,995;   -1,000;    1,409
1028,339; 2441,359;    2,364;   -0,045
1028,885; 2276,540;    1,000;   -0,227
1029,432; 2220,904;   -0,091;    0,227
1029,978; 2310,177;   -1,000;   -1,591
1030,525; 2208,904;    1,000;    0,409
1031,071; 2344,813;   -1,364;    1,136
1031,618; 2577,540;    0,364;    1,682
1032,164; 2325,813;   -0,091;    3,045
1032,710; 2370,813;    1,636;   -1,500
1033,256; 2276,177;   -0,636;   -0,136
1033,803; 2206,904;   -0,545;    1,500
1034,349; 1976,177;   -1,364;    0,136
1034,895; 2100,540;    0,000;   -0,318
1035,441; 2117,540;   -0,818;    0,318
1035,987; 2135,904;   -2,364;   -0,682
1036,533; 2176,540;   -1,455;   -0,955
1037,078; 2419,449;    1,455;    1,682
1037,624; 2214,904;    2,455;   -0,955
1038,170; 2173,995;    0,455;   -0,318
1038,716; 2148,813;    1,636;   -0,409
1039,261; 2031,540;   -2,273;   -0,773
1039,807; 1992,359;   -0,091;    3,409
1040,352; 2086,904;   -1,909;   -0,318
1040,898; 2106,722;   -1,545;   -0,682
1041,443; 2004,813;   -1,455;   -2,591
1041,989; 2155,904;    1,091;    1,591
1042,534; 1958,904;   -0,364;    2,591
1043,079; 1984,540;    2,909;    0,955
1043,625; 1895,631;    1,818;    0,500
1044,170; 1965,359;   -1,364;    1,045
1044,715; 2219,722;    2,455;    0,955
1045,260; 2048,813;    2,182;   -0,955
1045,805; 2020,086;    1,182;   -0,591
1046,350; 1940,449;    1,364;   -0,409
1046,895; 2007,722;    2,909;    1,591
1047,440; 2000,995;    5,364;    0,409
1047,985; 1850,359;    2,818;   -0,955
1048,530; 1767,904;    1,545;    1,227
1049,074; 1868,540;    0,000;    0,318
1049,619; 1810,813;   -1,364;    1,955
1050,164; 1657,268;    0,455;    0,227
1050,708; 1723,995;   -0,455;    0,045
1051,253; 2125,995;    1,273;   -2,227
1051,797; 1811,177;    0,818;   -1,318
1052,342; 1746,995;   -1,182;    1,045
1052,886; 1782,449;    0,364;   -1,409
1053,430; 1637,359;   -1,364;    0,136
1053,975; 1682,086;   -0,818;   -0,318
1054,519; 1678,995;   -0,727;    3,227
1055,063; 1750,086;    0,909;    1,318
1055,607; 1658,177;   -0,182;    0,227
1056,151; 1669,359;    2,909;    1,682
1056,695; 1565,540;    2,273;   -1,136
1057,239; 1618,449;   -1,727;   -0,682
1057,783; 1649,813;    0,818;   -1,500
1058,327; 1657,086;    0,000;    1,409
1058,871; 1900,631;   -0,545;    1,318
1059,415; 1623,904;   -0,818;   -0,045
1059,958; 1903,722;    1,455;    2,591
1060,502; 1609,449;   -1,000;   -0,773
1061,046; 1482,904;    0,364;   -0,955
1061,589; 1433,722;   -3,000;   -1,136
1062,133; 1332,540;   -1,273;    1,864
1062,676; 1330,813;    1,182;    0,864
1063,220; 1341,086;    1,091;    0,500
1063,763; 1375,904;    0,909;    1,136
1064,306; 1463,359;   -0,909;    1,864
1064,849; 1374,177;   -0,909;    0,591
1065,393; 1376,359;    2,000;   -1,500
1065,936; 1450,268;    0,182;   -0,409
1066,479; 1309,813;   -1,455;    1,318
1067,022; 1344,268;   -0,273;   -0,227
1067,565; 1266,722;   -0,091;   -1,318
1068,108; 1267,631;    0,727;   -0,591
1068,651; 1238,268;   -0,636;    1,409
1069,194; 1177,995;   -0,455;   -1,682
1069,736; 1202,449;   -1,273;    0,955
1070,279; 1160,813;   -1,364;   -0,500
1070,822; 1271,086;   -2,000;   -0,318
1071,364; 1393,268;   -0,364;    1,318
1071,907; 1194,813;   -0,727;    3,227
1072,450; 1032,904;    0,000;   -0,045
1072,992; 1081,813;   -0,273;    3,136
1073,535; 1233,540;    2,091;    2,136
1074,077; 1038,449;   -0,727;    2,045
1074,619; 1029,631;   -1,364;    0,591
1075,161; 1068,904;   -1,091;    1,500
1075,704; 1256,904;    1,545;    1,227
1076,246; 1024,449;   -0,182;    0,682
1076,788;  953,813;   -0,364;    1,773
1077,330;  992,995;    1,273;    2,136
1077,872;  999,904;    0,909;    0,955
1078,414; 1258,540;    2,727;    0,773
1078,956;  999,995;    1,273;   -0,227
1079,498; 1255,268;    1,636;    0,318
1080,040;  986,359;    1,909;   -1,318
1080,581;  908,449;    1,636;   -0,318
1081,123;  819,813;    0,091;   -0,773
1081,665;  881,995;   -1,182;   -0,955
1082,206; 1192,086;    1,364;   -0,500
1082,748; 1050,086;    0,727;    2,045
1083,289;  897,995;   -2,000;    1,318
1083,831;  847,722;   -0,545;    0,227
1084,372;  911,904;    0,000;    0,591
1084,913;  912,904;    1,091;    0,864
1085,455;  845,813;   -1,909;   -2,045
1085,996;  836,449;   -2,273;    0,136
1086,537;  878,449;   -0,091;    0,864
1087,078;  899,995;   -0,909;   -2,136
1087,619;  952,449;   -1,273;    0,227
1088,160;  868,995;    0,000;    1,318
1088,701;  844,177;   -1,091;    0,682
1089,242;  790,904;    1,364;   -2,227
1089,783;  887,540;   -0,273;    1,409
1090,324;  868,813;    0,455;    0,682
1090,865;  751,177;    2,727;   -0,409
1091,405;  699,086;    0,727;    2,227
1091,946;  737,904;    0,182;   -0,955
1092,487;  667,268;    0,818;   -1,409
1093,027;  852,995;   -1,364;   -1,500
1093,568;  708,722;   -0,364;    1,227
1094,108;  812,722;    0,273;    1,773
1094,649;  741,540;   -1,182;    0,136
1095,189;  672,904;   -0,636;   -0,682
1095,729;  645,449;   -0,091;    0,955
1096,269;  635,086;    0,727;   -0,955
1096,810;  957,177;   -1,364;    0,500
1097,350;  793,359;    1,364;   -0,773
1097,890;  689,904;    0,364;    1,227
1098,430;  958,904;    2,364;    2,864
1098,970;  846,359;    2,182;    1,682
1099,510;  675,268;    0,545;   -2,318
1100,050;  619,359;    1,000;   -1,591
1100,589;  598,086;   -0,727;   -0,318
1101,129;  714,813;    0,818;   -0,955
1101,669;  880,177;    1,727;    2,136
1102,209;  705,086;   -0,091;    2,227
1102,748;  652,268;    0,000;    0,955
1103,288;  653,359;    1,273;   -1,227
1103,827;  682,086;    3,091;   -2,227
1104,367;  567,722;   -0,091;   -2,409
1104,906;  533,995;    1,364;   -1,136
1105,445;  614,086;    0,636;   -1,136
1105,985;  560,995;   -0,727;    1,500
1106,524;  609,722;   -1,727;   -0,682
1107,063;  583,177;   -2,727;    1,409
1107,602;  543,540;   -1,909;   -1,500
1108,141;  481,904;   -1,909;    1,500
1108,680;  594,722;   -3,455;   -0,591
1109,219;  521,359;   -0,909;   -0,500
1109,758;  517,268;    0,455;    0,682
1110,297;  499,631;    1,000;   -0,682
1110,836;  446,722;   -0,727;    0,955
1111,375;  596,813;   -2,545;    0,409
1111,913;  613,722;   -1,000;    0,773
1112,452;  560,086;   -0,273;    0,136
1112,991;  444,722;    1,091;    1,955
1113,529;  413,177;   -0,818;   -0,045
1114,068;  486,449;   -0,273;    2,955
1114,606;  392,177;   -0,364;   -0,955
1115,144;  553,995;   -1,273;    1,045
1115,683;  492,904;   -0,727;    0,318
1116,221;  536,995;   -0,455;   -0,864
1116,759;  442,722;    0,636;   -0,864
1117,297;  637,540;    0,000;    1,864
1117,836;  453,722;   -2,182;   -1,227
1118,374;  466,995;    0,182;   -0,682
1118,912;  420,268;    0,909;    2,682
1119,450;  415,904;    1,000;    0,864
1119,988;  454,995;    1,545;    2,136
1120,525;  897,722;    5,091;    3,318
1121,063;  608,268;    1,182;    1,864
1121,601;  423,722;   -0,909;   -1,227
1122,139;  391,449;   -0,727;   -2,045
1122,676;  582,086;   -0,727;    2,773
1123,214;  510,904;   -1,182;    4,409
1123,751;  334,631;    1,727;    2,227
1124,289;  458,449;   -0,091;   -0,409
1124,826;  346,177;    1,727;    0,227
1125,364;  266,359;    1,727;   -0,955
1125,901;  440,086;    1,182;    1,227
1126,438;  551,086;    0,818;    0,955
1126,975;  286,995;   -0,727;   -0,773
1127,513;  351,813;    0,273;    2,136
1128,050;  269,540;    1,636;   -0,682
1128,587;  369,722;    2,000;   -0,227
1129,124;  410,722;    0,091;    1,318
1129,661;  284,268;    0,273;    0,227
1130,198;  439,813;    1,636;    0,773
1130,734;  387,359;    0,182;    1,409
1131,271;  256,540;   -0,909;    0,864
1131,808;  420,722;    2,909;    3,045
1132,345;  308,722;    1,545;    0,318
1132,881;  182,631;   -1,545;   -1,864
1133,418;  322,540;    0,727;   -1,136
1133,954;  261,177;    2,455;   -2,682
1134,491;  330,359;    1,364;   -0,773
1135,027;  237,722;    2,364;    0,864
1135,564;  315,995;    0,273;    2,955
1136,100;  302,540;    0,364;    2,136
1136,636;  203,631;   -1,273;   -1,045
1137,172;  295,722;    0,000;   -1,045
1137,708;  221,813;   -1,364;   -1,045
1138,245;  223,540;    1,273;   -1,227
1138,781;  174,904;    1,091;   -3,318
1139,317;  239,177;    1,273;   -1,409
1139,852;  229,540;    3,091;    0,136
1140,388;  345,086;   -1,182;   -0,409
1140,924;  233,813;   -1,091;   -2,227
1141,460;  176,268;   -1,636;    0,136
1141,996;  119,449;   -1,364;    2,682
1142,531;  169,449;    1,364;    3,318
1143,067;  367,086;    1,182;    1,045
1143,602;  423,177;   -0,091;   -0,318
1144,138;  273,813;   -2,636;    1,045
1144,673;  153,086;   -1,455;    1,409
1145,209;  212,359;   -1,909;   -0,318
1145,744;  146,268;   -0,727;    0,864
1146,279;  267,359;    1,818;   -0,136
1146,815;  186,540;    1,545;   -2,682
1147,350;  232,359;   -1,364;    0,045
1147,885;  147,449;   -0,818;   -1,318
1148,420;  145,268;   -2,273;    0,773
1148,955;  135,359;   -1,727;    1,864
1149,490;  156,631;   -0,909;   -1,591
1150,025;  146,995;    0,455;   -1,773
1150,560;  248,268;    1,091;   -0,955
1151,094;  216,359;    1,455;   -0,591
1151,629;  213,722;    1,636;    0,864
1152,164;  145,086;    1,364;    1,318
1152,698;  114,813;   -0,182;   -0,136
1153,233;   74,995;    0,091;   -0,682
1153,767;  115,268;   -3,000;   -2,318
1154,302;  164,268;   -1,455;    1,773
1154,836;  168,177;   -0,455;   -2,136
1155,371;  207,904;   -1,364;    3,682
1155,905;  165,540;   -0,636;    1,682
1156,439;  140,359;   -0,636;   -0,500
1156,973;  182,722;    0,364;    0,318
1157,507;  112,722;   -0,364;    0,682
1158,042;  130,268;   -0,727;    1,045
1158,576;  177,540;    0,182;    1,773
1159,110;  170,449;   -0,818;    2,409
1159,643;  139,086;    0,636;   -0,045
1160,177;   84,631;   -1,545;    1,500

