
Integration time [ms]:   0,040
Averaging Nr. [scans]: 11
Smoothing Nr. [pixels]: 0
Data measured with spectrometer [name]: 7318044SP
Wave   ;Sample   ;Dark     ;Reference
[nm]   ;[counts] ;[counts] ;[counts] 

186,757;   25,951;   31,551;    1,318
187,357;   60,032;   22,551;    0,955
187,958;   35,374;   15,460;   -1,591
188,558;   74,995;    8,915;   -1,227
189,159;   39,874;    6,733;   -4,500
189,759;   15,509;    7,278;   -3,591
190,360;   14,630;    2,824;   -2,136
190,960;   47,726;    2,915;   -4,136
191,560;   59,212;    3,189;   -6,591
192,161;  287,886;    4,372;   -3,500
192,761;  143,904;    4,010;   -3,227
193,361;   96,170;    1,556;   -3,773
193,962;  150,007;    2,010;   -2,682
194,562;   72,399;    1,189;   -3,955
195,162;  101,106;   -2,448;   -2,227
195,762;  248,901;   -3,176;   -0,045
196,362;  202,178;    1,370;   -2,500
196,963;   77,185;    2,006;   -0,864
197,563;  142,609;    1,551;   -0,955
198,163;   89,486;    0,096;   -0,682
198,763;  112,526;    1,733;   -0,500
199,363;  209,072;    3,096;   -0,500
199,963;  171,993;    0,369;    0,409
200,563;  153,816;    2,823;   -1,409
201,163;  118,845;    3,277;   -0,227
201,763;  205,957;    3,732;    0,318
202,363;  148,915;    1,459;    1,500
202,963;  245,057;    1,459;    1,045
203,563;  348,235;    0,277;    0,500
204,162;  207,873;    2,096;   -1,864
204,762;  200,185;    0,550;    0,591
205,362;  166,178;    3,004;    1,955
205,962;  257,958;    3,096;    1,955
206,562;  259,129;    1,823;    2,318
207,161;  221,734;   -0,087;    0,318
207,761;  385,243;    1,277;    2,409
208,361;  263,101;   -0,268;    1,409
208,960;  359,196;    0,459;    1,500
209,560;  408,208;    1,277;    1,591
210,160;  389,430;    0,550;    1,864
210,759;  346,040;    4,186;    1,227
211,359;  357,237;    1,459;    1,045
211,958;  609,727;    1,277;    2,045
212,558;  681,861;    1,732;    1,864
213,157;  524,843;    1,822;    1,500
213,757;  946,466;    3,822;   -0,227
214,356;  646,483;    1,277;   -0,409
214,956;  964,654;    3,095;    0,409
215,555;  598,355;    2,095;    2,136
216,154;  540,105;   -2,723;   -0,591
216,754;  543,786;    0,277;    0,773
217,353;  658,505;   -0,268;   -1,045
217,952;  515,317;   -0,178;    0,318
218,552;  754,749;    1,368;   -0,773
219,151;  634,049;    0,277;    0,955
219,750;  635,398;    0,004;   -0,227
220,349;  700,705;   -0,451;    1,045
220,948;  803,211;   -1,360;    1,136
221,548;  766,338;    0,913;    1,227
222,147;  875,291;   -0,087;   -0,409
222,746; 1157,278;   -0,451;   -0,955
223,345; 1011,075;    0,731;    0,500
223,944; 1007,659;   -0,451;    0,773
224,543; 1127,040;    1,004;   -1,409
225,142; 1252,060;    0,094;    0,136
225,741; 1142,116;   -0,814;    1,045
226,340; 1155,481;   -0,451;   -0,955
226,939; 1548,244;   -0,996;   -0,136
227,538; 1401,115;   -0,360;   -0,773
228,137; 1589,219;   -0,814;    0,864
228,735; 1622,968;   -0,541;    1,227
229,334; 1397,831;   -0,905;   -0,227
229,933; 1772,287;    0,459;    0,591
230,532; 1878,191;    1,186;   -0,409
231,131; 1946,847;    1,732;    0,318
231,729; 1962,853;   -2,450;   -2,318
232,328; 1981,897;   -0,723;   -1,500
232,927; 2004,140;    1,004;   -0,500
233,525; 2062,952;    3,640;    0,045
234,124; 2256,259;    2,368;   -1,591
234,723; 2222,717;    0,913;   -1,045
235,321; 2327,791;    2,277;    0,136
235,920; 2497,921;    1,186;   -1,227
236,518; 2728,268;    3,459;    0,318
237,117; 2779,383;    0,004;   -0,227
237,715; 2919,513;    0,640;   -0,500
238,314; 2954,579;   -0,087;   -2,318
238,912; 3084,329;   -0,723;   -1,409
239,510; 3070,873;    0,459;   -1,227
240,109; 3249,342;    0,004;    3,773
240,707; 3233,662;   -0,996;    1,227
241,305; 3462,165;    0,550;    0,136
241,904; 3646,438;   -0,178;   -2,045
242,502; 3638,461;   -0,632;   -0,227
243,100; 3547,012;   -0,087;   -0,955
243,698; 3767,687;    0,732;    1,682
244,297; 3891,536;   -0,632;    0,682
244,895; 3777,926;   -0,269;   -2,318
245,493; 4064,044;    2,186;   -0,591
246,091; 4068,292;    1,368;   -1,318
246,689; 4018,860;    1,004;    0,591
247,287; 4132,950;    0,822;   -1,136
247,885; 4364,776;   -1,451;    1,227
248,483; 4435,586;    1,822;   -0,500
249,081; 4537,601;    0,185;    1,591
249,679; 4667,986;   -0,178;    1,682
250,277; 4856,842;   -1,723;    0,864
250,875; 4863,172;   -1,087;   -1,045
251,473; 4847,111;   -1,178;    0,500
252,071; 5016,132;    1,459;    1,045
252,669; 5134,931;   -1,814;    0,318
253,267; 5289,353;   -0,087;    0,773
253,864; 5225,405;   -0,360;    0,682
254,462; 5209,661;    1,640;    1,591
255,060; 5116,955;   -0,269;    1,318
255,658; 5368,295;    0,822;   -0,136
256,255; 5737,700;    0,186;   -2,045
256,853; 5637,412;   -0,269;    1,409
257,451; 5575,907;    0,822;    1,864
258,048; 5915,927;    1,822;    1,864
258,646; 5645,138;    1,731;   -1,045
259,243; 5794,867;   -0,087;    2,227
259,841; 5803,977;   -0,814;    0,318
260,438; 5731,094;   -0,087;    0,864
261,036; 6302,536;   -1,905;    1,409
261,633; 6200,796;   -0,087;    2,227
262,231; 6003,840;    2,731;   -0,045
262,828; 6071,784;   -0,905;    1,136
263,425; 6098,063;    0,913;   -0,591
264,023; 6344,955;    0,186;    0,045
264,620; 5911,546;   -0,360;   -0,318
265,217; 6249,545;   -2,087;    3,136
265,815; 6314,555;   -1,905;    2,136
266,412; 6190,773;    0,731;    0,136
267,009; 6197,565;   -1,451;    0,773
267,606; 6168,411;    0,822;   -0,955
268,203; 6081,561;   -0,269;   -0,591
268,801; 6304,340;    1,731;    0,591
269,398; 6540,186;   -0,360;    2,500
269,995; 6528,420;    0,277;    1,591
270,592; 6341,218;   -0,632;   -0,500
271,189; 6484,118;    0,186;    0,409
271,786; 6596,791;   -0,632;    1,227
272,383; 6519,310;   -1,087;    0,227
272,980; 6617,861;    0,277;    0,318
273,577; 7009,213;    0,004;    1,227
274,174; 6600,056;    0,822;    2,591
274,771; 6599,841;   -0,814;   -0,773
275,367; 6796,963;    2,277;    1,409
275,964; 6739,195;    0,731;   -0,500
276,561; 6802,773;    1,549;   -1,045
277,158; 6959,986;    0,095;   -1,773
277,755; 7120,783;    2,185;    0,409
278,351; 6573,615;   -0,451;   -1,500
278,948; 6854,055;   -0,815;    0,045
279,545; 6832,437;   -1,360;    2,318
280,141; 7430,269;   -1,723;   -2,045
280,738; 7263,976;   -0,451;   -0,136
281,334; 7425,186;   -1,633;    0,591
281,931; 6916,790;   -0,087;   -1,318
282,528; 7038,651;    0,822;   -0,500
283,124; 7648,934;   -1,087;   -0,500
283,721; 7512,061;   -0,451;    1,409
284,317; 7360,995;    0,185;    2,500
284,913; 7877,448;   -1,360;    0,591
285,510; 8047,720;    0,640;   -0,318
286,106; 8083,625;   -2,269;   -0,955
286,703; 7657,372;   -0,360;    1,955
287,299; 7838,795;   -1,451;   -0,591
287,895; 8032,387;    0,822;   -1,045
288,491; 8542,914;    0,186;    2,136
289,088; 8328,235;   -2,360;    2,409
289,684; 8406,295;   -1,723;    1,500
290,280; 8414,609;    0,368;    0,682
290,876; 8508,182;    1,822;    5,500
291,472; 8412,736;    1,276;    2,227
292,068; 8497,398;    1,367;    0,227
292,665; 8245,432;    2,095;    0,773
293,261; 7957,619;    0,276;    2,136
293,857; 8305,926;    2,913;    2,136
294,453; 8246,582;    3,550;    0,955
295,049; 8136,129;   -0,268;    1,955
295,644; 8181,753;    0,095;    0,136
296,240; 8097,201;   -0,905;   -0,136
296,836; 8167,057;   -0,995;    0,318
297,432; 8413,300;    1,096;   -0,500
298,028; 8460,982;    0,732;    0,773
298,624; 8757,444;    1,459;    1,864
299,220; 8958,986;    2,368;    0,591
299,815; 8643,582;    1,005;   -0,409
300,411; 8515,766;    0,914;    1,773
301,007; 8492,595;    1,368;    0,227
301,602; 8519,353;   -0,541;   -2,318
302,198; 8673,546;    0,732;   -0,773
302,794; 8961,576;    1,187;   -0,500
303,389; 9052,327;   -1,177;    1,045
303,985; 9119,510;    0,550;    1,409
304,580; 9095,507;    1,459;    1,591
305,176; 9043,470;   -3,086;    0,136
305,771; 8957,019;   -1,268;   -1,227
306,367; 8904,113;    4,095;    0,136
306,962; 9161,353;    0,641;    1,500
307,558; 8868,853;   -0,450;    0,136
308,153; 8806,539;    1,095;   -1,136
308,748; 8993,468;   -0,814;    1,682
309,344; 9013,226;   -0,632;   -1,318
309,939; 9122,905;   -1,905;   -1,318
310,534; 9295,111;   -0,086;   -1,682
311,130; 9242,855;    0,459;   -2,500
311,725; 8980,858;    1,004;   -0,500
312,320; 9252,558;    2,459;    0,045
312,915; 9165,907;    1,459;   -1,045
313,510; 9241,950;    1,550;   -0,500
314,105; 9669,505;    1,096;    1,409
314,700; 9069,963;   -3,086;   -1,045
315,295; 8751,689;   -0,904;    0,045
315,890; 8372,852;    1,277;    0,864
316,485; 8668,632;   -0,359;   -0,318
317,080; 8769,126;   -3,086;    1,591
317,675; 9254,718;    2,005;   -0,682
318,270; 8789,161;    5,550;    3,318
318,865; 8778,365;    3,278;    3,045
319,460; 8606,057;   -0,904;    0,591
320,055; 8777,725;   -0,541;   -1,227
320,650; 8513,905;   -1,995;   -0,591
321,244; 8578,795;   -0,177;   -1,409
321,839; 9408,714;   -1,541;   -0,227
322,434; 9275,376;   -1,086;   -1,591
323,029; 8989,345;    1,732;    1,591
323,623; 8822,105;    1,550;    0,773
324,218; 8665,047;    2,368;    1,409
324,812; 8557,826;    1,096;    1,591
325,407; 8406,421;   -0,814;    2,045
326,002; 8368,899;    0,277;   -0,409
326,596; 8664,303;    0,914;    1,318
327,191; 8802,011;    0,823;   -1,045
327,785; 8461,485;   -0,813;   -0,227
328,379; 8675,670;    1,368;    0,136
328,974; 8455,602;    0,914;   -3,955
329,568; 8717,281;    0,186;   -2,409
330,163; 8560,959;    2,096;    1,045
330,757; 8859,178;    2,459;    1,591
331,351; 8256,447;    0,459;    0,682
331,945; 8581,962;    0,914;    1,409
332,540; 8254,152;   -1,723;   -0,591
333,134; 8386,201;   -1,086;    0,773
333,728; 8593,220;    0,005;    0,318
334,322; 8881,374;   -1,177;   -0,864
334,916; 8235,205;    0,277;    0,955
335,510; 8559,878;   -0,450;   -0,136
336,105; 8790,011;   -1,086;    1,591
336,699; 8546,630;   -1,086;    0,591
337,293; 8479,227;   -1,723;    0,318
337,887; 8599,945;   -2,723;    1,955
338,481; 8701,652;    0,459;    0,591
339,074; 8863,682;   -0,359;    2,682
339,668; 8730,680;   -1,632;    1,227
340,262; 9003,020;    1,732;    3,227
340,856; 8497,595;    1,822;   -0,682
341,450; 7944,644;    1,004;    1,864
342,044; 8726,318;    1,459;    0,136
342,637; 8565,342;    0,913;   -2,136
343,231; 8449,225;   -2,360;    0,682
343,825; 8371,198;   -1,086;   -0,591
344,419; 8368,555;   -1,995;    0,500
345,012; 8282,415;    2,459;    4,045
345,606; 8282,981;    4,641;    1,591
346,199; 8098,113;   -1,813;   -0,227
346,793; 7729,020;    1,914;    2,045
347,386; 7866,917;   -0,813;   -1,136
347,980; 7844,675;   -0,268;   -0,045
348,573; 7720,282;    2,278;    0,409
349,167; 7515,843;    5,278;    4,773
349,760; 7785,640;    2,914;    2,682
350,354; 7787,077;   -0,813;    1,136
350,947; 7556,448;    1,096;    1,682
351,540; 7270,425;   -0,358;   -1,409
352,134; 7204,663;    1,096;    1,136
352,727; 7304,877;   -0,086;    1,136
353,320; 7097,665;    0,005;    0,591
353,913; 6935,826;   -1,995;    1,864
354,507; 7181,442;    0,823;   -1,227
355,100; 7195,576;    0,460;    0,864
355,693; 6590,039;    2,005;    2,409
356,286; 6578,503;    0,823;    2,773
356,879; 6896,959;   -0,722;    1,227
357,472; 6542,915;   -0,904;    1,500
358,065; 6748,977;   -0,722;    2,500
358,658; 6682,345;   -0,540;    2,318
359,251; 6366,845;   -1,631;   -0,591
359,844; 5964,589;   -1,904;   -1,136
360,437; 6147,417;   -2,995;    0,045
361,030; 6362,732;    1,369;   -0,682
361,623; 6019,994;    2,824;    0,318
362,215; 6066,885;   -0,086;    2,045
362,808; 5925,387;   -2,358;   -1,682
363,401; 6129,150;   -2,449;    0,136
363,994; 5958,420;   -0,631;   -1,500
364,586; 5849,818;    0,824;   -1,500
365,179; 6034,698;   -0,449;   -1,136
365,772; 5583,609;   -1,995;    2,045
366,364; 5811,224;    1,915;   -3,227
366,957; 6014,434;    2,279;   -0,045
367,549; 5999,453;    2,188;   -0,864
368,142; 5721,193;    1,825;   -1,500
368,734; 5884,697;    0,734;   -2,136
369,327; 5893,940;    1,643;   -0,500
369,919; 5786,109;   -1,538;    0,409
370,512; 5668,660;   -1,083;   -0,500
371,104; 5491,650;   -0,901;    1,591
371,696; 5640,316;    1,191;   -0,955
372,289; 5681,701;    0,373;    1,136
372,881; 5791,295;   -2,080;    1,318
373,473; 5697,192;   -2,170;    1,136
374,066; 5539,718;   -0,169;    0,500
374,658; 5456,996;    0,378;    1,136
375,250; 5737,573;    0,653;   -1,409
375,842; 5615,708;    0,473;   -0,045
376,434; 5499,476;   -0,435;   -0,409
377,026; 5992,058;    0,204;   -2,500
377,618; 5885,598;   -0,158;   -0,682
378,210; 5728,945;   -0,338;   -1,955
378,802; 5619,022;    0,754;   -0,591
379,394; 5661,427;    1,846;    0,682
379,986; 6122,231;    1,393;   -0,955
380,578; 6183,198;   -0,153;    0,773
381,170; 5649,961;   -0,972;    0,045
381,762; 5592,715;    0,755;    1,409
382,354; 5736,465;   -0,065;   -1,318
382,945; 5816,262;   -2,976;    0,318
383,537; 5930,861;   -2,705;   -1,955
384,129; 5963,786;   -2,160;   -1,136
384,721; 6125,489;   -0,252;    0,955
385,312; 6029,004;   -0,161;   -0,955
385,904; 6172,106;   -2,706;    1,591
386,496; 5609,502;   -0,979;    1,045
387,087; 5729,775;    1,022;    2,500
387,679; 5725,605;   -1,160;    0,045
388,270; 5880,028;    2,840;    2,045
388,862; 5975,875;    1,295;   -0,318
389,453; 5836,826;   -0,887;    1,045
390,045; 6094,167;   -0,705;   -2,682
390,636; 6015,202;    0,204;   -0,591
391,227; 5883,806;   -0,523;   -0,045
391,819; 6007,789;    0,204;    0,773
392,410; 6079,685;    1,022;    0,045
393,001; 6003,302;   -0,979;   -1,591
393,593; 6231,535;    1,930;   -0,045
394,184; 6138,167;    1,385;   -0,409
394,775; 6004,622;    1,839;    2,136
395,366; 6189,585;    1,385;    0,773
395,957; 6160,935;    0,113;    0,136
396,548; 6398,900;   -0,342;    2,682
397,139; 6696,521;   -2,433;    0,591
397,730; 6441,607;   -1,888;    0,955
398,321; 6499,616;   -1,252;    0,955
398,912; 6497,278;   -0,615;    0,136
399,503; 6605,437;   -3,524;   -1,409
400,094; 6154,466;    0,294;    1,682
400,685; 6006,638;   -0,433;    0,045
401,276; 6050,362;    0,930;   -0,955
401,867; 6308,574;   -0,888;    0,773
402,458; 6389,566;   -2,251;   -2,318
403,048; 6396,781;    1,112;    0,591
403,639; 6048,928;    0,840;    0,864
404,230; 6321,577;    2,476;    0,318
404,821; 6250,164;   -0,615;    0,045
405,411; 6352,057;    1,203;   -2,591
406,002; 5986,032;   -1,252;   -1,136
406,592; 5907,291;    2,294;    0,045
407,183; 6118,758;    0,566;   -1,500
407,774; 6044,299;    3,475;   -0,136
408,364; 6332,477;    0,930;    0,409
408,954; 6000,935;    0,384;    1,227
409,545; 6037,366;    1,021;    1,045
410,135; 5630,013;    1,293;    0,500
410,726; 5773,282;    1,838;    0,318
411,316; 6114,973;    0,111;    0,773
411,906; 5816,958;   -0,253;   -0,409
412,497; 5389,081;   -1,070;   -0,045
413,087; 5890,718;   -1,980;   -0,227
413,677; 6219,668;   -0,707;    3,864
414,267; 6069,280;    0,656;    1,409
414,857; 6044,055;   -2,980;    4,227
415,448; 6299,175;    0,839;    0,500
416,038; 6021,086;    0,020;   -0,591
416,628; 6010,008;   -0,889;    0,409
417,218; 5620,945;    0,565;    3,318
417,808; 5807,175;    0,202;   -0,409
418,398; 6143,539;    0,020;    2,682
418,988; 6146,859;    2,020;    0,591
419,578; 6341,420;   -0,707;    1,409
420,168; 6612,368;   -1,343;   -0,955
420,757; 6282,198;   -1,343;   -1,500
421,347; 5967,185;    0,111;   -0,227
421,937; 6107,911;    2,292;    1,409
422,527; 6111,621;    0,838;   -0,773
423,116; 5922,311;   -0,253;   -0,045
423,706; 6155,634;   -1,889;    0,318
424,296; 6121,861;    1,384;    0,682
424,885; 6512,133;   -0,071;   -3,045
425,475; 6714,525;    1,474;   -2,864
426,065; 6626,229;   -0,980;   -0,318
426,654; 6330,268;   -0,435;   -0,318
427,244; 6480,459;    0,020;    1,409
427,833; 5987,524;    1,383;   -0,500
428,423; 6315,763;   -0,526;    1,136
429,012; 6946,524;   -0,344;   -1,136
429,601; 6518,143;   -1,344;    0,136
430,191; 6728,474;    1,292;    4,318
430,780; 6414,150;   -0,344;   -0,409
431,369; 6367,302;    0,746;   -0,045
431,959; 6860,031;   -1,254;    0,500
432,548; 6657,896;   -1,163;   -0,045
433,137; 6724,537;   -1,254;   -1,318
433,726; 7188,102;    0,292;    0,500
434,315; 6666,423;   -0,526;    2,409
434,905; 6760,734;   -1,254;    1,409
435,494; 6675,204;    0,746;    0,955
436,083; 7013,876;   -0,981;   -0,955
436,672; 6892,699;    0,110;    0,500
437,261; 6570,730;    0,292;   -1,955
437,850; 6678,022;    1,383;    0,682
438,439; 6682,535;    3,291;    1,955
439,027; 6573,902;    3,655;    1,773
439,616; 6809,751;    2,927;    1,227
440,205; 6647,880;    0,200;   -2,136
440,794; 6657,730;    2,109;   -0,045
441,383; 6846,875;   -1,346;   -0,591
441,971; 6682,601;   -2,436;    0,591
442,560; 6537,724;    0,563;   -1,773
443,149; 6306,807;    0,379;   -1,318
443,737; 6447,866;   -0,074;   -2,318
444,326; 6667,566;    0,018;    0,318
444,915; 6681,155;   -1,982;    0,864
445,503; 6997,037;   -2,891;   -0,318
446,092; 6410,404;    0,382;    2,136
446,680; 6835,978;    0,382;    0,318
447,269; 6933,936;   -0,346;   -0,318
447,857; 6745,943;    0,018;   -1,773
448,445; 6840,991;    0,563;    1,318
449,034; 7022,694;   -1,528;   -1,136
449,622; 7073,035;   -1,073;    3,500
450,210; 6533,801;    2,017;    2,227
450,799; 6981,917;    0,290;   -0,591
451,387; 6882,398;    1,381;   -0,591
451,975; 6606,916;    2,654;    0,864
452,563; 6726,932;    3,472;    2,318
453,151; 6698,648;   -0,528;   -1,227
453,739; 6638,163;   -1,347;    0,136
454,328; 6541,885;    2,381;   -2,136
454,916; 6303,369;    2,562;   -0,136
455,504; 6420,818;    1,017;    1,227
456,092; 6586,586;    0,017;   -1,591
456,679; 6509,223;    1,472;    0,682
457,267; 6586,867;    4,017;    1,045
457,855; 6628,576;    1,017;    1,409
458,443; 6371,403;   -0,165;    1,682
459,031; 6552,466;    0,108;    2,409
459,619; 6911,188;   -1,801;    2,864
460,206; 6921,919;    0,835;    2,045
460,794; 6984,901;   -2,983;   -0,227
461,382; 7165,981;   -0,529;   -0,864
461,970; 6828,117;    1,198;    1,864
462,557; 6849,639;   -0,711;   -0,682
463,145; 7015,226;   -3,165;   -1,682
463,732; 7124,420;    2,016;   -1,045
464,320; 7026,724;   -0,075;   -3,045
464,907; 6777,448;    2,743;   -0,773
465,495; 6662,989;    0,743;   -1,227
466,082; 6782,996;   -1,984;   -0,045
466,670; 6669,634;   -2,529;    1,227
467,257; 7011,047;   -1,711;    2,045
467,844; 7193,141;   -0,075;    0,045
468,432; 7203,165;    0,834;    3,500
469,019; 6768,153;    0,925;   -1,773
469,606; 7148,488;    0,470;    3,682
470,193; 7034,297;   -1,439;    0,227
470,780; 6692,468;   -2,075;    0,864
471,368; 6974,361;   -1,257;   -0,773
471,955; 6799,653;    1,379;   -0,682
472,542; 6482,549;    0,652;   -1,136
473,129; 6647,041;   -0,166;    0,136
473,716; 6429,175;    1,470;    0,591
474,303; 6540,039;    0,652;   -0,864
474,890; 6778,375;   -1,439;   -0,500
475,477; 6845,516;   -1,621;    0,409
476,064; 6725,141;    1,106;   -1,591
476,650; 6628,904;    0,288;    0,318
477,237; 6477,995;   -0,258;    0,955
477,824; 6604,156;   -1,076;    0,864
478,411; 6556,518;   -1,894;   -0,318
478,997; 6742,004;    0,560;   -0,773
479,584; 6764,765;    1,196;   -0,409
480,171; 7349,306;   -0,440;   -0,773
480,757; 7078,180;    2,651;    0,773
481,344; 7272,330;    0,469;    0,409
481,931; 6837,769;    1,105;    1,045
482,517; 7624,438;   -1,258;    0,318
483,104; 8027,561;    1,106;    2,864
483,690; 8155,948;   -1,804;    0,045
484,276; 8375,570;   -0,895;    0,227
484,863; 8178,225;    2,469;    1,136
485,449; 8606,168;   -0,077;    0,318
486,035; 8542,283;   -1,986;   -0,136
486,622; 8925,662;   -0,895;    0,045
487,208; 8846,144;    1,378;    1,500
487,794; 8726,197;    0,741;    0,318
488,380; 8812,200;    0,105;   -1,409
488,967; 8864,601;   -1,168;   -0,409
489,553; 8951,891;   -1,895;   -1,409
490,139; 9170,914;    1,559;    0,773
490,725; 8729,711;    0,741;   -0,227
491,311; 8434,527;    3,287;    3,045
491,897; 7889,188;   -0,986;    1,500
492,483; 7837,032;    0,105;    1,227
493,069; 7866,803;    3,923;    0,864
493,655; 7772,401;    1,650;    0,682
494,241; 7699,581;    1,377;   -0,955
494,826; 8054,731;    0,287;   -1,045
495,412; 7619,663;    2,559;   -0,682
495,998; 7780,250;   -0,805;   -0,318
496,584; 7881,200;    0,377;    1,045
497,169; 7869,022;    1,014;   -0,682
497,755; 7881,468;    0,650;    1,227
498,341; 8425,681;    0,559;    0,318
498,926; 8100,573;    1,832;    1,955
499,512; 8243,830;    1,286;    2,955
500,097; 8305,954;    0,195;   -0,318
500,683; 8290,313;   -0,350;    2,136
501,268; 8630,109;   -0,169;   -0,955
501,854; 8452,455;   -0,169;    1,227
502,439; 8399,829;   -0,624;   -1,773
503,024; 8619,617;    0,195;    0,500
503,610; 8734,616;   -0,078;   -0,682
504,195; 8718,938;    0,558;    1,955
504,780; 8866,293;    2,922;    1,227
505,366; 8787,518;    3,013;    2,864
505,951; 8566,611;    0,740;    1,045
506,536; 8642,586;   -3,260;   -3,682
507,121; 8618,423;    0,285;   -0,318
507,706; 9066,810;    2,376;    1,045
508,291; 9412,589;    2,649;    1,136
508,876; 8960,200;   -0,988;    2,591
509,461; 8512,215;   -0,169;   -0,773
510,046; 8931,236;    0,194;    0,318
510,631; 9160,798;   -0,351;   -0,773
511,216; 8835,462;    2,467;   -0,500
511,801; 9235,132;   -0,442;    2,591
512,386; 9479,687;    0,740;    0,500
512,971; 9423,516;   -2,988;    0,955
513,555; 9066,645;   -0,897;   -1,500
514,140; 9772,421;   -0,442;   -3,136
514,725; 9728,592;   -0,715;   -1,136
515,309; 9872,999;   -0,533;    0,318
515,894; 9426,453;   -0,624;   -2,227
516,479; 9828,865;   -0,624;   -0,955
517,063; 9654,885;    0,376;    1,227
517,648; 9776,704;    1,012;   -1,136
518,232; 9437,087;   -0,261;   -1,409
518,817; 9748,746;   -0,079;    1,682
519,401; 9976,676;    2,194;    0,591
519,985; 9510,309;    1,103;    1,136
520,570; 9433,839;    0,830;   -1,955
521,154; 9666,230;    2,102;    0,591
521,738; 9841,604;   -2,352;    2,409
522,323;10342,819;   -0,170;    1,682
522,907;10122,012;    0,466;   -0,136
523,491; 9866,673;    0,557;    0,955
524,075; 9834,241;    2,284;    0,591
524,659; 9956,644;    1,466;    0,591
525,243; 9527,487;    1,739;    0,409
525,827; 9684,196;    0,648;   -0,045
526,411;10416,371;   -1,989;   -0,136
526,995;10590,307;   -0,352;    1,409
527,579;10223,844;   -0,443;   -1,045
528,163;10505,509;    0,375;   -1,500
528,747;10458,893;    2,466;   -0,773
529,331;10723,301;   -0,080;   -1,409
529,915;10848,396;    1,738;    0,955
530,499;10792,464;   -0,807;    1,227
531,082;10541,525;   -0,534;    1,591
531,666;10051,041;    1,374;    0,773
532,250;10648,280;    1,284;    2,682
532,833;10924,585;    0,920;    2,773
533,417;10796,018;   -1,807;    0,864
534,001;10719,525;    1,647;   -0,318
534,584;11357,260;    0,374;    0,500
535,168;11216,396;    0,465;    1,409
535,751;11240,496;    0,647;    0,045
536,334;10720,295;   -0,898;   -0,409
536,918;11249,022;    0,011;    1,591
537,501;11284,254;   -0,899;    1,318
538,085;11299,007;   -0,444;    1,045
538,668;11391,848;    0,829;    2,409
539,251;11714,326;    1,829;    3,773
539,834;11734,234;    0,101;    0,773
540,418;11700,994;   -1,990;    4,318
541,001;11765,696;   -0,990;    1,773
541,584;11711,804;    2,101;    2,227
542,167;11429,837;    1,374;    2,955
542,750;11488,659;    1,919;   -0,773
543,333;11131,807;    0,555;    2,136
543,916;11859,595;    0,192;    2,500
544,499;12349,166;   -1,354;    0,227
545,082;12327,349;    1,374;    3,591
545,665;12427,096;    1,919;    1,500
546,248;12688,444;    1,010;   -0,318
546,830;12401,260;   -0,445;    1,955
547,413;12763,450;    1,010;   -0,773
547,996;13231,955;    0,555;    0,500
548,579;13002,370;    0,919;    0,955
549,161;12816,280;    1,828;    2,682
549,744;12581,514;   -0,809;    0,409
550,326;13016,378;   -0,809;   -1,136
550,909;12865,133;    2,737;    0,591
551,492;13235,603;   -0,263;    0,227
552,074;13018,432;   -0,173;   -1,318
552,657;13541,932;    2,373;    0,045
553,239;13333,002;   -0,173;   -0,773
553,821;13233,722;   -1,082;    1,045
554,404;12772,023;    1,282;    1,136
554,986;13098,027;    0,464;    1,045
555,568;13609,824;    1,191;   -0,955
556,151;12962,939;    1,191;   -0,227
556,733;13092,866;   -0,264;   -0,864
557,315;13502,424;    0,100;    0,500
557,897;13270,308;    0,554;   -0,500
558,479;13384,832;   -1,991;    1,318
559,061;13521,161;   -0,719;   -0,864
559,643;13840,542;   -0,264;    0,045
560,225;14133,371;    1,645;    2,864
560,807;14109,815;    0,918;    0,318
561,389;13672,022;    0,554;    2,318
561,971;14283,900;    0,463;    2,136
562,553;14127,253;   -1,628;    1,591
563,135;14222,888;   -0,537;    1,136
563,717;13863,160;    3,372;    1,136
564,298;14446,687;    3,645;   -0,045
564,880;14180,794;    0,645;   -1,409
565,462;14275,703;    0,645;    1,318
566,043;15285,464;   -0,446;    2,318
566,625;14877,759;    1,918;    1,227
567,207;14687,084;    1,099;    1,682
567,788;15595,608;   -1,264;    1,500
568,370;16327,572;    1,917;   -0,500
568,951;16063,611;    0,190;    0,227
569,533;16771,895;   -0,628;   -0,500
570,114;17176,558;   -0,446;    0,682
570,695;17570,686;   -0,174;   -1,318
571,277;17846,145;   -0,265;   -1,682
571,858;18494,483;    2,008;   -1,136
572,439;19205,659;    1,554;   -1,045
573,021;19260,316;    2,099;   -2,773
573,602;19627,970;   -1,265;    0,318
574,183;20378,202;   -2,083;    2,227
574,764;20371,155;   -1,629;    0,409
575,345;20817,728;    0,917;   -0,136
575,926;21279,014;   -0,356;    0,136
576,507;21259,356;    1,099;   -0,227
577,088;22211,060;    3,099;    1,682
577,669;22176,613;    0,735;    1,955
578,250;22864,657;    0,644;   -1,045
578,831;23353,783;   -1,356;   -2,227
579,412;23468,727;   -0,810;    0,955
579,993;24242,365;    1,008;    0,227
580,573;24494,092;   -0,629;   -0,955
581,154;23523,977;    0,735;   -0,591
581,735;24361,885;    0,644;    0,773
582,315;23870,067;   -0,629;    2,136
582,896;24071,883;   -0,174;    1,227
583,477;23567,710;    0,189;    1,227
584,057;23806,523;    0,553;    0,955
584,638;24056,001;    2,553;    2,318
585,218;24102,023;   -0,538;    2,682
585,799;24203,588;    0,281;   -0,227
586,379;24233,242;    0,372;    1,591
586,959;23215,702;    0,735;    0,318
587,540;22628,690;   -0,629;    2,227
588,120;22233,724;    1,007;   -0,045
588,700;21487,715;    2,553;    2,136
589,281;21862,774;    0,462;   -0,955
589,861;21805,481;    0,099;   -1,682
590,441;21555,366;    2,371;   -2,682
591,021;20665,932;   -0,265;   -2,591
591,601;20951,422;   -0,537;    0,500
592,181;21024,443;   -0,719;   -0,773
592,761;20408,559;    0,007;    1,409
593,341;20395,520;   -0,901;    0,045
593,921;20364,310;   -0,265;    1,591
594,501;20269,089;   -0,538;    1,318
595,081;20077,378;    0,917;   -0,318
595,661;20471,655;   -1,447;    0,955
596,240;20910,535;   -0,537;    0,136
596,820;20533,437;    0,372;    1,955
597,400;20647,926;    2,008;    0,773
597,980;20785,737;    2,008;    1,045
598,559;20861,993;    2,735;   -0,227
599,139;20644,405;   -0,174;   -1,227
599,718;20499,768;   -0,174;   -0,409
600,298;20781,016;    0,735;    0,682
600,877;21056,761;    2,917;    1,409
601,457;21235,299;    2,281;    1,136
602,036;21137,626;    0,190;    2,045
602,616;21307,759;    0,644;    1,682
603,195;21623,776;   -0,355;    3,500
603,774;21185,892;   -0,901;    2,045
604,354;21022,915;    0,826;   -0,500
604,933;20647,580;    0,463;    1,864
605,512;20750,280;    3,554;    0,591
606,091;20839,546;   -0,537;    3,773
606,671;21567,345;    0,281;    0,773
607,250;20808,391;    1,644;    3,136
607,829;20983,633;    2,372;    3,227
608,408;20882,113;    1,190;    2,591
608,987;20036,534;    1,281;    3,409
609,566;20270,360;   -1,265;   -2,500
610,145;20388,058;   -1,082;    0,682
610,723;20803,082;    4,372;    6,864
611,302;20079,098;   -0,446;    1,682
611,881;19649,647;    5,008;   11,227
612,460;20418,557;    1,645;    3,955
613,039;20757,845;   -0,082;    2,045
613,617;19619,202;    1,736;    4,773
614,196;19776,943;    1,099;    1,227
614,775;20116,958;    1,009;    2,409
615,353;20077,454;    0,736;    0,864
615,932;19870,727;    0,100;    2,409
616,510;20397,071;    0,554;    0,591
617,089;19988,274;    7,100;   17,591
617,667;19830,796;    2,372;    6,136
618,246;19676,178;   -1,537;    1,318
618,824;19811,520;   -3,355;   -0,955
619,402;19407,770;   -2,900;   -1,773
619,981;19895,606;   -0,173;   -1,045
620,559;19746,239;    0,009;    1,682
621,137;19326,355;   -0,718;    1,864
621,715;19322,107;   -1,173;   -0,682
622,293;19285,900;   -0,537;   -0,773
622,871;19681,787;   -0,718;    0,500
623,450;19345,120;    0,373;   -0,864
624,028;19279,285;    0,191;   -0,955
624,606;18946,644;   -1,718;    1,682
625,183;19283,389;   -1,536;   -1,136
625,761;18963,320;    1,009;    1,136
626,339;19231,055;    1,373;    2,591
626,917;19580,517;   -0,172;   -0,045
627,495;19588,200;   -0,354;    1,318
628,073;19080,104;   -0,263;    2,864
628,650;18844,544;    0,100;    2,136
629,228;19254,959;    0,373;    4,409
629,806;18681,136;    2,282;    1,136
630,383;18909,402;    1,464;   -0,318
630,961;18799,795;    2,555;   -0,955
631,539;18535,151;    2,464;    0,227
632,116;18058,977;   11,373;   15,409
632,694;18546,448;    2,555;    6,500
633,271;18715,005;    0,828;    2,682
633,848;18722,783;    1,828;    2,045
634,426;18703,569;   -1,081;    1,773
635,003;17965,351;    1,101;   -0,409
635,580;18237,258;    1,192;    3,682
636,158;18718,519;    3,737;    1,227
636,735;18694,937;    0,555;   -0,500
637,312;18773,012;   -0,809;   -0,682
637,889;18864,203;   -4,354;   -0,682
638,466;18463,029;   -3,990;   -0,409
639,043;18416,609;    2,101;   -1,136
639,620;18714,881;   -2,262;   -0,955
640,197;18975,443;    1,100;    1,682
640,774;19111,251;   -0,172;    1,136
641,351;19427,968;    0,737;    1,136
641,928;18964,684;   -0,627;    1,409
642,505;18674,674;    0,828;   -0,500
643,082;18778,572;   -1,718;    1,227
643,658;17925,471;   -0,718;    1,500
644,235;18551,824;    1,191;    2,500
644,812;18791,631;    1,918;    0,773
645,388;18561,257;   -0,991;    1,409
645,965;18630,610;   -0,809;    1,682
646,542;18710,054;   -1,445;   -0,227
647,118;18772,134;    1,009;   -0,955
647,695;18991,669;   -0,263;    1,136
648,271;18874,204;   -0,536;    0,500
648,848;19093,103;    0,736;    2,227
649,424;19012,728;    0,827;    1,318
650,000;18733,991;   -0,354;   -1,045
650,577;18629,253;   -0,627;   -0,955
651,153;18958,515;   -1,809;    0,955
651,729;19827,595;    1,191;    0,864
652,305;20089,221;    0,645;    2,773
652,881;23692,301;   -0,082;    1,136
653,458;28905,291;    1,100;    0,227
654,034;31476,280;    0,282;    1,591
654,610;32460,906;    0,554;    0,773
655,186;33552,077;    0,645;    3,045
655,762;33190,430;   -0,991;    0,409
656,338;33238,147;    0,100;    0,136
656,913;34042,136;   -0,082;    0,409
657,489;33313,126;    0,827;   -0,318
658,065;33332,660;   -0,173;   -1,591
658,641;34025,650;   -0,900;   -0,864
659,217;33434,912;   -0,991;    0,409
659,792;32879,265;    0,645;   -0,409
660,368;33131,982;   -2,173;   -0,682
660,944;32991,698;   -2,082;    1,227
661,519;29204,870;   -0,628;    0,409
662,095;24607,950;   -1,719;    0,591
662,670;21209,121;    1,281;   -0,136
663,246;20515,929;    1,009;   -0,409
663,821;20052,827;    0,281;    1,682
664,396;19507,453;    0,009;    1,864
664,972;19764,079;    0,009;   -0,500
665,547;20067,795;    1,372;    0,136
666,122;20096,421;   -1,082;    0,318
666,698;20353,229;   -0,173;    0,318
667,273;19661,127;   -0,173;    0,136
667,848;20421,571;    2,372;    1,500
668,423;20204,742;    2,190;    2,318
668,998;20604,005;    2,827;   -0,682
669,573;21123,630;   -3,264;   -1,500
670,148;20964,892;   -1,446;   -0,682
670,723;20691,973;   -1,810;    0,318
671,298;21079,962;    2,372;    1,045
671,873;21165,861;   -0,082;   -0,136
672,448;21141,214;    0,645;    0,136
673,023;21438,021;   -1,992;   -0,227
673,597;21726,283;    0,827;    2,318
674,172;21541,909;   -0,355;    0,318
674,747;21041,353;    0,372;   -1,045
675,321;20809,797;   -0,628;    3,318
675,896;20482,059;    0,645;    1,045
676,471;21363,139;    2,645;    1,591
677,045;21155,402;   -1,264;    0,682
677,620;21110,118;    0,190;    1,136
678,194;21435,926;   -2,628;    1,136
678,769;21081,006;   -1,083;   -0,318
679,343;21343,450;   -0,628;    1,773
679,917;21196,803;   -1,446;    1,955
680,492;21236,247;    0,826;    3,227
681,066;21321,964;    3,372;    0,409
681,640;21425,680;    1,463;   -0,318
682,214;22150,488;    0,735;    0,500
682,788;21734,023;   -1,356;   -0,773
683,363;21628,103;   -1,810;    1,682
683,937;21336,911;   -1,719;   -0,318
684,511;21983,809;    0,463;   -0,591
685,085;21750,708;   -1,356;    0,318
685,659;21501,152;   -2,538;    0,864
686,232;21828,323;   -0,356;   -0,318
686,806;21532,494;   -0,901;    0,409
687,380;22031,575;   -0,174;    0,591
687,954;22241,655;   -1,174;    1,136
688,528;21975,553;   -0,719;    1,955
689,101;22657,361;   -3,992;    1,045
689,675;22273,078;   -0,356;   -0,136
690,249;21667,703;   -0,719;    0,409
690,822;21979,147;    0,280;    0,318
691,396;22126,319;   -0,265;    1,227
691,969;21661,672;    1,280;    0,136
692,543;22129,752;   -0,447;   -1,955
693,116;21737,105;   -0,265;   -1,409
693,690;21604,822;    0,099;    0,500
694,263;22116,356;   -1,083;    2,955
694,836;22166,073;    1,371;    3,591
695,410;20975,790;   -0,265;    1,773
695,983;21339,506;    0,189;    0,591
696,556;21344,314;   -0,447;   -1,045
697,129;21689,849;   -0,356;    1,409
697,703;21341,111;   -1,629;    1,955
698,276;21359,282;    1,462;   -0,773
698,849;21217,544;    1,280;    1,409
699,422;21554,079;   -1,083;    0,591
699,995;21307,341;    0,007;    0,136
700,568;21758,240;   -0,629;    3,045
701,140;21701,957;   -2,811;    1,682
701,713;21486,582;   -0,174;    2,409
702,286;21310,117;   -0,538;    0,864
702,859;21180,743;   -0,902;   -0,591
703,432;20465,369;    0,825;    0,682
704,004;20840,267;    0,462;    0,318
704,577;20723,075;   -0,629;    0,136
705,150;21248,519;    0,189;    2,500
705,722;21057,054;   -0,356;   -3,227
706,295;20840,679;   -0,175;   -0,591
706,867;20764,396;   -0,175;    1,955
707,440;20969,295;   -1,720;   -0,409
708,012;21223,011;    0,462;    0,591
708,584;21127,273;    2,462;    0,227
709,157;21389,081;    1,825;   -0,591
709,729;21081,070;    2,280;    2,045
710,301;21829,332;    0,734;    0,045
710,874;21819,958;   -1,447;   -0,227
711,446;20788,220;    0,371;    0,864
712,018;20666,119;    0,098;    0,500
712,590;20500,199;   -1,993;    1,682
713,162;20981,461;    0,825;    1,318
713,734;21171,905;    1,825;   -2,045
714,306;21065,622;   -1,902;   -0,409
714,878;19904,702;    0,825;    0,864
715,450;20656,601;    0,643;    0,864
716,022;20919,136;    1,552;    1,318
716,593;21094,580;    0,189;    0,591
717,165;21006,660;   -3,175;   -1,227
717,737;20810,649;    0,280;    0,409
718,309;20482,548;    0,280;   -0,045
718,880;20430,719;   -0,539;   -1,409
719,452;20656,890;   -0,175;   -1,591
720,024;20342,880;    0,734;   -0,591
720,595;20851,778;   -2,902;    0,955
721,167;20446,858;    0,370;   -2,045
721,738;19990,484;   -0,812;   -1,045
722,309;20021,564;   -0,993;   -1,227
722,881;19838,463;   -1,357;    0,773
723,452;20360,361;   -2,630;    2,864
724,023;20539,533;   -0,721;    2,682
724,595;20345,431;    0,007;    0,682
725,166;20058,148;    0,007;   -0,409
725,737;19800,228;    1,734;    0,227
726,308;19891,854;   -0,266;    0,318
726,879;20276,843;   -1,630;    1,227
727,450;20103,651;    0,552;   -0,045
728,021;20067,277;    3,097;    0,682
728,592;19882,357;    0,734;    0,500
729,163;20229,528;    0,643;   -0,136
729,734;20210,245;    0,188;   -0,227
730,305;20506,234;    1,734;    0,136
730,876;20803,315;    0,188;    2,955
731,447;20589,304;    2,188;    2,682
732,017;20704,384;    1,097;    1,864
732,588;20245,465;    0,734;    1,227
733,159;20398,454;    0,643;   -1,045
733,729;20169,989;    0,006;    0,409
734,300;19605,978;    0,915;    0,864
734,870;19981,240;    3,461;    0,591
735,441;20423,684;    0,370;   -0,591
736,011;20290,947;    0,643;   -1,591
736,582;20228,572;   -0,812;    0,045
737,152;19672,744;   -1,721;   -2,045
737,722;20103,006;   -0,267;   -0,682
738,293;19844,904;   -1,358;    1,318
738,863;19747,257;    2,461;    2,318
739,433;19644,610;    5,279;    0,318
740,003;20186,236;   -0,994;   -0,682
740,573;19667,498;    2,097;   -1,591
741,143;19633,669;   -1,085;    0,318
741,713;20288,386;    1,188;   -0,500
742,283;20077,557;    0,915;    1,591
742,853;19873,092;    1,915;    1,591
743,423;19390,900;    1,733;    0,045
743,993;19496,162;   -0,358;    1,500
744,563;18992,515;    0,097;   -0,864
745,133;18937,413;   -0,812;   -0,864
745,702;19548,221;   -0,267;    1,773
746,272;18844,301;   -0,176;    0,591
746,842;18683,109;   -1,358;   -0,591
747,411;19101,553;   -0,267;   -0,318
747,981;19220,542;    0,097;    0,500
748,551;19265,441;    2,278;   -1,045
749,120;19155,612;    0,642;   -0,227
749,690;19427,419;   -0,631;    2,409
750,259;19743,773;    1,369;    2,955
750,828;19668,762;    1,551;   -1,955
751,398;19911,388;    1,278;   -0,045
751,967;19508,923;    2,187;    0,409
752,536;19616,639;   -0,813;   -0,227
753,105;20013,356;    0,096;    0,227
753,675;19773,982;    0,096;    1,773
754,244;19750,789;   -0,904;    3,591
754,813;19727,688;    0,551;    1,227
755,382;19344,132;    0,460;    0,955
755,951;19823,303;    1,551;    3,682
756,520;19510,020;   -0,085;    1,864
757,089;20034,918;    0,278;    0,500
757,658;20073,635;    1,733;    1,227
758,227;20099,988;    1,096;    0,318
758,795;20308,795;    1,187;    1,136
759,364;20560,148;   -0,086;   -0,591
759,933;19663,592;   -1,176;   -0,045
760,501;19218,036;    0,733;   -1,318
761,070;19620,935;   -2,813;   -1,409
761,639;20309,742;   -1,904;    1,318
762,207;19727,368;    1,551;   -0,955
762,776;19672,267;    0,369;    0,864
763,344;19633,892;   -0,995;    0,591
763,913;18706,882;   -0,722;    1,409
764,481;19473,780;    1,005;   -0,136
765,049;19311,315;   -1,358;    1,409
765,618;19178,850;   -0,086;    0,318
766,186;19299,476;    0,278;    0,136
766,754;19510,556;    0,005;    1,864
767,322;18614,727;   -1,995;    0,409
767,890;18599,353;   -0,722;   -1,773
768,459;19029,252;   -2,177;   -0,318
769,027;19171,423;    1,641;    3,409
769,595;18244,049;    3,278;    2,591
770,163;18655,038;    3,823;    2,955
770,730;18457,209;    0,732;   -0,136
771,298;18346,290;    0,187;   -1,409
771,866;18409,279;   -1,541;    4,955
772,434;18716,905;   -0,631;   -1,864
773,002;18897,985;    0,005;    0,682
773,569;18628,247;    0,914;    1,682
774,137;18387,782;   -0,268;   -0,045
774,705;19088,953;    0,278;   -0,136
775,272;18696,397;    0,641;    0,682
775,840;18515,841;   -0,177;    2,682
776,407;18109,558;    0,277;    1,955
776,975;17704,274;   -0,632;    0,318
777,542;18600,718;   -1,086;   -0,045
778,110;18481,617;   -1,268;   -0,045
778,677;18143,061;   -2,359;   -0,864
779,244;17980,868;    2,186;    1,045
779,812;18037,858;    1,823;    0,864
780,379;17911,756;    0,005;    1,136
780,946;18178,109;    1,005;   -0,773
781,513;18440,008;   -1,450;    0,318
782,080;17855,088;   -0,086;    2,864
782,647;18515,623;   -0,268;    3,045
783,214;18245,976;   -0,177;    3,864
783,781;17881,147;   -0,723;   -0,682
784,348;17746,046;   -0,632;    1,500
784,915;18142,035;   -3,177;    0,318
785,482;17975,843;    1,368;    2,591
786,049;18369,741;    0,186;   -0,591
786,615;18475,731;    0,277;   -0,955
787,182;18214,811;    0,186;   -0,682
787,749;17956,528;   -2,814;    1,409
788,315;17363,972;   -1,632;   -0,409
788,882;17623,325;    1,550;   -1,227
789,448;18228,041;    1,732;   -0,955
790,015;18241,576;    1,095;    3,227
790,581;17902,111;    1,459;    0,227
791,148;17814,282;    0,641;    1,045
791,714;17995,272;   -0,541;    3,136
792,280;17709,170;    0,186;    1,591
792,847;17367,160;    0,550;    2,500
793,413;17767,513;   -0,269;   -0,318
793,979;17425,229;    3,459;   -1,318
794,545;17528,491;    4,459;    2,682
795,111;17070,208;    2,186;    1,318
795,678;17205,016;    0,731;   -1,682
796,244;16876,551;    3,368;    0,136
796,810;17374,995;    1,731;    0,773
797,375;17164,257;    0,549;   -2,136
797,941;17132,246;   -0,541;    0,591
798,507;17244,054;   -0,451;   -0,955
799,073;16825,407;   -0,360;    0,591
799,639;16924,123;   -2,632;    3,136
800,205;16952,931;    0,095;    2,682
800,770;16591,466;    0,640;    1,773
801,336;16654,728;    1,368;   -0,955
801,901;16433,990;    4,549;    3,136
802,467;16941,343;   -0,542;    2,045
803,033;16288,969;   -0,087;    0,864
803,598;16510,504;    1,913;   -1,045
804,163;16580,220;    1,095;   -0,318
804,729;16562,664;   -0,178;    1,136
805,294;16824,563;    0,822;    2,227
805,859;16629,098;    0,731;   -0,409
806,425;16279,360;    1,186;    2,682
806,990;15956,258;    2,186;    4,318
807,555;16340,702;   -1,451;    2,591
808,120;16296,964;    0,822;   -0,409
808,685;16326,317;    0,185;   -2,500
809,250;15903,034;    0,004;   -0,500
809,815;16125,478;    1,913;    0,682
810,380;16589,104;   -0,269;    1,591
810,945;17111,002;   -1,087;    2,045
811,510;16418,355;    2,094;    1,591
812,075;16124,618;   -0,633;   -1,409
812,640;16143,971;    2,003;    1,409
813,204;16200,778;    0,822;   -0,227
813,769;16638,586;    2,094;   -0,045
814,334;16223,030;    0,458;    0,864
814,898;16240,292;    0,367;    0,591
815,463;16043,190;    1,276;   -0,773
816,027;16047,816;   -0,724;   -2,318
816,592;16179,533;    0,640;   -2,045
817,156;15744,795;    2,094;    1,136
817,721;15638,784;    4,276;    2,318
818,285;15634,137;    2,912;    1,500
818,849;16157,854;   -1,451;    1,682
819,414;16050,298;   -0,269;    2,955
819,978;15674,287;   -1,269;    1,773
820,542;16218,549;    2,003;    0,500
821,106;16005,448;   -0,815;    0,682
821,670;16070,437;   -0,815;    2,591
822,234;15848,427;   -0,270;    1,409
822,798;15355,234;    0,003;    0,500
823,362;15364,769;   -0,633;    4,227
823,926;14789,759;    0,094;    1,136
824,490;14955,112;   -0,997;   -0,682
825,054;15305,101;   -0,088;   -1,136
825,618;15054,636;   -1,542;   -1,500
826,181;15026,444;    0,458;   -1,318
826,745;14945,069;    1,367;   -1,045
827,309;15290,604;    1,185;    1,318
827,872;14771,048;    1,367;    0,955
828,436;15624,037;    1,185;   -0,773
828,999;15737,845;   -0,997;    1,227
829,563;14735,380;   -0,179;    1,136
830,126;14587,824;   -0,179;   -0,591
830,690;14639,359;   -1,997;    2,864
831,253;14154,166;   -0,543;    2,227
831,816;14277,156;   -1,906;    0,500
832,380;14242,872;    0,185;    0,864
832,943;14490,135;   -1,361;   -0,500
833,506;13999,033;    2,639;   -1,227
834,069;14719,568;    3,912;   -0,955
834,632;14791,921;    1,730;    1,318
835,195;14691,183;    1,003;    0,955
835,758;14020,536;   -0,997;    1,955
836,321;13858,798;    0,730;   -1,045
836,884;13963,424;   -0,725;   -0,955
837,447;13957,322;   -2,816;    1,773
838,010;14217,221;    0,366;    3,227
838,573;14480,119;   -1,179;    0,773
839,135;14454,927;   -1,361;   -0,955
839,698;13976,007;    1,275;    0,409
840,261;13559,179;    1,003;   -0,227
840,823;13436,077;   -0,543;    0,864
841,386;13685,521;   -0,452;   -2,409
841,948;13617,056;   -1,361;    1,773
842,511;13357,954;    0,912;    1,682
843,073;13510,671;    1,912;    0,227
843,636;13315,751;   -0,361;   -0,227
844,198;13248,377;    0,911;    0,591
844,760;13415,730;    1,093;    1,955
845,322;13107,810;    0,548;    1,136
845,885;13479,618;    0,730;    0,591
846,447;13856,517;   -1,998;    0,227
847,009;13546,142;    1,911;   -0,682
847,571;13775,495;    0,820;   -2,045
848,133;13846,667;   -1,089;   -1,864
848,695;13672,111;   -0,543;    1,409
849,257;13320,555;   -1,089;   -1,682
849,819;13496,908;   -0,998;   -0,409
850,381;13469,988;   -0,725;   -0,864
850,942;13782,977;    1,093;   -0,591
851,504;13781,512;    1,184;    0,227
852,066;13769,411;    1,275;   -1,591
852,628;13399,036;   -0,180;    1,955
853,189;12954,026;    1,638;    2,682
853,751;13106,924;   -0,907;    1,409
854,312;12929,368;   -0,453;   -1,682
854,874;13362,449;   -2,089;   -0,773
855,435;13797,165;   -0,907;   -1,682
855,997;13933,064;   -1,816;   -0,136
856,558;13327,689;    0,366;    1,773
857,119;13441,770;    0,820;    2,864
857,681;13136,668;    0,002;    0,318
858,242;13142,294;    1,911;   -2,136
858,803;13574,102;    0,456;   -0,773
859,364;14109,546;    0,184;   -4,773
859,925;13547,899;   -2,453;   -0,955
860,486;13404,888;   -0,453;   -0,955
861,047;13154,696;   -0,544;   -1,227
861,608;13016,594;   -1,089;   -0,773
862,169;13206,129;    0,638;   -0,045
862,730;12947,755;    0,456;    1,409
863,291;13213,108;   -0,635;   -0,500
863,852;13523,643;   -0,635;    1,955
864,412;13056,450;   -0,271;   -0,864
864,973;11841,258;   -0,089;    0,500
865,534;11757,247;   -1,726;    0,227
866,094;12983,055;    1,820;    0,227
866,655;12733,681;    1,274;    3,318
867,215;12991,397;    0,274;    0,136
867,776;12819,932;    0,547;   -0,136
868,336;12905,831;   -1,453;    0,136
868,897;12530,365;    2,638;    1,682
869,457;12321,991;    1,365;    0,318
870,017;12531,799;    0,547;   -1,227
870,578;12999,425;   -0,817;    0,773
871,138;12620,232;   -2,089;   -0,955
871,698;12230,676;   -0,817;   -1,318
872,258;12131,393;   -0,453;   -2,864
872,818;12513,746;    2,729;    0,045
873,378;12516,462;    0,638;    1,045
873,938;12109,270;    0,547;    0,500
874,498;12361,350;    0,274;   -1,955
875,058;12322,431;    2,183;    1,773
875,618;12187,420;    1,910;   -2,682
876,177;12133,591;    1,274;    0,136
876,737;11775,944;   -0,090;    1,955
877,297;11840,206;    0,183;    1,955
877,856;11853,014;   -0,362;    0,318
878,416;11800,185;    1,183;   -0,136
878,976;11975,720;   -1,817;    0,409
879,535;12137,255;    0,092;    3,136
880,095;11932,972;   -0,544;    0,045
880,654;12002,416;   -1,090;    1,318
881,213;12178,405;    2,456;    1,500
881,773;11824,940;    2,637;    2,682
882,332;12165,202;    3,365;    5,136
882,891;12025,464;    3,092;    2,136
883,451;12383,817;   -1,272;    1,682
884,010;11859,988;   -2,908;   -0,409
884,569;12004,251;   -0,999;   -0,045
885,128;12150,240;    2,819;   -1,864
885,687;12194,320;    4,455;    0,682
886,246;11949,128;    1,455;    2,136
886,805;11681,026;    2,455;    2,045
887,364;11898,743;   -0,999;   -0,500
887,922;12228,187;   -1,181;    0,045
888,481;11770,722;   -1,545;    0,591
889,040;12032,075;    1,183;    2,136
889,599;12576,246;    2,455;    1,409
890,157;12646,236;    1,455;    2,409
890,716;12283,952;   -0,090;    0,227
891,274;12125,487;    0,092;   -1,136
891,833;12512,386;    1,546;    0,864
892,391;12405,739;   -0,454;    0,500
892,950;12477,092;    1,819;   -0,773
893,508;12807,899;    0,455;   -0,409
894,067;12175,616;    0,637;    0,136
894,625;12125,242;   -0,636;   -1,500
895,183;12313,958;   -0,363;   -0,682
895,741;12261,220;    1,728;   -1,773
896,299;12102,664;   -0,545;   -2,409
896,858;12260,290;    0,819;   -1,591
897,416;12413,552;    2,728;   -1,318
897,974;12193,360;    1,819;    0,318
898,532;12381,895;    6,091;    2,682
899,089;12277,521;    2,091;   -0,682
899,647;12310,419;   -1,454;    1,318
900,205;12138,317;    1,182;    1,045
900,763;12257,034;   -0,454;    0,227
901,321;12271,569;    2,364;   -1,409
901,878;11762,286;   -1,000;   -0,773
902,436;11673,639;   -1,363;    1,318
902,994;12130,810;    4,728;    3,682
903,551;11623,618;    0,728;    0,409
904,109;11962,062;    0,182;   -1,409
904,666;11587,869;    2,455;    1,045
905,224;11436,404;    0,182;   -0,409
905,781;11256,484;    0,727;   -0,318
906,338;11332,383;   -1,363;    1,045
906,895;11281,099;    0,637;    2,045
907,453;11212,816;    1,727;    1,136
908,010;11261,806;   -0,909;    0,409
908,567;10996,249;    1,273;    0,591
909,124;10521,966;    0,364;   -1,500
909,681;10602,501;   -2,909;    0,682
910,238;10770,854;    0,636;   -1,318
910,795;11108,025;   -0,273;   -1,136
911,352;10782,843;   -2,909;   -2,682
911,909;10282,753;   -1,364;   -0,864
912,466;10710,025;   -3,182;    1,500
913,022;10276,934;   -1,636;    0,500
913,579;10642,389;   -0,909;    2,045
914,136;10387,843;    1,636;    0,955
914,692;10709,298;    0,091;   -1,227
915,249;10349,753;    1,455;    0,409
915,806;10541,843;    0,182;    1,955
916,362;10403,389;    1,909;    1,864
916,918; 9980,116;    2,000;    1,045
917,475;10019,207;   -1,182;    0,955
918,031;10067,116;    3,364;   -0,045
918,587; 9611,298;   -0,909;   -0,318
919,144; 9865,389;   -2,273;    0,227
919,700;10092,116;    1,727;    0,773
920,256; 9714,207;    0,727;    0,045
920,812; 9435,116;   -0,727;   -1,045
921,368; 9478,571;   -1,727;   -1,045
921,924; 9171,753;    0,182;   -0,136
922,480; 8829,025;   -0,545;    1,227
923,036; 9376,298;    1,273;    1,955
923,592; 9355,843;    0,455;    0,318
924,148; 9304,025;    0,455;   -0,955
924,704; 8719,571;   -1,364;   -0,409
925,259; 9005,025;   -0,273;    0,591
925,815; 8794,207;    1,455;    0,500
926,371; 8385,298;    2,909;    1,409
926,926; 8363,934;    2,091;    0,591
927,482; 8068,662;   -1,364;    0,773
928,037; 7999,571;    0,909;    2,045
928,593; 8289,207;    1,636;    1,045
929,148; 8114,025;   -1,818;   -1,500
929,704; 7729,753;   -1,455;   -0,500
930,259; 7909,662;    0,091;   -0,136
930,814; 7208,207;   -0,818;    1,955
931,369; 6922,207;    1,091;   -0,773
931,925; 6850,298;   -0,091;    0,136
932,480; 6768,116;   -2,818;   -2,591
933,035; 6766,116;    0,545;   -0,318
933,590; 6586,207;    0,364;   -1,773
934,145; 6310,389;   -1,364;   -0,318
934,700; 6586,025;    0,455;   -0,591
935,255; 6446,207;   -0,091;    0,045
935,809; 5955,843;    3,182;    0,864
936,364; 5248,025;   -0,455;   -0,136
936,919; 5291,662;    0,455;   -1,773
937,474; 5212,843;    1,455;    0,136
938,028; 5024,571;   -1,636;    1,136
938,583; 4681,389;    1,818;    4,682
939,138; 4877,843;    2,091;    2,136
939,692; 4432,571;    1,636;   -1,136
940,247; 4239,571;   -0,727;   -1,045
940,801; 3954,934;   -0,636;    0,227
941,355; 3876,025;   -0,364;    2,591
941,910; 3577,843;   -0,273;   -2,136
942,464; 3695,298;   -0,818;   -0,318
943,018; 3625,025;    1,000;   -0,227
943,572; 3534,662;    2,545;   -0,682
944,126; 3126,025;    0,091;   -0,409
944,681; 3028,116;    3,091;    0,227
945,235; 2990,934;    1,000;   -0,591
945,789; 2947,662;    0,364;   -1,864
946,342; 3136,571;    0,455;   -0,591
946,896; 2889,571;   -2,273;    0,955
947,450; 2690,662;    1,545;   -0,227
948,004; 2960,207;    1,727;   -0,045
948,558; 2902,480;    0,273;   -0,864
949,111; 2823,843;   -0,273;   -0,318
949,665; 2938,207;    1,636;   -0,682
950,219; 2851,571;   -0,091;   -1,045
950,772; 2863,662;   -1,909;    1,864
951,326; 2796,571;    0,545;   -0,955
951,879; 2842,843;    0,727;   -2,318
952,433; 2900,298;    0,000;    2,227
952,986; 2716,025;    2,909;    0,682
953,539; 2651,298;   -0,273;    0,591
954,093; 2610,753;    0,545;   -1,318
954,646; 2776,480;    0,909;    1,318
955,199; 2590,207;    0,000;   -0,500
955,752; 2569,571;   -0,455;    1,773
956,305; 2495,207;   -0,091;    2,955
956,858; 2642,389;    0,818;   -0,318
957,411; 2777,207;   -0,545;    2,136
957,964; 2628,207;    1,364;    2,136
958,517; 2590,843;   -1,545;    3,136
959,070; 2467,571;   -0,455;    1,955
959,623; 2633,298;    1,091;    1,500
960,176; 2439,116;    1,727;    2,045
960,728; 2429,662;   -2,727;    0,773
961,281; 2458,934;    0,545;    0,500
961,834; 2461,843;   -0,909;    0,864
962,386; 2381,389;    1,727;    1,045
962,939; 2325,662;    0,364;   -0,318
963,491; 2445,480;    0,455;    1,136
964,043; 2342,025;    1,182;    2,409
964,596; 2474,843;   -1,000;    2,227
965,148; 2344,116;   -1,000;    1,773
965,700; 2251,843;    1,091;   -0,227
966,253; 2398,571;   -0,636;    0,318
966,805; 2286,389;   -2,273;    0,773
967,357; 2289,753;    1,091;   -1,500
967,909; 2319,934;    0,455;   -1,227
968,461; 2331,843;    0,545;    3,136
969,013; 2261,843;   -0,182;   -0,864
969,565; 2359,843;   -0,455;   -1,136
970,117; 2573,207;   -0,364;    1,045
970,669; 2309,116;    0,182;   -0,136
971,220; 2139,389;   -0,455;   -1,500
971,772; 2110,571;   -0,636;   -0,318
972,324; 2244,025;    0,091;   -0,500
972,876; 2160,753;    0,818;   -0,045
973,427; 2327,843;    1,909;   -1,045
973,979; 2306,207;   -0,727;   -2,500
974,530; 2265,753;    1,818;    1,318
975,082; 2254,480;   -0,545;    1,682
975,633; 2194,480;    1,091;    1,682
976,184; 2346,025;    0,909;    0,773
976,736; 2174,934;    0,091;    0,227
977,287; 2052,843;   -0,909;   -0,500
977,838; 2162,116;    0,909;   -0,318
978,389; 2206,843;   -1,000;   -0,500
978,940; 2055,662;    0,545;   -0,409
979,491; 2090,389;    0,091;   -0,500
980,042; 2104,843;    0,182;    3,045
980,593; 2102,753;   -2,545;    0,227
981,144; 2202,480;    2,545;   -0,500
981,695; 2236,298;    1,455;    1,500
982,246; 2165,116;   -0,273;    1,045
982,797; 2214,207;   -1,727;    0,682
983,347; 2356,753;    0,364;    0,591
983,898; 2548,298;    3,091;    0,409
984,449; 2403,753;    2,182;    0,773
984,999; 2240,116;    1,455;   -1,136
985,550; 2092,116;    0,182;   -0,318
986,100; 2056,116;   -0,455;   -0,318
986,651; 2074,662;   -0,818;    0,045
987,201; 2079,207;   -1,000;   -0,591
987,751; 2147,934;    0,818;    2,864
988,302; 2164,662;    2,636;    1,500
988,852; 2166,480;    0,455;   -1,136
989,402; 2240,025;    0,091;    0,682
989,952; 2197,662;   -2,182;    0,864
990,502; 2216,207;   -0,091;    0,682
991,052; 2137,025;   -0,727;    0,045
991,602; 2053,571;   -2,909;    1,318
992,152; 2060,480;    0,455;    0,682
992,702; 2063,480;    1,364;   -0,045
993,252; 1988,571;   -3,000;   -0,500
993,802; 2119,753;   -0,273;    1,318
994,352; 2263,025;   -1,545;    1,136
994,901; 2284,116;   -0,182;    3,227
995,451; 2220,025;   -0,182;    0,318
996,000; 2275,571;    1,636;    0,318
996,550; 2082,934;    2,273;    0,227
997,100; 2089,753;    1,273;   -0,045
997,649; 2340,480;    2,182;    0,955
998,198; 2042,571;    1,727;   -1,500
998,748; 2232,843;    1,091;   -2,318
999,297; 2110,298;   -0,818;   -0,409
999,846; 2218,207;    1,000;   -0,773
1000,395; 2207,116;   -0,818;    0,500
1000,945; 2244,571;    1,818;   -0,773
1001,494; 2304,934;    2,364;    0,682
1002,043; 2277,753;    4,636;    0,864
1002,592; 2085,480;   -1,091;    1,955
1003,141; 2209,934;   -0,455;   -0,682
1003,690; 2150,753;    1,727;    0,500
1004,238; 2143,843;    1,455;   -0,045
1004,787; 1857,753;    1,364;    1,227
1005,336; 2143,207;    0,364;    0,682
1005,885; 2202,389;    1,364;   -2,773
1006,433; 2259,116;    0,545;    0,955
1006,982; 2409,389;    0,455;    1,682
1007,531; 2274,934;   -1,818;   -0,227
1008,079; 2182,298;   -2,273;    0,500
1008,627; 2274,207;   -1,455;    0,409
1009,176; 2089,571;    0,000;   -1,955
1009,724; 2106,662;    1,091;    0,864
1010,273; 2243,480;    1,273;    0,500
1010,821; 2270,116;    0,091;    1,409
1011,369; 2039,843;   -1,364;    1,318
1011,917; 2055,934;   -1,364;   -0,591
1012,465; 2283,389;    1,273;   -1,591
1013,013; 2343,843;    2,091;   -1,682
1013,561; 2304,207;    0,455;   -0,773
1014,109; 2393,207;   -1,909;    1,682
1014,657; 2246,934;    0,364;    0,591
1015,205; 2287,662;    1,636;   -0,955
1015,753; 2277,389;   -0,545;   -1,409
1016,301; 2339,116;   -2,636;    3,045
1016,848; 2365,662;   -1,273;    0,409
1017,396; 2406,116;    2,545;    0,045
1017,944; 2490,753;    1,182;    1,864
1018,491; 2267,662;    0,273;    1,409
1019,039; 2537,389;    0,455;    0,591
1019,586; 2365,116;   -1,364;    1,682
1020,134; 2395,843;    0,455;    1,500
1020,681; 2459,934;    0,182;   -1,136
1021,228; 2414,662;    2,909;   -2,227
1021,776; 2280,116;    1,182;   -1,136
1022,323; 2541,480;    0,455;    0,773
1022,870; 2473,207;   -1,000;   -0,045
1023,417; 2409,571;    2,636;    1,864
1023,964; 2419,571;    2,636;    1,227
1024,511; 2328,389;    1,000;    0,773
1025,058; 2179,298;    3,182;   -0,045
1025,605; 2207,207;   -2,273;    3,136
1026,152; 2462,298;    1,727;   -0,591
1026,699; 2189,025;    1,818;    1,318
1027,245; 2307,116;   -0,091;    0,318
1027,792; 2454,389;   -1,000;    1,409
1028,339; 2450,753;    2,364;   -0,045
1028,885; 2291,207;    1,000;   -0,227
1029,432; 2215,025;   -0,091;    0,227
1029,978; 2312,662;   -1,000;   -1,591
1030,525; 2216,025;    1,000;    0,409
1031,071; 2334,116;   -1,364;    1,136
1031,618; 2575,480;    0,364;    1,682
1032,164; 2343,571;   -0,091;    3,045
1032,710; 2393,480;    1,636;   -1,500
1033,256; 2288,571;   -0,636;   -0,136
1033,803; 2208,480;   -0,545;    1,500
1034,349; 1964,389;   -1,364;    0,136
1034,895; 2124,843;    0,000;   -0,318
1035,441; 2123,025;   -0,818;    0,318
1035,987; 2157,207;   -2,364;   -0,682
1036,533; 2191,753;   -1,455;   -0,955
1037,078; 2414,025;    1,455;    1,682
1037,624; 2207,571;    2,455;   -0,955
1038,170; 2177,843;    0,455;   -0,318
1038,716; 2154,571;    1,636;   -0,409
1039,261; 2038,298;   -2,273;   -0,773
1039,807; 1992,480;   -0,091;    3,409
1040,352; 2079,753;   -1,909;   -0,318
1040,898; 2096,207;   -1,545;   -0,682
1041,443; 1999,480;   -1,455;   -2,591
1041,989; 2168,753;    1,091;    1,591
1042,534; 1964,025;   -0,364;    2,591
1043,079; 1997,025;    2,909;    0,955
1043,625; 1894,480;    1,818;    0,500
1044,170; 1970,116;   -1,364;    1,045
1044,715; 2222,753;    2,455;    0,955
1045,260; 2038,207;    2,182;   -0,955
1045,805; 2000,207;    1,182;   -0,591
1046,350; 1930,116;    1,364;   -0,409
1046,895; 2006,753;    2,909;    1,591
1047,440; 1992,843;    5,364;    0,409
1047,985; 1849,480;    2,818;   -0,955
1048,530; 1778,843;    1,545;    1,227
1049,074; 1854,753;    0,000;    0,318
1049,619; 1803,753;   -1,364;    1,955
1050,164; 1662,116;    0,455;    0,227
1050,708; 1722,116;   -0,455;    0,045
1051,253; 2131,934;    1,273;   -2,227
1051,797; 1814,480;    0,818;   -1,318
1052,342; 1744,571;   -1,182;    1,045
1052,886; 1802,207;    0,364;   -1,409
1053,430; 1632,662;   -1,364;    0,136
1053,975; 1680,025;   -0,818;   -0,318
1054,519; 1677,116;   -0,727;    3,227
1055,063; 1752,934;    0,909;    1,318
1055,607; 1675,753;   -0,182;    0,227
1056,151; 1682,389;    2,909;    1,682
1056,695; 1561,389;    2,273;   -1,136
1057,239; 1614,753;   -1,727;   -0,682
1057,783; 1650,662;    0,818;   -1,500
1058,327; 1658,025;    0,000;    1,409
1058,871; 1888,753;   -0,545;    1,318
1059,415; 1623,843;   -0,818;   -0,045
1059,958; 1910,480;    1,455;    2,591
1060,502; 1601,934;   -1,000;   -0,773
1061,046; 1462,571;    0,364;   -0,955
1061,589; 1419,843;   -3,000;   -1,136
1062,133; 1338,843;   -1,273;    1,864
1062,676; 1334,389;    1,182;    0,864
1063,220; 1350,753;    1,091;    0,500
1063,763; 1377,298;    0,909;    1,136
1064,306; 1452,753;   -0,909;    1,864
1064,849; 1367,480;   -0,909;    0,591
1065,393; 1358,480;    2,000;   -1,500
1065,936; 1445,753;    0,182;   -0,409
1066,479; 1313,025;   -1,455;    1,318
1067,022; 1341,207;   -0,273;   -0,227
1067,565; 1255,207;   -0,091;   -1,318
1068,108; 1262,662;    0,727;   -0,591
1068,651; 1230,207;   -0,636;    1,409
1069,194; 1188,934;   -0,455;   -1,682
1069,736; 1217,298;   -1,273;    0,955
1070,279; 1164,207;   -1,364;   -0,500
1070,822; 1265,934;   -2,000;   -0,318
1071,364; 1388,571;   -0,364;    1,318
1071,907; 1191,753;   -0,727;    3,227
1072,450; 1050,389;    0,000;   -0,045
1072,992; 1080,934;   -0,273;    3,136
1073,535; 1249,298;    2,091;    2,136
1074,077; 1043,025;   -0,727;    2,045
1074,619; 1029,571;   -1,364;    0,591
1075,161; 1076,207;   -1,091;    1,500
1075,704; 1270,753;    1,545;    1,227
1076,246; 1037,298;   -0,182;    0,682
1076,788;  952,753;   -0,364;    1,773
1077,330; 1003,025;    1,273;    2,136
1077,872; 1008,843;    0,909;    0,955
1078,414; 1265,116;    2,727;    0,773
1078,956; 1004,116;    1,273;   -0,227
1079,498; 1268,662;    1,636;    0,318
1080,040;  980,753;    1,909;   -1,318
1080,581;  908,934;    1,636;   -0,318
1081,123;  826,298;    0,091;   -0,773
1081,665;  870,571;   -1,182;   -0,955
1082,206; 1188,843;    1,364;   -0,500
1082,748; 1058,662;    0,727;    2,045
1083,289;  918,480;   -2,000;    1,318
1083,831;  849,753;   -0,545;    0,227
1084,372;  904,389;    0,000;    0,591
1084,913;  908,389;    1,091;    0,864
1085,455;  843,662;   -1,909;   -2,045
1085,996;  840,207;   -2,273;    0,136
1086,537;  877,025;   -0,091;    0,864
1087,078;  891,571;   -0,909;   -2,136
1087,619;  946,571;   -1,273;    0,227
1088,160;  857,571;    0,000;    1,318
1088,701;  843,025;   -1,091;    0,682
1089,242;  794,116;    1,364;   -2,227
1089,783;  904,934;   -0,273;    1,409
1090,324;  866,753;    0,455;    0,682
1090,865;  744,934;    2,727;   -0,409
1091,405;  691,934;    0,727;    2,227
1091,946;  744,207;    0,182;   -0,955
1092,487;  660,843;    0,818;   -1,409
1093,027;  849,389;   -1,364;   -1,500
1093,568;  700,934;   -0,364;    1,227
1094,108;  806,662;    0,273;    1,773
1094,649;  750,753;   -1,182;    0,136
1095,189;  683,480;   -0,636;   -0,682
1095,729;  651,389;   -0,091;    0,955
1096,269;  629,843;    0,727;   -0,955
1096,810;  942,571;   -1,364;    0,500
1097,350;  793,843;    1,364;   -0,773
1097,890;  696,207;    0,364;    1,227
1098,430;  960,389;    2,364;    2,864
1098,970;  839,662;    2,182;    1,682
1099,510;  674,662;    0,545;   -2,318
1100,050;  616,934;    1,000;   -1,591
1100,589;  592,389;   -0,727;   -0,318
1101,129;  720,753;    0,818;   -0,955
1101,669;  876,662;    1,727;    2,136
1102,209;  701,389;   -0,091;    2,227
1102,748;  652,843;    0,000;    0,955
1103,288;  656,662;    1,273;   -1,227
1103,827;  679,298;    3,091;   -2,227
1104,367;  562,662;   -0,091;   -2,409
1104,906;  528,934;    1,364;   -1,136
1105,445;  615,116;    0,636;   -1,136
1105,985;  571,843;   -0,727;    1,500
1106,524;  612,116;   -1,727;   -0,682
1107,063;  587,298;   -2,727;    1,409
1107,602;  551,480;   -1,909;   -1,500
1108,141;  476,934;   -1,909;    1,500
1108,680;  589,116;   -3,455;   -0,591
1109,219;  527,116;   -0,909;   -0,500
1109,758;  523,207;    0,455;    0,682
1110,297;  503,480;    1,000;   -0,682
1110,836;  445,753;   -0,727;    0,955
1111,375;  605,389;   -2,545;    0,409
1111,913;  618,662;   -1,000;    0,773
1112,452;  554,753;   -0,273;    0,136
1112,991;  442,389;    1,091;    1,955
1113,529;  418,480;   -0,818;   -0,045
1114,068;  491,843;   -0,273;    2,955
1114,606;  401,025;   -0,364;   -0,955
1115,144;  559,480;   -1,273;    1,045
1115,683;  488,571;   -0,727;    0,318
1116,221;  537,753;   -0,455;   -0,864
1116,759;  444,480;    0,636;   -0,864
1117,297;  637,753;    0,000;    1,864
1117,836;  450,753;   -2,182;   -1,227
1118,374;  460,389;    0,182;   -0,682
1118,912;  420,298;    0,909;    2,682
1119,450;  409,843;    1,000;    0,864
1119,988;  450,389;    1,545;    2,136
1120,525;  892,298;    5,091;    3,318
1121,063;  609,843;    1,182;    1,864
1121,601;  434,480;   -0,909;   -1,227
1122,139;  376,753;   -0,727;   -2,045
1122,676;  581,116;   -0,727;    2,773
1123,214;  510,843;   -1,182;    4,409
1123,751;  336,116;    1,727;    2,227
1124,289;  457,207;   -0,091;   -0,409
1124,826;  344,934;    1,727;    0,227
1125,364;  266,389;    1,727;   -0,955
1125,901;  447,480;    1,182;    1,227
1126,438;  547,116;    0,818;    0,955
1126,975;  296,753;   -0,727;   -0,773
1127,513;  354,298;    0,273;    2,136
1128,050;  266,843;    1,636;   -0,682
1128,587;  357,389;    2,000;   -0,227
1129,124;  414,298;    0,091;    1,318
1129,661;  290,934;    0,273;    0,227
1130,198;  439,025;    1,636;    0,773
1130,734;  376,116;    0,182;    1,409
1131,271;  251,843;   -0,909;    0,864
1131,808;  417,662;    2,909;    3,045
1132,345;  300,843;    1,545;    0,318
1132,881;  185,480;   -1,545;   -1,864
1133,418;  318,389;    0,727;   -1,136
1133,954;  254,843;    2,455;   -2,682
1134,491;  325,662;    1,364;   -0,773
1135,027;  232,571;    2,364;    0,864
1135,564;  317,753;    0,273;    2,955
1136,100;  302,934;    0,364;    2,136
1136,636;  198,025;   -1,273;   -1,045
1137,172;  291,207;    0,000;   -1,045
1137,708;  226,207;   -1,364;   -1,045
1138,245;  219,389;    1,273;   -1,227
1138,781;  171,298;    1,091;   -3,318
1139,317;  235,753;    1,273;   -1,409
1139,852;  229,571;    3,091;    0,136
1140,388;  341,025;   -1,182;   -0,409
1140,924;  232,934;   -1,091;   -2,227
1141,460;  176,480;   -1,636;    0,136
1141,996;  120,753;   -1,364;    2,682
1142,531;  169,116;    1,364;    3,318
1143,067;  362,662;    1,182;    1,045
1143,602;  422,025;   -0,091;   -0,318
1144,138;  277,389;   -2,636;    1,045
1144,673;  157,389;   -1,455;    1,409
1145,209;  218,934;   -1,909;   -0,318
1145,744;  147,480;   -0,727;    0,864
1146,279;  266,025;    1,818;   -0,136
1146,815;  191,480;    1,545;   -2,682
1147,350;  230,480;   -1,364;    0,045
1147,885;  151,389;   -0,818;   -1,318
1148,420;  150,389;   -2,273;    0,773
1148,955;  134,843;   -1,727;    1,864
1149,490;  152,480;   -0,909;   -1,591
1150,025;  133,753;    0,455;   -1,773
1150,560;  252,753;    1,091;   -0,955
1151,094;  224,934;    1,455;   -0,591
1151,629;  218,025;    1,636;    0,864
1152,164;  151,753;    1,364;    1,318
1152,698;  110,753;   -0,182;   -0,136
1153,233;   70,480;    0,091;   -0,682
1153,767;  113,843;   -3,000;   -2,318
1154,302;  164,843;   -1,455;    1,773
1154,836;  160,025;   -0,455;   -2,136
1155,371;  210,934;   -1,364;    3,682
1155,905;  166,025;   -0,636;    1,682
1156,439;  144,298;   -0,636;   -0,500
1156,973;  169,116;    0,364;    0,318
1157,507;  105,571;   -0,364;    0,682
1158,042;  132,662;   -0,727;    1,045
1158,576;  179,934;    0,182;    1,773
1159,110;  173,843;   -0,818;    2,409
1159,643;  140,298;    0,636;   -0,045
1160,177;   91,843;   -1,545;    1,500

