
Integration time [ms]:   0,040
Averaging Nr. [scans]: 11
Smoothing Nr. [pixels]: 0
Data measured with spectrometer [name]: 7318044SP
Wave   ;Sample   ;Dark     ;Reference
[nm]   ;[counts] ;[counts] ;[counts] 

186,757;   29,994;   31,551;    1,318
187,357;   56,074;   22,551;    0,955
187,958;   35,417;   15,460;   -1,591
188,558;   73,857;    8,915;   -1,227
189,159;   42,280;    6,733;   -4,500
189,759;   12,007;    7,278;   -3,591
190,360;   15,761;    2,824;   -2,136
190,960;   53,584;    2,915;   -4,136
191,560;   74,247;    3,189;   -6,591
192,161;  292,731;    4,372;   -3,500
192,761;  157,106;    4,010;   -3,227
193,361;  107,098;    1,556;   -3,773
193,962;  157,121;    2,010;   -2,682
194,562;   76,341;    1,189;   -3,955
195,162;  108,780;   -2,448;   -2,227
195,762;  260,851;   -3,176;   -0,045
196,362;  212,401;    1,370;   -2,500
196,963;   87,863;    2,006;   -0,864
197,563;  158,926;    1,551;   -0,955
198,163;  104,986;    0,096;   -0,682
198,763;  124,570;    1,733;   -0,500
199,363;  229,116;    3,096;   -0,500
199,963;  195,039;    0,369;    0,409
200,563;  162,408;    2,823;   -1,409
201,163;  143,074;    3,277;   -0,227
201,763;  228,731;    3,732;    0,318
202,363;  156,871;    1,459;    1,500
202,963;  267,741;    1,459;    1,045
203,563;  378,555;    0,277;    0,500
204,162;  227,830;    2,096;   -1,864
204,762;  222,325;    0,550;    0,591
205,362;  187,227;    3,004;    1,955
205,962;  287,642;    3,096;    1,955
206,562;  279,178;    1,823;    2,318
207,161;  246,329;   -0,087;    0,318
207,761;  406,200;    1,277;    2,409
208,361;  276,967;   -0,268;    1,409
208,960;  378,608;    0,459;    1,500
209,560;  445,258;    1,277;    1,591
210,160;  419,843;    0,550;    1,864
210,759;  379,543;    4,186;    1,227
211,359;  379,923;    1,459;    1,045
211,958;  645,776;    1,277;    2,045
212,558;  721,273;    1,732;    1,864
213,157;  562,802;    1,822;    1,500
213,757;  996,698;    3,822;   -0,227
214,356;  683,715;    1,277;   -0,409
214,956; 1025,611;    3,095;    0,409
215,555;  647,041;    2,095;    2,136
216,154;  584,155;   -2,723;   -0,591
216,754;  580,563;    0,277;    0,773
217,353;  704,191;   -0,268;   -1,045
217,952;  558,550;   -0,178;    0,318
218,552;  803,437;    1,368;   -0,773
219,151;  689,283;    0,277;    0,955
219,750;  679,995;    0,004;   -0,227
220,349;  765,393;   -0,451;    1,045
220,948;  867,990;   -1,360;    1,136
221,548;  840,571;    0,913;    1,227
222,147;  945,523;   -0,087;   -0,409
222,746; 1229,239;   -0,451;   -0,955
223,345; 1100,036;    0,731;    0,500
223,944; 1093,619;   -0,451;    0,773
224,543; 1246,364;    1,004;   -1,409
225,142; 1365,203;    0,094;    0,136
225,741; 1257,076;   -0,814;    1,045
226,340; 1263,533;   -0,451;   -0,955
226,939; 1669,477;   -0,996;   -0,136
227,538; 1549,166;   -0,360;   -0,773
228,137; 1729,723;   -0,814;    0,864
228,735; 1815,109;   -0,541;    1,227
229,334; 1580,427;   -0,905;   -0,227
229,933; 1952,064;    0,459;    0,591
230,532; 2053,786;    1,186;   -0,409
231,131; 2118,170;    1,732;    0,318
231,729; 2172,176;   -2,450;   -2,318
232,328; 2219,038;   -0,723;   -1,500
232,927; 2254,099;    1,004;   -0,500
233,525; 2351,912;    3,640;    0,045
234,124; 2544,218;    2,368;   -1,591
234,723; 2540,131;    0,913;   -1,045
235,321; 2659,751;    2,277;    0,136
235,920; 2825,335;    1,186;   -1,227
236,518; 3065,774;    3,459;    0,318
237,117; 3152,434;    0,004;   -0,227
237,715; 3275,018;    0,640;   -0,500
238,314; 3294,083;   -0,087;   -2,318
238,912; 3417,833;   -0,723;   -1,409
239,510; 3402,741;    0,459;   -1,227
240,109; 3574,664;    0,004;    3,773
240,707; 3579,620;   -0,996;    1,227
241,305; 3845,123;    0,550;    0,136
241,904; 4044,305;   -0,178;   -2,045
242,502; 4017,238;   -0,632;   -0,227
243,100; 3925,790;   -0,087;   -0,955
243,698; 4129,282;    0,732;    1,682
244,297; 4252,768;   -0,632;    0,682
244,895; 4129,977;   -0,269;   -2,318
245,493; 4397,368;    2,186;   -0,591
246,091; 4386,525;    1,368;   -1,318
246,689; 4346,002;    1,004;    0,591
247,287; 4479,092;    0,822;   -1,136
247,885; 4707,100;   -1,451;    1,227
248,483; 4775,182;    1,822;   -0,500
249,081; 4883,381;    0,185;    1,591
249,679; 5019,038;   -0,178;    1,682
250,277; 5197,802;   -1,723;    0,864
250,875; 5186,404;   -1,087;   -1,045
251,473; 5192,344;   -1,178;    0,500
252,071; 5378,001;    1,459;    1,045
252,669; 5481,164;   -1,814;    0,318
253,267; 5658,679;   -0,087;    0,773
253,864; 5581,001;   -0,360;    0,682
254,462; 5541,622;    1,640;    1,591
255,060; 5460,733;   -0,269;    1,318
255,658; 5740,983;    0,822;   -0,136
256,255; 6086,933;    0,186;   -2,045
256,853; 5956,100;   -0,269;    1,409
257,451; 5924,867;    0,822;    1,864
258,048; 6248,978;    1,822;    1,864
258,646; 5953,462;    1,731;   -1,045
259,243; 6115,555;   -0,087;    2,227
259,841; 6135,665;   -0,814;    0,318
260,438; 6046,601;   -0,087;    0,864
261,036; 6650,041;   -1,905;    1,409
261,633; 6548,029;   -0,087;    2,227
262,231; 6326,891;    2,731;   -0,045
262,828; 6414,561;   -0,905;    1,136
263,425; 6464,568;    0,913;   -0,591
264,023; 6681,279;    0,186;    0,045
264,620; 6257,143;   -0,360;   -0,318
265,217; 6574,233;   -2,087;    3,136
265,815; 6629,880;   -1,905;    2,136
266,412; 6485,007;    0,731;    0,136
267,009; 6503,798;   -1,451;    0,773
267,606; 6463,553;    0,822;   -0,955
268,203; 6397,884;   -0,269;   -0,591
268,801; 6629,573;    1,731;    0,591
269,398; 6882,784;   -0,360;    2,500
269,995; 6868,288;    0,277;    1,591
270,592; 6683,813;   -0,632;   -0,500
271,189; 6835,897;    0,186;    0,409
271,786; 6948,478;   -0,632;    1,227
272,383; 6850,269;   -1,087;    0,227
272,980; 6974,822;    0,277;    0,318
273,577; 7398,626;    0,004;    1,227
274,174; 6952,560;    0,822;    2,591
274,771; 6957,164;   -0,814;   -0,773
275,367; 7105,194;    2,277;    1,409
275,964; 7090,427;    0,731;   -0,500
276,561; 7168,916;    1,549;   -1,045
277,158; 7305,402;    0,095;   -1,773
277,755; 7465,835;    2,185;    0,409
278,351; 6887,212;   -0,451;   -1,500
278,948; 7176,744;   -0,815;    0,045
279,545; 7164,580;   -1,360;    2,318
280,141; 7771,047;   -1,723;   -2,045
280,738; 7623,573;   -0,451;   -0,136
281,334; 7741,602;   -1,633;    0,591
281,931; 7209,115;   -0,087;   -1,318
282,528; 7310,795;    0,822;   -0,500
283,124; 7942,895;   -1,087;   -0,500
283,721; 7825,841;   -0,451;    1,409
284,317; 7652,139;    0,185;    2,500
284,913; 8157,683;   -1,360;    0,591
285,510; 8337,773;    0,640;   -0,318
286,106; 8333,859;   -2,269;   -0,955
286,703; 7939,152;   -0,360;    1,955
287,299; 8125,756;   -1,451;   -0,591
287,895; 8293,348;    0,822;   -1,045
288,491; 8801,874;    0,186;    2,136
289,088; 8571,924;   -2,360;    2,409
289,684; 8658,074;   -1,723;    1,500
290,280; 8648,568;    0,368;    0,682
290,876; 8726,506;    1,822;    5,500
291,472; 8627,334;    1,276;    2,227
292,068; 8735,723;    1,367;    0,227
292,665; 8443,756;    2,095;    0,773
293,261; 8158,489;    0,276;    2,136
293,857; 8518,977;    2,913;    2,136
294,453; 8440,723;    3,550;    0,955
295,049; 8360,814;   -0,268;    1,955
295,644; 8389,530;    0,095;    0,136
296,240; 8296,068;   -0,905;   -0,136
296,836; 8360,741;   -0,995;    0,318
297,432; 8613,893;    1,096;   -0,500
298,028; 8676,938;    0,732;    0,773
298,624; 8995,401;    1,459;    1,864
299,220; 9181,125;    2,368;    0,591
299,815; 8850,812;    1,005;   -0,409
300,411; 8670,359;    0,914;    1,773
301,007; 8697,642;    1,368;    0,227
301,602; 8692,673;   -0,541;   -2,318
302,198; 8850,592;    0,732;   -0,773
302,794; 9140,805;    1,187;   -0,500
303,389; 9226,193;   -1,177;    1,045
303,985; 9308,921;    0,550;    1,409
304,580; 9291,646;    1,459;    1,591
305,176; 9219,973;   -3,086;    0,136
305,771; 9149,795;   -1,268;   -1,227
306,367; 9122,616;    4,095;    0,136
306,962; 9379,764;    0,641;    1,500
307,558; 9096,537;   -0,450;    0,136
308,153; 8996,405;    1,095;   -1,136
308,748; 9159,607;   -0,814;    1,682
309,344; 9180,911;   -0,632;   -1,318
309,939; 9297,499;   -1,905;   -1,318
310,534; 9492,432;   -0,086;   -1,682
311,130; 9390,812;    0,459;   -2,500
311,725; 9157,361;    1,004;   -0,500
312,320; 9495,879;    2,459;    0,045
312,915; 9362,137;    1,459;   -1,045
313,510; 9439,271;    1,550;   -0,500
314,105; 9839,098;    1,096;    1,409
314,700; 9264,101;   -3,086;   -1,045
315,295; 8958,009;   -0,904;    0,045
315,890; 8568,354;    1,277;    0,864
316,485; 8881,407;   -0,359;   -0,318
317,080; 8991,538;   -3,086;    1,591
317,675; 9445,129;    2,005;   -0,682
318,270; 8981,299;    5,550;    3,318
318,865; 9006,321;    3,278;    3,045
319,460; 8818,650;   -0,904;    0,591
320,055; 9028,590;   -0,541;   -1,227
320,650; 8703,588;   -1,995;   -0,591
321,244; 8798,569;   -0,177;   -1,409
321,839; 9642,216;   -1,541;   -0,227
322,434; 9521,879;   -1,086;   -1,591
323,029; 9196,301;    1,732;    1,591
323,623; 9046,062;    1,550;    0,773
324,218; 8882,730;    2,368;    1,409
324,812; 8799,328;    1,096;    1,591
325,407; 8626,105;   -0,814;    2,045
326,002; 8564,310;    0,277;   -0,409
326,596; 8866,168;    0,914;    1,318
327,191; 8964,331;    0,823;   -1,045
327,785; 8621,168;   -0,813;   -0,227
328,379; 8857,899;    1,368;    0,136
328,974; 8655,468;    0,914;   -3,955
329,568; 8887,783;    0,186;   -2,409
330,163; 8721,097;    2,096;    1,045
330,757; 9016,772;    2,459;    1,591
331,351; 8450,040;    0,459;    0,682
331,945; 8752,464;    0,914;    1,409
332,540; 8407,927;   -1,723;   -0,591
333,134; 8576,341;   -1,086;    0,773
333,728; 8783,995;    0,005;    0,318
334,322; 9076,603;   -1,177;   -0,864
334,916; 8381,436;    0,277;    0,955
335,510; 8730,199;   -0,450;   -0,136
336,105; 8955,876;   -1,086;    1,591
336,699; 8673,769;   -1,086;    0,591
337,293; 8648,094;   -1,723;    0,318
337,887; 8719,174;   -2,723;    1,955
338,481; 8820,154;    0,459;    0,591
339,074; 8994,640;   -0,359;    2,682
339,668; 8834,456;   -1,632;    1,227
340,262; 9122,614;    1,732;    3,227
340,856; 8669,463;    1,822;   -0,682
341,450; 8098,512;    1,004;    1,864
342,044; 8871,276;    1,459;    0,136
342,637; 8696,209;    0,913;   -2,136
343,231; 8556,912;   -2,360;    0,682
343,825; 8513,519;   -1,086;   -0,591
344,419; 8473,875;   -1,995;    0,500
345,012; 8382,008;    2,459;    4,045
345,606; 8377,301;    4,641;    1,591
346,199; 8214,432;   -1,813;   -0,227
346,793; 7820,612;    1,914;    2,045
347,386; 8001,419;   -0,813;   -1,136
347,980; 7999,357;   -0,268;   -0,045
348,573; 7823,509;    2,278;    0,409
349,167; 7596,070;    5,278;    4,773
349,760; 7921,866;    2,914;    2,682
350,354; 7870,574;   -0,813;    1,136
350,947; 7650,128;    1,096;    1,682
351,540; 7376,377;   -0,358;   -1,409
352,134; 7305,434;    1,096;    1,136
352,727; 7392,650;   -0,086;    1,136
353,320; 7235,800;    0,005;    0,591
353,913; 7045,689;   -1,995;    1,864
354,507; 7258,214;    0,823;   -1,227
355,100; 7274,166;    0,460;    0,864
355,693; 6694,355;    2,005;    2,409
356,286; 6698,729;    0,823;    2,773
356,879; 7007,276;   -0,722;    1,227
357,472; 6647,414;   -0,904;    1,500
358,065; 6864,566;   -0,722;    2,500
358,658; 6788,844;   -0,540;    2,318
359,251; 6476,617;   -1,631;   -0,591
359,844; 6098,178;   -1,904;   -1,136
360,437; 6275,826;   -2,995;    0,045
361,030; 6513,685;    1,369;   -0,682
361,623; 6127,765;    2,824;    0,318
362,215; 6192,110;   -0,086;    2,045
362,808; 6055,431;   -2,358;   -1,682
363,401; 6229,012;   -2,449;    0,136
363,994; 6055,190;   -0,631;   -1,500
364,586; 5946,132;    0,824;   -1,500
365,179; 6140,557;   -0,449;   -1,136
365,772; 5679,380;   -1,995;    2,045
366,364; 5949,084;    1,915;   -3,227
366,957; 6130,746;    2,279;   -0,045
367,549; 6111,219;    2,188;   -0,864
368,142; 5829,686;    1,825;   -1,500
368,734; 6020,551;    0,734;   -2,136
369,327; 5966,248;    1,643;   -0,500
369,919; 5909,052;   -1,538;    0,409
370,512; 5752,964;   -1,083;   -0,500
371,104; 5577,406;   -0,901;    1,591
371,696; 5711,886;    1,191;   -0,955
372,289; 5769,451;    0,373;    1,136
372,881; 5916,222;   -2,080;    1,318
373,473; 5824,660;   -2,170;    1,136
374,066; 5681,815;   -0,169;    0,500
374,658; 5557,539;    0,378;    1,136
375,250; 5855,653;    0,653;   -1,409
375,842; 5725,960;    0,473;   -0,045
376,434; 5639,720;   -0,435;   -0,409
377,026; 6079,746;    0,204;   -2,500
377,618; 6009,640;   -0,158;   -0,682
378,210; 5881,887;   -0,338;   -1,955
378,802; 5735,139;    0,754;   -0,591
379,394; 5785,903;    1,846;    0,682
379,986; 6232,157;    1,393;   -0,955
380,578; 6306,941;   -0,153;    0,773
381,170; 5784,527;   -0,972;    0,045
381,762; 5746,740;    0,755;    1,409
382,354; 5869,497;   -0,065;   -1,318
382,945; 5968,938;   -2,976;    0,318
383,537; 6077,818;   -2,705;   -1,955
384,129; 6103,568;   -2,160;   -1,136
384,721; 6223,909;   -0,252;    0,955
385,312; 6151,244;   -0,161;   -0,955
385,904; 6293,345;   -2,706;    1,591
386,496; 5729,740;   -0,979;    1,045
387,087; 5852,283;    1,022;    2,500
387,679; 5889,839;   -1,160;    0,045
388,270; 6014,625;    2,840;    2,045
388,862; 6091,927;    1,295;   -0,318
389,453; 5995,150;   -0,887;    1,045
390,045; 6232,673;   -0,705;   -2,682
390,636; 6124,525;    0,204;   -0,591
391,227; 6015,948;   -0,523;   -0,045
391,819; 6120,569;    0,204;    0,773
392,410; 6174,556;    1,022;    0,045
393,001; 6134,540;   -0,979;   -1,591
393,593; 6381,228;    1,930;   -0,045
394,184; 6247,041;    1,385;   -0,409
394,775; 6139,587;    1,839;    2,136
395,366; 6341,913;    1,385;    0,773
395,957; 6296,352;    0,113;    0,136
396,548; 6566,227;   -0,342;    2,682
397,139; 6834,210;   -2,433;    0,591
397,730; 6593,207;   -1,888;    0,955
398,321; 6643,490;   -1,252;    0,955
398,912; 6644,062;   -0,615;    0,136
399,503; 6742,766;   -3,524;   -1,409
400,094; 6262,795;    0,294;    1,682
400,685; 6153,966;   -0,433;    0,045
401,276; 6206,872;    0,930;   -0,955
401,867; 6482,902;   -0,888;    0,773
402,458; 6518,711;   -2,251;   -2,318
403,048; 6532,019;    1,112;    0,591
403,639; 6182,165;    0,840;    0,864
404,230; 6473,451;    2,476;    0,318
404,821; 6391,675;   -0,615;    0,045
405,411; 6494,660;    1,203;   -2,591
406,002; 6146,451;   -1,252;   -1,136
406,592; 6065,803;    2,294;    0,045
407,183; 6276,817;    0,566;   -1,500
407,774; 6200,084;    3,475;   -0,136
408,364; 6503,535;    0,930;    0,409
408,954; 6164,539;    0,384;    1,227
409,545; 6196,515;    1,021;    1,045
410,135; 5776,254;    1,293;    0,500
410,726; 5932,070;    1,838;    0,318
411,316; 6300,578;    0,111;    0,773
411,906; 6004,837;   -0,253;   -0,409
412,497; 5561,686;   -1,070;   -0,045
413,087; 6085,323;   -1,980;   -0,227
413,677; 6395,457;   -0,707;    3,864
414,267; 6292,160;    0,656;    1,409
414,857; 6243,753;   -2,980;    4,227
415,448; 6494,234;    0,839;    0,500
416,038; 6255,327;    0,020;   -0,591
416,628; 6225,887;   -0,889;    0,409
417,218; 5797,825;    0,565;    3,318
417,808; 6021,327;    0,202;   -0,409
418,398; 6364,692;    0,020;    2,682
418,988; 6380,739;    2,020;    0,591
419,578; 6568,482;   -0,707;    1,409
420,168; 6877,429;   -1,343;   -0,955
420,757; 6515,621;   -1,343;   -1,500
421,347; 6204,157;    0,111;   -0,227
421,937; 6357,702;    2,292;    1,409
422,527; 6344,139;    0,838;   -0,773
423,116; 6205,282;   -0,253;   -0,045
423,706; 6453,242;   -1,889;    0,318
424,296; 6390,014;    1,384;    0,682
424,885; 6790,468;   -0,071;   -3,045
425,475; 7033,770;    1,474;   -2,864
426,065; 6934,110;   -0,980;   -0,318
426,654; 6616,787;   -0,435;   -0,318
427,244; 6774,795;    0,020;    1,409
427,833; 6297,496;    1,383;   -0,500
428,423; 6672,373;   -0,526;    1,136
429,012; 7311,043;   -0,344;   -1,136
429,601; 6883,481;   -1,344;    0,136
430,191; 7058,266;    1,292;    4,318
430,780; 6732,033;   -0,344;   -0,409
431,369; 6694,004;    0,746;   -0,045
431,959; 7228,461;   -1,254;    0,500
432,548; 7038,780;   -1,163;   -0,045
433,137; 7147,876;   -1,254;   -1,318
433,726; 7606,623;    0,292;    0,500
434,315; 7044,308;   -0,526;    2,409
434,905; 7125,984;   -1,254;    1,409
435,494; 7065,999;    0,746;    0,955
436,083; 7435,670;   -0,981;   -0,955
436,672; 7353,948;    0,110;    0,500
437,261; 7012,161;    0,292;   -1,955
437,850; 7129,271;    1,383;    0,682
438,439; 7105,422;    3,291;    1,955
439,027; 6982,062;    3,655;    1,773
439,616; 7267,184;    2,927;    1,227
440,205; 7106,767;    0,200;   -2,136
440,794; 7138,254;    2,109;   -0,045
441,383; 7355,128;   -1,346;   -0,591
441,971; 7217,763;   -2,436;    0,591
442,560; 7081,341;    0,563;   -1,773
443,149; 6842,800;    0,379;   -1,318
443,737; 6979,214;   -0,074;   -2,318
444,326; 7204,183;    0,018;    0,318
444,915; 7249,045;   -1,982;    0,864
445,503; 7578,563;   -2,891;   -0,318
446,092; 6960,112;    0,382;    2,136
446,680; 7447,141;    0,382;    0,318
447,269; 7569,826;   -0,346;   -0,318
447,857; 7362,744;    0,018;   -1,773
448,445; 7448,247;    0,563;    1,318
449,034; 7661,858;   -1,528;   -1,136
449,622; 7755,199;   -1,073;    3,500
450,210; 7178,058;    2,017;    2,227
450,799; 7645,993;    0,290;   -0,591
451,387; 7574,565;    1,381;   -0,591
451,975; 7273,628;    2,654;    0,864
452,563; 7388,552;    3,472;    2,318
453,151; 7376,360;   -0,528;   -1,227
453,739; 7306,695;   -1,347;    0,136
454,328; 7195,962;    2,381;   -2,136
454,916; 6954,174;    2,562;   -0,136
455,504; 7119,986;    1,017;    1,227
456,092; 7289,844;    0,017;   -1,591
456,679; 7232,391;    1,472;    0,682
457,267; 7253,035;    4,017;    1,045
457,855; 7311,381;    1,017;    1,409
458,443; 7056,936;   -0,165;    1,682
459,031; 7228,362;    0,108;    2,409
459,619; 7613,538;   -1,801;    2,864
460,206; 7675,451;    0,835;    2,045
460,794; 7746,434;   -2,983;   -0,227
461,382; 7963,606;   -0,529;   -0,864
461,970; 7591,288;    1,198;    1,864
462,557; 7621,628;   -0,711;   -0,682
463,145; 7800,578;   -3,165;   -1,682
463,732; 7926,864;    2,016;   -1,045
464,320; 7841,897;   -0,075;   -3,045
464,907; 7566,711;    2,743;   -0,773
465,495; 7467,526;    0,743;   -1,227
466,082; 7583,532;   -1,984;   -0,045
466,670; 7461,352;   -2,529;    1,227
467,257; 7870,765;   -1,711;    2,045
467,844; 8026,769;   -0,075;    0,045
468,432; 8044,975;    0,834;    3,500
469,019; 7594,691;    0,925;   -1,773
469,606; 8025,662;    0,470;    3,682
470,193; 7898,290;   -1,439;    0,227
470,780; 7529,914;   -2,075;    0,864
471,368; 7821,172;   -1,257;   -0,773
471,955; 7623,464;    1,379;   -0,682
472,542; 7319,088;    0,652;   -1,136
473,129; 7510,762;   -0,166;    0,136
473,716; 7270,259;    1,470;    0,591
474,303; 7417,668;    0,652;   -0,864
474,890; 7676,915;   -1,439;   -0,500
475,477; 7751,421;   -1,621;    0,409
476,064; 7634,865;    1,106;   -1,591
476,650; 7539,717;    0,288;    0,318
477,237; 7377,626;   -0,258;    0,955
477,824; 7524,243;   -1,076;    0,864
478,411; 7518,059;   -1,894;   -0,318
478,997; 7722,728;    0,560;   -0,773
479,584; 7757,672;    1,196;   -0,409
480,171; 8372,122;   -0,440;   -0,773
480,757; 8073,633;    2,651;    0,773
481,344; 8275,054;    0,469;    0,409
481,931; 7832,951;    1,105;    1,045
482,517; 8725,437;   -1,258;    0,318
483,104; 9212,013;    1,106;    2,864
483,690; 9379,946;   -1,804;    0,045
484,276; 9608,751;   -0,895;    0,227
484,863; 9396,950;    2,469;    1,136
485,449; 9882,440;   -0,077;    0,318
486,035; 9840,374;   -1,986;   -0,136
486,622;10225,297;   -0,895;    0,045
487,208;10181,689;    1,378;    1,500
487,794;10042,379;    0,741;    0,318
488,380;10138,200;    0,105;   -1,409
488,967;10196,694;   -1,168;   -0,409
489,553;10251,892;   -1,895;   -1,409
490,139;10433,279;    1,559;    0,773
490,725; 9919,076;    0,741;   -0,227
491,311; 9589,619;    3,287;    3,045
491,897; 9033,462;   -0,986;    1,500
492,483; 8917,851;    0,105;    1,227
493,069; 8879,804;    3,923;    0,864
493,655; 8798,312;    1,650;    0,682
494,241; 8710,946;    1,377;   -0,955
494,826; 9060,277;    0,287;   -1,045
495,412; 8589,391;    2,559;   -0,682
495,998; 8729,799;   -0,805;   -0,318
496,584; 8806,748;    0,377;    1,045
497,169; 8784,025;    1,014;   -0,682
497,755; 8739,926;    0,650;    1,227
498,341; 9295,684;    0,559;    0,318
498,926; 8895,031;    1,832;    1,955
499,512; 9031,201;    1,286;    2,955
500,097; 9089,778;    0,195;   -0,318
500,683; 9043,409;   -0,350;    2,136
501,268; 9339,205;   -0,169;   -0,955
501,854; 9096,915;   -0,169;    1,227
502,439; 9020,926;   -0,624;   -1,773
503,024; 9211,350;    0,195;    0,500
503,610; 9294,530;   -0,078;   -0,682
504,195; 9259,490;    0,558;    1,955
504,780; 9370,752;    2,922;    1,227
505,366; 9260,432;    3,013;    2,864
505,951; 8999,709;    0,740;    1,045
506,536; 9028,775;   -3,260;   -3,682
507,121; 8985,793;    0,285;   -0,318
507,706; 9427,453;    2,376;    1,045
508,291; 9759,051;    2,649;    1,136
508,876; 9294,392;   -0,988;    2,591
509,461; 8835,860;   -0,169;   -0,773
510,046; 9214,154;    0,194;    0,318
510,631; 9409,715;   -0,351;   -0,773
511,216; 9089,380;    2,467;   -0,500
511,801; 9438,685;   -0,442;    2,591
512,386; 9665,241;    0,740;    0,500
512,971; 9596,980;   -2,988;    0,955
513,555; 9226,018;   -0,897;   -1,500
514,140; 9914,612;   -0,442;   -3,136
514,725; 9889,966;   -0,715;   -1,136
515,309; 9986,554;   -0,533;    0,318
515,894; 9559,008;   -0,624;   -2,227
516,479; 9931,785;   -0,624;   -0,955
517,063; 9732,622;    0,376;    1,227
517,648; 9881,806;    1,012;   -1,136
518,232; 9503,826;   -0,261;   -1,409
518,817; 9852,577;   -0,079;    1,682
519,401;10072,233;    2,194;    0,591
519,985; 9587,412;    1,103;    1,136
520,570; 9489,669;    0,830;   -1,955
521,154; 9756,880;    2,102;    0,591
521,738; 9912,619;   -2,352;    2,409
522,323;10415,650;   -0,170;    1,682
522,907;10120,844;    0,466;   -0,136
523,491; 9903,414;    0,557;    0,955
524,075; 9872,165;    2,284;    0,591
524,659; 9988,385;    1,466;    0,591
525,243; 9564,773;    1,739;    0,409
525,827; 9723,483;    0,648;   -0,045
526,411;10445,294;   -1,989;   -0,136
526,995;10640,866;   -0,352;    1,409
527,579;10287,132;   -0,443;   -1,045
528,163;10552,070;    0,375;   -1,500
528,747;10478,182;    2,466;   -0,773
529,331;10710,134;   -0,080;   -1,409
529,915;10842,503;    1,738;    0,955
530,499;10839,480;   -0,807;    1,227
531,082;10572,540;   -0,534;    1,591
531,666;10093,695;    1,374;    0,773
532,250;10661,205;    1,284;    2,682
532,833;10917,420;    0,920;    2,773
533,417;10797,853;   -1,807;    0,864
534,001;10758,633;    1,647;   -0,318
534,584;11353,460;    0,374;    0,500
535,168;11203,323;    0,465;    1,409
535,751;11232,423;    0,647;    0,045
536,334;10709,404;   -0,898;   -0,409
536,918;11253,221;    0,011;    1,591
537,501;11312,636;   -0,899;    1,318
538,085;11317,843;   -0,444;    1,045
538,668;11428,957;    0,829;    2,409
539,251;11693,981;    1,829;    3,773
539,834;11737,525;    0,101;    0,773
540,418;11707,468;   -1,990;    4,318
541,001;11766,260;   -0,990;    1,773
541,584;11735,734;    2,101;    2,227
542,167;11470,493;    1,374;    2,955
542,750;11530,224;    1,919;   -0,773
543,333;11178,374;    0,555;    2,136
543,916;11861,069;    0,192;    2,500
544,499;12359,732;   -1,354;    0,227
545,082;12341,734;    1,374;    3,591
545,665;12443,390;    1,919;    1,500
546,248;12720,192;    1,010;   -0,318
546,830;12424,917;   -0,445;    1,955
547,413;12794,927;    1,010;   -0,773
547,996;13247,159;    0,555;    0,500
548,579;13002,121;    0,919;    0,955
549,161;12809,031;    1,828;    2,682
549,744;12596,538;   -0,809;    0,409
550,326;13077,220;   -0,809;   -1,136
550,909;12896,249;    2,737;    0,591
551,492;13246,809;   -0,263;    0,227
552,074;13032,184;   -0,173;   -1,318
552,657;13522,957;    2,373;    0,045
553,239;13301,845;   -0,173;   -0,773
553,821;13200,928;   -1,082;    1,045
554,404;12745,593;    1,282;    1,136
554,986;13119,780;    0,464;    1,045
555,568;13595,032;    1,191;   -0,955
556,151;12950,964;    1,191;   -0,227
556,733;13105,891;   -0,264;   -0,864
557,315;13507,723;    0,100;    0,500
557,897;13288,607;    0,554;   -0,500
558,479;13384,313;   -1,991;    1,318
559,061;13534,007;   -0,719;   -0,864
559,643;13862,024;   -0,264;    0,045
560,225;14130,396;    1,645;    2,864
560,807;14109,206;    0,918;    0,318
561,389;13663,594;    0,554;    2,318
561,971;14300,110;    0,463;    2,136
562,553;14139,371;   -1,628;    1,591
563,135;14279,188;   -0,537;    1,136
563,717;13874,279;    3,372;    1,136
564,298;14406,897;    3,645;   -0,045
564,880;14178,914;    0,645;   -1,409
565,462;14319,914;    0,645;    1,318
566,043;15345,492;   -0,446;    2,318
566,625;14874,059;    1,918;    1,227
567,207;14717,021;    1,099;    1,682
567,788;15593,183;   -1,264;    1,500
568,370;16305,238;    1,917;   -0,500
568,951;16104,185;    0,190;    0,227
569,533;16791,926;   -0,628;   -0,500
570,114;17176,223;   -0,446;    0,682
570,695;17577,444;   -0,174;   -1,318
571,277;17862,903;   -0,265;   -1,682
571,858;18518,785;    2,008;   -1,136
572,439;19143,598;    1,554;   -1,045
573,021;19242,438;    2,099;   -2,773
573,602;19684,638;   -1,265;    0,318
574,183;20434,416;   -2,083;    2,227
574,764;20413,369;   -1,629;    0,409
575,345;20848,305;    0,917;   -0,136
575,926;21300,772;   -0,356;    0,136
576,507;21252,296;    1,099;   -0,227
577,088;22208,455;    3,099;    1,682
577,669;22162,645;    0,735;    1,955
578,250;22847,779;    0,644;   -1,045
578,831;23317,816;   -1,356;   -2,227
579,412;23447,668;   -0,810;    0,955
579,993;24225,760;    1,008;    0,227
580,573;24498,761;   -0,629;   -0,955
581,154;23554,191;    0,735;   -0,591
581,735;24376,281;    0,644;    0,773
582,315;23861,008;   -0,629;    2,136
582,896;24112,732;   -0,174;    1,227
583,477;23642,015;    0,189;    1,227
584,057;23822,737;    0,553;    0,955
584,638;24089,669;    2,553;    2,318
585,218;24117,418;   -0,538;    2,682
585,799;24243,256;    0,281;   -0,227
586,379;24211,637;    0,372;    1,591
586,959;23178,916;    0,735;    0,318
587,540;22659,996;   -0,629;    2,227
588,120;22302,849;    1,007;   -0,045
588,700;21561,930;    2,553;    2,136
589,281;21844,806;    0,462;   -0,955
589,861;21739,786;    0,099;   -1,682
590,441;21607,125;    2,371;   -2,682
591,021;20717,873;   -0,265;   -2,591
591,601;20956,452;   -0,537;    0,500
592,181;21032,837;   -0,719;   -0,773
592,761;20392,047;    0,007;    1,409
593,341;20337,733;   -0,901;    0,045
593,921;20377,796;   -0,265;    1,591
594,501;20289,030;   -0,538;    1,318
595,081;20133,045;    0,917;   -0,318
595,661;20459,141;   -1,447;    0,955
596,240;20903,475;   -0,537;    0,136
596,820;20558,104;    0,372;    1,955
597,400;20614,594;    2,008;    0,773
597,980;20836,222;    2,008;    1,045
598,559;20868,479;    2,735;   -0,227
599,139;20635,345;   -0,174;   -1,227
599,718;20516,709;   -0,174;   -0,409
600,298;20785,957;    0,735;    0,682
600,877;21018,337;    2,917;    1,409
601,457;21245,057;    2,281;    1,136
602,036;21190,747;    0,190;    2,045
602,616;21340,608;    0,644;    1,682
603,195;21616,442;   -0,355;    3,500
603,774;21141,377;   -0,901;    2,045
604,354;21029,582;    0,826;   -0,500
604,933;20667,065;    0,463;    1,864
605,512;20768,856;    3,554;    0,591
606,091;20823,121;   -0,537;    3,773
606,671;21561,739;    0,281;    0,773
607,250;20860,239;    1,644;    3,136
607,829;21000,480;    2,372;    3,227
608,408;20851,416;    1,190;    2,591
608,987;20026,107;    1,281;    3,409
609,566;20251,118;   -1,265;   -2,500
610,145;20390,450;   -1,082;    0,682
610,723;20803,202;    4,372;    6,864
611,302;20159,399;   -0,446;    1,682
611,881;19686,584;    5,008;   11,227
612,460;20387,858;    1,645;    3,955
613,039;20811,236;   -0,082;    2,045
613,617;19679,959;    1,736;    4,773
614,196;19814,154;    1,099;    1,227
614,775;20133,803;    1,009;    2,409
615,353;20070,844;    0,736;    0,864
615,932;19889,209;    0,100;    2,409
616,510;20404,098;    0,554;    0,591
617,089;20040,574;    7,100;   17,591
617,667;19833,096;    2,372;    6,136
618,246;19665,841;   -1,537;    1,318
618,824;19809,092;   -3,355;   -0,955
619,402;19461,525;   -2,900;   -1,773
619,981;19879,724;   -0,173;   -1,045
620,559;19740,629;    0,009;    1,682
621,137;19302,563;   -0,718;    1,864
621,715;19288,497;   -1,173;   -0,682
622,293;19242,108;   -0,537;   -0,773
622,871;19722,814;   -0,718;    0,500
623,450;19354,963;    0,373;   -0,864
624,028;19271,038;    0,191;   -0,955
624,606;18927,942;   -1,718;    1,682
625,183;19304,323;   -1,536;   -1,136
625,761;19007,982;    1,009;    1,136
626,339;19256,717;    1,373;    2,591
626,917;19589,996;   -0,172;   -0,045
627,495;19644,588;   -0,354;    1,318
628,073;19142,764;   -0,263;    2,864
628,650;18840,751;    0,100;    2,136
629,228;19240,439;    0,373;    4,409
629,806;18716,797;    2,282;    1,136
630,383;18953,426;    1,464;   -0,318
630,961;18830,365;    2,555;   -0,955
631,539;18570,993;    2,464;    0,227
632,116;18072,638;   11,373;   15,409
632,694;18554,109;    2,555;    6,500
633,271;18742,209;    0,828;    2,682
633,848;18754,351;    1,828;    2,045
634,426;18755,591;   -1,081;    1,773
635,003;17979,917;    1,101;   -0,409
635,580;18247,461;    1,192;    3,682
636,158;18692,086;    3,737;    1,227
636,735;18697,232;    0,555;   -0,500
637,312;18806,308;   -0,809;   -0,682
637,889;18862,771;   -4,354;   -0,682
638,466;18475,595;   -3,990;   -0,409
639,043;18473,901;    2,101;   -1,136
639,620;18721,082;   -2,262;   -0,955
640,197;18957,739;    1,100;    1,682
640,774;19142,729;   -0,172;    1,136
641,351;19491,900;    0,737;    1,136
641,928;19013,435;   -0,627;    1,409
642,505;18728,516;    0,828;   -0,500
643,082;18820,141;   -1,718;    1,227
643,658;17945,949;   -0,718;    1,500
644,235;18593,302;    1,191;    2,500
644,812;18832,383;    1,918;    0,773
645,388;18594,736;   -0,991;    1,409
645,965;18658,362;   -0,809;    1,682
646,542;18740,442;   -1,445;   -0,227
647,118;18756,795;    1,009;   -0,955
647,695;18989,148;   -0,263;    1,136
648,271;18871,229;   -0,536;    0,500
648,848;19132,673;    0,736;    2,227
649,424;18967,208;    0,827;    1,318
650,000;18739,834;   -0,354;   -1,045
650,577;18619,459;   -0,627;   -0,955
651,153;19009,358;   -1,809;    0,955
651,729;19758,529;    1,191;    0,864
652,305;20030,337;    0,645;    2,773
652,881;23647,327;   -0,082;    1,136
653,458;28902,316;    1,100;    0,227
654,034;31502,396;    0,282;    1,591
654,610;32495,022;    0,554;    0,773
655,186;33544,557;    0,645;    3,045
655,762;33139,365;   -0,991;    0,409
656,338;33188,718;    0,100;    0,136
656,913;34068,708;   -0,082;    0,409
657,489;33353,334;    0,827;   -0,318
658,065;33332,778;   -0,173;   -1,591
658,641;34078,040;   -0,900;   -0,864
659,217;33439,120;   -0,991;    0,409
659,792;32901,382;    0,645;   -0,409
660,368;33163,554;   -2,173;   -0,682
660,944;33021,816;   -2,082;    1,227
661,519;29163,533;   -0,628;    0,409
662,095;24591,250;   -1,719;    0,591
662,670;21237,512;    1,281;   -0,136
663,246;20504,229;    1,009;   -0,409
663,821;20048,945;    0,281;    1,682
664,396;19537,208;    0,009;    1,864
664,972;19764,743;    0,009;   -0,500
665,547;20046,005;    1,372;    0,136
666,122;20114,358;   -1,082;    0,318
666,698;20341,620;   -0,173;    0,318
667,273;19689,155;   -0,173;    0,136
667,848;20398,690;    2,372;    1,500
668,423;20249,770;    2,190;    2,318
668,998;20677,033;    2,827;   -0,682
669,573;21086,659;   -3,264;   -1,500
670,148;20985,012;   -1,446;   -0,682
670,723;20701,456;   -1,810;    0,318
671,298;21098,627;    2,372;    1,045
671,873;21171,889;   -0,082;   -0,136
672,448;21133,697;    0,645;    0,136
673,023;21404,414;   -1,992;   -0,227
673,597;21736,767;    0,827;    2,318
674,172;21589,029;   -0,355;    0,318
674,747;21078,655;    0,372;   -1,045
675,321;20826,463;   -0,628;    3,318
675,896;20455,179;    0,645;    1,045
676,471;21344,169;    2,645;    1,591
677,045;21161,613;   -1,264;    0,682
677,620;21132,966;    0,190;    1,136
678,194;21438,592;   -2,628;    1,136
678,769;21155,581;   -1,083;   -0,318
679,343;21345,026;   -0,628;    1,773
679,917;21225,651;   -1,446;    1,955
680,492;21243,368;    0,826;    3,227
681,066;21368,539;    3,372;    0,409
681,640;21418,074;    1,463;   -0,318
682,214;22162,064;    0,735;    0,500
682,788;21747,872;   -1,356;   -0,773
683,363;21650,498;   -1,810;    1,682
683,937;21324,669;   -1,719;   -0,318
684,511;22006,931;    0,463;   -0,591
685,085;21800,193;   -1,356;    0,318
685,659;21493,183;   -2,538;    0,864
686,232;21791,990;   -0,356;   -0,318
686,806;21529,162;   -0,901;    0,409
687,380;22071,333;   -0,174;    0,591
687,954;22237,232;   -1,174;    1,136
688,528;21945,312;   -0,719;    1,955
689,101;22696,756;   -3,992;    1,045
689,675;22266,564;   -0,356;   -0,136
690,249;21646,826;   -0,719;    0,409
690,822;21976,725;    0,280;    0,318
691,396;22129,351;   -0,265;    1,227
691,969;21661,976;    1,280;    0,136
692,543;22061,875;   -0,447;   -1,955
693,116;21749,137;   -0,265;   -1,409
693,690;21642,309;    0,099;    0,500
694,263;22186,480;   -1,083;    2,955
694,836;22175,015;    1,371;    3,591
695,410;20988,277;   -0,265;    1,773
695,983;21377,176;    0,189;    0,591
696,556;21347,802;   -0,447;   -1,045
697,129;21707,609;   -0,356;    1,409
697,703;21381,781;   -1,629;    1,955
698,276;21384,043;    1,462;   -0,773
698,849;21214,760;    1,280;    1,409
699,422;21570,295;   -1,083;    0,591
699,995;21287,375;    0,007;    0,136
700,568;21716,001;   -0,629;    3,045
701,140;21698,354;   -2,811;    1,682
701,713;21495,434;   -0,174;    2,409
702,286;21320,787;   -0,538;    0,864
702,859;21163,595;   -0,902;   -0,591
703,432;20494,766;    0,825;    0,682
704,004;20861,392;    0,462;    0,318
704,577;20719,382;   -0,629;    0,136
705,150;21250,099;    0,189;    2,500
705,722;21064,906;   -0,356;   -3,227
706,295;20877,532;   -0,175;   -0,591
706,867;20776,522;   -0,175;    1,955
707,440;20989,057;   -1,720;   -0,409
708,012;21202,955;    0,462;    0,591
708,584;21112,399;    2,462;    0,227
709,157;21381,571;    1,825;   -0,591
709,729;21122,015;    2,280;    2,045
710,301;21820,459;    0,734;    0,045
710,874;21870,994;   -1,447;   -0,227
711,446;20786,529;    0,371;    0,864
712,018;20697,427;    0,098;    0,500
712,590;20469,326;   -1,993;    1,682
713,162;20922,770;    0,825;    1,318
713,734;21171,032;    1,825;   -2,045
714,306;21079,567;   -1,902;   -0,409
714,878;19912,829;    0,825;    0,864
715,450;20707,546;    0,643;    0,864
716,022;20958,536;    1,552;    1,318
716,593;21102,889;    0,189;    0,591
717,165;21031,424;   -3,175;   -1,227
717,737;20826,231;    0,280;    0,409
718,309;20537,766;    0,280;   -0,045
718,880;20501,574;   -0,539;   -1,409
719,452;20679,109;   -0,175;   -1,591
720,024;20349,189;    0,734;   -0,591
720,595;20808,906;   -2,902;    0,955
721,167;20485,805;    0,370;   -2,045
721,738;19993,158;   -0,812;   -1,045
722,309;20046,693;   -0,993;   -1,227
722,881;19774,319;   -1,357;    0,773
723,452;20382,126;   -2,630;    2,864
724,023;20568,389;   -0,721;    2,682
724,595;20386,014;    0,007;    0,682
725,166;20151,277;    0,007;   -0,409
725,737;19791,993;    1,734;    0,227
726,308;19881,528;   -0,266;    0,318
726,879;20284,154;   -1,630;    1,227
727,450;20128,326;    0,552;   -0,045
728,021;20060,861;    3,097;    0,682
728,592;19913,668;    0,734;    0,500
729,163;20259,203;    0,643;   -0,136
729,734;20215,193;    0,188;   -0,227
730,305;20517,546;    1,734;    0,136
730,876;20842,081;    0,188;    2,955
731,447;20622,707;    2,188;    2,682
732,017;20708,969;    1,097;    1,864
732,588;20230,595;    0,734;    1,227
733,159;20415,857;    0,643;   -1,045
733,729;20214,119;    0,006;    0,409
734,300;19550,654;    0,915;    0,864
734,870;19986,371;    3,461;    0,591
735,441;20487,270;    0,370;   -0,591
736,011;20267,895;    0,643;   -1,591
736,582;20204,976;   -0,812;    0,045
737,152;19709,965;   -1,721;   -2,045
737,722;20128,500;   -0,267;   -0,682
738,293;19843,035;   -1,358;    1,318
738,863;19785,570;    2,461;    2,318
739,433;19678,742;    5,279;    0,318
740,003;20181,640;   -0,994;   -0,682
740,573;19682,721;    2,097;   -1,591
741,143;19679,710;   -1,085;    0,318
741,713;20330,790;    1,188;   -0,500
742,283;20084,416;    0,915;    1,591
742,853;19873,588;    1,915;    1,591
743,423;19429,577;    1,733;    0,045
743,993;19530,385;   -0,358;    1,500
744,563;18999,283;    0,097;   -0,864
745,133;18961,364;   -0,812;   -0,864
745,702;19556,353;   -0,267;    1,773
746,272;18867,797;   -0,176;    0,591
746,842;18712,878;   -1,358;   -0,591
747,411;19103,231;   -0,267;   -0,318
747,981;19215,857;    0,097;    0,500
748,551;19268,301;    2,278;   -1,045
749,120;19143,745;    0,642;   -0,227
749,690;19438,280;   -0,631;    2,409
750,259;19753,269;    1,369;    2,955
750,828;19647,713;    1,551;   -1,955
751,398;19864,703;    1,278;   -0,045
751,967;19511,692;    2,187;    0,409
752,536;19668,409;   -0,813;   -0,227
753,105;20057,944;    0,096;    0,227
753,675;19805,934;    0,096;    1,773
754,244;19753,105;   -0,904;    3,591
754,813;19798,276;    0,551;    1,227
755,382;19405,448;    0,460;    0,955
755,951;19872,073;    1,551;    3,682
756,520;19486,881;   -0,085;    1,864
757,089;19990,143;    0,278;    0,500
757,658;20112,315;    1,733;    1,227
758,227;20061,304;    1,096;    0,318
758,795;20330,476;    1,187;    1,136
759,364;20605,647;   -0,086;   -0,591
759,933;19711,364;   -1,176;   -0,045
760,501;19220,262;    0,733;   -1,318
761,070;19652,434;   -2,813;   -1,409
761,639;20338,878;   -1,904;    1,318
762,207;19777,231;    1,551;   -0,955
762,776;19695,948;    0,369;    0,864
763,344;19639,392;   -0,995;    0,591
763,913;18746,108;   -0,722;    1,409
764,481;19487,371;    1,005;   -0,136
765,049;19315,996;   -1,358;    1,409
765,618;19185,259;   -0,086;    0,318
766,186;19307,248;    0,278;    0,136
766,754;19517,147;    0,005;    1,864
767,322;18653,227;   -1,995;    0,409
767,890;18670,308;   -0,722;   -1,773
768,459;19080,661;   -2,177;   -0,318
769,027;19208,105;    1,641;    3,409
769,595;18281,003;    3,278;    2,591
770,163;18652,902;    3,823;    2,955
770,730;18483,619;    0,732;   -0,136
771,298;18302,699;    0,187;   -1,409
771,866;18431,870;   -1,541;    4,955
772,434;18709,042;   -0,631;   -1,864
773,002;18889,486;    0,005;    0,682
773,569;18600,021;    0,914;    1,682
774,137;18423,283;   -0,268;   -0,045
774,705;19124,909;    0,278;   -0,136
775,272;18668,626;    0,641;    0,682
775,840;18560,706;   -0,177;    2,682
776,407;18099,968;    0,277;    1,955
776,975;17725,049;   -0,632;    0,318
777,542;18613,856;   -1,086;   -0,045
778,110;18480,937;   -1,268;   -0,045
778,677;18155,017;   -2,359;   -0,864
779,244;17944,189;    2,186;    1,045
779,812;18056,724;    1,823;    0,864
780,379;17980,077;    0,005;    1,136
780,946;18188,157;    1,005;   -0,773
781,513;18446,510;   -1,450;    0,318
782,080;17909,227;   -0,086;    2,864
782,647;18537,217;   -0,268;    3,045
783,214;18220,479;   -0,177;    3,864
783,781;17893,559;   -0,723;   -0,682
784,348;17789,821;   -0,632;    1,500
784,915;18138,175;   -3,177;    0,318
785,482;17958,346;    1,368;    2,591
786,049;18367,790;    0,186;   -0,591
786,615;18484,688;    0,277;   -0,955
787,182;18223,133;    0,186;   -0,682
787,749;17965,486;   -2,814;    1,409
788,315;17358,566;   -1,632;   -0,409
788,882;17626,465;    1,550;   -1,227
789,448;18274,181;    1,732;   -0,955
790,015;18274,535;    1,095;    3,227
790,581;17923,070;    1,459;    0,227
791,148;17813,968;    0,641;    1,045
791,714;17987,776;   -0,541;    3,136
792,280;17741,402;    0,186;    1,591
792,847;17401,846;    0,550;    2,500
793,413;17846,926;   -0,269;   -0,318
793,979;17485,643;    3,459;   -1,318
794,545;17594,996;    4,459;    2,682
795,111;17087,986;    2,186;    1,318
795,678;17169,793;    0,731;   -1,682
796,244;16868,874;    3,368;    0,136
796,810;17397,681;    1,731;    0,773
797,375;17157,216;    0,549;   -2,136
797,941;17123,751;   -0,541;    0,591
798,507;17230,559;   -0,451;   -0,955
799,073;16842,367;   -0,360;    0,591
799,639;16924,811;   -2,632;    3,136
800,205;16979,982;    0,095;    2,682
800,770;16557,972;    0,640;    1,773
801,336;16653,234;    1,368;   -0,955
801,901;16452,314;    4,549;    3,136
802,467;16966,576;   -0,542;    2,045
803,033;16301,748;   -0,087;    0,864
803,598;16496,646;    1,913;   -1,045
804,163;16542,909;    1,095;   -0,318
804,729;16561,080;   -0,178;    1,136
805,294;16819,433;    0,822;    2,227
805,859;16711,877;    0,731;   -0,409
806,425;16299,776;    1,186;    2,682
806,990;15955,765;    2,186;    4,318
807,555;16342,482;   -1,451;    2,591
808,120;16302,199;    0,822;   -0,409
808,685;16347,643;    0,185;   -2,500
809,250;15939,178;    0,004;   -0,500
809,815;16148,713;    1,913;    0,682
810,380;16624,793;   -0,269;    1,591
810,945;17116,873;   -1,087;    2,045
811,510;16390,681;    2,094;    1,591
812,075;16129,398;   -0,633;   -1,409
812,640;16145,660;    2,003;    1,409
813,204;16212,468;    0,822;   -0,227
813,769;16680,185;    2,094;   -0,045
814,334;16184,901;    0,458;    0,864
814,898;16248,255;    0,367;    0,591
815,463;16058,062;    1,276;   -0,773
816,027;16011,143;   -0,724;   -2,318
816,592;16129,496;    0,640;   -2,045
817,156;15725,758;    2,094;    1,136
817,721;15690,929;    4,276;    2,318
818,285;15667,464;    2,912;    1,500
818,849;16195,727;   -1,451;    1,682
819,414;16087,171;   -0,269;    2,955
819,978;15683,160;   -1,269;    1,773
820,542;16233,968;    2,003;    0,500
821,106;15997,230;   -0,815;    0,682
821,670;16088,765;   -0,815;    2,591
822,234;15820,209;   -0,270;    1,409
822,798;15326,653;    0,003;    0,500
823,362;15374,915;   -0,633;    4,227
823,926;14787,359;    0,094;    1,136
824,490;14948,803;   -0,997;   -0,682
825,054;15336,975;   -0,088;   -1,136
825,618;15055,873;   -1,542;   -1,500
826,181;15015,499;    0,458;   -1,318
826,745;14967,307;    1,367;   -1,045
827,309;15283,660;    1,185;    1,318
827,872;14757,377;    1,367;    0,955
828,436;15657,366;    1,185;   -0,773
828,999;15776,174;   -0,997;    1,227
829,563;14707,345;   -0,179;    1,136
830,126;14563,062;   -0,179;   -0,591
830,690;14601,961;   -1,997;    2,864
831,253;14144,859;   -0,543;    2,227
831,816;14293,303;   -1,906;    0,500
832,380;14230,202;    0,185;    0,864
832,943;14492,191;   -1,361;   -0,500
833,506;14014,090;    2,639;   -1,227
834,069;14728,807;    3,912;   -0,955
834,632;14799,524;    1,730;    1,318
835,195;14721,240;    1,003;    0,955
835,758;14028,139;   -0,997;    1,955
836,321;13910,401;    0,730;   -1,045
836,884;13993,754;   -0,725;   -0,955
837,447;14020,653;   -2,816;    1,773
838,010;14233,188;    0,366;    3,227
838,573;14536,450;   -1,179;    0,773
839,135;14494,530;   -1,361;   -0,955
839,698;13989,884;    1,275;    0,409
840,261;13583,509;    1,003;   -0,227
840,823;13469,499;   -0,543;    0,864
841,386;13704,670;   -0,452;   -2,409
841,948;13676,933;   -1,361;    1,773
842,511;13381,467;    0,912;    1,682
843,073;13503,639;    1,912;    0,227
843,636;13343,719;   -0,361;   -0,227
844,198;13299,436;    0,911;    0,591
844,760;13400,698;    1,093;    1,955
845,322;13067,415;    0,548;    1,136
845,885;13469,041;    0,730;    0,591
846,447;13885,394;   -1,998;    0,227
847,009;13543,111;    1,911;   -0,682
847,571;13758,373;    0,820;   -2,045
848,133;13839,181;   -1,089;   -1,864
848,695;13673,716;   -0,543;    1,409
849,257;13330,432;   -1,089;   -1,682
849,819;13488,604;   -0,998;   -0,409
850,381;13495,321;   -0,725;   -0,864
850,942;13797,765;    1,093;   -0,591
851,504;13717,118;    1,184;    0,227
852,066;13769,107;    1,275;   -1,591
852,628;13415,460;   -0,180;    1,955
853,189;12938,450;    1,638;    2,682
853,751;13073,803;   -0,907;    1,409
854,312;12936,429;   -0,453;   -1,682
854,874;13350,873;   -2,089;   -0,773
855,435;13792,499;   -0,907;   -1,682
855,997;13964,943;   -1,816;   -0,136
856,558;13343,569;    0,366;    1,773
857,119;13450,013;    0,820;    2,864
857,681;13136,184;    0,002;    0,318
858,242;13181,355;    1,911;   -2,136
858,803;13583,163;    0,456;   -0,773
859,364;14131,062;    0,184;   -4,773
859,925;13583,869;   -2,453;   -0,955
860,486;13456,313;   -0,453;   -0,955
861,047;13217,485;   -0,544;   -1,227
861,608;13050,474;   -1,089;   -0,773
862,169;13180,555;    0,638;   -0,045
862,730;12941,181;    0,456;    1,409
863,291;13197,170;   -0,635;   -0,500
863,852;13527,887;   -0,635;    1,955
864,412;13048,331;   -0,271;   -0,864
864,973;11837,775;   -0,089;    0,500
865,534;11726,310;   -1,726;    0,227
866,094;13004,390;    1,820;    0,227
866,655;12725,289;    1,274;    3,318
867,215;12981,369;    0,274;    0,136
867,776;12833,268;    0,547;   -0,136
868,336;12901,894;   -1,453;    0,136
868,897;12535,610;    2,638;    1,682
869,457;12307,873;    1,365;    0,318
870,017;12545,590;    0,547;   -1,227
870,578;12986,579;   -0,817;    0,773
871,138;12651,659;   -2,089;   -0,955
871,698;12216,740;   -0,817;   -1,318
872,258;12148,457;   -0,453;   -2,864
872,818;12530,992;    2,729;    0,045
873,378;12499,436;    0,638;    1,045
873,938;12080,607;    0,547;    0,500
874,498;12347,506;    0,274;   -1,955
875,058;12311,950;    2,183;    1,773
875,618;12183,030;    1,910;   -2,682
876,177;12089,201;    1,274;    0,136
876,737;11767,918;   -0,090;    1,955
877,297;11882,635;    0,183;    1,955
877,856;11919,079;   -0,362;    0,318
878,416;11816,887;    1,183;   -0,136
878,976;11994,331;   -1,817;    0,409
879,535;12140,502;    0,092;    3,136
880,095;11969,855;   -0,544;    0,045
880,654;12058,026;   -1,090;    1,318
881,213;12147,107;    2,456;    1,500
881,773;11835,733;    2,637;    2,682
882,332;12183,086;    3,365;    5,136
882,891;11993,439;    3,092;    2,136
883,451;12377,974;   -1,272;    1,682
884,010;11870,236;   -2,908;   -0,409
884,569;11989,498;   -0,999;   -0,045
885,128;12085,124;    2,819;   -1,864
885,687;12188,386;    4,455;    0,682
886,246;11953,740;    1,455;    2,136
886,805;11718,547;    2,455;    2,045
887,364;11875,719;   -0,999;   -0,500
887,922;12225,345;   -1,181;    0,045
888,481;11759,334;   -1,545;    0,591
889,040;12054,233;    1,183;    2,136
889,599;12574,768;    2,455;    1,409
890,157;12658,212;    1,455;    2,409
890,716;12300,019;   -0,090;    0,227
891,274;12129,372;    0,092;   -1,136
891,833;12507,180;    1,546;    0,864
892,391;12410,715;   -0,454;    0,500
892,950;12449,432;    1,819;   -0,773
893,508;12828,058;    0,455;   -0,409
894,067;12202,229;    0,637;    0,136
894,625;12134,219;   -0,636;   -1,500
895,183;12313,481;   -0,363;   -0,682
895,741;12268,016;    1,728;   -1,773
896,299;12133,460;   -0,545;   -2,409
896,858;12291,177;    0,819;   -1,591
897,416;12409,166;    2,728;   -1,318
897,974;12176,792;    1,819;    0,318
898,532;12386,781;    6,091;    2,682
899,089;12269,680;    2,091;   -0,682
899,647;12330,033;   -1,454;    1,318
900,205;12147,204;    1,182;    1,045
900,763;12263,376;   -0,454;    0,227
901,321;12297,820;    2,364;   -1,409
901,878;11749,355;   -1,000;   -0,773
902,436;11664,617;   -1,363;    1,318
902,994;12105,697;    4,728;    3,682
903,551;11611,687;    0,728;    0,409
904,109;11948,222;    0,182;   -1,409
904,666;11626,030;    2,455;    1,045
905,224;11472,110;    0,182;   -0,409
905,781;11295,554;    0,727;   -0,318
906,338;11285,180;   -1,363;    1,045
906,895;11273,169;    0,637;    2,045
907,453;11231,341;    1,727;    1,136
908,010;11223,512;   -0,909;    0,409
908,567;10947,320;    1,273;    0,591
909,124;10513,582;    0,364;   -1,500
909,681;10582,208;   -2,909;    0,682
910,238;10788,106;    0,636;   -1,318
910,795;11095,732;   -0,273;   -1,136
911,352;10776,278;   -2,909;   -2,682
911,909;10288,369;   -1,364;   -0,864
912,466;10743,823;   -3,182;    1,500
913,022;10293,278;   -1,636;    0,500
913,579;10654,732;   -0,909;    2,045
914,136;10386,551;    1,636;    0,955
914,692;10686,187;    0,091;   -1,227
915,249;10339,914;    1,455;    0,409
915,806;10525,187;    0,182;    1,955
916,362;10395,005;    1,909;    1,864
916,918; 9985,732;    2,000;    1,045
917,475; 9992,641;   -1,182;    0,955
918,031;10037,641;    3,364;   -0,045
918,587; 9619,641;   -0,909;   -0,318
919,144; 9835,096;   -2,273;    0,227
919,700;10082,823;    1,727;    0,773
920,256; 9706,551;    0,727;    0,045
920,812; 9445,278;   -0,727;   -1,045
921,368; 9500,096;   -1,727;   -1,045
921,924; 9186,460;    0,182;   -0,136
922,480; 8839,641;   -0,545;    1,227
923,036; 9405,732;    1,273;    1,955
923,592; 9343,641;    0,455;    0,318
924,148; 9289,096;    0,455;   -0,955
924,704; 8765,914;   -1,364;   -0,409
925,259; 8999,641;   -0,273;    0,591
925,815; 8811,914;    1,455;    0,500
926,371; 8378,187;    2,909;    1,409
926,926; 8350,460;    2,091;    0,591
927,482; 8045,732;   -1,364;    0,773
928,037; 7961,005;    0,909;    2,045
928,593; 8264,187;    1,636;    1,045
929,148; 8131,460;   -1,818;   -1,500
929,704; 7726,187;   -1,455;   -0,500
930,259; 7908,096;    0,091;   -0,136
930,814; 7192,005;   -0,818;    1,955
931,369; 6937,005;    1,091;   -0,773
931,925; 6858,187;   -0,091;    0,136
932,480; 6781,096;   -2,818;   -2,591
933,035; 6787,005;    0,545;   -0,318
933,590; 6616,732;    0,364;   -1,773
934,145; 6299,096;   -1,364;   -0,318
934,700; 6592,096;    0,455;   -0,591
935,255; 6442,823;   -0,091;    0,045
935,809; 5942,187;    3,182;    0,864
936,364; 5235,369;   -0,455;   -0,136
936,919; 5289,005;    0,455;   -1,773
937,474; 5214,278;    1,455;    0,136
938,028; 5025,823;   -1,636;    1,136
938,583; 4694,460;    1,818;    4,682
939,138; 4880,187;    2,091;    2,136
939,692; 4442,914;    1,636;   -1,136
940,247; 4240,823;   -0,727;   -1,045
940,801; 3958,732;   -0,636;    0,227
941,355; 3887,823;   -0,364;    2,591
941,910; 3599,369;   -0,273;   -2,136
942,464; 3705,005;   -0,818;   -0,318
943,018; 3614,096;    1,000;   -0,227
943,572; 3549,641;    2,545;   -0,682
944,126; 3126,460;    0,091;   -0,409
944,681; 3035,187;    3,091;    0,227
945,235; 3013,551;    1,000;   -0,591
945,789; 2947,823;    0,364;   -1,864
946,342; 3156,732;    0,455;   -0,591
946,896; 2907,187;   -2,273;    0,955
947,450; 2684,278;    1,545;   -0,227
948,004; 2947,187;    1,727;   -0,045
948,558; 2907,369;    0,273;   -0,864
949,111; 2844,096;   -0,273;   -0,318
949,665; 2963,732;    1,636;   -0,682
950,219; 2830,641;   -0,091;   -1,045
950,772; 2839,823;   -1,909;    1,864
951,326; 2797,278;    0,545;   -0,955
951,879; 2824,551;    0,727;   -2,318
952,433; 2899,369;    0,000;    2,227
952,986; 2723,278;    2,909;    0,682
953,539; 2663,732;   -0,273;    0,591
954,093; 2612,732;    0,545;   -1,318
954,646; 2762,005;    0,909;    1,318
955,199; 2590,005;    0,000;   -0,500
955,752; 2579,369;   -0,455;    1,773
956,305; 2505,914;   -0,091;    2,955
956,858; 2638,096;    0,818;   -0,318
957,411; 2781,096;   -0,545;    2,136
957,964; 2625,551;    1,364;    2,136
958,517; 2604,005;   -1,545;    3,136
959,070; 2473,823;   -0,455;    1,955
959,623; 2646,369;    1,091;    1,500
960,176; 2428,096;    1,727;    2,045
960,728; 2415,732;   -2,727;    0,773
961,281; 2467,460;    0,545;    0,500
961,834; 2459,460;   -0,909;    0,864
962,386; 2393,096;    1,727;    1,045
962,939; 2305,096;    0,364;   -0,318
963,491; 2431,369;    0,455;    1,136
964,043; 2335,914;    1,182;    2,409
964,596; 2483,551;   -1,000;    2,227
965,148; 2329,278;   -1,000;    1,773
965,700; 2251,914;    1,091;   -0,227
966,253; 2404,823;   -0,636;    0,318
966,805; 2290,460;   -2,273;    0,773
967,357; 2292,732;    1,091;   -1,500
967,909; 2308,460;    0,455;   -1,227
968,461; 2341,096;    0,545;    3,136
969,013; 2292,914;   -0,182;   -0,864
969,565; 2382,369;   -0,455;   -1,136
970,117; 2579,641;   -0,364;    1,045
970,669; 2312,369;    0,182;   -0,136
971,220; 2138,823;   -0,455;   -1,500
971,772; 2112,823;   -0,636;   -0,318
972,324; 2240,551;    0,091;   -0,500
972,876; 2177,187;    0,818;   -0,045
973,427; 2335,369;    1,909;   -1,045
973,979; 2305,823;   -0,727;   -2,500
974,530; 2257,187;    1,818;    1,318
975,082; 2266,823;   -0,545;    1,682
975,633; 2185,096;    1,091;    1,682
976,184; 2353,641;    0,909;    0,773
976,736; 2190,096;    0,091;    0,227
977,287; 2042,641;   -0,909;   -0,500
977,838; 2175,732;    0,909;   -0,318
978,389; 2205,551;   -1,000;   -0,500
978,940; 2059,005;    0,545;   -0,409
979,491; 2068,823;    0,091;   -0,500
980,042; 2088,914;    0,182;    3,045
980,593; 2099,187;   -2,545;    0,227
981,144; 2199,914;    2,545;   -0,500
981,695; 2225,914;    1,455;    1,500
982,246; 2172,914;   -0,273;    1,045
982,797; 2213,732;   -1,727;    0,682
983,347; 2347,460;    0,364;    0,591
983,898; 2551,369;    3,091;    0,409
984,449; 2397,823;    2,182;    0,773
984,999; 2236,460;    1,455;   -1,136
985,550; 2085,460;    0,182;   -0,318
986,100; 2056,551;   -0,455;   -0,318
986,651; 2080,460;   -0,818;    0,045
987,201; 2084,096;   -1,000;   -0,591
987,751; 2144,551;    0,818;    2,864
988,302; 2151,187;    2,636;    1,500
988,852; 2150,187;    0,455;   -1,136
989,402; 2250,278;    0,091;    0,682
989,952; 2195,369;   -2,182;    0,864
990,502; 2208,096;   -0,091;    0,682
991,052; 2128,551;   -0,727;    0,045
991,602; 2046,278;   -2,909;    1,318
992,152; 2081,641;    0,455;    0,682
992,702; 2069,096;    1,364;   -0,045
993,252; 2001,187;   -3,000;   -0,500
993,802; 2113,187;   -0,273;    1,318
994,352; 2271,369;   -1,545;    1,136
994,901; 2286,823;   -0,182;    3,227
995,451; 2229,823;   -0,182;    0,318
996,000; 2305,187;    1,636;    0,318
996,550; 2099,460;    2,273;    0,227
997,100; 2086,096;    1,273;   -0,045
997,649; 2339,369;    2,182;    0,955
998,198; 2035,278;    1,727;   -1,500
998,748; 2237,732;    1,091;   -2,318
999,297; 2129,278;   -0,818;   -0,409
999,846; 2221,187;    1,000;   -0,773
1000,395; 2218,187;   -0,818;    0,500
1000,945; 2262,914;    1,818;   -0,773
1001,494; 2311,460;    2,364;    0,682
1002,043; 2289,460;    4,636;    0,864
1002,592; 2093,096;   -1,091;    1,955
1003,141; 2213,732;   -0,455;   -0,682
1003,690; 2149,187;    1,727;    0,500
1004,238; 2144,551;    1,455;   -0,045
1004,787; 1852,551;    1,364;    1,227
1005,336; 2129,005;    0,364;    0,682
1005,885; 2186,278;    1,364;   -2,773
1006,433; 2259,187;    0,545;    0,955
1006,982; 2419,641;    0,455;    1,682
1007,531; 2265,641;   -1,818;   -0,227
1008,079; 2193,005;   -2,273;    0,500
1008,627; 2288,369;   -1,455;    0,409
1009,176; 2095,278;    0,000;   -1,955
1009,724; 2113,187;    1,091;    0,864
1010,273; 2244,641;    1,273;    0,500
1010,821; 2271,641;    0,091;    1,409
1011,369; 2039,278;   -1,364;    1,318
1011,917; 2049,096;   -1,364;   -0,591
1012,465; 2283,551;    1,273;   -1,591
1013,013; 2348,369;    2,091;   -1,682
1013,561; 2303,096;    0,455;   -0,773
1014,109; 2385,096;   -1,909;    1,682
1014,657; 2256,096;    0,364;    0,591
1015,205; 2303,914;    1,636;   -0,955
1015,753; 2285,641;   -0,545;   -1,409
1016,301; 2344,096;   -2,636;    3,045
1016,848; 2368,460;   -1,273;    0,409
1017,396; 2409,914;    2,545;    0,045
1017,944; 2502,460;    1,182;    1,864
1018,491; 2284,278;    0,273;    1,409
1019,039; 2542,823;    0,455;    0,591
1019,586; 2343,369;   -1,364;    1,682
1020,134; 2391,460;    0,455;    1,500
1020,681; 2461,187;    0,182;   -1,136
1021,228; 2402,914;    2,909;   -2,227
1021,776; 2279,732;    1,182;   -1,136
1022,323; 2547,914;    0,455;    0,773
1022,870; 2462,460;   -1,000;   -0,045
1023,417; 2405,641;    2,636;    1,864
1023,964; 2433,460;    2,636;    1,227
1024,511; 2340,460;    1,000;    0,773
1025,058; 2180,278;    3,182;   -0,045
1025,605; 2212,551;   -2,273;    3,136
1026,152; 2475,551;    1,727;   -0,591
1026,699; 2195,823;    1,818;    1,318
1027,245; 2306,823;   -0,091;    0,318
1027,792; 2447,914;   -1,000;    1,409
1028,339; 2441,096;    2,364;   -0,045
1028,885; 2284,187;    1,000;   -0,227
1029,432; 2235,460;   -0,091;    0,227
1029,978; 2329,823;   -1,000;   -1,591
1030,525; 2207,641;    1,000;    0,409
1031,071; 2343,005;   -1,364;    1,136
1031,618; 2577,732;    0,364;    1,682
1032,164; 2326,551;   -0,091;    3,045
1032,710; 2372,732;    1,636;   -1,500
1033,256; 2271,914;   -0,636;   -0,136
1033,803; 2209,732;   -0,545;    1,500
1034,349; 1989,369;   -1,364;    0,136
1034,895; 2128,005;    0,000;   -0,318
1035,441; 2121,641;   -0,818;    0,318
1035,987; 2152,096;   -2,364;   -0,682
1036,533; 2194,641;   -1,455;   -0,955
1037,078; 2407,551;    1,455;    1,682
1037,624; 2209,823;    2,455;   -0,955
1038,170; 2173,096;    0,455;   -0,318
1038,716; 2170,187;    1,636;   -0,409
1039,261; 2045,732;   -2,273;   -0,773
1039,807; 2002,460;   -0,091;    3,409
1040,352; 2095,096;   -1,909;   -0,318
1040,898; 2114,551;   -1,545;   -0,682
1041,443; 2000,732;   -1,455;   -2,591
1041,989; 2149,641;    1,091;    1,591
1042,534; 1966,460;   -0,364;    2,591
1043,079; 1988,096;    2,909;    0,955
1043,625; 1901,005;    1,818;    0,500
1044,170; 1960,732;   -1,364;    1,045
1044,715; 2218,005;    2,455;    0,955
1045,260; 2046,096;    2,182;   -0,955
1045,805; 2015,278;    1,182;   -0,591
1046,350; 1944,914;    1,364;   -0,409
1046,895; 2016,187;    2,909;    1,591
1047,440; 2001,732;    5,364;    0,409
1047,985; 1859,187;    2,818;   -0,955
1048,530; 1776,641;    1,545;    1,227
1049,074; 1868,551;    0,000;    0,318
1049,619; 1815,914;   -1,364;    1,955
1050,164; 1663,641;    0,455;    0,227
1050,708; 1713,914;   -0,455;    0,045
1051,253; 2118,641;    1,273;   -2,227
1051,797; 1820,369;    0,818;   -1,318
1052,342; 1736,187;   -1,182;    1,045
1052,886; 1787,369;    0,364;   -1,409
1053,430; 1656,914;   -1,364;    0,136
1053,975; 1690,551;   -0,818;   -0,318
1054,519; 1686,732;   -0,727;    3,227
1055,063; 1758,460;    0,909;    1,318
1055,607; 1672,278;   -0,182;    0,227
1056,151; 1682,641;    2,909;    1,682
1056,695; 1569,460;    2,273;   -1,136
1057,239; 1605,460;   -1,727;   -0,682
1057,783; 1659,369;    0,818;   -1,500
1058,327; 1663,460;    0,000;    1,409
1058,871; 1896,460;   -0,545;    1,318
1059,415; 1625,278;   -0,818;   -0,045
1059,958; 1907,914;    1,455;    2,591
1060,502; 1594,278;   -1,000;   -0,773
1061,046; 1465,641;    0,364;   -0,955
1061,589; 1425,460;   -3,000;   -1,136
1062,133; 1330,641;   -1,273;    1,864
1062,676; 1319,641;    1,182;    0,864
1063,220; 1340,187;    1,091;    0,500
1063,763; 1386,187;    0,909;    1,136
1064,306; 1467,551;   -0,909;    1,864
1064,849; 1382,278;   -0,909;    0,591
1065,393; 1364,278;    2,000;   -1,500
1065,936; 1436,551;    0,182;   -0,409
1066,479; 1312,551;   -1,455;    1,318
1067,022; 1340,641;   -0,273;   -0,227
1067,565; 1268,005;   -0,091;   -1,318
1068,108; 1270,551;    0,727;   -0,591
1068,651; 1234,823;   -0,636;    1,409
1069,194; 1187,460;   -0,455;   -1,682
1069,736; 1202,005;   -1,273;    0,955
1070,279; 1171,096;   -1,364;   -0,500
1070,822; 1271,914;   -2,000;   -0,318
1071,364; 1404,823;   -0,364;    1,318
1071,907; 1189,641;   -0,727;    3,227
1072,450; 1040,187;    0,000;   -0,045
1072,992; 1086,369;   -0,273;    3,136
1073,535; 1244,732;    2,091;    2,136
1074,077; 1042,823;   -0,727;    2,045
1074,619; 1027,732;   -1,364;    0,591
1075,161; 1065,278;   -1,091;    1,500
1075,704; 1261,460;    1,545;    1,227
1076,246; 1020,460;   -0,182;    0,682
1076,788;  933,551;   -0,364;    1,773
1077,330; 1002,187;    1,273;    2,136
1077,872; 1016,732;    0,909;    0,955
1078,414; 1255,096;    2,727;    0,773
1078,956; 1009,914;    1,273;   -0,227
1079,498; 1278,005;    1,636;    0,318
1080,040;  982,914;    1,909;   -1,318
1080,581;  910,460;    1,636;   -0,318
1081,123;  823,005;    0,091;   -0,773
1081,665;  883,096;   -1,182;   -0,955
1082,206; 1195,005;    1,364;   -0,500
1082,748; 1050,005;    0,727;    2,045
1083,289;  905,096;   -2,000;    1,318
1083,831;  847,187;   -0,545;    0,227
1084,372;  906,641;    0,000;    0,591
1084,913;  900,551;    1,091;    0,864
1085,455;  858,551;   -1,909;   -2,045
1085,996;  850,005;   -2,273;    0,136
1086,537;  880,914;   -0,091;    0,864
1087,078;  888,823;   -0,909;   -2,136
1087,619;  946,641;   -1,273;    0,227
1088,160;  866,005;    0,000;    1,318
1088,701;  841,641;   -1,091;    0,682
1089,242;  793,641;    1,364;   -2,227
1089,783;  891,460;   -0,273;    1,409
1090,324;  864,187;    0,455;    0,682
1090,865;  743,187;    2,727;   -0,409
1091,405;  694,187;    0,727;    2,227
1091,946;  741,732;    0,182;   -0,955
1092,487;  668,005;    0,818;   -1,409
1093,027;  851,369;   -1,364;   -1,500
1093,568;  709,096;   -0,364;    1,227
1094,108;  808,551;    0,273;    1,773
1094,649;  743,732;   -1,182;    0,136
1095,189;  681,460;   -0,636;   -0,682
1095,729;  652,096;   -0,091;    0,955
1096,269;  632,096;    0,727;   -0,955
1096,810;  944,369;   -1,364;    0,500
1097,350;  797,278;    1,364;   -0,773
1097,890;  695,551;    0,364;    1,227
1098,430;  954,823;    2,364;    2,864
1098,970;  837,005;    2,182;    1,682
1099,510;  676,914;    0,545;   -2,318
1100,050;  623,278;    1,000;   -1,591
1100,589;  597,732;   -0,727;   -0,318
1101,129;  721,460;    0,818;   -0,955
1101,669;  876,369;    1,727;    2,136
1102,209;  699,914;   -0,091;    2,227
1102,748;  659,005;    0,000;    0,955
1103,288;  651,369;    1,273;   -1,227
1103,827;  669,005;    3,091;   -2,227
1104,367;  555,096;   -0,091;   -2,409
1104,906;  532,914;    1,364;   -1,136
1105,445;  617,005;    0,636;   -1,136
1105,985;  573,914;   -0,727;    1,500
1106,524;  609,551;   -1,727;   -0,682
1107,063;  577,096;   -2,727;    1,409
1107,602;  536,914;   -1,909;   -1,500
1108,141;  482,278;   -1,909;    1,500
1108,680;  607,096;   -3,455;   -0,591
1109,219;  530,187;   -0,909;   -0,500
1109,758;  524,732;    0,455;    0,682
1110,297;  505,460;    1,000;   -0,682
1110,836;  441,551;   -0,727;    0,955
1111,375;  608,278;   -2,545;    0,409
1111,913;  621,096;   -1,000;    0,773
1112,452;  565,641;   -0,273;    0,136
1112,991;  445,187;    1,091;    1,955
1113,529;  425,278;   -0,818;   -0,045
1114,068;  484,823;   -0,273;    2,955
1114,606;  396,732;   -0,364;   -0,955
1115,144;  555,551;   -1,273;    1,045
1115,683;  494,278;   -0,727;    0,318
1116,221;  536,823;   -0,455;   -0,864
1116,759;  443,187;    0,636;   -0,864
1117,297;  642,278;    0,000;    1,864
1117,836;  453,460;   -2,182;   -1,227
1118,374;  465,278;    0,182;   -0,682
1118,912;  419,005;    0,909;    2,682
1119,450;  405,005;    1,000;    0,864
1119,988;  452,005;    1,545;    2,136
1120,525;  899,551;    5,091;    3,318
1121,063;  602,187;    1,182;    1,864
1121,601;  416,551;   -0,909;   -1,227
1122,139;  378,005;   -0,727;   -2,045
1122,676;  585,460;   -0,727;    2,773
1123,214;  515,369;   -1,182;    4,409
1123,751;  344,187;    1,727;    2,227
1124,289;  454,641;   -0,091;   -0,409
1124,826;  329,187;    1,727;    0,227
1125,364;  256,914;    1,727;   -0,955
1125,901;  452,096;    1,182;    1,227
1126,438;  545,187;    0,818;    0,955
1126,975;  289,823;   -0,727;   -0,773
1127,513;  359,369;    0,273;    2,136
1128,050;  266,096;    1,636;   -0,682
1128,587;  360,005;    2,000;   -0,227
1129,124;  404,641;    0,091;    1,318
1129,661;  277,096;    0,273;    0,227
1130,198;  439,460;    1,636;    0,773
1130,734;  391,369;    0,182;    1,409
1131,271;  252,914;   -0,909;    0,864
1131,808;  416,460;    2,909;    3,045
1132,345;  304,187;    1,545;    0,318
1132,881;  179,096;   -1,545;   -1,864
1133,418;  318,460;    0,727;   -1,136
1133,954;  255,369;    2,455;   -2,682
1134,491;  328,551;    1,364;   -0,773
1135,027;  230,551;    2,364;    0,864
1135,564;  310,187;    0,273;    2,955
1136,100;  298,278;    0,364;    2,136
1136,636;  197,914;   -1,273;   -1,045
1137,172;  289,641;    0,000;   -1,045
1137,708;  221,005;   -1,364;   -1,045
1138,245;  219,460;    1,273;   -1,227
1138,781;  178,278;    1,091;   -3,318
1139,317;  240,369;    1,273;   -1,409
1139,852;  233,551;    3,091;    0,136
1140,388;  335,551;   -1,182;   -0,409
1140,924;  228,005;   -1,091;   -2,227
1141,460;  173,278;   -1,636;    0,136
1141,996;  124,732;   -1,364;    2,682
1142,531;  170,914;    1,364;    3,318
1143,067;  359,187;    1,182;    1,045
1143,602;  423,823;   -0,091;   -0,318
1144,138;  272,005;   -2,636;    1,045
1144,673;  148,460;   -1,455;    1,409
1145,209;  211,460;   -1,909;   -0,318
1145,744;  141,914;   -0,727;    0,864
1146,279;  264,823;    1,818;   -0,136
1146,815;  179,914;    1,545;   -2,682
1147,350;  224,187;   -1,364;    0,045
1147,885;  143,732;   -0,818;   -1,318
1148,420;  148,278;   -2,273;    0,773
1148,955;  131,823;   -1,727;    1,864
1149,490;  148,460;   -0,909;   -1,591
1150,025;  134,369;    0,455;   -1,773
1150,560;  242,369;    1,091;   -0,955
1151,094;  210,369;    1,455;   -0,591
1151,629;  222,369;    1,636;    0,864
1152,164;  155,096;    1,364;    1,318
1152,698;  115,914;   -0,182;   -0,136
1153,233;   78,096;    0,091;   -0,682
1153,767;  116,914;   -3,000;   -2,318
1154,302;  165,096;   -1,455;    1,773
1154,836;  161,187;   -0,455;   -2,136
1155,371;  199,005;   -1,364;    3,682
1155,905;  162,278;   -0,636;    1,682
1156,439;  140,005;   -0,636;   -0,500
1156,973;  169,096;    0,364;    0,318
1157,507;  110,914;   -0,364;    0,682
1158,042;  139,823;   -0,727;    1,045
1158,576;  184,641;    0,182;    1,773
1159,110;  172,732;   -0,818;    2,409
1159,643;  138,460;    0,636;   -0,045
1160,177;   88,096;   -1,545;    1,500

