
Integration time [ms]:   0,040
Averaging Nr. [scans]: 11
Smoothing Nr. [pixels]: 0
Data measured with spectrometer [name]: 7318044SP
Wave   ;Sample   ;Dark     ;Reference
[nm]   ;[counts] ;[counts] ;[counts] 

186,757;   24,072;   31,551;    1,318
187,357;   43,520;   22,551;    0,955
187,958;   25,316;   15,460;   -1,591
188,558;   56,299;    8,915;   -1,227
189,159;   21,725;    6,733;   -4,500
189,759;   11,634;    7,278;   -3,591
190,360;   -1,604;    2,824;   -2,136
190,960;   31,225;    2,915;   -4,136
191,560;   39,450;    3,189;   -6,591
192,161;  236,693;    4,372;   -3,500
192,761;  116,644;    4,010;   -3,227
193,361;   65,458;    1,556;   -3,773
193,962;   93,554;    2,010;   -2,682
194,562;   27,370;    1,189;   -3,955
195,162;   36,789;   -2,448;   -2,227
195,762;  158,304;   -3,176;   -0,045
196,362;  115,307;    1,370;   -2,500
196,963;   24,766;    2,006;   -0,864
197,563;   68,731;    1,551;   -0,955
198,163;   22,513;    0,096;   -0,682
198,763;   37,190;    1,733;   -0,500
199,363;   90,282;    3,096;   -0,500
199,963;   59,745;    0,369;    0,409
200,563;   50,748;    2,823;   -1,409
201,163;   37,775;    3,277;   -0,227
201,763;   71,978;    3,732;    0,318
202,363;   36,117;    1,459;    1,500
202,963;   90,712;    1,459;    1,045
203,563;  154,982;    0,277;    0,500
204,162;   68,983;    2,096;   -1,864
204,762;   61,744;    0,550;    0,591
205,362;   35,285;    3,004;    1,955
205,962;   81,889;    3,096;    1,955
206,562;   87,692;    1,823;    2,318
207,161;   65,747;   -0,087;    0,318
207,761;  181,533;    1,277;    2,409
208,361;   78,756;   -0,268;    1,409
208,960;  131,486;    0,459;    1,500
209,560;  149,950;    1,277;    1,591
210,160;  159,082;    0,550;    1,864
210,759;  123,148;    4,186;    1,227
211,359;  115,703;    1,459;    1,045
211,958;  288,288;    1,277;    2,045
212,558;  333,241;    1,732;    1,864
213,157;  227,221;    1,822;    1,500
213,757;  497,478;    3,822;   -0,227
214,356;  286,224;    1,277;   -0,409
214,956;  495,034;    3,095;    0,409
215,555;  252,638;    2,095;    2,136
216,154;  198,297;   -2,723;   -0,591
216,754;  194,888;    0,277;    0,773
217,353;  255,700;   -0,268;   -1,045
217,952;  147,689;   -0,178;    0,318
218,552;  323,212;    1,368;   -0,773
219,151;  224,601;    0,277;    0,955
219,750;  216,038;    0,004;   -0,227
220,349;  193,622;   -0,451;    1,045
220,948;  342,398;   -1,360;    1,136
221,548;  244,710;    0,913;    1,227
222,147;  310,664;   -0,087;   -0,409
222,746;  513,466;   -0,451;   -0,955
223,345;  377,262;    0,731;    0,500
223,944;  372,303;   -0,451;    0,773
224,543;  414,959;    1,004;   -1,409
225,142;  469,245;    0,094;    0,136
225,741;  411,487;   -0,814;    1,045
226,340;  383,033;   -0,451;   -0,955
226,939;  590,072;   -0,996;   -0,136
227,538;  376,940;   -0,360;   -0,773
228,137;  572,865;   -0,814;    0,864
228,735;  513,342;   -0,541;    1,227
229,334;  346,024;   -0,905;   -0,227
229,933;  615,297;    0,459;    0,591
230,532;  660,385;    1,186;   -0,409
231,131;  738,406;    1,732;    0,318
231,729;  580,500;   -2,450;   -2,318
232,328;  472,909;   -0,723;   -1,500
232,927;  474,154;    1,004;   -0,500
233,525;  450,051;    3,640;    0,045
234,124;  526,817;    2,368;   -1,591
234,723;  414,455;    0,913;   -1,045
235,321;  412,618;    2,277;    0,136
235,920;  490,751;    1,186;   -1,227
236,518;  708,005;    3,459;    0,318
237,117;  498,756;    0,004;   -0,227
237,715;  512,069;    0,640;   -0,500
238,314;  608,954;   -0,087;   -2,318
238,912;  821,795;   -0,723;   -1,409
239,510;  648,430;    0,459;   -1,227
240,109;  825,357;    0,004;    3,773
240,707;  780,131;   -0,996;    1,227
241,305;  613,996;    0,550;    0,136
241,904;  805,723;   -0,178;   -2,045
242,502;  939,292;   -0,632;   -0,227
243,100;  829,751;   -0,087;   -0,955
243,698;  825,337;    0,732;    1,682
244,297;  907,456;   -0,632;    0,682
244,895;  942,754;   -0,269;   -2,318
245,493; 1238,325;    2,186;   -0,591
246,091; 1234,846;    1,368;   -1,318
246,689; 1207,142;    1,004;    0,591
247,287; 1189,505;    0,822;   -1,136
247,885; 1247,783;   -1,451;    1,227
248,483; 1247,868;    1,822;   -0,500
249,081; 1368,060;    0,185;    1,591
249,679; 1503,355;   -0,178;    1,682
250,277; 1479,031;   -1,723;    0,864
250,875; 1613,819;   -1,087;   -1,045
251,473; 1567,665;   -1,178;    0,500
252,071; 1711,868;    1,459;    1,045
252,669; 1766,485;   -1,814;    0,318
253,267; 1804,903;   -0,087;    0,773
253,864; 1761,778;   -0,360;    0,682
254,462; 1986,396;    1,640;    1,591
255,060; 1801,872;   -0,269;    1,318
255,658; 1869,394;    0,822;   -0,136
256,255; 2164,436;    0,186;   -2,045
256,853; 2173,601;   -0,269;    1,409
257,451; 2142,824;    0,822;    1,864
258,048; 2669,300;    1,822;    1,864
258,646; 2257,964;    1,731;   -1,045
259,243; 2426,692;   -0,087;    2,227
259,841; 2396,349;   -0,814;    0,318
260,438; 2306,010;   -0,087;    0,864
261,036; 2599,729;   -1,905;    1,409
261,633; 2600,076;   -0,087;    2,227
262,231; 2508,484;    2,731;   -0,045
262,828; 2577,977;   -0,905;    1,136
263,425; 2628,618;    0,913;   -0,591
264,023; 2769,417;    0,186;    0,045
264,620; 2670,645;   -0,360;   -0,318
265,217; 2851,008;   -2,087;    3,136
265,815; 2774,196;   -1,905;    2,136
266,412; 2841,236;    0,731;    0,136
267,009; 2861,210;   -1,451;    0,773
267,606; 2966,691;    0,822;   -0,955
268,203; 2795,571;   -0,269;   -0,591
268,801; 2953,712;    1,731;    0,591
269,398; 3051,102;   -0,360;    2,500
269,995; 3098,886;    0,277;    1,591
270,592; 2945,319;   -0,632;   -0,500
271,189; 3020,488;    0,186;    0,409
271,786; 3123,255;   -0,632;    1,227
272,383; 3221,866;   -1,087;    0,227
272,980; 3163,324;    0,277;    0,318
273,577; 3354,225;    0,004;    1,227
274,174; 3074,613;    0,822;    2,591
274,771; 3080,939;   -0,814;   -0,773
275,367; 3406,521;    2,277;    1,409
275,964; 3357,842;    0,731;   -0,500
276,561; 3302,054;    1,549;   -1,045
277,158; 3326,809;    0,095;   -1,773
277,755; 3535,515;    2,185;    0,409
278,351; 3113,713;   -0,451;   -1,500
278,948; 3310,787;   -0,815;    0,045
279,545; 3242,352;   -1,360;    2,318
280,141; 3788,551;   -1,723;   -2,045
280,738; 3600,893;   -0,451;   -0,136
281,334; 3565,556;   -1,633;    0,591
281,931; 3291,792;   -0,087;   -1,318
282,528; 3442,109;    0,822;   -0,500
283,124; 3890,668;   -1,087;   -0,500
283,721; 3784,882;   -0,451;    1,409
284,317; 3666,815;    0,185;    2,500
284,913; 4098,632;   -1,360;    0,591
285,510; 4366,541;    0,640;   -0,318
286,106; 4337,629;   -2,269;   -0,955
286,703; 3914,650;   -0,360;    1,955
287,299; 4073,712;   -1,451;   -0,591
287,895; 4255,395;    0,822;   -1,045
288,491; 4617,102;    0,186;    2,136
289,088; 4572,695;   -2,360;    2,409
289,684; 4635,485;   -1,723;    1,500
290,280; 4714,891;    0,368;    0,682
290,876; 4809,099;    1,822;    5,500
291,472; 4795,741;    1,276;    2,227
292,068; 4935,766;    1,367;    0,227
292,665; 4738,167;    2,095;    0,773
293,261; 4635,989;    0,276;    2,136
293,857; 4927,390;    2,913;    2,136
294,453; 4921,501;    3,550;    0,955
295,049; 4971,238;   -0,268;    1,955
295,644; 5042,040;    0,095;    0,136
296,240; 5019,581;   -0,905;   -0,136
296,836; 5154,257;   -0,995;    0,318
297,432; 5420,321;    1,096;   -0,500
298,028; 5569,639;    0,732;    0,773
298,624; 5794,554;    1,459;    1,864
299,220; 5973,460;    2,368;    0,591
299,815; 5786,691;    1,005;   -0,409
300,411; 5749,328;    0,914;    1,773
301,007; 5777,525;    1,368;    0,227
301,602; 5747,644;   -0,541;   -2,318
302,198; 5950,841;    0,732;   -0,773
302,794; 6203,050;    1,187;   -0,500
303,389; 6263,346;   -1,177;    1,045
303,985; 6358,438;    0,550;    1,409
304,580; 6396,982;    1,459;    1,591
305,176; 6347,942;   -3,086;    0,136
305,771; 6280,308;   -1,268;   -1,227
306,367; 6353,673;    4,095;    0,136
306,962; 6488,190;    0,641;    1,500
307,558; 6246,780;   -0,450;    0,136
308,153; 6196,920;    1,095;   -1,136
308,748; 6315,304;   -0,814;    1,682
309,344; 6349,423;   -0,632;   -1,318
309,939; 6496,649;   -1,905;   -1,318
310,534; 6566,581;   -0,086;   -1,682
311,130; 6426,600;    0,459;   -2,500
311,725; 6180,693;    1,004;   -0,500
312,320; 6451,849;    2,459;    0,045
312,915; 6410,104;    1,459;   -1,045
313,510; 6457,330;    1,550;   -0,500
314,105; 6715,708;    1,096;    1,409
314,700; 6181,346;   -3,086;   -1,045
315,295; 5955,436;   -0,904;    0,045
315,890; 5609,507;    1,277;    0,864
316,485; 5797,012;   -0,359;   -0,318
317,080; 5848,872;   -3,086;    1,591
317,675; 6223,372;    2,005;   -0,682
318,270; 5907,274;    5,550;    3,318
318,865; 5881,842;    3,278;    3,045
319,460; 5677,439;   -0,904;    0,591
320,055; 5794,203;   -0,541;   -1,227
320,650; 5554,201;   -1,995;   -0,591
321,244; 5579,000;   -0,177;   -1,409
321,839; 6234,188;   -1,541;   -0,227
322,434; 6116,031;   -1,086;   -1,591
323,029; 5882,820;    1,732;    1,591
323,623; 5768,668;    1,550;    0,773
324,218; 5681,160;    2,368;    1,409
324,812; 5577,482;    1,096;    1,591
325,407; 5482,349;   -0,814;    2,045
326,002; 5467,644;    0,277;   -0,409
326,596; 5698,141;    0,914;    1,318
327,191; 5789,939;    0,823;   -1,045
327,785; 5557,868;   -0,813;   -0,227
328,379; 5823,507;    1,368;    0,136
328,974; 5601,802;    0,914;   -3,955
329,568; 5877,483;    0,186;   -2,409
330,163; 5841,071;    2,096;    1,045
330,757; 6075,285;    2,459;    1,591
331,351; 5638,101;    0,459;    0,682
331,945; 5934,891;    0,914;    1,409
332,540; 5779,169;   -1,723;   -0,591
333,134; 5895,217;   -1,086;    0,773
333,728; 6089,055;    0,005;    0,318
334,322; 6378,484;   -1,177;   -0,864
334,916; 5863,493;    0,277;    0,955
335,510; 6211,896;   -0,450;   -0,136
336,105; 6499,666;   -1,086;    1,591
336,699; 6267,102;   -1,086;    0,591
337,293; 6264,424;   -1,723;    0,318
337,887; 6380,599;   -2,723;    1,955
338,481; 6529,487;    0,459;    0,591
339,074; 6783,606;   -0,359;    2,682
339,668; 6719,878;   -1,632;    1,227
340,262; 7064,854;    1,732;    3,227
340,856; 6632,064;    1,822;   -0,682
341,450; 6152,929;    1,004;    1,864
342,044; 6882,606;    1,459;    0,136
342,637; 6771,084;    0,913;   -2,136
343,231; 6716,506;   -2,360;    0,682
343,825; 6687,851;   -1,086;   -0,591
344,419; 6721,665;   -1,995;    0,500
345,012; 6756,436;    2,459;    4,045
345,606; 6754,730;    4,641;    1,591
346,199; 6651,772;   -1,813;   -0,227
346,793; 6349,316;    1,914;    2,045
347,386; 6499,937;   -0,813;   -1,136
347,980; 6476,245;   -0,268;   -0,045
348,573; 6379,127;    2,278;    0,409
349,167; 6254,418;    5,278;    4,773
349,760; 6556,668;    2,914;    2,682
350,354; 6489,656;   -0,813;    1,136
350,947; 6325,389;    1,096;    1,682
351,540; 6068,002;   -0,358;   -1,409
352,134; 6008,327;    1,096;    1,136
352,727; 6130,993;   -0,086;    1,136
353,320; 5979,056;    0,005;    0,591
353,913; 5837,853;   -1,995;    1,864
354,507; 6024,923;    0,823;   -1,227
355,100; 6036,694;    0,460;    0,864
355,693; 5559,071;    2,005;    2,409
356,286; 5543,077;    0,823;    2,773
356,879; 5811,714;   -0,722;    1,227
357,472; 5467,306;   -0,904;    1,500
358,065; 5665,188;   -0,722;    2,500
358,658; 5586,009;   -0,540;    2,318
359,251; 5305,055;   -1,631;   -0,591
359,844; 4984,892;   -1,904;   -1,136
360,437; 5174,535;   -2,995;    0,045
361,030; 5326,033;    1,369;   -0,682
361,623; 5027,662;    2,824;    0,318
362,215; 5065,460;   -0,086;    2,045
362,808; 4916,416;   -2,358;   -1,682
363,401; 5068,183;   -2,449;    0,136
363,994; 4931,726;   -0,631;   -1,500
364,586; 4819,491;    0,824;   -1,500
365,179; 4942,464;   -0,449;   -1,136
365,772; 4528,549;   -1,995;    2,045
366,364; 4740,171;    1,915;   -3,227
366,957; 4954,750;    2,279;   -0,045
367,549; 4885,043;    2,188;   -0,864
368,142; 4642,968;    1,825;   -1,500
368,734; 4783,842;    0,734;   -2,136
369,327; 4734,450;    1,643;   -0,500
369,919; 4662,442;   -1,538;    0,409
370,512; 4573,816;   -1,083;   -0,500
371,104; 4435,362;   -0,901;    1,591
371,696; 4597,677;    1,191;   -0,955
372,289; 4593,343;    0,373;    1,136
372,881; 4676,314;   -2,080;    1,318
373,473; 4568,222;   -2,170;    1,136
374,066; 4444,222;   -0,169;    0,500
374,658; 4353,982;    0,378;    1,136
375,250; 4577,222;    0,653;   -1,409
375,842; 4482,114;    0,473;   -0,045
376,434; 4386,996;   -0,435;   -0,409
377,026; 4802,700;    0,204;   -2,500
377,618; 4731,999;   -0,158;   -0,682
378,210; 4596,191;   -0,338;   -1,955
378,802; 4430,286;    0,754;   -0,591
379,394; 4523,071;    1,846;    0,682
379,986; 4852,705;    1,393;   -0,955
380,578; 4895,129;   -0,153;    0,773
381,170; 4500,245;   -0,972;    0,045
381,762; 4442,437;    0,755;    1,409
382,354; 4529,620;   -0,065;   -1,318
382,945; 4614,304;   -2,976;    0,318
383,537; 4702,789;   -2,705;   -1,955
384,129; 4745,785;   -2,160;   -1,136
384,721; 4853,390;   -0,252;    0,955
385,312; 4764,991;   -0,161;   -0,955
385,904; 4896,188;   -2,706;    1,591
386,496; 4373,679;   -0,979;    1,045
387,087; 4509,323;    1,022;    2,500
387,679; 4515,611;   -1,160;    0,045
388,270; 4621,218;    2,840;    2,045
388,862; 4694,063;    1,295;   -0,318
389,453; 4551,834;   -0,887;    1,045
390,045; 4802,629;   -0,705;   -2,682
390,636; 4735,667;    0,204;   -0,591
391,227; 4615,176;   -0,523;   -0,045
391,819; 4719,521;    0,204;    0,773
392,410; 4777,323;    1,022;    0,045
393,001; 4723,023;   -0,979;   -1,591
393,593; 4947,163;    1,930;   -0,045
394,184; 4835,433;    1,385;   -0,409
394,775; 4687,524;    1,839;    2,136
395,366; 4889,765;    1,385;    0,773
395,957; 4838,301;    0,113;    0,136
396,548; 5051,717;   -0,342;    2,682
397,139; 5339,343;   -2,433;    0,591
397,730; 5113,878;   -1,888;    0,955
398,321; 5109,702;   -1,252;    0,955
398,912; 5096,999;   -0,615;    0,136
399,503; 5206,522;   -3,524;   -1,409
400,094; 4825,821;    0,294;    1,682
400,685; 4701,451;   -0,433;    0,045
401,276; 4702,176;    0,930;   -0,955
401,867; 4939,113;   -0,888;    0,773
402,458; 5003,107;   -2,251;   -2,318
403,048; 5007,774;    1,112;    0,591
403,639; 4687,198;    0,840;    0,864
404,230; 4967,388;    2,476;    0,318
404,821; 4893,158;   -0,615;    0,045
405,411; 4965,867;    1,203;   -2,591
406,002; 4618,843;   -1,252;   -1,136
406,592; 4613,735;    2,294;    0,045
407,183; 4757,835;    0,566;   -1,500
407,774; 4633,922;    3,475;   -0,136
408,364; 4841,465;    0,930;    0,409
408,954; 4607,195;    0,384;    1,227
409,545; 4617,535;    1,021;    1,045
410,135; 4205,179;    1,293;    0,500
410,726; 4310,351;    1,838;    0,318
411,316; 4590,501;    0,111;    0,773
411,906; 4303,393;   -0,253;   -0,409
412,497; 3965,338;   -1,070;   -0,045
413,087; 4342,975;   -1,980;   -0,227
413,677; 4551,465;   -0,707;    3,864
414,267; 4417,168;    0,656;    1,409
414,857; 4345,124;   -2,980;    4,227
415,448; 4537,704;    0,839;    0,500
416,038; 4290,341;    0,020;   -0,591
416,628; 4208,168;   -0,889;    0,409
417,218; 3940,740;    0,565;    3,318
417,808; 4069,878;    0,202;   -0,409
418,398; 4224,424;    0,020;    2,682
418,988; 4137,198;    2,020;    0,591
419,578; 4258,125;   -0,707;    1,409
420,168; 4486,166;   -1,343;   -0,955
420,757; 4201,908;   -1,343;   -1,500
421,347; 3871,249;    0,111;   -0,227
421,937; 3922,430;    2,292;    1,409
422,527; 3942,502;    0,838;   -0,773
423,116; 3796,651;   -0,253;   -0,045
423,706; 3865,700;   -1,889;    0,318
424,296; 3739,472;    1,384;    0,682
424,885; 4060,563;   -0,071;   -3,045
425,475; 4159,589;    1,474;   -2,864
426,065; 3982,839;   -0,980;   -0,318
426,654; 3748,872;   -0,435;   -0,318
427,244; 3915,522;    0,020;    1,409
427,833; 3558,589;    1,383;   -0,500
428,423; 3645,733;   -0,526;    1,136
429,012; 4030,308;   -0,344;   -1,136
429,601; 3726,925;   -1,344;    0,136
430,191; 3741,533;    1,292;    4,318
430,780; 3410,029;   -0,344;   -0,409
431,369; 3539,176;    0,746;   -0,045
431,959; 3778,086;   -1,254;    0,500
432,548; 3530,951;   -1,163;   -0,045
433,137; 3508,136;   -1,254;   -1,318
433,726; 3785,338;    0,292;    0,500
434,315; 3434,840;   -0,526;    2,409
434,905; 3482,600;   -1,254;    1,409
435,494; 3468,618;    0,746;    0,955
436,083; 3514,475;   -0,981;   -0,955
436,672; 3348,297;    0,110;    0,500
437,261; 3191,870;    0,292;   -1,955
437,850; 3396,345;    1,383;    0,682
438,439; 3295,763;    3,291;    1,955
439,027; 3252,220;    3,655;    1,773
439,616; 3293,975;    2,927;    1,227
440,205; 2986,289;    0,200;   -2,136
440,794; 2822,772;    2,109;   -0,045
441,383; 2842,915;   -1,346;   -0,591
441,971; 2660,186;   -2,436;    0,591
442,560; 2526,943;    0,563;   -1,773
443,149; 2296,083;    0,379;   -1,318
443,737; 2393,894;   -0,074;   -2,318
444,326; 2432,330;    0,018;    0,318
444,915; 2389,192;   -1,982;    0,864
445,503; 2446,803;   -2,891;   -0,318
446,092; 2452,714;    0,382;    2,136
446,680; 2500,377;    0,382;    0,318
447,269; 2416,425;   -0,346;   -0,318
447,857; 2227,066;    0,018;   -1,773
448,445; 2183,205;    0,563;    1,318
449,034; 2192,544;   -1,528;   -1,136
449,622; 2114,431;   -1,073;    3,500
450,210; 2343,919;    2,017;    2,227
450,799; 2299,307;    0,290;   -0,591
451,387; 2053,150;    1,381;   -0,591
451,975; 1967,397;    2,654;    0,864
452,563; 2105,688;    3,472;    2,318
453,151; 1812,945;   -0,528;   -1,227
453,739; 1796,729;   -1,347;    0,136
454,328; 1946,362;    2,381;   -2,136
454,916; 1752,388;    2,562;   -0,136
455,504; 1721,657;    1,017;    1,227
456,092; 1621,881;    0,017;   -1,591
456,679; 1475,700;    1,472;    0,682
457,267; 2140,251;    4,017;    1,045
457,855; 1621,322;    1,017;    1,409
458,443; 1281,783;   -0,165;    1,682
459,031; 1671,847;    0,108;    2,409
459,619; 1586,662;   -1,801;    2,864
460,206; 1377,392;    0,835;    2,045
460,794; 1417,282;   -2,983;   -0,227
461,382; 1507,448;   -0,529;   -0,864
461,970; 1342,039;    1,198;    1,864
462,557; 1277,652;   -0,711;   -0,682
463,145; 1505,149;   -3,165;   -1,682
463,732; 1803,430;    2,016;   -1,045
464,320; 1443,096;   -0,075;   -3,045
464,907; 1630,548;    2,743;   -0,773
465,495; 1455,810;    0,743;   -1,227
466,082; 1307,095;   -1,984;   -0,045
466,670; 1230,278;   -2,529;    1,227
467,257; 1155,144;   -1,711;    2,045
467,844; 1329,874;   -0,075;    0,045
468,432; 1295,716;    0,834;    3,500
469,019; 1134,064;    0,925;   -1,773
469,606; 1228,219;    0,470;    3,682
470,193; 1274,478;   -1,439;    0,227
470,780; 1227,288;   -2,075;    0,864
471,368; 1080,816;   -1,257;   -0,773
471,955; 1196,745;    1,379;   -0,682
472,542; 1076,184;    0,652;   -1,136
473,129;  850,133;   -0,166;    0,136
473,716;  815,450;    1,470;    0,591
474,303;  860,950;    0,652;   -0,864
474,890;  876,462;   -1,439;   -0,500
475,477; 1015,511;   -1,621;    0,409
476,064;  827,405;    1,106;   -1,591
476,650;  978,807;    0,288;    0,318
477,237;  837,171;   -0,258;    0,955
477,824;  754,968;   -1,076;    0,864
478,411;  564,240;   -1,894;   -0,318
478,997;  548,086;    0,560;   -0,773
479,584;  431,026;    1,196;   -0,409
480,171;  780,841;   -0,440;   -0,773
480,757;  889,984;    2,651;    0,773
481,344;  650,228;    0,469;    0,409
481,931;  435,476;    1,105;    1,045
482,517;  712,785;   -1,258;    0,318
483,104;  826,003;    1,106;    2,864
483,690;  607,208;   -1,804;    0,045
484,276;  541,100;   -0,895;    0,227
484,863;  909,483;    2,469;    1,136
485,449;  609,059;   -0,077;    0,318
486,035;  509,447;   -1,986;   -0,136
486,622;  697,192;   -0,895;    0,045
487,208;  534,400;    1,378;    1,500
487,794;  373,905;    0,741;    0,318
488,380;  364,816;    0,105;   -1,409
488,967;  403,758;   -1,168;   -0,409
489,553;  419,231;   -1,895;   -1,409
490,139;  560,981;    1,559;    0,773
490,725;  390,960;    0,741;   -0,227
491,311;  479,413;    3,287;    3,045
491,897;  408,800;   -0,986;    1,500
492,483;  421,461;    0,105;    1,227
493,069; 1166,869;    3,923;    0,864
493,655;  704,738;    1,650;    0,682
494,241;  513,191;    1,377;   -0,955
494,826;  583,890;    0,287;   -1,045
495,412;  725,003;    2,559;   -0,682
495,998;  575,312;   -0,805;   -0,318
496,584;  720,809;    0,377;    1,045
497,169;  725,175;    1,014;   -0,682
497,755;  632,070;    0,650;    1,227
498,341; 1021,743;    0,559;    0,318
498,926; 1271,633;    1,832;    1,955
499,512;  891,517;    1,286;    2,955
500,097;  913,009;    0,195;   -0,318
500,683; 1018,824;   -0,350;    2,136
501,268; 1041,892;   -0,169;   -0,955
501,854; 1158,509;   -0,169;    1,227
502,439; 1200,062;   -0,624;   -1,773
503,024; 1441,761;    0,195;    0,500
503,610; 1640,397;   -0,078;   -0,682
504,195; 1587,263;    0,558;    1,955
504,780; 1892,348;    2,922;    1,227
505,366; 2195,756;    3,013;    2,864
505,951; 2184,841;    0,740;    1,045
506,536; 2333,544;   -3,260;   -3,682
507,121; 2503,745;    0,285;   -0,318
507,706; 2907,496;    2,376;    1,045
508,291; 3179,455;    2,649;    1,136
508,876; 3192,332;   -0,988;    2,591
509,461; 3246,895;   -0,169;   -0,773
510,046; 3764,281;    0,194;    0,318
510,631; 4114,935;   -0,351;   -0,773
511,216; 4178,053;    2,467;   -0,500
511,801; 4733,272;   -0,442;    2,591
512,386; 5078,551;    0,740;    0,500
512,971; 5308,558;   -2,988;    0,955
513,555; 5338,962;   -0,897;   -1,500
514,140; 6067,010;   -0,442;   -3,136
514,725; 6248,177;   -0,715;   -1,136
515,309; 6565,312;   -0,533;    0,318
515,894; 6500,766;   -0,624;   -2,227
516,479; 7028,359;   -0,624;   -0,955
517,063; 7057,562;    0,376;    1,227
517,648; 7408,108;    1,012;   -1,136
518,232; 7220,939;   -0,261;   -1,409
518,817; 7721,598;   -0,079;    1,682
519,401; 8094,619;    2,194;    0,591
519,985; 7791,890;    1,103;    1,136
520,570; 7827,872;    0,830;   -1,955
521,154; 8232,535;    2,102;    0,591
521,738; 8488,360;   -2,352;    2,409
522,323; 9104,942;   -0,170;    1,682
522,907; 8940,405;    0,466;   -0,136
523,491; 8830,883;    0,557;    0,955
524,075; 8849,542;    2,284;    0,591
524,659; 9070,129;    1,466;    0,591
525,243; 8734,335;    1,739;    0,409
525,827; 8971,497;    0,648;   -0,045
526,411; 9707,493;   -1,989;   -0,136
526,995; 9938,336;   -0,352;    1,409
527,579; 9652,777;   -0,443;   -1,045
528,163; 9957,440;    0,375;   -1,500
528,747; 9944,553;    2,466;   -0,773
529,331;10231,052;   -0,080;   -1,409
529,915;10427,055;    1,738;    0,955
530,499;10395,759;   -0,807;    1,227
531,082;10179,368;   -0,534;    1,591
531,666; 9761,243;    1,374;    0,773
532,250;10330,576;    1,284;    2,682
532,833;10650,150;    0,920;    2,773
533,417;10508,037;   -1,807;    0,864
534,001;10454,270;    1,647;   -0,318
534,584;11124,275;    0,374;    0,500
535,168;10951,593;    0,465;    1,409
535,751;11007,698;    0,647;    0,045
536,334;10481,859;   -0,898;   -0,409
536,918;11053,676;    0,011;    1,591
537,501;11129,635;   -0,899;    1,318
538,085;11123,295;   -0,444;    1,045
538,668;11247,864;    0,829;    2,409
539,251;11586,524;    1,829;    3,773
539,834;11593,250;    0,101;    0,773
540,418;11539,007;   -1,990;    4,318
541,001;11598,437;   -0,990;    1,773
541,584;11622,903;    2,101;    2,227
542,167;11324,940;    1,374;    2,955
542,750;11393,488;    1,919;   -0,773
543,333;11014,724;    0,555;    2,136
543,916;11715,877;    0,192;    2,500
544,499;12157,720;   -1,354;    0,227
545,082;12192,630;    1,374;    3,591
545,665;12319,196;    1,919;    1,500
546,248;12625,724;    1,010;   -0,318
546,830;12273,177;   -0,445;    1,955
547,413;12631,910;    1,010;   -0,773
547,996;13124,049;    0,555;    0,500
548,579;12907,463;    0,919;    0,955
549,161;12685,463;    1,828;    2,682
549,744;12432,150;   -0,809;    0,409
550,326;12920,832;   -0,809;   -1,136
550,909;12787,767;    2,737;    0,591
551,492;13139,876;   -0,263;    0,227
552,074;12957,338;   -0,173;   -1,318
552,657;13447,565;    2,373;    0,045
553,239;13217,543;   -0,173;   -0,773
553,821;13124,902;   -1,082;    1,045
554,404;12680,474;    1,282;    1,136
554,986;13022,477;    0,464;    1,045
555,568;13530,910;    1,191;   -0,955
556,151;12877,206;    1,191;   -0,227
556,733;13034,407;   -0,264;   -0,864
557,315;13425,143;    0,100;    0,500
557,897;13190,573;    0,554;   -0,500
558,479;13319,551;   -1,991;    1,318
559,061;13490,514;   -0,719;   -0,864
559,643;13793,987;   -0,264;    0,045
560,225;14059,911;    1,645;    2,864
560,807;14077,442;    0,918;    0,318
561,389;13611,920;    0,554;    2,318
561,971;14228,430;    0,463;    2,136
562,553;14086,787;   -1,628;    1,591
563,135;14200,513;   -0,537;    1,136
563,717;13815,967;    3,372;    1,136
564,298;14395,038;    3,645;   -0,045
564,880;14121,958;    0,645;   -1,409
565,462;14235,958;    0,645;    1,318
566,043;15209,177;   -0,446;    2,318
566,625;14797,200;    1,918;    1,227
567,207;14643,704;    1,099;    1,682
567,788;15564,228;   -1,264;    1,500
568,370;16220,189;    1,917;   -0,500
568,951;16016,230;    0,190;    0,227
569,533;16704,420;   -0,628;   -0,500
570,114;17090,907;   -0,446;    0,682
570,695;17503,394;   -0,174;   -1,318
571,277;17776,943;   -0,265;   -1,682
571,858;18402,190;    2,008;   -1,136
572,439;19064,459;    1,554;   -1,045
573,021;19203,200;    2,099;   -2,773
573,602;19550,493;   -1,265;    0,318
574,183;20358,632;   -2,083;    2,227
574,764;20310,222;   -1,629;    0,409
575,345;20746,611;    0,917;   -0,136
575,926;21193,810;   -0,356;    0,136
576,507;21204,879;    1,099;   -0,227
577,088;22145,856;    3,099;    1,682
577,669;22080,224;    0,735;    1,955
578,250;22748,178;    0,644;   -1,045
578,831;23219,845;   -1,356;   -2,227
579,412;23374,338;   -0,810;    0,955
579,993;24199,884;    1,008;    0,227
580,573;24438,703;   -0,629;   -0,955
581,154;23450,861;    0,735;   -0,591
581,735;24284,678;    0,644;    0,773
582,315;23814,042;   -0,629;    2,136
582,896;24031,768;   -0,174;    1,227
583,477;23531,137;    0,189;    1,227
584,057;23704,043;    0,553;    0,955
584,638;24054,612;    2,553;    2,318
585,218;24044,179;   -0,538;    2,682
585,799;24171,109;    0,281;   -0,227
586,379;24138,219;    0,372;    1,591
586,959;23110,405;    0,735;    0,318
587,540;22581,208;   -0,629;    2,227
588,120;22213,692;    1,007;   -0,045
588,700;21414,596;    2,553;    2,136
589,281;21774,203;    0,462;   -0,955
589,861;21720,091;    0,099;   -1,682
590,441;21542,612;    2,371;   -2,682
591,021;20665,180;   -0,265;   -2,591
591,601;20895,036;   -0,537;    0,500
592,181;20959,967;   -0,719;   -0,773
592,761;20276,075;    0,007;    1,409
593,341;20258,950;   -0,901;    0,045
593,921;20326,288;   -0,265;    1,591
594,501;20216,337;   -0,538;    1,318
595,081;20043,628;    0,917;   -0,318
595,661;20433,267;   -1,447;    0,955
596,240;20882,877;   -0,537;    0,136
596,820;20498,872;    0,372;    1,955
597,400;20566,994;    2,008;    0,773
597,980;20763,716;    2,008;    1,045
598,559;20794,516;    2,735;   -0,227
599,139;20578,199;   -0,174;   -1,227
599,718;20448,381;   -0,174;   -0,409
600,298;20689,539;    0,735;    0,682
600,877;21000,103;    2,917;    1,409
601,457;21227,644;    2,281;    1,136
602,036;21112,604;    0,190;    2,045
602,616;21247,647;    0,644;    1,682
603,195;21596,121;   -0,355;    3,500
603,774;21127,690;   -0,901;    2,045
604,354;20980,350;    0,826;   -0,500
604,933;20561,012;    0,463;    1,864
605,512;20696,260;    3,554;    0,591
606,091;20730,073;   -0,537;    3,773
606,671;21466,326;    0,281;    0,773
607,250;20720,372;    1,644;    3,136
607,829;20941,888;    2,372;    3,227
608,408;20805,732;    1,190;    2,591
608,987;19940,247;    1,281;    3,409
609,566;20215,154;   -1,265;   -2,500
610,145;20383,316;   -1,082;    0,682
610,723;20761,612;    4,372;    6,864
611,302;20013,903;   -0,446;    1,682
611,881;19610,178;    5,008;   11,227
612,460;20339,543;    1,645;    3,955
613,039;20718,560;   -0,082;    2,045
613,617;19598,003;    1,736;    4,773
614,196;19733,747;    1,099;    1,227
614,775;20080,855;    1,009;    2,409
615,353;20025,261;    0,736;    0,864
615,932;19808,262;    0,100;    2,409
616,510;20383,696;    0,554;    0,591
617,089;19975,899;    7,100;   17,591
617,667;19768,330;    2,372;    6,136
618,246;19606,168;   -1,537;    1,318
618,824;19772,147;   -3,355;   -0,955
619,402;19383,851;   -2,900;   -1,773
619,981;19844,053;   -0,173;   -1,045
620,559;19660,323;    0,009;    1,682
621,137;19301,074;   -0,718;    1,864
621,715;19269,825;   -1,173;   -0,682
622,293;19242,074;   -0,537;   -0,773
622,871;19663,779;   -0,718;    0,500
623,450;19262,569;    0,373;   -0,864
624,028;19199,914;    0,191;   -0,955
624,606;18908,093;   -1,718;    1,682
625,183;19282,657;   -1,536;   -1,136
625,761;18909,862;    1,009;    1,136
626,339;19214,139;    1,373;    2,591
626,917;19521,970;   -0,172;   -0,045
627,495;19541,471;   -0,354;    1,318
628,073;19058,921;   -0,263;    2,864
628,650;18777,723;    0,100;    2,136
629,228;19171,227;    0,373;    4,409
629,806;18658,223;    2,282;    1,136
630,383;18893,583;    1,464;   -0,318
630,961;18787,792;    2,555;   -0,955
631,539;18532,241;    2,464;    0,227
632,116;18050,155;   11,373;   15,409
632,694;18497,447;    2,555;    6,500
633,271;18676,280;    0,828;    2,682
633,848;18709,601;    1,828;    2,045
634,426;18680,936;   -1,081;    1,773
635,003;17939,268;    1,101;   -0,409
635,580;18171,630;    1,192;    3,682
636,158;18676,796;    3,737;    1,227
636,735;18637,939;    0,555;   -0,500
637,312;18769,921;   -0,809;   -0,682
637,889;18819,571;   -4,354;   -0,682
638,466;18373,947;   -3,990;   -0,409
639,043;18363,894;    2,101;   -1,136
639,620;18637,076;   -2,262;   -0,955
640,197;18890,445;    1,100;    1,682
640,774;19094,343;   -0,172;    1,136
641,351;19409,968;    0,737;    1,136
641,928;18962,957;   -0,627;    1,409
642,505;18637,492;    0,828;   -0,500
643,082;18766,754;   -1,718;    1,227
643,658;17913,016;   -0,718;    1,500
644,235;18481,459;    1,191;    2,500
644,812;18759,721;    1,918;    0,773
645,388;18516,892;   -0,991;    1,409
645,965;18578,427;   -0,809;    1,682
646,542;18705,234;   -1,445;   -0,227
647,118;18703,950;    1,009;   -0,955
647,695;18884,394;   -0,263;    1,136
648,271;18834,928;   -0,536;    0,500
648,848;19090,736;    0,736;    2,227
649,424;18982,361;    0,827;    1,318
650,000;18715,714;   -0,354;   -1,045
650,577;18584,885;   -0,627;   -0,955
651,153;18952,238;   -1,809;    0,955
651,729;19781,863;    1,191;    0,864
652,305;20016,761;    0,645;    2,773
652,881;23629,932;   -0,082;    1,136
653,458;28891,194;    1,100;    0,227
654,034;31460,001;    0,282;    1,591
654,610;32401,172;    0,554;    0,773
655,186;33477,525;    0,645;    3,045
655,762;33133,787;   -0,991;    0,409
656,338;33092,958;    0,100;    0,136
656,913;33955,856;   -0,082;    0,409
657,489;33275,754;    0,827;   -0,318
658,065;33285,925;   -0,173;   -1,591
658,641;33979,187;   -0,900;   -0,864
659,217;33349,267;   -0,991;    0,409
659,792;32834,074;    0,645;   -0,409
660,368;33053,427;   -2,173;   -0,682
660,944;32902,780;   -2,082;    1,227
661,519;29118,041;   -0,628;    0,409
662,095;24534,303;   -1,719;    0,591
662,670;21183,292;    1,281;   -0,136
663,246;20465,736;    1,009;   -0,409
663,821;19968,362;    0,281;    1,682
664,396;19476,623;    0,009;    1,864
664,972;19719,067;    0,009;   -0,500
665,547;19966,420;    1,372;    0,136
666,122;20027,772;   -1,082;    0,318
666,698;20302,580;   -0,173;    0,318
667,273;19681,205;   -0,173;    0,136
667,848;20382,013;    2,372;    1,500
668,423;20200,820;    2,190;    2,318
668,998;20609,718;    2,827;   -0,682
669,573;21026,253;   -3,264;   -1,500
670,148;20895,151;   -1,446;   -0,682
670,723;20681,867;   -1,810;    0,318
671,298;21077,220;    2,372;    1,045
671,873;21143,845;   -0,082;   -0,136
672,448;21083,107;    0,645;    0,136
673,023;21373,369;   -1,992;   -0,227
673,597;21708,358;    0,827;    2,318
674,172;21494,165;   -0,355;    0,318
674,747;20991,064;    0,372;   -1,045
675,321;20759,962;   -0,628;    3,318
675,896;20449,224;    0,645;    1,045
676,471;21299,485;    2,645;    1,591
677,045;21061,565;   -1,264;    0,682
677,620;21102,100;    0,190;    1,136
678,194;21424,089;   -2,628;    1,136
678,769;21073,169;   -1,083;   -0,318
679,343;21323,340;   -0,628;    1,773
679,917;21145,875;   -1,446;    1,955
680,492;21171,773;    0,826;    3,227
681,066;21311,035;    3,372;    0,409
681,640;21344,842;    1,463;   -0,318
682,214;22096,104;    0,735;    0,500
682,788;21657,366;   -1,356;   -0,773
683,363;21523,082;   -1,810;    1,682
683,937;21311,344;   -1,719;   -0,318
684,511;21974,515;    0,463;   -0,591
685,085;21728,231;   -1,356;    0,318
685,659;21472,311;   -2,538;    0,864
686,232;21748,391;   -0,356;   -0,318
686,806;21464,017;   -0,901;    0,409
687,380;22000,097;   -0,174;    0,591
687,954;22203,086;   -1,174;    1,136
688,528;21869,711;   -0,719;    1,955
689,101;22605,700;   -3,992;    1,045
689,675;22220,689;   -0,356;   -0,136
690,249;21593,679;   -0,719;    0,409
690,822;21931,849;    0,280;    0,318
691,396;22114,839;   -0,265;    1,227
691,969;21582,737;    1,280;    0,136
692,543;22050,999;   -0,447;   -1,955
693,116;21734,897;   -0,265;   -1,409
693,690;21595,886;    0,099;    0,500
694,263;22088,057;   -1,083;    2,955
694,836;22121,228;    1,371;    3,591
695,410;20898,217;   -0,265;    1,773
695,983;21276,842;    0,189;    0,591
696,556;21323,286;   -0,447;   -1,045
697,129;21676,002;   -0,356;    1,409
697,703;21320,628;   -1,629;    1,955
698,276;21337,708;    1,462;   -0,773
698,849;21179,424;    1,280;    1,409
699,422;21471,413;   -1,083;    0,591
699,995;21252,493;    0,007;    0,136
700,568;21688,937;   -0,629;    3,045
701,140;21693,290;   -2,811;    1,682
701,713;21511,642;   -0,174;    2,409
702,286;21243,177;   -0,538;    0,864
702,859;21081,257;   -0,902;   -0,591
703,432;20425,610;    0,825;    0,682
704,004;20824,417;    0,462;    0,318
704,577;20743,770;   -0,629;    0,136
705,150;21228,850;    0,189;    2,500
705,722;21022,748;   -0,356;   -3,227
706,295;20867,919;   -0,175;   -0,591
706,867;20704,908;   -0,175;    1,955
707,440;20906,170;   -1,720;   -0,409
708,012;21162,613;    0,462;    0,591
708,584;21103,603;    2,462;    0,227
709,157;21307,228;    1,825;   -0,591
709,729;21049,763;    2,280;    2,045
710,301;21808,297;    0,734;    0,045
710,874;21798,559;   -1,447;   -0,227
711,446;20724,548;    0,371;    0,864
712,018;20620,628;    0,098;    0,500
712,590;20398,708;   -1,993;    1,682
713,162;20878,515;    0,825;    1,318
713,734;21110,959;    1,825;   -2,045
714,306;21035,585;   -1,902;   -0,409
714,878;19858,665;    0,825;    0,864
715,450;20651,926;    0,643;    0,864
716,022;20848,188;    1,552;    1,318
716,593;21025,996;    0,189;    0,591
717,165;20980,257;   -3,175;   -1,227
717,737;20758,156;    0,280;    0,409
718,309;20465,781;    0,280;   -0,045
718,880;20392,770;   -0,539;   -1,409
719,452;20593,214;   -0,175;   -1,591
720,024;20292,385;    0,734;   -0,591
720,595;20756,828;   -2,902;    0,955
721,167;20393,090;    0,370;   -2,045
721,738;19942,807;   -0,812;   -1,045
722,309;19997,705;   -0,993;   -1,227
722,881;19797,512;   -1,357;    0,773
723,452;20338,410;   -2,630;    2,864
724,023;20527,672;   -0,721;    2,682
724,595;20320,934;    0,007;    0,682
725,166;20023,923;    0,007;   -0,409
725,737;19778,458;    1,734;    0,227
726,308;19839,265;   -0,266;    0,318
726,879;20226,436;   -1,630;    1,227
727,450;20130,788;    0,552;   -0,045
728,021;20033,232;    3,097;    0,682
728,592;19881,403;    0,734;    0,500
729,163;20173,301;    0,643;   -0,136
729,734;20197,472;    0,188;   -0,227
730,305;20485,189;    1,734;    0,136
730,876;20809,996;    0,188;    2,955
731,447;20572,621;    2,188;    2,682
732,017;20651,429;    1,097;    1,864
732,588;20216,509;    0,734;    1,227
733,159;20338,407;    0,643;   -1,045
733,729;20105,850;    0,006;    0,409
734,300;19506,567;    0,915;    0,864
734,870;19904,374;    3,461;    0,591
735,441;20421,909;    0,370;   -0,591
736,011;20202,261;    0,643;   -1,591
736,582;20144,341;   -0,812;    0,045
737,152;19653,058;   -1,721;   -2,045
737,722;20090,865;   -0,267;   -0,682
738,293;19827,400;   -1,358;    1,318
738,863;19776,116;    2,461;    2,318
739,433;19631,651;    5,279;    0,318
740,003;20152,185;   -0,994;   -0,682
740,573;19630,083;    2,097;   -1,591
741,143;19646,982;   -1,085;    0,318
741,713;20299,243;    1,188;   -0,500
742,283;20050,414;    0,915;    1,591
742,853;19874,494;    1,915;    1,591
743,423;19371,029;    1,733;    0,045
743,993;19443,473;   -0,358;    1,500
744,563;18960,098;    0,097;   -0,864
745,133;18889,814;   -0,812;   -0,864
745,702;19524,258;   -0,267;    1,773
746,272;18857,156;   -0,176;    0,591
746,842;18710,145;   -1,358;   -0,591
747,411;19077,680;   -0,267;   -0,318
747,981;19197,578;    0,097;    0,500
748,551;19212,749;    2,278;   -1,045
749,120;19090,920;    0,642;   -0,227
749,690;19414,273;   -0,631;    2,409
750,259;19735,444;    1,369;    2,955
750,828;19637,705;    1,551;   -1,955
751,398;19877,876;    1,278;   -0,045
751,967;19462,320;    2,187;    0,409
752,536;19595,491;   -0,813;   -0,227
753,105;20000,662;    0,096;    0,227
753,675;19779,560;    0,096;    1,773
754,244;19694,276;   -0,904;    3,591
754,813;19742,629;    0,551;    1,227
755,382;19350,891;    0,460;    0,955
755,951;19787,062;    1,551;    3,682
756,520;19447,142;   -0,085;    1,864
757,089;19954,949;    0,278;    0,500
757,658;20036,029;    1,733;    1,227
758,227;20067,837;    1,096;    0,318
758,795;20320,826;    1,187;    1,136
759,364;20545,633;   -0,086;   -0,591
759,933;19640,804;   -1,176;   -0,045
760,501;19212,338;    0,733;   -1,318
761,070;19628,327;   -2,813;   -1,409
761,639;20273,407;   -1,904;    1,318
762,207;19650,942;    1,551;   -0,955
762,776;19593,658;    0,369;    0,864
763,344;19592,375;   -0,995;    0,591
763,913;18654,273;   -0,722;    1,409
764,481;19393,353;    1,005;   -0,136
765,049;19254,160;   -1,358;    1,409
765,618;19133,059;   -0,086;    0,318
766,186;19267,866;    0,278;    0,136
766,754;19459,491;    0,005;    1,864
767,322;18578,299;   -1,995;    0,409
767,890;18560,197;   -0,722;   -1,773
768,459;18981,368;   -2,177;   -0,318
769,027;19136,266;    1,641;    3,409
769,595;18202,800;    3,278;    2,591
770,163;18583,790;    3,823;    2,955
770,730;18464,870;    0,732;   -0,136
771,298;18308,222;    0,187;   -1,409
771,866;18417,939;   -1,541;    4,955
772,434;18679,473;   -0,631;   -1,864
773,002;18860,553;    0,005;    0,682
773,569;18575,179;    0,914;    1,682
774,137;18368,531;   -0,268;   -0,045
774,705;19046,884;    0,278;   -0,136
775,272;18645,237;    0,641;    0,682
775,840;18499,681;   -0,177;    2,682
776,407;18041,579;    0,277;    1,955
776,975;17660,659;   -0,632;    0,318
777,542;18578,375;   -1,086;   -0,045
778,110;18474,728;   -1,268;   -0,045
778,677;18111,353;   -2,359;   -0,864
779,244;17942,797;    2,186;    1,045
779,812;18008,695;    1,823;    0,864
780,379;17904,048;    0,005;    1,136
780,946;18147,764;    1,005;   -0,773
781,513;18395,844;   -1,450;    0,318
782,080;17832,833;   -0,086;    2,864
782,647;18462,186;   -0,268;    3,045
783,214;18190,993;   -0,177;    3,864
783,781;17862,346;   -0,723;   -0,682
784,348;17746,790;   -0,632;    1,500
784,915;18086,143;   -3,177;    0,318
785,482;17906,132;    1,368;    2,591
786,049;18352,575;    0,186;   -0,591
786,615;18467,837;    0,277;   -0,955
787,182;18170,917;    0,186;   -0,682
787,749;17879,361;   -2,814;    1,409
788,315;17258,895;   -1,632;   -0,409
788,882;17575,612;    1,550;   -1,227
789,448;18237,055;    1,732;   -0,955
790,015;18255,045;    1,095;    3,227
790,581;17888,579;    1,459;    0,227
791,148;17762,932;    0,641;    1,045
791,714;17932,921;   -0,541;    3,136
792,280;17667,910;    0,186;    1,591
792,847;17347,990;    0,550;    2,500
793,413;17802,616;   -0,269;   -0,318
793,979;17458,786;    3,459;   -1,318
794,545;17512,776;    4,459;    2,682
795,111;17034,856;    2,186;    1,318
795,678;17164,117;    0,731;   -1,682
796,244;16879,470;    3,368;    0,136
796,810;17350,277;    1,731;    0,773
797,375;17099,176;    0,549;   -2,136
797,941;17090,710;   -0,541;    0,591
798,507;17199,336;   -0,451;   -0,955
799,073;16819,870;   -0,360;    0,591
799,639;16884,859;   -2,632;    3,136
800,205;16899,394;    0,095;    2,682
800,770;16542,474;    0,640;    1,773
801,336;16593,918;    1,368;   -0,955
801,901;16383,543;    4,549;    3,136
802,467;16919,987;   -0,542;    2,045
803,033;16311,794;   -0,087;    0,864
803,598;16511,692;    1,913;   -1,045
804,163;16574,227;    1,095;   -0,318
804,729;16506,579;   -0,178;    1,136
805,294;16839,114;    0,822;    2,227
805,859;16617,830;    0,731;   -0,409
806,425;16239,274;    1,186;    2,682
806,990;15944,445;    2,186;    4,318
807,555;16331,980;   -1,451;    2,591
808,120;16283,332;    0,822;   -0,409
808,685;16295,776;    0,185;   -2,500
809,250;15893,856;    0,004;   -0,500
809,815;16145,936;    1,913;    0,682
810,380;16605,652;   -0,269;    1,591
810,945;17029,732;   -1,087;    2,045
811,510;16339,176;    2,094;    1,591
812,075;16082,983;   -0,633;   -1,409
812,640;16094,609;    2,003;    1,409
813,204;16181,143;    0,822;   -0,227
813,769;16657,496;    2,094;   -0,045
814,334;16188,849;    0,458;    0,864
814,898;16173,474;    0,367;    0,591
815,463;15944,554;    1,276;   -0,773
816,027;15958,725;   -0,724;   -2,318
816,592;16082,532;    0,640;   -2,045
817,156;15703,522;    2,094;    1,136
817,721;15595,511;    4,276;    2,318
818,285;15581,409;    2,912;    1,500
818,849;16152,580;   -1,451;    1,682
819,414;16047,205;   -0,269;    2,955
819,978;15622,013;   -1,269;    1,773
820,542;16160,729;    2,003;    0,500
821,106;15990,536;   -0,815;    0,682
821,670;16067,162;   -0,815;    2,591
822,234;15756,605;   -0,270;    1,409
822,798;15296,958;    0,003;    0,500
823,362;15299,402;   -0,633;    4,227
823,926;14761,209;    0,094;    1,136
824,490;14950,380;   -0,997;   -0,682
825,054;15336,642;   -0,088;   -1,136
825,618;15079,813;   -1,542;   -1,500
826,181;15006,984;    0,458;   -1,318
826,745;14951,700;    1,367;   -1,045
827,309;15239,871;    1,185;    1,318
827,872;14747,587;    1,367;    0,955
828,436;15618,849;    1,185;   -0,773
828,999;15760,475;   -0,997;    1,227
829,563;14734,464;   -0,179;    1,136
830,126;14543,453;   -0,179;   -0,591
830,690;14588,078;   -1,997;    2,864
831,253;14146,613;   -0,543;    2,227
831,816;14297,966;   -1,906;    0,500
832,380;14186,046;    0,185;    0,864
832,943;14427,580;   -1,361;   -0,500
833,506;13972,660;    2,639;   -1,227
834,069;14676,377;    3,912;   -0,955
834,632;14756,729;    1,730;    1,318
835,195;14672,446;    1,003;    0,955
835,758;13992,980;   -0,997;    1,955
836,321;13835,515;    0,730;   -1,045
836,884;13952,686;   -0,725;   -0,955
837,447;13942,038;   -2,816;    1,773
838,010;14190,937;    0,366;    3,227
838,573;14470,198;   -1,179;    0,773
839,135;14462,642;   -1,361;   -0,955
839,698;13963,449;    1,275;    0,409
840,261;13508,075;    1,003;   -0,227
840,823;13405,518;   -0,543;    0,864
841,386;13676,508;   -0,452;   -2,409
841,948;13569,951;   -1,361;    1,773
842,511;13327,122;    0,912;    1,682
843,073;13447,202;    1,912;    0,227
843,636;13250,646;   -0,361;   -0,227
844,198;13263,908;    0,911;    0,591
844,760;13372,260;    1,093;    1,955
845,322;13045,522;    0,548;    1,136
845,885;13464,511;    0,730;    0,591
846,447;13857,410;   -1,998;    0,227
847,009;13552,944;    1,911;   -0,682
847,571;13764,933;    0,820;   -2,045
848,133;13839,377;   -1,089;   -1,864
848,695;13684,457;   -0,543;    1,409
849,257;13280,446;   -1,089;   -1,682
849,819;13487,071;   -0,998;   -0,409
850,381;13475,242;   -0,725;   -0,864
850,942;13754,777;    1,093;   -0,591
851,504;13694,493;    1,184;    0,227
852,066;13712,482;    1,275;   -1,591
852,628;13381,290;   -0,180;    1,955
853,189;12965,188;    1,638;    2,682
853,751;13072,722;   -0,907;    1,409
854,312;12857,621;   -0,453;   -1,682
854,874;13310,610;   -2,089;   -0,773
855,435;13758,235;   -0,907;   -1,682
855,997;13918,588;   -1,816;   -0,136
856,558;13283,850;    0,366;    1,773
857,119;13377,112;    0,820;    2,864
857,681;13091,283;    0,002;    0,318
858,242;13164,908;    1,911;   -2,136
858,803;13587,988;    0,456;   -0,773
859,364;14103,250;    0,184;   -4,773
859,925;13537,966;   -2,453;   -0,955
860,486;13404,410;   -0,453;   -0,955
861,047;13165,035;   -0,544;   -1,227
861,608;12986,115;   -1,089;   -0,773
862,169;13147,832;    0,638;   -0,045
862,730;12913,003;    0,456;    1,409
863,291;13159,810;   -0,635;   -0,500
863,852;13504,799;   -0,635;    1,955
864,412;13002,061;   -0,271;   -0,864
864,973;11814,232;   -0,089;    0,500
865,534;11712,857;   -1,726;    0,227
866,094;12947,755;    1,820;    0,227
866,655;12669,017;    1,274;    3,318
867,215;12975,825;    0,274;    0,136
867,776;12844,905;    0,547;   -0,136
868,336;12889,621;   -1,453;    0,136
868,897;12533,065;    2,638;    1,682
869,457;12304,054;    1,365;    0,318
870,017;12520,134;    0,547;   -1,227
870,578;12939,396;   -0,817;    0,773
871,138;12597,567;   -2,089;   -0,955
871,698;12211,828;   -0,817;   -1,318
872,258;12135,636;   -0,453;   -2,864
872,818;12494,897;    2,729;    0,045
873,378;12510,887;    0,638;    1,045
873,938;12075,057;    0,547;    0,500
874,498;12345,137;    0,274;   -1,955
875,058;12272,854;    2,183;    1,773
875,618;12154,298;    1,910;   -2,682
876,177;12084,832;    1,274;    0,136
876,737;11740,185;   -0,090;    1,955
877,297;11842,083;    0,183;    1,955
877,856;11860,799;   -0,362;    0,318
878,416;11780,879;    1,183;   -0,136
878,976;11957,232;   -1,817;    0,409
879,535;12138,403;    0,092;    3,136
880,095;11917,210;   -0,544;    0,045
880,654;12015,109;   -1,090;    1,318
881,213;12143,189;    2,456;    1,500
881,773;11800,905;    2,637;    2,682
882,332;12142,167;    3,365;    5,136
882,891;11997,701;    3,092;    2,136
883,451;12359,327;   -1,272;    1,682
884,010;11853,680;   -2,908;   -0,409
884,569;11960,487;   -0,999;   -0,045
885,128;12087,203;    2,819;   -1,864
885,687;12189,101;    4,455;    0,682
886,246;11950,091;    1,455;    2,136
886,805;11681,807;    2,455;    2,045
887,364;11881,160;   -0,999;   -0,500
887,922;12220,603;   -1,181;    0,045
888,481;11781,956;   -1,545;    0,591
889,040;12038,218;    1,183;    2,136
889,599;12560,480;    2,455;    1,409
890,157;12639,105;    1,455;    2,409
890,716;12280,094;   -0,090;    0,227
891,274;12100,265;    0,092;   -1,136
891,833;12486,436;    1,546;    0,864
892,391;12347,152;   -0,454;    0,500
892,950;12394,505;    1,819;   -0,773
893,508;12753,403;    0,455;   -0,409
894,067;12183,211;    0,637;    0,136
894,625;12098,473;   -0,636;   -1,500
895,183;12304,734;   -0,363;   -0,682
895,741;12242,905;    1,728;   -1,773
896,299;12063,713;   -0,545;   -2,409
896,858;12231,974;    0,819;   -1,591
897,416;12370,964;    2,728;   -1,318
897,974;12156,225;    1,819;    0,318
898,532;12349,487;    6,091;    2,682
899,089;12273,204;    2,091;   -0,682
899,647;12354,011;   -1,454;    1,318
900,205;12128,818;    1,182;    1,045
900,763;12249,080;   -0,454;    0,227
901,321;12265,433;    2,364;   -1,409
901,878;11740,331;   -1,000;   -0,773
902,436;11649,865;   -1,363;    1,318
902,994;12083,309;    4,728;    3,682
903,551;11585,571;    0,728;    0,409
904,109;11909,651;    0,182;   -1,409
904,666;11576,276;    2,455;    1,045
905,224;11416,993;    0,182;   -0,409
905,781;11273,073;    0,727;   -0,318
906,338;11281,698;   -1,363;    1,045
906,895;11216,142;    0,637;    2,045
907,453;11198,586;    1,727;    1,136
908,010;11224,120;   -0,909;    0,409
908,567;10960,382;    1,273;    0,591
909,124;10499,462;    0,364;   -1,500
909,681;10567,633;   -2,909;    0,682
910,238;10781,895;    0,636;   -1,318
910,795;11081,157;   -0,273;   -1,136
911,352;10696,702;   -2,909;   -2,682
911,909;10250,702;   -1,364;   -0,864
912,466;10736,157;   -3,182;    1,500
913,022;10321,429;   -1,636;    0,500
913,579;10644,793;   -0,909;    2,045
914,136;10380,611;    1,636;    0,955
914,692;10723,338;    0,091;   -1,227
915,249;10322,884;    1,455;    0,409
915,806;10509,884;    0,182;    1,955
916,362;10370,429;    1,909;    1,864
916,918; 9969,429;    2,000;    1,045
917,475; 9967,429;   -1,182;    0,955
918,031;10034,429;    3,364;   -0,045
918,587; 9604,611;   -0,909;   -0,318
919,144; 9824,520;   -2,273;    0,227
919,700;10050,157;    1,727;    0,773
920,256; 9662,338;    0,727;    0,045
920,812; 9400,247;   -0,727;   -1,045
921,368; 9467,429;   -1,727;   -1,045
921,924; 9146,157;    0,182;   -0,136
922,480; 8799,338;   -0,545;    1,227
923,036; 9388,611;    1,273;    1,955
923,592; 9321,338;    0,455;    0,318
924,148; 9265,884;    0,455;   -0,955
924,704; 8710,702;   -1,364;   -0,409
925,259; 8994,975;   -0,273;    0,591
925,815; 8792,611;    1,455;    0,500
926,371; 8383,429;    2,909;    1,409
926,926; 8333,702;    2,091;    0,591
927,482; 8023,975;   -1,364;    0,773
928,037; 7964,429;    0,909;    2,045
928,593; 8287,247;    1,636;    1,045
929,148; 8127,157;   -1,818;   -1,500
929,704; 7728,429;   -1,455;   -0,500
930,259; 7890,520;    0,091;   -0,136
930,814; 7161,884;   -0,818;    1,955
931,369; 6919,066;    1,091;   -0,773
931,925; 6849,338;   -0,091;    0,136
932,480; 6764,157;   -2,818;   -2,591
933,035; 6757,338;    0,545;   -0,318
933,590; 6585,338;    0,364;   -1,773
934,145; 6284,247;   -1,364;   -0,318
934,700; 6568,611;    0,455;   -0,591
935,255; 6440,247;   -0,091;    0,045
935,809; 5953,793;    3,182;    0,864
936,364; 5221,793;   -0,455;   -0,136
936,919; 5273,702;    0,455;   -1,773
937,474; 5177,793;    1,455;    0,136
938,028; 5004,975;   -1,636;    1,136
938,583; 4681,338;    1,818;    4,682
939,138; 4877,066;    2,091;    2,136
939,692; 4418,520;    1,636;   -1,136
940,247; 4213,429;   -0,727;   -1,045
940,801; 3939,793;   -0,636;    0,227
941,355; 3862,702;   -0,364;    2,591
941,910; 3573,702;   -0,273;   -2,136
942,464; 3686,338;   -0,818;   -0,318
943,018; 3620,520;    1,000;   -0,227
943,572; 3548,247;    2,545;   -0,682
944,126; 3130,066;    0,091;   -0,409
944,681; 3008,884;    3,091;    0,227
945,235; 2999,520;    1,000;   -0,591
945,789; 2939,520;    0,364;   -1,864
946,342; 3130,793;    0,455;   -0,591
946,896; 2895,884;   -2,273;    0,955
947,450; 2675,247;    1,545;   -0,227
948,004; 2943,975;    1,727;   -0,045
948,558; 2897,429;    0,273;   -0,864
949,111; 2822,611;   -0,273;   -0,318
949,665; 2949,793;    1,636;   -0,682
950,219; 2840,793;   -0,091;   -1,045
950,772; 2857,338;   -1,909;    1,864
951,326; 2792,975;    0,545;   -0,955
951,879; 2830,520;    0,727;   -2,318
952,433; 2894,793;    0,000;    2,227
952,986; 2716,520;    2,909;    0,682
953,539; 2652,338;   -0,273;    0,591
954,093; 2621,884;    0,545;   -1,318
954,646; 2764,066;    0,909;    1,318
955,199; 2587,247;    0,000;   -0,500
955,752; 2574,429;   -0,455;    1,773
956,305; 2514,157;   -0,091;    2,955
956,858; 2641,247;    0,818;   -0,318
957,411; 2779,793;   -0,545;    2,136
957,964; 2610,702;    1,364;    2,136
958,517; 2585,793;   -1,545;    3,136
959,070; 2451,157;   -0,455;    1,955
959,623; 2635,429;    1,091;    1,500
960,176; 2428,702;    1,727;    2,045
960,728; 2405,338;   -2,727;    0,773
961,281; 2429,702;    0,545;    0,500
961,834; 2453,611;   -0,909;    0,864
962,386; 2383,066;    1,727;    1,045
962,939; 2322,338;    0,364;   -0,318
963,491; 2437,066;    0,455;    1,136
964,043; 2332,520;    1,182;    2,409
964,596; 2484,247;   -1,000;    2,227
965,148; 2320,611;   -1,000;    1,773
965,700; 2237,884;    1,091;   -0,227
966,253; 2389,429;   -0,636;    0,318
966,805; 2285,338;   -2,273;    0,773
967,357; 2290,702;    1,091;   -1,500
967,909; 2306,338;    0,455;   -1,227
968,461; 2321,793;    0,545;    3,136
969,013; 2277,793;   -0,182;   -0,864
969,565; 2377,975;   -0,455;   -1,136
970,117; 2572,611;   -0,364;    1,045
970,669; 2298,520;    0,182;   -0,136
971,220; 2140,975;   -0,455;   -1,500
971,772; 2110,066;   -0,636;   -0,318
972,324; 2239,975;    0,091;   -0,500
972,876; 2152,611;    0,818;   -0,045
973,427; 2338,793;    1,909;   -1,045
973,979; 2323,157;   -0,727;   -2,500
974,530; 2252,066;    1,818;    1,318
975,082; 2263,702;   -0,545;    1,682
975,633; 2187,157;    1,091;    1,682
976,184; 2331,884;    0,909;    0,773
976,736; 2181,066;    0,091;    0,227
977,287; 2044,611;   -0,909;   -0,500
977,838; 2161,793;    0,909;   -0,318
978,389; 2208,338;   -1,000;   -0,500
978,940; 2049,793;    0,545;   -0,409
979,491; 2074,793;    0,091;   -0,500
980,042; 2084,611;    0,182;    3,045
980,593; 2104,702;   -2,545;    0,227
981,144; 2199,429;    2,545;   -0,500
981,695; 2226,520;    1,455;    1,500
982,246; 2156,793;   -0,273;    1,045
982,797; 2200,520;   -1,727;    0,682
983,347; 2338,702;    0,364;    0,591
983,898; 2545,338;    3,091;    0,409
984,449; 2399,338;    2,182;    0,773
984,999; 2221,884;    1,455;   -1,136
985,550; 2094,884;    0,182;   -0,318
986,100; 2029,520;   -0,455;   -0,318
986,651; 2065,611;   -0,818;    0,045
987,201; 2065,611;   -1,000;   -0,591
987,751; 2146,975;    0,818;    2,864
988,302; 2158,611;    2,636;    1,500
988,852; 2154,247;    0,455;   -1,136
989,402; 2250,611;    0,091;    0,682
989,952; 2191,793;   -2,182;    0,864
990,502; 2206,066;   -0,091;    0,682
991,052; 2133,338;   -0,727;    0,045
991,602; 2045,884;   -2,909;    1,318
992,152; 2071,702;    0,455;    0,682
992,702; 2075,157;    1,364;   -0,045
993,252; 1996,247;   -3,000;   -0,500
993,802; 2123,702;   -0,273;    1,318
994,352; 2272,429;   -1,545;    1,136
994,901; 2278,793;   -0,182;    3,227
995,451; 2212,520;   -0,182;    0,318
996,000; 2296,793;    1,636;    0,318
996,550; 2072,066;    2,273;    0,227
997,100; 2075,611;    1,273;   -0,045
997,649; 2344,611;    2,182;    0,955
998,198; 2037,975;    1,727;   -1,500
998,748; 2243,975;    1,091;   -2,318
999,297; 2113,429;   -0,818;   -0,409
999,846; 2222,975;    1,000;   -0,773
1000,395; 2206,793;   -0,818;    0,500
1000,945; 2240,611;    1,818;   -0,773
1001,494; 2293,429;    2,364;    0,682
1002,043; 2270,793;    4,636;    0,864
1002,592; 2078,702;   -1,091;    1,955
1003,141; 2215,247;   -0,455;   -0,682
1003,690; 2160,157;    1,727;    0,500
1004,238; 2141,520;    1,455;   -0,045
1004,787; 1842,884;    1,364;    1,227
1005,336; 2137,066;    0,364;    0,682
1005,885; 2186,429;    1,364;   -2,773
1006,433; 2253,611;    0,545;    0,955
1006,982; 2423,793;    0,455;    1,682
1007,531; 2262,793;   -1,818;   -0,227
1008,079; 2175,611;   -2,273;    0,500
1008,627; 2274,611;   -1,455;    0,409
1009,176; 2091,066;    0,000;   -1,955
1009,724; 2108,702;    1,091;    0,864
1010,273; 2235,520;    1,273;    0,500
1010,821; 2244,157;    0,091;    1,409
1011,369; 2055,611;   -1,364;    1,318
1011,917; 2042,520;   -1,364;   -0,591
1012,465; 2290,975;    1,273;   -1,591
1013,013; 2341,338;    2,091;   -1,682
1013,561; 2308,338;    0,455;   -0,773
1014,109; 2401,338;   -1,909;    1,682
1014,657; 2250,247;    0,364;    0,591
1015,205; 2281,157;    1,636;   -0,955
1015,753; 2271,338;   -0,545;   -1,409
1016,301; 2343,611;   -2,636;    3,045
1016,848; 2356,520;   -1,273;    0,409
1017,396; 2413,884;    2,545;    0,045
1017,944; 2499,066;    1,182;    1,864
1018,491; 2257,975;    0,273;    1,409
1019,039; 2533,247;    0,455;    0,591
1019,586; 2345,157;   -1,364;    1,682
1020,134; 2393,157;    0,455;    1,500
1020,681; 2446,429;    0,182;   -1,136
1021,228; 2392,429;    2,909;   -2,227
1021,776; 2280,066;    1,182;   -1,136
1022,323; 2531,702;    0,455;    0,773
1022,870; 2449,338;   -1,000;   -0,045
1023,417; 2410,520;    2,636;    1,864
1023,964; 2431,338;    2,636;    1,227
1024,511; 2339,611;    1,000;    0,773
1025,058; 2172,975;    3,182;   -0,045
1025,605; 2209,611;   -2,273;    3,136
1026,152; 2480,611;    1,727;   -0,591
1026,699; 2209,702;    1,818;    1,318
1027,245; 2306,520;   -0,091;    0,318
1027,792; 2421,066;   -1,000;    1,409
1028,339; 2428,884;    2,364;   -0,045
1028,885; 2280,611;    1,000;   -0,227
1029,432; 2219,520;   -0,091;    0,227
1029,978; 2305,884;   -1,000;   -1,591
1030,525; 2205,793;    1,000;    0,409
1031,071; 2346,338;   -1,364;    1,136
1031,618; 2563,247;    0,364;    1,682
1032,164; 2325,611;   -0,091;    3,045
1032,710; 2372,520;    1,636;   -1,500
1033,256; 2279,066;   -0,636;   -0,136
1033,803; 2202,247;   -0,545;    1,500
1034,349; 1979,247;   -1,364;    0,136
1034,895; 2111,247;    0,000;   -0,318
1035,441; 2113,520;   -0,818;    0,318
1035,987; 2151,247;   -2,364;   -0,682
1036,533; 2189,338;   -1,455;   -0,955
1037,078; 2403,702;    1,455;    1,682
1037,624; 2212,338;    2,455;   -0,955
1038,170; 2183,884;    0,455;   -0,318
1038,716; 2163,702;    1,636;   -0,409
1039,261; 2035,975;   -2,273;   -0,773
1039,807; 2008,520;   -0,091;    3,409
1040,352; 2084,793;   -1,909;   -0,318
1040,898; 2094,338;   -1,545;   -0,682
1041,443; 2004,975;   -1,455;   -2,591
1041,989; 2161,793;    1,091;    1,591
1042,534; 1975,338;   -0,364;    2,591
1043,079; 2004,520;    2,909;    0,955
1043,625; 1895,429;    1,818;    0,500
1044,170; 1966,429;   -1,364;    1,045
1044,715; 2228,429;    2,455;    0,955
1045,260; 2041,157;    2,182;   -0,955
1045,805; 2017,793;    1,182;   -0,591
1046,350; 1942,520;    1,364;   -0,409
1046,895; 2012,247;    2,909;    1,591
1047,440; 1989,702;    5,364;    0,409
1047,985; 1849,429;    2,818;   -0,955
1048,530; 1767,702;    1,545;    1,227
1049,074; 1849,520;    0,000;    0,318
1049,619; 1800,793;   -1,364;    1,955
1050,164; 1663,429;    0,455;    0,227
1050,708; 1699,975;   -0,455;    0,045
1051,253; 2118,975;    1,273;   -2,227
1051,797; 1813,066;    0,818;   -1,318
1052,342; 1745,702;   -1,182;    1,045
1052,886; 1784,157;    0,364;   -1,409
1053,430; 1640,429;   -1,364;    0,136
1053,975; 1683,429;   -0,818;   -0,318
1054,519; 1696,793;   -0,727;    3,227
1055,063; 1763,884;    0,909;    1,318
1055,607; 1673,884;   -0,182;    0,227
1056,151; 1678,066;    2,909;    1,682
1056,695; 1557,793;    2,273;   -1,136
1057,239; 1612,338;   -1,727;   -0,682
1057,783; 1655,157;    0,818;   -1,500
1058,327; 1663,793;    0,000;    1,409
1058,871; 1888,066;   -0,545;    1,318
1059,415; 1616,157;   -0,818;   -0,045
1059,958; 1905,884;    1,455;    2,591
1060,502; 1603,884;   -1,000;   -0,773
1061,046; 1469,247;    0,364;   -0,955
1061,589; 1434,702;   -3,000;   -1,136
1062,133; 1342,066;   -1,273;    1,864
1062,676; 1325,520;    1,182;    0,864
1063,220; 1356,429;    1,091;    0,500
1063,763; 1383,066;    0,909;    1,136
1064,306; 1456,702;   -0,909;    1,864
1064,849; 1369,611;   -0,909;    0,591
1065,393; 1375,975;    2,000;   -1,500
1065,936; 1429,611;    0,182;   -0,409
1066,479; 1302,793;   -1,455;    1,318
1067,022; 1345,338;   -0,273;   -0,227
1067,565; 1272,429;   -0,091;   -1,318
1068,108; 1267,793;    0,727;   -0,591
1068,651; 1223,793;   -0,636;    1,409
1069,194; 1190,975;   -0,455;   -1,682
1069,736; 1216,520;   -1,273;    0,955
1070,279; 1171,702;   -1,364;   -0,500
1070,822; 1269,702;   -2,000;   -0,318
1071,364; 1398,884;   -0,364;    1,318
1071,907; 1185,884;   -0,727;    3,227
1072,450; 1035,702;    0,000;   -0,045
1072,992; 1077,975;   -0,273;    3,136
1073,535; 1245,520;    2,091;    2,136
1074,077; 1045,157;   -0,727;    2,045
1074,619; 1028,793;   -1,364;    0,591
1075,161; 1065,247;   -1,091;    1,500
1075,704; 1256,066;    1,545;    1,227
1076,246; 1022,520;   -0,182;    0,682
1076,788;  944,702;   -0,364;    1,773
1077,330;  998,702;    1,273;    2,136
1077,872; 1011,157;    0,909;    0,955
1078,414; 1267,520;    2,727;    0,773
1078,956;  995,338;    1,273;   -0,227
1079,498; 1264,884;    1,636;    0,318
1080,040;  983,702;    1,909;   -1,318
1080,581;  915,611;    1,636;   -0,318
1081,123;  829,338;    0,091;   -0,773
1081,665;  868,429;   -1,182;   -0,955
1082,206; 1189,429;    1,364;   -0,500
1082,748; 1047,884;    0,727;    2,045
1083,289;  904,429;   -2,000;    1,318
1083,831;  836,066;   -0,545;    0,227
1084,372;  901,247;    0,000;    0,591
1084,913;  889,702;    1,091;    0,864
1085,455;  836,338;   -1,909;   -2,045
1085,996;  833,884;   -2,273;    0,136
1086,537;  875,611;   -0,091;    0,864
1087,078;  900,884;   -0,909;   -2,136
1087,619;  949,157;   -1,273;    0,227
1088,160;  867,157;    0,000;    1,318
1088,701;  840,520;   -1,091;    0,682
1089,242;  799,338;    1,364;   -2,227
1089,783;  903,247;   -0,273;    1,409
1090,324;  859,884;    0,455;    0,682
1090,865;  742,884;    2,727;   -0,409
1091,405;  695,338;    0,727;    2,227
1091,946;  734,157;    0,182;   -0,955
1092,487;  662,975;    0,818;   -1,409
1093,027;  852,066;   -1,364;   -1,500
1093,568;  707,338;   -0,364;    1,227
1094,108;  807,611;    0,273;    1,773
1094,649;  743,066;   -1,182;    0,136
1095,189;  676,975;   -0,636;   -0,682
1095,729;  648,429;   -0,091;    0,955
1096,269;  633,611;    0,727;   -0,955
1096,810;  955,793;   -1,364;    0,500
1097,350;  797,520;    1,364;   -0,773
1097,890;  687,793;    0,364;    1,227
1098,430;  954,066;    2,364;    2,864
1098,970;  837,429;    2,182;    1,682
1099,510;  677,520;    0,545;   -2,318
1100,050;  612,884;    1,000;   -1,591
1100,589;  599,429;   -0,727;   -0,318
1101,129;  717,520;    0,818;   -0,955
1101,669;  880,429;    1,727;    2,136
1102,209;  700,975;   -0,091;    2,227
1102,748;  664,429;    0,000;    0,955
1103,288;  657,702;    1,273;   -1,227
1103,827;  670,975;    3,091;   -2,227
1104,367;  561,702;   -0,091;   -2,409
1104,906;  524,338;    1,364;   -1,136
1105,445;  608,975;    0,636;   -1,136
1105,985;  557,520;   -0,727;    1,500
1106,524;  602,884;   -1,727;   -0,682
1107,063;  580,702;   -2,727;    1,409
1107,602;  542,884;   -1,909;   -1,500
1108,141;  487,793;   -1,909;    1,500
1108,680;  599,520;   -3,455;   -0,591
1109,219;  532,884;   -0,909;   -0,500
1109,758;  525,793;    0,455;    0,682
1110,297;  498,702;    1,000;   -0,682
1110,836;  448,247;   -0,727;    0,955
1111,375;  604,702;   -2,545;    0,409
1111,913;  623,338;   -1,000;    0,773
1112,452;  553,611;   -0,273;    0,136
1112,991;  442,611;    1,091;    1,955
1113,529;  406,611;   -0,818;   -0,045
1114,068;  481,520;   -0,273;    2,955
1114,606;  399,702;   -0,364;   -0,955
1115,144;  559,429;   -1,273;    1,045
1115,683;  494,247;   -0,727;    0,318
1116,221;  534,793;   -0,455;   -0,864
1116,759;  447,702;    0,636;   -0,864
1117,297;  632,429;    0,000;    1,864
1117,836;  458,066;   -2,182;   -1,227
1118,374;  471,702;    0,182;   -0,682
1118,912;  412,338;    0,909;    2,682
1119,450;  404,884;    1,000;    0,864
1119,988;  448,429;    1,545;    2,136
1120,525;  894,429;    5,091;    3,318
1121,063;  608,611;    1,182;    1,864
1121,601;  425,520;   -0,909;   -1,227
1122,139;  382,157;   -0,727;   -2,045
1122,676;  581,884;   -0,727;    2,773
1123,214;  514,884;   -1,182;    4,409
1123,751;  334,702;    1,727;    2,227
1124,289;  445,975;   -0,091;   -0,409
1124,826;  331,066;    1,727;    0,227
1125,364;  255,793;    1,727;   -0,955
1125,901;  442,520;    1,182;    1,227
1126,438;  553,884;    0,818;    0,955
1126,975;  291,702;   -0,727;   -0,773
1127,513;  360,338;    0,273;    2,136
1128,050;  267,066;    1,636;   -0,682
1128,587;  357,338;    2,000;   -0,227
1129,124;  405,520;    0,091;    1,318
1129,661;  280,884;    0,273;    0,227
1130,198;  441,793;    1,636;    0,773
1130,734;  383,611;    0,182;    1,409
1131,271;  255,975;   -0,909;    0,864
1131,808;  425,702;    2,909;    3,045
1132,345;  306,157;    1,545;    0,318
1132,881;  179,066;   -1,545;   -1,864
1133,418;  314,157;    0,727;   -1,136
1133,954;  250,338;    2,455;   -2,682
1134,491;  326,429;    1,364;   -0,773
1135,027;  236,157;    2,364;    0,864
1135,564;  318,247;    0,273;    2,955
1136,100;  308,520;    0,364;    2,136
1136,636;  199,429;   -1,273;   -1,045
1137,172;  281,793;    0,000;   -1,045
1137,708;  219,066;   -1,364;   -1,045
1138,245;  224,975;    1,273;   -1,227
1138,781;  177,884;    1,091;   -3,318
1139,317;  248,702;    1,273;   -1,409
1139,852;  242,429;    3,091;    0,136
1140,388;  342,520;   -1,182;   -0,409
1140,924;  238,066;   -1,091;   -2,227
1141,460;  173,157;   -1,636;    0,136
1141,996;  124,157;   -1,364;    2,682
1142,531;  165,975;    1,364;    3,318
1143,067;  363,702;    1,182;    1,045
1143,602;  419,157;   -0,091;   -0,318
1144,138;  270,702;   -2,636;    1,045
1144,673;  148,338;   -1,455;    1,409
1145,209;  207,066;   -1,909;   -0,318
1145,744;  137,338;   -0,727;    0,864
1146,279;  263,157;    1,818;   -0,136
1146,815;  182,793;    1,545;   -2,682
1147,350;  225,884;   -1,364;    0,045
1147,885;  142,702;   -0,818;   -1,318
1148,420;  147,157;   -2,273;    0,773
1148,955;  129,884;   -1,727;    1,864
1149,490;  142,066;   -0,909;   -1,591
1150,025;  131,157;    0,455;   -1,773
1150,560;  238,793;    1,091;   -0,955
1151,094;  218,429;    1,455;   -0,591
1151,629;  215,793;    1,636;    0,864
1152,164;  139,793;    1,364;    1,318
1152,698;  108,520;   -0,182;   -0,136
1153,233;   75,429;    0,091;   -0,682
1153,767;  113,338;   -3,000;   -2,318
1154,302;  161,429;   -1,455;    1,773
1154,836;  157,429;   -0,455;   -2,136
1155,371;  204,611;   -1,364;    3,682
1155,905;  162,611;   -0,636;    1,682
1156,439;  144,520;   -0,636;   -0,500
1156,973;  177,429;    0,364;    0,318
1157,507;  112,157;   -0,364;    0,682
1158,042;  139,157;   -0,727;    1,045
1158,576;  179,793;    0,182;    1,773
1159,110;  174,157;   -0,818;    2,409
1159,643;  145,884;    0,636;   -0,045
1160,177;   90,975;   -1,545;    1,500

