
Integration time [ms]:   0,040
Averaging Nr. [scans]: 11
Smoothing Nr. [pixels]: 0
Data measured with spectrometer [name]: 7318044SP
Wave   ;Sample   ;Dark     ;Reference
[nm]   ;[counts] ;[counts] ;[counts] 

186,757;   22,140;   31,551;    1,318
187,357;   48,043;   22,551;    0,955
187,958;   26,658;   15,460;   -1,591
188,558;   64,548;    8,915;   -1,227
189,159;   28,157;    6,733;   -4,500
189,759;    6,703;    7,278;   -3,591
190,360;    8,557;    2,824;   -2,136
190,960;   37,024;    2,915;   -4,136
191,560;   50,435;    3,189;   -6,591
192,161;  263,686;    4,372;   -3,500
192,761;  126,645;    4,010;   -3,227
193,361;   70,550;    1,556;   -3,773
193,962;  116,460;    2,010;   -2,682
194,562;   45,993;    1,189;   -3,955
195,162;   67,770;   -2,448;   -2,227
195,762;  191,920;   -3,176;   -0,045
196,362;  143,649;    1,370;   -2,500
196,963;   49,108;    2,006;   -0,864
197,563;   98,162;    1,551;   -0,955
198,163;   46,579;    0,096;   -0,682
198,763;   64,621;    1,733;   -0,500
199,363;  140,894;    3,096;   -0,500
199,963;  108,265;    0,369;    0,409
200,563;   84,449;    2,823;   -1,409
201,163;   65,839;    3,277;   -0,227
201,763;  125,952;    3,732;    0,318
202,363;   72,363;    1,459;    1,500
202,963;  145,866;    1,459;    1,045
203,563;  236,501;    0,277;    0,500
204,162;  120,865;    2,096;   -1,864
204,762;  113,443;    0,550;    0,591
205,362;   78,075;    3,004;    1,955
205,962;  153,135;    3,096;    1,955
206,562;  150,028;    1,823;    2,318
207,161;  123,627;   -0,087;    0,318
207,761;  262,505;    1,277;    2,409
208,361;  149,820;   -0,268;    1,409
208,960;  221,277;    0,459;    1,500
209,560;  256,557;    1,277;    1,591
210,160;  256,963;    0,550;    1,864
210,759;  223,665;    4,186;    1,227
211,359;  217,492;    1,459;    1,045
211,958;  427,077;    1,277;    2,045
212,558;  487,485;    1,732;    1,864
213,157;  357,738;    1,822;    1,500
213,757;  708,175;    3,822;   -0,227
214,356;  443,194;    1,277;   -0,409
214,956;  716,915;    3,095;    0,409
215,555;  398,972;    2,095;    2,136
216,154;  346,813;   -2,723;   -0,591
216,754;  339,767;    0,277;    0,773
217,353;  432,126;   -0,268;   -1,045
217,952;  297,658;   -0,178;    0,318
218,552;  510,635;    1,368;   -0,773
219,151;  390,479;    0,277;    0,955
219,750;  379,370;    0,004;   -0,227
220,349;  387,318;   -0,451;    1,045
220,948;  533,094;   -1,360;    1,136
221,548;  441,589;    0,913;    1,227
222,147;  530,997;   -0,087;   -0,409
222,746;  787,343;   -0,451;   -0,955
223,345;  625,413;    0,731;    0,500
223,944;  630,545;   -0,451;    0,773
224,543;  699,201;    1,004;   -1,409
225,142;  781,485;    0,094;    0,136
225,741;  693,910;   -0,814;    1,045
226,340;  681,093;   -0,451;   -0,955
226,939;  970,223;   -0,996;   -0,136
227,538;  748,636;   -0,360;   -0,773
228,137;  955,472;   -0,814;    0,864
228,735;  901,949;   -0,541;    1,227
229,334;  710,630;   -0,905;   -0,227
229,933; 1039,813;    0,459;    0,591
230,532; 1111,992;    1,186;   -0,409
231,131; 1203,649;    1,732;    0,318
231,729; 1080,834;   -2,450;   -2,318
232,328;  985,424;   -0,723;   -1,500
232,927;  969,671;    1,004;   -0,500
233,525;  963,839;    3,640;    0,045
234,124; 1101,605;    2,368;   -1,591
234,723;  992,971;    0,913;   -1,045
235,321; 1026,588;    2,277;    0,136
235,920; 1123,630;    1,186;   -1,227
236,518; 1376,429;    3,459;    0,318
237,117; 1221,180;    0,004;   -0,227
237,715; 1273,858;    0,640;   -0,500
238,314; 1360,561;   -0,087;   -2,318
238,912; 1572,038;   -0,723;   -1,409
239,510; 1420,855;    0,459;   -1,227
240,109; 1643,692;    0,004;    3,773
240,707; 1594,193;   -0,996;    1,227
241,305; 1579,785;    0,550;    0,136
241,904; 1769,421;   -0,178;   -2,045
242,502; 1866,990;   -0,632;   -0,227
243,100; 1769,448;   -0,087;   -0,955
243,698; 1882,671;    0,732;    1,682
244,297; 1981,335;   -0,632;    0,682
244,895; 1985,815;   -0,269;   -2,318
245,493; 2273,839;    2,186;   -0,591
246,091; 2257,361;    1,368;   -1,318
246,689; 2236,565;    1,004;    0,591
247,287; 2308,202;    0,822;   -1,136
247,885; 2467,751;   -1,451;    1,227
248,483; 2505,838;    1,822;   -0,500
249,081; 2630,755;    0,185;    1,591
249,679; 2779,959;   -0,178;    1,682
250,277; 2908,818;   -1,723;    0,864
250,875; 2933,244;   -1,087;   -1,045
251,473; 2957,271;   -1,178;    0,500
252,071; 3123,838;    1,459;    1,045
252,669; 3192,999;   -1,814;    0,318
253,267; 3301,507;   -0,087;    0,773
253,864; 3235,929;   -0,360;    0,682
254,462; 3375,455;    1,640;    1,591
255,060; 3247,659;   -0,269;    1,318
255,658; 3408,817;    0,822;   -0,136
256,255; 3741,497;    0,186;   -2,045
256,853; 3698,479;   -0,269;    1,409
257,451; 3691,248;    0,822;    1,864
258,048; 4106,724;    1,822;    1,864
258,646; 3768,114;    1,731;   -1,045
259,243; 3909,570;   -0,087;    2,227
259,841; 3915,408;   -0,814;    0,318
260,438; 3832,706;   -0,087;    0,864
261,036; 4282,790;   -1,905;    1,409
261,633; 4234,863;   -0,087;    2,227
262,231; 4072,453;    2,731;   -0,045
262,828; 4168,856;   -0,905;    1,136
263,425; 4212,042;    0,913;   -0,591
264,023; 4406,841;    0,186;    0,045
264,620; 4113,159;   -0,360;   -0,318
265,217; 4378,249;   -2,087;    3,136
265,815; 4413,891;   -1,905;    2,136
266,412; 4352,477;    0,731;    0,136
267,009; 4357,816;   -1,451;    0,773
267,606; 4392,569;    0,822;   -0,955
268,203; 4289,632;   -0,269;   -0,591
268,801; 4482,226;    1,731;    0,591
269,398; 4665,434;   -0,360;    2,500
269,995; 4689,765;    0,277;    1,591
270,592; 4533,198;   -0,632;   -0,500
271,189; 4619,729;    0,186;    0,409
271,786; 4741,224;   -0,632;    1,227
272,383; 4725,381;   -1,087;    0,227
272,980; 4780,021;    0,277;    0,318
273,577; 5047,196;    0,004;    1,227
274,174; 4701,310;    0,822;    2,591
274,771; 4690,545;   -0,814;   -0,773
275,367; 4919,127;    2,277;    1,409
275,964; 4898,721;    0,731;   -0,500
276,561; 4934,023;    1,549;   -1,045
277,158; 4997,141;    0,095;   -1,773
277,755; 5183,574;    2,185;    0,409
278,351; 4731,773;   -0,451;   -1,500
278,948; 4984,028;   -0,815;    0,045
279,545; 4951,593;   -1,360;    2,318
280,141; 5548,793;   -1,723;   -2,045
280,738; 5398,226;   -0,451;   -0,136
281,334; 5446,434;   -1,633;    0,591
281,931; 5016,850;   -0,087;   -1,318
282,528; 5172,076;    0,822;   -0,500
283,124; 5716,819;   -1,087;   -0,500
283,721; 5605,758;   -0,451;    1,409
284,317; 5462,055;    0,185;    2,500
284,913; 5975,327;   -1,360;    0,591
285,510; 6186,236;    0,640;   -0,318
286,106; 6209,415;   -2,269;   -0,955
286,703; 5791,163;   -0,360;    1,955
287,299; 6000,954;   -1,451;   -0,591
287,895; 6206,364;    0,822;   -1,045
288,491; 6665,252;    0,186;    2,136
289,088; 6506,390;   -2,360;    2,409
289,684; 6608,908;   -1,723;    1,500
290,280; 6653,951;    0,368;    0,682
290,876; 6736,068;    1,822;    5,500
291,472; 6696,073;    1,276;    2,227
292,068; 6803,552;    1,367;    0,227
292,665; 6554,318;    2,095;    0,773
293,261; 6385,139;    0,276;    2,136
293,857; 6710,814;    2,913;    2,136
294,453; 6673,926;    3,550;    0,955
295,049; 6637,391;   -0,268;    1,955
295,644; 6703,102;    0,095;    0,136
296,240; 6682,826;   -0,905;   -0,136
296,836; 6746,321;   -0,995;    0,318
297,432; 7018,931;    1,096;   -0,500
298,028; 7128,885;    0,732;    0,773
298,624; 7408,890;    1,459;    1,864
299,220; 7584,706;    2,368;    0,591
299,815; 7305,663;    1,005;   -0,409
300,411; 7210,482;    0,914;    1,773
301,007; 7237,316;    1,368;    0,227
301,602; 7210,071;   -0,541;   -2,318
302,198; 7369,542;    0,732;   -0,773
302,794; 7661,023;    1,187;   -0,500
303,389; 7758,410;   -1,177;    1,045
303,985; 7794,320;    0,550;    1,409
304,580; 7799,591;    1,459;    1,591
305,176; 7786,732;   -3,086;    0,136
305,771; 7705,189;   -1,268;   -1,227
306,367; 7692,099;    4,095;    0,136
306,962; 7875,889;    0,641;    1,500
307,558; 7625,207;   -0,450;    0,136
308,153; 7570,528;    1,095;   -1,136
308,748; 7710,640;   -0,814;    1,682
309,344; 7706,668;   -0,632;   -1,318
309,939; 7849,166;   -1,905;   -1,318
310,534; 8017,917;   -0,086;   -1,682
311,130; 7922,754;    0,459;   -2,500
311,725; 7657,665;    1,004;   -0,500
312,320; 7932,094;    2,459;    0,045
312,915; 7852,258;    1,459;   -1,045
313,510; 7923,302;    1,550;   -0,500
314,105; 8264,317;    1,096;    1,409
314,700; 7705,319;   -3,086;   -1,045
315,295; 7426,864;   -0,904;    0,045
315,890; 7048,934;    1,277;    0,864
316,485; 7309,347;   -0,359;   -0,318
317,080; 7397,026;   -3,086;    1,591
317,675; 7821,708;    2,005;   -0,682
318,270; 7439,247;    5,550;    3,318
318,865; 7407,179;    3,278;    3,045
319,460; 7210,866;   -0,904;    0,591
320,055; 7378,359;   -0,541;   -1,227
320,650; 7126,266;   -1,995;   -0,591
321,244; 7180,701;   -0,177;   -1,409
321,839; 7925,433;   -1,541;   -0,227
322,434; 7773,458;   -1,086;   -1,591
323,029; 7542,157;    1,732;    1,591
323,623; 7454,822;    1,550;    0,773
324,218; 7298,860;    2,368;    1,409
324,812; 7189,273;    1,096;    1,591
325,407; 7050,776;   -0,814;    2,045
326,002; 7029,162;    0,277;   -0,409
326,596; 7321,205;    0,914;    1,318
327,191; 7440,275;    0,823;   -1,045
327,785; 7116,932;   -0,813;   -0,227
328,379; 7369,479;    1,368;    0,136
328,974; 7168,593;    0,914;   -3,955
329,568; 7418,728;    0,186;   -2,409
330,163; 7298,772;    2,096;    1,045
330,757; 7586,893;    2,459;    1,591
331,351; 7079,255;    0,459;    0,682
331,945; 7394,318;    0,914;    1,409
332,540; 7114,323;   -1,723;   -0,591
333,134; 7252,371;   -1,086;    0,773
333,728; 7449,391;    0,005;    0,318
334,322; 7749,911;   -1,177;   -0,864
334,916; 7142,010;    0,277;    0,955
335,510; 7490,959;   -0,450;   -0,136
336,105; 7738,275;   -1,086;    1,591
336,699; 7498,074;   -1,086;    0,591
337,293; 7479,032;   -1,723;    0,318
337,887; 7585,117;   -2,723;    1,955
338,481; 7742,823;    0,459;    0,591
339,074; 7898,759;   -0,359;    2,682
339,668; 7798,031;   -1,632;    1,227
340,262; 8128,189;    1,732;    3,227
340,856; 7658,671;    1,822;   -0,682
341,450; 7158,900;    1,004;    1,864
342,044; 7877,941;    1,459;    0,136
342,637; 7718,146;    0,913;   -2,136
343,231; 7618,112;   -2,360;    0,682
343,825; 7602,187;   -1,086;   -0,591
344,419; 7614,002;   -1,995;    0,500
345,012; 7583,500;    2,459;    4,045
345,606; 7534,703;    4,641;    1,591
346,199; 7367,382;   -1,813;   -0,227
346,793; 7071,926;    1,914;    2,045
347,386; 7231,455;   -0,813;   -1,136
347,980; 7213,310;   -0,268;   -0,045
348,573; 7089,647;    2,278;    0,409
349,167; 6901,030;    5,278;    4,773
349,760; 7195,371;    2,914;    2,682
350,354; 7149,543;   -0,813;    1,136
350,947; 6965,639;    1,096;    1,682
351,540; 6692,979;   -0,358;   -1,409
352,134; 6635,121;    1,096;    1,136
352,727; 6711,968;   -0,086;    1,136
353,320; 6571,304;    0,005;    0,591
353,913; 6398,101;   -1,995;    1,864
354,507; 6625,534;    0,823;   -1,227
355,100; 6623,487;    0,460;    0,864
355,693; 6085,684;    2,005;    2,409
356,286; 6082,689;    0,823;    2,773
356,879; 6351,599;   -0,722;    1,227
357,472; 6018,100;   -0,904;    1,500
358,065; 6242,255;   -0,722;    2,500
358,658; 6108,894;   -0,540;    2,318
359,251; 5798,122;   -1,631;   -0,591
359,844; 5459,868;   -1,904;   -1,136
360,437; 5656,419;   -2,995;    0,045
361,030; 5857,917;    1,369;   -0,682
361,623; 5525,639;    2,824;    0,318
362,215; 5552,073;   -0,086;    2,045
362,808; 5399,483;   -2,358;   -1,682
363,401; 5575,705;   -2,449;    0,136
363,994; 5428,249;   -0,631;   -1,500
364,586; 5304,197;    0,824;   -1,500
365,179; 5480,898;   -0,449;   -1,136
365,772; 5049,617;   -1,995;    2,045
366,364; 5268,877;    1,915;   -3,227
366,957; 5463,367;    2,279;   -0,045
367,549; 5432,933;    2,188;   -0,864
368,142; 5171,677;    1,825;   -1,500
368,734; 5321,735;    0,734;   -2,136
369,327; 5283,344;    1,643;   -0,500
369,919; 5208,792;   -1,538;    0,409
370,512; 5106,168;   -1,083;   -0,500
371,104; 4938,536;   -0,901;    1,591
371,696; 5087,127;    1,191;   -0,955
372,289; 5111,068;    0,373;    1,136
372,881; 5211,862;   -2,080;    1,318
373,473; 5100,592;   -2,170;    1,136
374,066; 5003,963;   -0,169;    0,500
374,658; 4888,641;    0,378;    1,136
375,250; 5152,799;    0,653;   -1,409
375,842; 5061,700;    0,473;   -0,045
376,434; 4943,862;   -0,435;   -0,409
377,026; 5379,578;    0,204;   -2,500
377,618; 5279,886;   -0,158;   -0,682
378,210; 5143,087;   -0,338;   -1,955
378,802; 4983,826;    0,754;   -0,591
379,394; 5062,343;    1,846;    0,682
379,986; 5464,162;    1,393;   -0,955
380,578; 5529,861;   -0,153;    0,773
381,170; 5057,336;   -0,972;    0,045
381,762; 5018,251;    0,755;    1,409
382,354; 5116,063;   -0,065;   -1,318
382,945; 5174,285;   -2,976;    0,318
383,537; 5308,125;   -2,705;   -1,955
384,129; 5318,932;   -2,160;   -1,136
384,721; 5445,445;   -0,252;    0,955
385,312; 5388,135;   -0,161;   -0,955
385,904; 5486,606;   -2,706;    1,591
386,496; 4955,735;   -0,979;    1,045
387,087; 5104,381;    1,022;    2,500
387,679; 5100,579;   -1,160;    0,045
388,270; 5232,187;    2,840;    2,045
388,862; 5294,577;    1,295;   -0,318
389,453; 5170,802;   -0,887;    1,045
390,045; 5387,052;   -0,705;   -2,682
390,636; 5337,728;    0,204;   -0,591
391,227; 5227,781;   -0,523;   -0,045
391,819; 5320,126;    0,204;    0,773
392,410; 5393,108;    1,022;    0,045
393,001; 5322,533;   -0,979;   -1,591
393,593; 5549,036;    1,930;   -0,045
394,184; 5449,488;    1,385;   -0,409
394,775; 5299,397;    1,839;    2,136
395,366; 5510,548;    1,385;    0,773
395,957; 5476,449;    0,113;    0,136
396,548; 5706,410;   -0,342;    2,682
397,139; 5968,583;   -2,433;    0,591
397,730; 5735,389;   -1,888;    0,955
398,321; 5784,394;   -1,252;    0,955
398,912; 5763,691;   -0,615;    0,136
399,503; 5879,213;   -3,524;   -1,409
400,094; 5438,512;    0,294;    1,682
400,685; 5300,870;   -0,433;    0,045
401,276; 5332,596;    0,930;   -0,955
401,867; 5597,350;   -0,888;    0,773
402,458; 5654,345;   -2,251;   -2,318
403,048; 5643,829;    1,112;    0,591
403,639; 5326,708;    0,840;    0,864
404,230; 5577,716;    2,476;    0,318
404,821; 5544,577;   -0,615;    0,045
405,411; 5631,558;    1,203;   -2,591
406,002; 5265,625;   -1,252;   -1,136
406,592; 5232,153;    2,294;    0,045
407,183; 5409,342;    0,566;   -1,500
407,774; 5307,703;    3,475;   -0,136
408,364; 5541,155;    0,930;    0,409
408,954; 5254,066;    0,384;    1,227
409,545; 5289,225;    1,021;    1,045
410,135; 4872,776;    1,293;    0,500
410,726; 4990,674;    1,838;    0,318
411,316; 5302,461;    0,111;    0,773
411,906; 4994,989;   -0,253;   -0,409
412,497; 4628,390;   -1,070;   -0,045
413,087; 5058,936;   -1,980;   -0,227
413,677; 5317,242;   -0,707;    3,864
414,267; 5196,946;    0,656;    1,409
414,857; 5136,992;   -2,980;    4,227
415,448; 5346,119;    0,839;    0,500
416,038; 5082,302;    0,020;   -0,591
416,628; 5021,128;   -0,889;    0,409
417,218; 4692,608;    0,565;    3,318
417,808; 4862,109;    0,202;   -0,409
418,398; 5088,564;    0,020;    2,682
418,988; 5038,883;    2,020;    0,591
419,578; 5183,175;   -0,707;    1,409
420,168; 5443,944;   -1,343;   -0,955
420,757; 5125,415;   -1,343;   -1,500
421,347; 4790,933;    0,111;   -0,227
421,937; 4886,115;    2,292;    1,409
422,527; 4916,367;    0,838;   -0,773
423,116; 4750,791;   -0,253;   -0,045
423,706; 4903,476;   -1,889;    0,318
424,296; 4804,339;    1,384;    0,682
424,885; 5162,339;   -0,071;   -3,045
425,475; 5302,365;    1,474;   -2,864
426,065; 5168,342;   -0,980;   -0,318
426,654; 4899,192;   -0,435;   -0,318
427,244; 5050,752;    0,020;    1,409
427,833; 4620,637;    1,383;   -0,500
428,423; 4846,598;   -0,526;    1,136
429,012; 5343,809;   -0,344;   -1,136
429,601; 4972,880;   -1,344;    0,136
430,191; 5073,943;    1,292;    4,318
430,780; 4744,349;   -0,344;   -0,409
431,369; 4759,403;    0,746;   -0,045
431,959; 5137,950;   -1,254;    0,500
432,548; 4913,996;   -1,163;   -0,045
433,137; 4910,180;   -1,254;   -1,318
433,726; 5300,292;    0,292;    0,500
434,315; 4846,521;   -0,526;    2,409
434,905; 4918,916;   -1,254;    1,409
435,494; 4863,662;    0,746;    0,955
436,083; 5061,793;   -0,981;   -0,955
436,672; 4887,432;    0,110;    0,500
437,261; 4630,914;    0,292;   -1,955
437,850; 4789,662;    1,383;    0,682
438,439; 4710,260;    3,291;    1,955
439,027; 4611,262;    3,655;    1,773
439,616; 4755,017;    2,927;    1,227
440,205; 4502,603;    0,200;   -2,136
440,794; 4419,540;    2,109;   -0,045
441,383; 4497,318;   -1,346;   -0,591
441,971; 4318,136;   -2,436;    0,591
442,560; 4162,982;    0,563;   -1,773
443,149; 3912,748;    0,379;   -1,318
443,737; 4016,203;   -0,074;   -2,318
444,326; 4149,278;    0,018;    0,318
444,915; 4113,777;   -1,982;    0,864
445,503; 4255,388;   -2,891;   -0,318
446,092; 3951,845;    0,382;    2,136
446,680; 4194,143;    0,382;    0,318
447,269; 4188,100;   -0,346;   -0,318
447,857; 3983,195;    0,018;   -1,773
448,445; 4003,151;    0,563;    1,318
449,034; 4080,400;   -1,528;   -1,136
449,622; 4053,741;   -1,073;    3,500
450,210; 3872,046;    2,017;    2,227
450,799; 4052,706;    0,290;   -0,591
451,387; 3869,640;    1,381;   -0,591
451,975; 3689,160;    2,654;    0,864
452,563; 3791,815;    3,472;    2,318
453,151; 3632,072;   -0,528;   -1,227
453,739; 3548,126;   -1,347;    0,136
454,328; 3576,668;    2,381;   -2,136
454,916; 3374,240;    2,562;   -0,136
455,504; 3402,237;    1,017;    1,227
456,092; 3444,734;    0,017;   -1,591
456,679; 3299,008;    1,472;    0,682
457,267; 3694,830;    4,017;    1,045
457,855; 3432,992;    1,017;    1,409
458,443; 3088,997;   -0,165;    1,682
459,031; 3376,880;    0,108;    2,409
459,619; 3486,695;   -1,801;    2,864
460,206; 3331,697;    0,835;    2,045
460,794; 3398,041;   -2,983;   -0,227
461,382; 3513,116;   -0,529;   -0,864
461,970; 3254,252;    1,198;    1,864
462,557; 3270,502;   -0,711;   -0,682
463,145; 3421,272;   -3,165;   -1,682
463,732; 3561,643;    2,016;   -1,045
464,320; 3325,489;   -0,075;   -3,045
464,907; 3291,760;    2,743;   -0,773
465,495; 3145,838;    0,743;   -1,227
466,082; 3083,307;   -1,984;   -0,045
466,670; 2962,762;   -2,529;    1,227
467,257; 3149,719;   -1,711;    2,045
467,844; 3288,721;   -0,075;    0,045
468,432; 3273,926;    0,834;    3,500
469,019; 3006,546;    0,925;   -1,773
469,606; 3168,429;    0,470;    3,682
470,193; 3122,323;   -1,439;    0,227
470,780; 2991,589;   -2,075;    0,864
471,368; 3014,116;   -1,257;   -0,773
471,955; 2945,864;    1,379;   -0,682
472,542; 2728,120;    0,652;   -1,136
473,129; 2705,797;   -0,166;    0,136
473,716; 2546,932;    1,470;    0,591
474,303; 2550,887;    0,652;   -0,864
474,890; 2614,488;   -1,439;   -0,500
475,477; 2725,718;   -1,621;    0,409
476,064; 2563,429;    1,106;   -1,591
476,650; 2507,741;    0,288;    0,318
477,237; 2381,196;   -0,258;    0,955
477,824; 2378,356;   -1,076;    0,864
478,411; 2220,446;   -1,894;   -0,318
478,997; 2238,383;    0,560;   -0,773
479,584; 2149,594;    1,196;   -0,409
480,171; 2535,864;   -0,440;   -0,773
480,757; 2512,552;    2,651;    0,773
481,344; 2376,796;    0,469;    0,409
481,931; 2044,132;    1,105;    1,045
482,517; 2424,897;   -1,258;    0,318
483,104; 2525,662;    1,106;    2,864
483,690; 2454,049;   -1,804;    0,045
484,276; 2427,577;   -0,895;    0,227
484,863; 2576,778;    2,469;    1,136
485,449; 2471,081;   -0,077;    0,318
486,035; 2345,831;   -1,986;   -0,136
486,622; 2570,668;   -0,895;    0,045
487,208; 2421,421;    1,378;    1,500
487,794; 2296,561;    0,741;    0,318
488,380; 2359,745;    0,105;   -1,409
488,967; 2340,321;   -1,168;   -0,409
489,553; 2384,704;   -1,895;   -1,409
490,139; 2516,546;    1,559;    0,773
490,725; 2325,797;    0,741;   -0,227
491,311; 2260,796;    3,287;    3,045
491,897; 2053,183;   -0,986;    1,500
492,483; 2147,298;    0,105;    1,227
493,069; 2856,524;    3,923;    0,864
493,655; 2422,938;    1,650;    0,682
494,241; 2312,573;    1,377;   -0,955
494,826; 2512,091;    0,287;   -1,045
495,412; 2431,386;    2,559;   -0,682
495,998; 2503,511;   -0,805;   -0,318
496,584; 2549,372;    0,377;    1,045
497,169; 2569,465;    1,014;   -0,682
497,755; 2606,995;    0,650;    1,227
498,341; 3158,760;    0,559;    0,318
498,926; 3182,014;    1,832;    1,955
499,512; 3165,894;    1,286;    2,955
500,097; 3179,114;    0,195;   -0,318
500,683; 3352,566;   -0,350;    2,136
501,268; 3674,180;   -0,169;   -0,955
501,854; 3771,160;   -0,169;    1,227
502,439; 3848,166;   -0,624;   -1,773
503,024; 4091,775;    0,195;    0,500
503,610; 4318,229;   -0,078;   -0,682
504,195; 4455,186;    0,558;    1,955
504,780; 4765,181;    2,922;    1,227
505,366; 4935,134;    3,013;    2,864
505,951; 4918,672;    0,740;    1,045
506,536; 5152,102;   -3,260;   -3,682
507,121; 5300,941;    0,285;   -0,318
507,706; 5838,328;    2,376;    1,045
508,291; 6217,376;    2,649;    1,136
508,876; 6014,161;   -0,988;    2,591
509,461; 5894,725;   -0,169;   -0,773
510,046; 6407,474;    0,194;    0,318
510,631; 6731,766;   -0,351;   -0,773
511,216; 6658,882;    2,467;   -0,500
511,801; 7154,285;   -0,442;    2,591
512,386; 7459,745;    0,740;    0,500
512,971; 7549,569;   -2,988;    0,955
513,555; 7404,792;   -0,897;   -1,500
514,140; 8143,203;   -0,442;   -3,136
514,725; 8251,187;   -0,715;   -1,136
515,309; 8442,231;   -0,533;    0,318
515,894; 8169,958;   -0,624;   -2,227
516,479; 8632,915;   -0,624;   -0,955
517,063; 8587,026;    0,376;    1,227
517,648; 8801,118;    1,012;   -1,136
518,232; 8525,129;   -0,261;   -1,409
518,817; 8937,424;   -0,079;    1,682
519,401; 9219,900;    2,194;    0,591
519,985; 8827,808;    1,103;    1,136
520,570; 8798,153;    0,830;   -1,955
521,154; 9100,996;    2,102;    0,591
521,738; 9293,275;   -2,352;    2,409
522,323; 9848,768;   -0,170;    1,682
522,907; 9633,320;    0,466;   -0,136
523,491; 9454,980;    0,557;    0,955
524,075; 9468,094;    2,284;    0,591
524,659; 9571,227;    1,466;    0,591
525,243; 9171,523;    1,739;    0,409
525,827; 9378,958;    0,648;   -0,045
526,411;10113,590;   -1,989;   -0,136
526,995;10350,160;   -0,352;    1,409
527,579;10016,418;   -0,443;   -1,045
528,163;10297,808;    0,375;   -1,500
528,747;10252,921;    2,466;   -0,773
529,331;10497,238;   -0,080;   -1,409
529,915;10662,513;    1,738;    0,955
530,499;10642,581;   -0,807;    1,227
531,082;10389,100;   -0,534;    1,591
531,666; 9924,246;    1,374;    0,773
532,250;10498,853;    1,284;    2,682
532,833;10764,608;    0,920;    2,773
533,417;10668,586;   -1,807;    0,864
534,001;10617,999;    1,647;   -0,318
534,584;11250,368;    0,374;    0,500
535,168;11119,231;    0,465;    1,409
535,751;11159,882;    0,647;    0,045
536,334;10605,498;   -0,898;   -0,409
536,918;11128,134;    0,011;    1,591
537,501;11193,091;   -0,899;    1,318
538,085;11211,297;   -0,444;    1,045
538,668;11338,866;    0,829;    2,409
539,251;11653,980;    1,829;    3,773
539,834;11662,797;    0,101;    0,773
540,418;11629,553;   -1,990;    4,318
541,001;11682,074;   -0,990;    1,773
541,584;11661,630;    2,101;    2,227
542,167;11367,032;    1,374;    2,955
542,750;11435,670;    1,919;   -0,773
543,333;11070,541;    0,555;    2,136
543,916;11779,059;    0,192;    2,500
544,499;12275,084;   -1,354;    0,227
545,082;12299,811;    1,374;    3,591
545,665;12403,105;    1,919;    1,500
546,248;12661,723;    1,010;   -0,318
546,830;12324,631;   -0,445;    1,955
547,413;12680,726;    1,010;   -0,773
547,996;13182,411;    0,555;    0,500
548,579;12941,096;    0,919;    0,955
549,161;12755,188;    1,828;    2,682
549,744;12507,237;   -0,809;    0,409
550,326;12965,101;   -0,809;   -1,136
550,909;12846,581;    2,737;    0,591
551,492;13166,327;   -0,263;    0,227
552,074;12980,697;   -0,173;   -1,318
552,657;13499,106;    2,373;    0,045
553,239;13267,357;   -0,173;   -0,773
553,821;13162,807;   -1,082;    1,045
554,404;12715,833;    1,282;    1,136
554,986;13057,926;    0,464;    1,045
555,568;13588,723;    1,191;   -0,955
556,151;12901,200;    1,191;   -0,227
556,733;13061,221;   -0,264;   -0,864
557,315;13449,773;    0,100;    0,500
557,897;13208,022;    0,554;   -0,500
558,479;13309,091;   -1,991;    1,318
559,061;13493,506;   -0,719;   -0,864
559,643;13774,890;   -0,264;    0,045
560,225;14042,542;    1,645;    2,864
560,807;14085,344;    0,918;    0,318
561,389;13589,914;    0,554;    2,318
561,971;14207,149;    0,463;    2,136
562,553;14050,779;   -1,628;    1,591
563,135;14190,688;   -0,537;    1,136
563,717;13828,779;    3,372;    1,136
564,298;14404,849;    3,645;   -0,045
564,880;14143,495;    0,645;   -1,409
565,462;14251,676;    0,645;    1,318
566,043;15288,624;   -0,446;    2,318
566,625;14867,283;    1,918;    1,227
567,207;14624,514;    1,099;    1,682
567,788;15537,583;   -1,264;    1,500
568,370;16250,725;    1,917;   -0,500
568,951;16023,221;    0,190;    0,227
569,533;16729,955;   -0,628;   -0,500
570,114;17158,899;   -0,446;    0,682
570,695;17518,021;   -0,174;   -1,318
571,277;17807,114;   -0,265;   -1,682
571,858;18403,180;    2,008;   -1,136
572,439;19126,632;    1,554;   -1,045
573,021;19178,916;    2,099;   -2,773
573,602;19580,027;   -1,265;    0,318
574,183;20350,075;   -2,083;    2,227
574,764;20357,302;   -1,629;    0,409
575,345;20770,236;    0,917;   -0,136
575,926;21212,344;   -0,356;    0,136
576,507;21190,959;    1,099;   -0,227
577,088;22148,481;    3,099;    1,682
577,669;22138,213;    0,735;    1,955
578,250;22822,348;    0,644;   -1,045
578,831;23280,196;   -1,356;   -2,227
579,412;23381,327;   -0,810;    0,955
579,993;24189,236;    1,008;    0,227
580,573;24485,509;   -0,629;   -0,955
581,154;23453,486;    0,735;   -0,591
581,735;24303,667;    0,644;    0,773
582,315;23817,303;   -0,629;    2,136
582,896;24061,574;   -0,174;    1,227
583,477;23548,398;    0,189;    1,227
584,057;23794,123;    0,553;    0,955
584,638;24046,873;    2,553;    2,318
585,218;24035,077;   -0,538;    2,682
585,799;24173,189;    0,281;   -0,227
586,379;24164,027;    0,372;    1,591
586,959;23138,394;    0,735;    0,318
587,540;22620,286;   -0,629;    2,227
588,120;22180,770;    1,007;   -0,045
588,700;21429,310;    2,553;    2,136
589,281;21822,827;    0,462;   -0,955
589,861;21740,897;    0,099;   -1,682
590,441;21543,691;    2,371;   -2,682
591,021;20616,895;   -0,265;   -2,591
591,601;20967,025;   -0,537;    0,500
592,181;21000,138;   -0,719;   -0,773
592,761;20318,698;    0,007;    1,409
593,341;20281,211;   -0,901;    0,045
593,921;20316,822;   -0,265;    1,591
594,501;20205,871;   -0,538;    1,318
595,081;20059,254;    0,917;   -0,318
595,661;20394,801;   -1,447;    0,955
596,240;20849,503;   -0,537;    0,136
596,820;20468,771;    0,372;    1,955
597,400;20542,164;    2,008;    0,773
597,980;20777,615;    2,008;    1,045
598,559;20797,959;    2,735;   -0,227
599,139;20594,824;   -0,174;   -1,227
599,718;20449,642;   -0,174;   -0,409
600,298;20698,800;    0,735;    0,682
600,877;20992,093;    2,917;    1,409
601,457;21222,543;    2,281;    1,136
602,036;21109,684;    0,190;    2,045
602,616;21252,364;    0,644;    1,682
603,195;21558,838;   -0,355;    3,500
603,774;21144,499;   -0,901;    2,045
604,354;20997,522;    0,826;   -0,500
604,933;20590,184;    0,463;    1,864
605,512;20753,704;    3,554;    0,591
606,091;20781,518;   -0,537;    3,773
606,671;21535,407;    0,281;    0,773
607,250;20767,816;    1,644;    3,136
607,829;20941,425;    2,372;    3,227
608,408;20804,904;    1,190;    2,591
608,987;19980,420;    1,281;    3,409
609,566;20204,870;   -1,265;   -2,500
610,145;20370,398;   -1,082;    0,682
610,723;20795,240;    4,372;    6,864
611,302;20033,532;   -0,446;    1,682
611,881;19567,807;    5,008;   11,227
612,460;20304,353;    1,645;    3,955
613,039;20704,826;   -0,082;    2,045
613,617;19610,358;    1,736;    4,773
614,196;19740,830;    1,099;    1,227
614,775;20065,666;    1,009;    2,409
615,353;20040,891;    0,736;    0,864
615,932;19848,437;    0,100;    2,409
616,510;20356,234;    0,554;    0,591
617,089;19969,437;    7,100;   17,591
617,667;19807,778;    2,372;    6,136
618,246;19632,071;   -1,537;    1,318
618,824;19771,594;   -3,355;   -0,955
619,402;19389,572;   -2,900;   -1,773
619,981;19847,319;   -0,173;   -1,045
620,559;19700,408;    0,009;    1,682
621,137;19279,159;   -0,718;    1,864
621,715;19280,274;   -1,173;   -0,682
622,293;19226,250;   -0,537;   -0,773
622,871;19678,319;   -0,718;    0,500
623,450;19321,836;    0,373;   -0,864
624,028;19265,544;    0,191;   -0,955
624,606;18915,996;   -1,718;    1,682
625,183;19233,198;   -1,536;   -1,136
625,761;18939,220;    1,009;    1,136
626,339;19198,679;    1,373;    2,591
626,917;19532,329;   -0,172;   -0,045
627,495;19558,467;   -0,354;    1,318
628,073;19058,463;   -0,263;    2,864
628,650;18787,900;    0,100;    2,136
629,228;19179,858;    0,373;    4,409
629,806;18650,946;    2,282;    1,136
630,383;18873,670;    1,464;   -0,318
630,961;18741,514;    2,555;   -0,955
631,539;18491,147;    2,464;    0,227
632,116;18000,242;   11,373;   15,409
632,694;18483,716;    2,555;    6,500
633,271;18702,186;    0,828;    2,682
633,848;18698,416;    1,828;    2,045
634,426;18674,570;   -1,081;    1,773
635,003;17922,176;    1,101;   -0,409
635,580;18202,357;    1,192;    3,682
636,158;18681,886;    3,737;    1,227
636,735;18662,118;    0,555;   -0,500
637,312;18771,190;   -0,809;   -0,682
637,889;18834,024;   -4,354;   -0,682
638,466;18382,583;   -3,990;   -0,409
639,043;18419,077;    2,101;   -1,136
639,620;18630,076;   -2,262;   -0,955
640,197;18932,169;    1,100;    1,682
640,774;19081,976;   -0,172;    1,136
641,351;19413,692;    0,737;    1,136
641,928;18940,227;   -0,627;    1,409
642,505;18613,034;    0,828;   -0,500
643,082;18683,568;   -1,718;    1,227
643,658;17889,376;   -0,718;    1,500
644,235;18515,819;    1,191;    2,500
644,812;18718,899;    1,918;    0,773
645,388;18517,979;   -0,991;    1,409
645,965;18590,514;   -0,809;    1,682
646,542;18655,048;   -1,445;   -0,227
647,118;18703,764;    1,009;   -0,955
647,695;18914,117;   -0,263;    1,136
648,271;18842,651;   -0,536;    0,500
648,848;19089,822;    0,736;    2,227
649,424;18992,811;    0,827;    1,318
650,000;18677,982;   -0,354;   -1,045
650,577;18561,880;   -0,627;   -0,955
651,153;18935,869;   -1,809;    0,955
651,729;19756,040;    1,191;    0,864
652,305;20056,847;    0,645;    2,773
652,881;23668,836;   -0,082;    1,136
653,458;28879,734;    1,100;    0,227
654,034;31422,814;    0,282;    1,591
654,610;32443,076;    0,554;    0,773
655,186;33520,428;    0,645;    3,045
655,762;33085,236;   -0,991;    0,409
656,338;33091,588;    0,100;    0,136
656,913;34026,577;   -0,082;    0,409
657,489;33271,930;    0,827;   -0,318
658,065;33310,919;   -0,173;   -1,591
658,641;33964,181;   -0,900;   -0,864
659,217;33320,806;   -0,991;    0,409
659,792;32818,159;    0,645;   -0,409
660,368;33093,693;   -2,173;   -0,682
660,944;32906,137;   -2,082;    1,227
661,519;29107,944;   -0,628;    0,409
662,095;24496,569;   -1,719;    0,591
662,670;21174,286;    1,281;   -0,136
663,246;20468,093;    1,009;   -0,409
663,821;20016,900;    0,281;    1,682
664,396;19479,253;    0,009;    1,864
664,972;19744,242;    0,009;   -0,500
665,547;20025,231;    1,372;    0,136
666,122;20037,310;   -1,082;    0,318
666,698;20277,754;   -0,173;    0,318
667,273;19683,743;   -0,173;    0,136
667,848;20369,459;    2,372;    1,500
668,423;20189,357;    2,190;    2,318
668,998;20561,710;    2,827;   -0,682
669,573;21027,063;   -3,264;   -1,500
670,148;20937,779;   -1,446;   -0,682
670,723;20708,313;   -1,810;    0,318
671,298;21072,848;    2,372;    1,045
671,873;21116,746;   -0,082;   -0,136
672,448;21056,008;    0,645;    0,136
673,023;21344,997;   -1,992;   -0,227
673,597;21673,622;    0,827;    2,318
674,172;21507,066;   -0,355;    0,318
674,747;21016,873;    0,372;   -1,045
675,321;20743,680;   -0,628;    3,318
675,896;20414,487;    0,645;    1,045
676,471;21288,113;    2,645;    1,591
677,045;21081,920;   -1,264;    0,682
677,620;21092,727;    0,190;    1,136
678,194;21401,261;   -2,628;    1,136
678,769;21032,069;   -1,083;   -0,318
679,343;21274,239;   -0,628;    1,773
679,917;21209,865;   -1,446;    1,955
680,492;21178,217;    0,826;    3,227
681,066;21287,661;    3,372;    0,409
681,640;21303,105;    1,463;   -0,318
682,214;22090,548;    0,735;    0,500
682,788;21642,173;   -1,356;   -0,773
683,363;21591,072;   -1,810;    1,682
683,937;21314,788;   -1,719;   -0,318
684,511;21931,868;    0,463;   -0,591
685,085;21693,675;   -1,356;    0,318
685,659;21450,755;   -2,538;    0,864
686,232;21714,017;   -0,356;   -0,318
686,806;21464,642;   -0,901;    0,409
687,380;22014,540;   -0,174;    0,591
687,954;22208,074;   -1,174;    1,136
688,528;21900,154;   -0,719;    1,955
689,101;22647,234;   -3,992;    1,045
689,675;22245,587;   -0,356;   -0,136
690,249;21625,849;   -0,719;    0,409
690,822;21955,565;    0,280;    0,318
691,396;22063,736;   -0,265;    1,227
691,969;21577,179;    1,280;    0,136
692,543;21986,532;   -0,447;   -1,955
693,116;21661,976;   -0,265;   -1,409
693,690;21570,055;    0,099;    0,500
694,263;22073,499;   -1,083;    2,955
694,836;22107,670;    1,371;    3,591
695,410;20884,568;   -0,265;    1,773
695,983;21303,011;    0,189;    0,591
696,556;21287,455;   -0,447;   -1,045
697,129;21628,535;   -0,356;    1,409
697,703;21298,433;   -1,629;    1,955
698,276;21306,967;    1,462;   -0,773
698,849;21172,320;    1,280;    1,409
699,422;21492,855;   -1,083;    0,591
699,995;21283,571;    0,007;    0,136
700,568;21710,105;   -0,629;    3,045
701,140;21703,822;   -2,811;    1,682
701,713;21497,992;   -0,174;    2,409
702,286;21256,618;   -0,538;    0,864
702,859;21090,607;   -0,902;   -0,591
703,432;20428,505;    0,825;    0,682
704,004;20846,494;    0,462;    0,318
704,577;20750,937;   -0,629;    0,136
705,150;21217,381;    0,189;    2,500
705,722;21016,734;   -0,356;   -3,227
706,295;20814,814;   -0,175;   -0,591
706,867;20691,893;   -0,175;    1,955
707,440;20942,064;   -1,720;   -0,409
708,012;21188,417;    0,462;    0,591
708,584;21045,224;    2,462;    0,227
709,157;21302,395;    1,825;   -0,591
709,729;21033,384;    2,280;    2,045
710,301;21813,191;    0,734;    0,045
710,874;21799,453;   -1,447;   -0,227
711,446;20734,351;    0,371;    0,864
712,018;20610,795;    0,098;    0,500
712,590;20388,056;   -1,993;    1,682
713,162;20913,045;    0,825;    1,318
713,734;21142,852;    1,825;   -2,045
714,306;21046,205;   -1,902;   -0,409
714,878;19848,830;    0,825;    0,864
715,450;20649,456;    0,643;    0,864
716,022;20905,172;    1,552;    1,318
716,593;21049,525;    0,189;    0,591
717,165;20970,877;   -3,175;   -1,227
717,737;20726,594;    0,280;    0,409
718,309;20439,764;    0,280;   -0,045
718,880;20394,935;   -0,539;   -1,409
719,452;20583,015;   -0,175;   -1,591
720,024;20276,459;    0,734;   -0,591
720,595;20798,084;   -2,902;    0,955
721,167;20412,073;    0,370;   -2,045
721,738;19944,062;   -0,812;   -1,045
722,309;19977,324;   -0,993;   -1,227
722,881;19752,313;   -1,357;    0,773
723,452;20317,666;   -2,630;    2,864
724,023;20497,927;   -0,721;    2,682
724,595;20309,644;    0,007;    0,682
725,166;20019,905;    0,007;   -0,409
725,737;19741,531;    1,734;    0,227
726,308;19856,883;   -0,266;    0,318
726,879;20198,690;   -1,630;    1,227
727,450;20084,952;    0,552;   -0,045
728,021;20037,305;    3,097;    0,682
728,592;19867,567;    0,734;    0,500
729,163;20215,828;    0,643;   -0,136
729,734;20162,999;    0,188;   -0,227
730,305;20453,897;    1,734;    0,136
730,876;20761,250;    0,188;    2,955
731,447;20538,512;    2,188;    2,682
732,017;20626,501;    1,097;    1,864
732,588;20223,581;    0,734;    1,227
733,159;20387,206;    0,643;   -1,045
733,729;20149,286;    0,006;    0,409
734,300;19533,638;    0,915;    0,864
734,870;19894,264;    3,461;    0,591
735,441;20376,889;    0,370;   -0,591
736,011;20188,696;    0,643;   -1,591
736,582;20135,594;   -0,812;    0,045
737,152;19652,674;   -1,721;   -2,045
737,722;20085,118;   -0,267;   -0,682
738,293;19762,834;   -1,358;    1,318
738,863;19720,823;    2,461;    2,318
739,433;19602,539;    5,279;    0,318
740,003;20150,619;   -0,994;   -0,682
740,573;19682,336;    2,097;   -1,591
741,143;19651,506;   -1,085;    0,318
741,713;20293,768;    1,188;   -0,500
742,283;20018,030;    0,915;    1,591
742,853;19826,746;    1,915;    1,591
743,423;19375,372;    1,733;    0,045
743,993;19451,452;   -0,358;    1,500
744,563;18940,713;    0,097;   -0,864
745,133;18904,611;   -0,812;   -0,864
745,702;19513,055;   -0,267;    1,773
746,272;18831,862;   -0,176;    0,591
746,842;18653,397;   -1,358;   -0,591
747,411;19032,204;   -0,267;   -0,318
747,981;19147,738;    0,097;    0,500
748,551;19239,182;    2,278;   -1,045
749,120;19116,534;    0,642;   -0,227
749,690;19441,069;   -0,631;    2,409
750,259;19713,331;    1,369;    2,955
750,828;19571,956;    1,551;   -1,955
751,398;19830,218;    1,278;   -0,045
751,967;19426,298;    2,187;    0,409
752,536;19569,650;   -0,813;   -0,227
753,105;20014,457;    0,096;    0,227
753,675;19789,719;    0,096;    1,773
754,244;19702,526;   -0,904;    3,591
754,813;19720,697;    0,551;    1,227
755,382;19320,232;    0,460;    0,955
755,951;19791,130;    1,551;    3,682
756,520;19443,846;   -0,085;    1,864
757,089;19934,653;    0,278;    0,500
757,658;20017,097;    1,733;    1,227
758,227;20005,086;    1,096;    0,318
758,795;20279,711;    1,187;    1,136
759,364;20533,882;   -0,086;   -0,591
759,933;19575,416;   -1,176;   -0,045
760,501;19164,133;    0,733;   -1,318
761,070;19598,303;   -2,813;   -1,409
761,639;20248,929;   -1,904;    1,318
762,207;19695,645;    1,551;   -0,955
762,776;19651,634;    0,369;    0,864
763,344;19602,169;   -0,995;    0,591
763,913;18714,794;   -0,722;    1,409
764,481;19416,510;    1,005;   -0,136
765,049;19291,499;   -1,358;    1,409
765,618;19170,761;   -0,086;    0,318
766,186;19243,750;    0,278;    0,136
766,754;19447,284;    0,005;    1,864
767,322;18569,728;   -1,995;    0,409
767,890;18568,808;   -0,722;   -1,773
768,459;19003,070;   -2,177;   -0,318
769,027;19160,059;    1,641;    3,409
769,595;18204,957;    3,278;    2,591
770,163;18612,491;    3,823;    2,955
770,730;18419,480;    0,732;   -0,136
771,298;18243,015;    0,187;   -1,409
771,866;18382,913;   -1,541;    4,955
772,434;18707,993;   -0,631;   -1,864
773,002;18875,345;    0,005;    0,682
773,569;18555,334;    0,914;    1,682
774,137;18343,051;   -0,268;   -0,045
774,705;19115,040;    0,278;   -0,136
775,272;18664,847;    0,641;    0,682
775,840;18457,109;   -0,177;    2,682
776,407;18036,007;    0,277;    1,955
776,975;17694,723;   -0,632;    0,318
777,542;18603,348;   -1,086;   -0,045
778,110;18455,519;   -1,268;   -0,045
778,677;18160,326;   -2,359;   -0,864
779,244;17937,679;    2,186;    1,045
779,812;18023,486;    1,823;    0,864
780,379;17890,930;    0,005;    1,136
780,946;18143,373;    1,005;   -0,773
781,513;18438,726;   -1,450;    0,318
782,080;17811,442;   -0,086;    2,864
782,647;18506,886;   -0,268;    3,045
783,214;18198,511;   -0,177;    3,864
783,781;17830,409;   -0,723;   -0,682
784,348;17726,671;   -0,632;    1,500
784,915;18080,842;   -3,177;    0,318
785,482;17907,013;    1,368;    2,591
786,049;18331,274;    0,186;   -0,591
786,615;18425,445;    0,277;   -0,955
787,182;18160,161;    0,186;   -0,682
787,749;17917,423;   -2,814;    1,409
788,315;17331,321;   -1,632;   -0,409
788,882;17612,219;    1,550;   -1,227
789,448;18246,299;    1,732;   -0,955
790,015;18215,652;    1,095;    3,227
790,581;17823,186;    1,459;    0,227
791,148;17717,993;    0,641;    1,045
791,714;17927,255;   -0,541;    3,136
792,280;17661,153;    0,186;    1,591
792,847;17303,324;    0,550;    2,500
793,413;17734,131;   -0,269;   -0,318
793,979;17382,120;    3,459;   -1,318
794,545;17509,746;    4,459;    2,682
795,111;17013,462;    2,186;    1,318
795,678;17133,633;    0,731;   -1,682
796,244;16839,076;    3,368;    0,136
796,810;17355,338;    1,731;    0,773
797,375;17061,963;    0,549;   -2,136
797,941;17103,680;   -0,541;    0,591
798,507;17246,578;   -0,451;   -0,955
799,073;16795,294;   -0,360;    0,591
799,639;16849,010;   -2,632;    3,136
800,205;16908,727;    0,095;    2,682
800,770;16533,807;    0,640;    1,773
801,336;16572,886;    1,368;   -0,955
801,901;16388,966;    4,549;    3,136
802,467;16888,683;   -0,542;    2,045
803,033;16271,763;   -0,087;    0,864
803,598;16482,297;    1,913;   -1,045
804,163;16544,468;    1,095;   -0,318
804,729;16494,366;   -0,178;    1,136
805,294;16781,173;    0,822;    2,227
805,859;16620,708;    0,731;   -0,409
806,425;16216,151;    1,186;    2,682
806,990;15908,413;    2,186;    4,318
807,555;16275,493;   -1,451;    2,591
808,120;16259,209;    0,822;   -0,409
808,685;16301,562;    0,185;   -2,500
809,250;15865,187;    0,004;   -0,500
809,815;16124,449;    1,913;    0,682
810,380;16579,801;   -0,269;    1,591
810,945;17023,790;   -1,087;    2,045
811,510;16348,870;    2,094;    1,591
812,075;16067,678;   -0,633;   -1,409
812,640;16095,394;    2,003;    1,409
813,204;16171,565;    0,822;   -0,227
813,769;16602,099;    2,094;   -0,045
814,334;16119,997;    0,458;    0,864
814,898;16162,259;    0,367;    0,591
815,463;15977,339;    1,276;   -0,773
816,027;15962,328;   -0,724;   -2,318
816,592;16077,135;    0,640;   -2,045
817,156;15684,397;    2,094;    1,136
817,721;15610,749;    4,276;    2,318
818,285;15632,466;    2,912;    1,500
818,849;16150,818;   -1,451;    1,682
819,414;16028,535;   -0,269;    2,955
819,978;15631,615;   -1,269;    1,773
820,542;16201,422;    2,003;    0,500
821,106;15996,956;   -0,815;    0,682
821,670;16040,672;   -0,815;    2,591
822,234;15780,207;   -0,270;    1,409
822,798;15316,105;    0,003;    0,500
823,362;15308,912;   -0,633;    4,227
823,926;14716,901;    0,094;    1,136
824,490;14883,981;   -0,997;   -0,682
825,054;15285,334;   -0,088;   -1,136
825,618;15035,141;   -1,542;   -1,500
826,181;14982,675;    0,458;   -1,318
826,745;14926,210;    1,367;   -1,045
827,309;15255,563;    1,185;    1,318
827,872;14745,188;    1,367;    0,955
828,436;15611,995;    1,185;   -0,773
828,999;15694,530;   -0,997;    1,227
829,563;14694,246;   -0,179;    1,136
830,126;14526,598;   -0,179;   -0,591
830,690;14575,042;   -1,997;    2,864
831,253;14122,576;   -0,543;    2,227
831,816;14264,384;   -1,906;    0,500
832,380;14244,736;    0,185;    0,864
832,943;14450,362;   -1,361;   -0,500
833,506;13964,623;    2,639;   -1,227
834,069;14686,885;    3,912;   -0,955
834,632;14767,692;    1,730;    1,318
835,195;14674,772;    1,003;    0,955
835,758;13992,852;   -0,997;    1,955
836,321;13836,114;    0,730;   -1,045
836,884;13928,194;   -0,725;   -0,955
837,447;13982,001;   -2,816;    1,773
838,010;14242,172;    0,366;    3,227
838,573;14463,343;   -1,179;    0,773
839,135;14424,968;   -1,361;   -0,955
839,698;13934,412;    1,275;    0,409
840,261;13519,401;    1,003;   -0,227
840,823;13396,935;   -0,543;    0,864
841,386;13659,197;   -0,452;   -2,409
841,948;13604,640;   -1,361;    1,773
842,511;13289,084;    0,912;    1,682
843,073;13462,346;    1,912;    0,227
843,636;13282,880;   -0,361;   -0,227
844,198;13262,233;    0,911;    0,591
844,760;13380,403;    1,093;    1,955
845,322;13078,665;    0,548;    1,136
845,885;13444,745;    0,730;    0,591
846,447;13831,552;   -1,998;    0,227
847,009;13522,723;    1,911;   -0,682
847,571;13776,349;    0,820;   -2,045
848,133;13845,065;   -1,089;   -1,864
848,695;13676,781;   -0,543;    1,409
849,257;13282,952;   -1,089;   -1,682
849,819;13469,032;   -0,998;   -0,409
850,381;13457,839;   -0,725;   -0,864
850,942;13748,555;    1,093;   -0,591
851,504;13691,635;    1,184;    0,227
852,066;13718,261;    1,275;   -1,591
852,628;13380,704;   -0,180;    1,955
853,189;12900,420;    1,638;    2,682
853,751;13042,955;   -0,907;    1,409
854,312;12875,398;   -0,453;   -1,682
854,874;13329,751;   -2,089;   -0,773
855,435;13765,922;   -0,907;   -1,682
855,997;13926,911;   -1,816;   -0,136
856,558;13334,263;    0,366;    1,773
857,119;13390,525;    0,820;    2,864
857,681;13096,696;    0,002;    0,318
858,242;13143,503;    1,911;   -2,136
858,803;13534,856;    0,456;   -0,773
859,364;14072,754;    0,184;   -4,773
859,925;13503,379;   -2,453;   -0,955
860,486;13374,096;   -0,453;   -0,955
861,047;13142,539;   -0,544;   -1,227
861,608;13025,619;   -1,089;   -0,773
862,169;13158,335;    0,638;   -0,045
862,730;12912,779;    0,456;    1,409
863,291;13190,313;   -0,635;   -0,500
863,852;13457,666;   -0,635;    1,955
864,412;13002,928;   -0,271;   -0,864
864,973;11784,644;   -0,089;    0,500
865,534;11674,269;   -1,726;    0,227
866,094;12943,440;    1,820;    0,227
866,655;12686,884;    1,274;    3,318
867,215;12959,873;    0,274;    0,136
867,776;12851,771;    0,547;   -0,136
868,336;12907,487;   -1,453;    0,136
868,897;12518,931;    2,638;    1,682
869,457;12301,647;    1,365;    0,318
870,017;12510,818;    0,547;   -1,227
870,578;12948,170;   -0,817;    0,773
871,138;12618,705;   -2,089;   -0,955
871,698;12217,876;   -0,817;   -1,318
872,258;12092,501;   -0,453;   -2,864
872,818;12458,854;    2,729;    0,045
873,378;12472,570;    0,638;    1,045
873,938;12075,832;    0,547;    0,500
874,498;12325,366;    0,274;   -1,955
875,058;12260,992;    2,183;    1,773
875,618;12135,435;    1,910;   -2,682
876,177;12073,970;    1,274;    0,136
876,737;11747,959;   -0,090;    1,955
877,297;11803,038;    0,183;    1,955
877,856;11805,573;   -0,362;    0,318
878,416;11752,289;    1,183;   -0,136
878,976;11939,096;   -1,817;    0,409
879,535;12088,449;    0,092;    3,136
880,095;11886,529;   -0,544;    0,045
880,654;11997,245;   -1,090;    1,318
881,213;12131,598;    2,456;    1,500
881,773;11797,678;    2,637;    2,682
882,332;12159,576;    3,365;    5,136
882,891;11988,929;    3,092;    2,136
883,451;12377,918;   -1,272;    1,682
884,010;11831,543;   -2,908;   -0,409
884,569;11935,986;   -0,999;   -0,045
885,128;12061,703;    2,819;   -1,864
885,687;12130,055;    4,455;    0,682
886,246;11932,953;    1,455;    2,136
886,805;11681,488;    2,455;    2,045
887,364;11878,477;   -0,999;   -0,500
887,922;12201,830;   -1,181;    0,045
888,481;11755,910;   -1,545;    0,591
889,040;12042,717;    1,183;    2,136
889,599;12562,160;    2,455;    1,409
890,157;12619,331;    1,455;    2,409
890,716;12272,320;   -0,090;    0,227
891,274;12125,309;    0,092;   -1,136
891,833;12499,480;    1,546;    0,864
892,391;12377,923;   -0,454;    0,500
892,950;12419,822;    1,819;   -0,773
893,508;12777,629;    0,455;   -0,409
894,067;12163,345;    0,637;    0,136
894,625;12127,789;   -0,636;   -1,500
895,183;12300,414;   -0,363;   -0,682
895,741;12258,494;    1,728;   -1,773
896,299;12070,574;   -0,545;   -2,409
896,858;12224,926;    0,819;   -1,591
897,416;12377,552;    2,728;   -1,318
897,974;12144,177;    1,819;    0,318
898,532;12333,530;    6,091;    2,682
899,089;12228,792;    2,091;   -0,682
899,647;12253,053;   -1,454;    1,318
900,205;12081,042;    1,182;    1,045
900,763;12199,122;   -0,454;    0,227
901,321;12258,657;    2,364;   -1,409
901,878;11718,191;   -1,000;   -0,773
902,436;11657,907;   -1,363;    1,318
902,994;12084,078;    4,728;    3,682
903,551;11542,613;    0,728;    0,409
904,109;11920,511;    0,182;   -1,409
904,666;11598,682;    2,455;    1,045
905,224;11435,034;    0,182;   -0,409
905,781;11252,023;    0,727;   -0,318
906,338;11290,739;   -1,363;    1,045
906,895;11260,910;    0,637;    2,045
907,453;11238,627;    1,727;    1,136
908,010;11213,616;   -0,909;    0,409
908,567;10945,605;    1,273;    0,591
909,124;10489,139;    0,364;   -1,500
909,681;10552,764;   -2,909;    0,682
910,238;10762,481;    0,636;   -1,318
910,795;11084,470;   -0,273;   -1,136
911,352;10702,106;   -2,909;   -2,682
911,909;10229,833;   -1,364;   -0,864
912,466;10676,379;   -3,182;    1,500
913,022;10260,652;   -1,636;    0,500
913,579;10607,197;   -0,909;    2,045
914,136;10370,015;    1,636;    0,955
914,692;10704,652;    0,091;   -1,227
915,249;10332,106;    1,455;    0,409
915,806;10519,561;    0,182;    1,955
916,362;10356,015;    1,909;    1,864
916,918; 9977,924;    2,000;    1,045
917,475;10014,288;   -1,182;    0,955
918,031;10024,197;    3,364;   -0,045
918,587; 9600,924;   -0,909;   -0,318
919,144; 9821,106;   -2,273;    0,227
919,700;10046,742;    1,727;    0,773
920,256; 9667,015;    0,727;    0,045
920,812; 9398,924;   -0,727;   -1,045
921,368; 9454,197;   -1,727;   -1,045
921,924; 9145,106;    0,182;   -0,136
922,480; 8775,106;   -0,545;    1,227
923,036; 9342,470;    1,273;    1,955
923,592; 9321,379;    0,455;    0,318
924,148; 9256,470;    0,455;   -0,955
924,704; 8681,833;   -1,364;   -0,409
925,259; 9004,742;   -0,273;    0,591
925,815; 8791,106;    1,455;    0,500
926,371; 8372,561;    2,909;    1,409
926,926; 8324,015;    2,091;    0,591
927,482; 8040,833;   -1,364;    0,773
928,037; 7952,379;    0,909;    2,045
928,593; 8254,288;    1,636;    1,045
929,148; 8099,652;   -1,818;   -1,500
929,704; 7699,288;   -1,455;   -0,500
930,259; 7870,561;    0,091;   -0,136
930,814; 7166,288;   -0,818;    1,955
931,369; 6930,379;    1,091;   -0,773
931,925; 6836,288;   -0,091;    0,136
932,480; 6760,833;   -2,818;   -2,591
933,035; 6769,833;    0,545;   -0,318
933,590; 6576,652;    0,364;   -1,773
934,145; 6293,833;   -1,364;   -0,318
934,700; 6557,833;    0,455;   -0,591
935,255; 6410,379;   -0,091;    0,045
935,809; 5943,379;    3,182;    0,864
936,364; 5237,833;   -0,455;   -0,136
936,919; 5249,742;    0,455;   -1,773
937,474; 5176,833;    1,455;    0,136
938,028; 5006,924;   -1,636;    1,136
938,583; 4683,652;    1,818;    4,682
939,138; 4862,742;    2,091;    2,136
939,692; 4415,561;    1,636;   -1,136
940,247; 4222,561;   -0,727;   -1,045
940,801; 3945,470;   -0,636;    0,227
941,355; 3847,379;   -0,364;    2,591
941,910; 3542,833;   -0,273;   -2,136
942,464; 3678,924;   -0,818;   -0,318
943,018; 3598,561;    1,000;   -0,227
943,572; 3535,742;    2,545;   -0,682
944,126; 3110,924;    0,091;   -0,409
944,681; 3006,197;    3,091;    0,227
945,235; 2985,924;    1,000;   -0,591
945,789; 2946,924;    0,364;   -1,864
946,342; 3140,470;    0,455;   -0,591
946,896; 2883,470;   -2,273;    0,955
947,450; 2670,106;    1,545;   -0,227
948,004; 2947,742;    1,727;   -0,045
948,558; 2883,742;    0,273;   -0,864
949,111; 2810,924;   -0,273;   -0,318
949,665; 2946,924;    1,636;   -0,682
950,219; 2832,015;   -0,091;   -1,045
950,772; 2844,652;   -1,909;    1,864
951,326; 2790,106;    0,545;   -0,955
951,879; 2824,197;    0,727;   -2,318
952,433; 2887,742;    0,000;    2,227
952,986; 2712,561;    2,909;    0,682
953,539; 2635,015;   -0,273;    0,591
954,093; 2604,561;    0,545;   -1,318
954,646; 2758,470;    0,909;    1,318
955,199; 2582,288;    0,000;   -0,500
955,752; 2573,106;   -0,455;    1,773
956,305; 2502,924;   -0,091;    2,955
956,858; 2632,833;    0,818;   -0,318
957,411; 2788,833;   -0,545;    2,136
957,964; 2619,106;    1,364;    2,136
958,517; 2582,106;   -1,545;    3,136
959,070; 2450,470;   -0,455;    1,955
959,623; 2639,652;    1,091;    1,500
960,176; 2432,470;    1,727;    2,045
960,728; 2420,197;   -2,727;    0,773
961,281; 2471,652;    0,545;    0,500
961,834; 2447,197;   -0,909;    0,864
962,386; 2381,288;    1,727;    1,045
962,939; 2335,015;    0,364;   -0,318
963,491; 2438,652;    0,455;    1,136
964,043; 2322,652;    1,182;    2,409
964,596; 2478,470;   -1,000;    2,227
965,148; 2327,106;   -1,000;    1,773
965,700; 2257,742;    1,091;   -0,227
966,253; 2395,106;   -0,636;    0,318
966,805; 2293,470;   -2,273;    0,773
967,357; 2284,015;    1,091;   -1,500
967,909; 2310,470;    0,455;   -1,227
968,461; 2337,379;    0,545;    3,136
969,013; 2262,470;   -0,182;   -0,864
969,565; 2353,561;   -0,455;   -1,136
970,117; 2564,742;   -0,364;    1,045
970,669; 2314,924;    0,182;   -0,136
971,220; 2128,470;   -0,455;   -1,500
971,772; 2109,379;   -0,636;   -0,318
972,324; 2242,015;    0,091;   -0,500
972,876; 2162,470;    0,818;   -0,045
973,427; 2332,197;    1,909;   -1,045
973,979; 2309,015;   -0,727;   -2,500
974,530; 2251,015;    1,818;    1,318
975,082; 2267,561;   -0,545;    1,682
975,633; 2189,833;    1,091;    1,682
976,184; 2331,288;    0,909;    0,773
976,736; 2188,197;    0,091;    0,227
977,287; 2044,561;   -0,909;   -0,500
977,838; 2177,561;    0,909;   -0,318
978,389; 2212,561;   -1,000;   -0,500
978,940; 2059,379;    0,545;   -0,409
979,491; 2073,561;    0,091;   -0,500
980,042; 2065,742;    0,182;    3,045
980,593; 2097,561;   -2,545;    0,227
981,144; 2204,742;    2,545;   -0,500
981,695; 2225,288;    1,455;    1,500
982,246; 2153,288;   -0,273;    1,045
982,797; 2207,652;   -1,727;    0,682
983,347; 2338,106;    0,364;    0,591
983,898; 2542,470;    3,091;    0,409
984,449; 2397,197;    2,182;    0,773
984,999; 2228,379;    1,455;   -1,136
985,550; 2079,106;    0,182;   -0,318
986,100; 2048,379;   -0,455;   -0,318
986,651; 2066,742;   -0,818;    0,045
987,201; 2073,015;   -1,000;   -0,591
987,751; 2117,742;    0,818;    2,864
988,302; 2148,379;    2,636;    1,500
988,852; 2171,015;    0,455;   -1,136
989,402; 2241,470;    0,091;    0,682
989,952; 2191,742;   -2,182;    0,864
990,502; 2199,652;   -0,091;    0,682
991,052; 2120,015;   -0,727;    0,045
991,602; 2037,561;   -2,909;    1,318
992,152; 2067,833;    0,455;    0,682
992,702; 2045,924;    1,364;   -0,045
993,252; 1995,015;   -3,000;   -0,500
993,802; 2107,742;   -0,273;    1,318
994,352; 2251,833;   -1,545;    1,136
994,901; 2268,015;   -0,182;    3,227
995,451; 2219,015;   -0,182;    0,318
996,000; 2282,197;    1,636;    0,318
996,550; 2078,833;    2,273;    0,227
997,100; 2080,470;    1,273;   -0,045
997,649; 2346,015;    2,182;    0,955
998,198; 2027,742;    1,727;   -1,500
998,748; 2227,652;    1,091;   -2,318
999,297; 2098,833;   -0,818;   -0,409
999,846; 2202,742;    1,000;   -0,773
1000,395; 2212,470;   -0,818;    0,500
1000,945; 2242,742;    1,818;   -0,773
1001,494; 2297,924;    2,364;    0,682
1002,043; 2255,470;    4,636;    0,864
1002,592; 2072,742;   -1,091;    1,955
1003,141; 2188,288;   -0,455;   -0,682
1003,690; 2131,379;    1,727;    0,500
1004,238; 2158,561;    1,455;   -0,045
1004,787; 1852,561;    1,364;    1,227
1005,336; 2130,197;    0,364;    0,682
1005,885; 2185,652;    1,364;   -2,773
1006,433; 2243,288;    0,545;    0,955
1006,982; 2426,379;    0,455;    1,682
1007,531; 2256,470;   -1,818;   -0,227
1008,079; 2168,379;   -2,273;    0,500
1008,627; 2266,652;   -1,455;    0,409
1009,176; 2086,833;    0,000;   -1,955
1009,724; 2112,652;    1,091;    0,864
1010,273; 2223,288;    1,273;    0,500
1010,821; 2247,106;    0,091;    1,409
1011,369; 2045,470;   -1,364;    1,318
1011,917; 2040,379;   -1,364;   -0,591
1012,465; 2275,106;    1,273;   -1,591
1013,013; 2343,652;    2,091;   -1,682
1013,561; 2312,197;    0,455;   -0,773
1014,109; 2392,288;   -1,909;    1,682
1014,657; 2263,561;    0,364;    0,591
1015,205; 2296,924;    1,636;   -0,955
1015,753; 2272,288;   -0,545;   -1,409
1016,301; 2331,742;   -2,636;    3,045
1016,848; 2362,833;   -1,273;    0,409
1017,396; 2406,106;    2,545;    0,045
1017,944; 2486,833;    1,182;    1,864
1018,491; 2263,652;    0,273;    1,409
1019,039; 2532,106;    0,455;    0,591
1019,586; 2350,561;   -1,364;    1,682
1020,134; 2402,197;    0,455;    1,500
1020,681; 2444,742;    0,182;   -1,136
1021,228; 2382,288;    2,909;   -2,227
1021,776; 2269,652;    1,182;   -1,136
1022,323; 2543,924;    0,455;    0,773
1022,870; 2454,470;   -1,000;   -0,045
1023,417; 2396,742;    2,636;    1,864
1023,964; 2413,470;    2,636;    1,227
1024,511; 2327,106;    1,000;    0,773
1025,058; 2166,652;    3,182;   -0,045
1025,605; 2196,924;   -2,273;    3,136
1026,152; 2447,924;    1,727;   -0,591
1026,699; 2199,561;    1,818;    1,318
1027,245; 2290,652;   -0,091;    0,318
1027,792; 2417,470;   -1,000;    1,409
1028,339; 2443,742;    2,364;   -0,045
1028,885; 2284,015;    1,000;   -0,227
1029,432; 2217,106;   -0,091;    0,227
1029,978; 2305,652;   -1,000;   -1,591
1030,525; 2209,652;    1,000;    0,409
1031,071; 2338,652;   -1,364;    1,136
1031,618; 2557,197;    0,364;    1,682
1032,164; 2324,197;   -0,091;    3,045
1032,710; 2374,652;    1,636;   -1,500
1033,256; 2264,470;   -0,636;   -0,136
1033,803; 2194,561;   -0,545;    1,500
1034,349; 1979,015;   -1,364;    0,136
1034,895; 2118,742;    0,000;   -0,318
1035,441; 2125,924;   -0,818;    0,318
1035,987; 2149,561;   -2,364;   -0,682
1036,533; 2194,288;   -1,455;   -0,955
1037,078; 2397,197;    1,455;    1,682
1037,624; 2204,197;    2,455;   -0,955
1038,170; 2161,015;    0,455;   -0,318
1038,716; 2149,015;    1,636;   -0,409
1039,261; 2026,833;   -2,273;   -0,773
1039,807; 1998,197;   -0,091;    3,409
1040,352; 2074,924;   -1,909;   -0,318
1040,898; 2097,561;   -1,545;   -0,682
1041,443; 1989,924;   -1,455;   -2,591
1041,989; 2151,924;    1,091;    1,591
1042,534; 1975,288;   -0,364;    2,591
1043,079; 1998,015;    2,909;    0,955
1043,625; 1898,015;    1,818;    0,500
1044,170; 1961,288;   -1,364;    1,045
1044,715; 2229,742;    2,455;    0,955
1045,260; 2031,561;    2,182;   -0,955
1045,805; 2021,470;    1,182;   -0,591
1046,350; 1940,106;    1,364;   -0,409
1046,895; 2011,561;    2,909;    1,591
1047,440; 1994,197;    5,364;    0,409
1047,985; 1857,015;    2,818;   -0,955
1048,530; 1765,652;    1,545;    1,227
1049,074; 1839,106;    0,000;    0,318
1049,619; 1805,288;   -1,364;    1,955
1050,164; 1668,470;    0,455;    0,227
1050,708; 1718,561;   -0,455;    0,045
1051,253; 2122,924;    1,273;   -2,227
1051,797; 1811,833;    0,818;   -1,318
1052,342; 1734,288;   -1,182;    1,045
1052,886; 1783,288;    0,364;   -1,409
1053,430; 1630,470;   -1,364;    0,136
1053,975; 1684,379;   -0,818;   -0,318
1054,519; 1681,197;   -0,727;    3,227
1055,063; 1746,833;    0,909;    1,318
1055,607; 1656,379;   -0,182;    0,227
1056,151; 1675,015;    2,909;    1,682
1056,695; 1560,652;    2,273;   -1,136
1057,239; 1620,379;   -1,727;   -0,682
1057,783; 1651,652;    0,818;   -1,500
1058,327; 1661,015;    0,000;    1,409
1058,871; 1882,106;   -0,545;    1,318
1059,415; 1613,470;   -0,818;   -0,045
1059,958; 1906,652;    1,455;    2,591
1060,502; 1603,924;   -1,000;   -0,773
1061,046; 1461,106;    0,364;   -0,955
1061,589; 1418,379;   -3,000;   -1,136
1062,133; 1326,197;   -1,273;    1,864
1062,676; 1304,561;    1,182;    0,864
1063,220; 1354,470;    1,091;    0,500
1063,763; 1392,106;    0,909;    1,136
1064,306; 1471,288;   -0,909;    1,864
1064,849; 1378,106;   -0,909;    0,591
1065,393; 1371,106;    2,000;   -1,500
1065,936; 1439,470;    0,182;   -0,409
1066,479; 1312,288;   -1,455;    1,318
1067,022; 1348,015;   -0,273;   -0,227
1067,565; 1265,015;   -0,091;   -1,318
1068,108; 1265,833;    0,727;   -0,591
1068,651; 1224,652;   -0,636;    1,409
1069,194; 1184,197;   -0,455;   -1,682
1069,736; 1204,833;   -1,273;    0,955
1070,279; 1164,015;   -1,364;   -0,500
1070,822; 1264,197;   -2,000;   -0,318
1071,364; 1390,652;   -0,364;    1,318
1071,907; 1190,742;   -0,727;    3,227
1072,450; 1044,106;    0,000;   -0,045
1072,992; 1082,924;   -0,273;    3,136
1073,535; 1232,379;    2,091;    2,136
1074,077; 1032,924;   -0,727;    2,045
1074,619; 1028,924;   -1,364;    0,591
1075,161; 1072,379;   -1,091;    1,500
1075,704; 1255,833;    1,545;    1,227
1076,246; 1020,288;   -0,182;    0,682
1076,788;  940,652;   -0,364;    1,773
1077,330;  997,470;    1,273;    2,136
1077,872;  999,924;    0,909;    0,955
1078,414; 1253,652;    2,727;    0,773
1078,956;  991,561;    1,273;   -0,227
1079,498; 1268,652;    1,636;    0,318
1080,040;  989,197;    1,909;   -1,318
1080,581;  919,652;    1,636;   -0,318
1081,123;  830,015;    0,091;   -0,773
1081,665;  872,288;   -1,182;   -0,955
1082,206; 1185,015;    1,364;   -0,500
1082,748; 1037,379;    0,727;    2,045
1083,289;  896,379;   -2,000;    1,318
1083,831;  838,470;   -0,545;    0,227
1084,372;  905,197;    0,000;    0,591
1084,913;  899,833;    1,091;    0,864
1085,455;  833,833;   -1,909;   -2,045
1085,996;  831,652;   -2,273;    0,136
1086,537;  867,379;   -0,091;    0,864
1087,078;  890,742;   -0,909;   -2,136
1087,619;  940,652;   -1,273;    0,227
1088,160;  860,015;    0,000;    1,318
1088,701;  843,015;   -1,091;    0,682
1089,242;  803,924;    1,364;   -2,227
1089,783;  898,470;   -0,273;    1,409
1090,324;  858,742;    0,455;    0,682
1090,865;  734,379;    2,727;   -0,409
1091,405;  682,379;    0,727;    2,227
1091,946;  740,833;    0,182;   -0,955
1092,487;  658,015;    0,818;   -1,409
1093,027;  853,652;   -1,364;   -1,500
1093,568;  707,470;   -0,364;    1,227
1094,108;  802,833;    0,273;    1,773
1094,649;  729,288;   -1,182;    0,136
1095,189;  672,833;   -0,636;   -0,682
1095,729;  646,379;   -0,091;    0,955
1096,269;  624,197;    0,727;   -0,955
1096,810;  938,652;   -1,364;    0,500
1097,350;  792,015;    1,364;   -0,773
1097,890;  690,197;    0,364;    1,227
1098,430;  953,652;    2,364;    2,864
1098,970;  839,197;    2,182;    1,682
1099,510;  673,106;    0,545;   -2,318
1100,050;  620,288;    1,000;   -1,591
1100,589;  594,742;   -0,727;   -0,318
1101,129;  708,924;    0,818;   -0,955
1101,669;  873,924;    1,727;    2,136
1102,209;  707,197;   -0,091;    2,227
1102,748;  655,106;    0,000;    0,955
1103,288;  654,924;    1,273;   -1,227
1103,827;  676,742;    3,091;   -2,227
1104,367;  559,924;   -0,091;   -2,409
1104,906;  531,833;    1,364;   -1,136
1105,445;  605,833;    0,636;   -1,136
1105,985;  557,833;   -0,727;    1,500
1106,524;  605,379;   -1,727;   -0,682
1107,063;  581,470;   -2,727;    1,409
1107,602;  547,924;   -1,909;   -1,500
1108,141;  478,561;   -1,909;    1,500
1108,680;  591,561;   -3,455;   -0,591
1109,219;  530,106;   -0,909;   -0,500
1109,758;  527,379;    0,455;    0,682
1110,297;  503,106;    1,000;   -0,682
1110,836;  451,833;   -0,727;    0,955
1111,375;  602,288;   -2,545;    0,409
1111,913;  623,833;   -1,000;    0,773
1112,452;  557,652;   -0,273;    0,136
1112,991;  438,652;    1,091;    1,955
1113,529;  418,652;   -0,818;   -0,045
1114,068;  491,924;   -0,273;    2,955
1114,606;  394,288;   -0,364;   -0,955
1115,144;  552,197;   -1,273;    1,045
1115,683;  489,288;   -0,727;    0,318
1116,221;  541,742;   -0,455;   -0,864
1116,759;  454,924;    0,636;   -0,864
1117,297;  644,833;    0,000;    1,864
1117,836;  446,288;   -2,182;   -1,227
1118,374;  460,924;    0,182;   -0,682
1118,912;  416,652;    0,909;    2,682
1119,450;  418,652;    1,000;    0,864
1119,988;  453,833;    1,545;    2,136
1120,525;  887,652;    5,091;    3,318
1121,063;  602,833;    1,182;    1,864
1121,601;  428,924;   -0,909;   -1,227
1122,139;  384,106;   -0,727;   -2,045
1122,676;  583,106;   -0,727;    2,773
1123,214;  517,833;   -1,182;    4,409
1123,751;  333,924;    1,727;    2,227
1124,289;  450,015;   -0,091;   -0,409
1124,826;  327,197;    1,727;    0,227
1125,364;  261,197;    1,727;   -0,955
1125,901;  445,561;    1,182;    1,227
1126,438;  552,652;    0,818;    0,955
1126,975;  291,652;   -0,727;   -0,773
1127,513;  348,015;    0,273;    2,136
1128,050;  268,742;    1,636;   -0,682
1128,587;  369,197;    2,000;   -0,227
1129,124;  415,379;    0,091;    1,318
1129,661;  280,470;    0,273;    0,227
1130,198;  431,924;    1,636;    0,773
1130,734;  384,197;    0,182;    1,409
1131,271;  255,288;   -0,909;    0,864
1131,808;  417,470;    2,909;    3,045
1132,345;  304,106;    1,545;    0,318
1132,881;  175,561;   -1,545;   -1,864
1133,418;  316,015;    0,727;   -1,136
1133,954;  250,106;    2,455;   -2,682
1134,491;  324,742;    1,364;   -0,773
1135,027;  227,379;    2,364;    0,864
1135,564;  322,379;    0,273;    2,955
1136,100;  301,833;    0,364;    2,136
1136,636;  197,924;   -1,273;   -1,045
1137,172;  290,833;    0,000;   -1,045
1137,708;  221,106;   -1,364;   -1,045
1138,245;  220,924;    1,273;   -1,227
1138,781;  170,470;    1,091;   -3,318
1139,317;  236,833;    1,273;   -1,409
1139,852;  236,379;    3,091;    0,136
1140,388;  344,015;   -1,182;   -0,409
1140,924;  241,470;   -1,091;   -2,227
1141,460;  175,742;   -1,636;    0,136
1141,996;  114,288;   -1,364;    2,682
1142,531;  162,561;    1,364;    3,318
1143,067;  364,742;    1,182;    1,045
1143,602;  422,288;   -0,091;   -0,318
1144,138;  272,379;   -2,636;    1,045
1144,673;  152,470;   -1,455;    1,409
1145,209;  208,379;   -1,909;   -0,318
1145,744;  128,924;   -0,727;    0,864
1146,279;  260,470;    1,818;   -0,136
1146,815;  189,379;    1,545;   -2,682
1147,350;  226,652;   -1,364;    0,045
1147,885;  140,561;   -0,818;   -1,318
1148,420;  139,742;   -2,273;    0,773
1148,955;  127,379;   -1,727;    1,864
1149,490;  158,197;   -0,909;   -1,591
1150,025;  140,833;    0,455;   -1,773
1150,560;  247,561;    1,091;   -0,955
1151,094;  215,015;    1,455;   -0,591
1151,629;  216,106;    1,636;    0,864
1152,164;  148,197;    1,364;    1,318
1152,698;  112,106;   -0,182;   -0,136
1153,233;   80,288;    0,091;   -0,682
1153,767;  124,470;   -3,000;   -2,318
1154,302;  168,742;   -1,455;    1,773
1154,836;  154,197;   -0,455;   -2,136
1155,371;  211,924;   -1,364;    3,682
1155,905;  165,561;   -0,636;    1,682
1156,439;  138,470;   -0,636;   -0,500
1156,973;  170,106;    0,364;    0,318
1157,507;  106,833;   -0,364;    0,682
1158,042;  139,288;   -0,727;    1,045
1158,576;  183,197;    0,182;    1,773
1159,110;  165,833;   -0,818;    2,409
1159,643;  138,742;    0,636;   -0,045
1160,177;   87,470;   -1,545;    1,500

