
Integration time [ms]:   0,040
Averaging Nr. [scans]: 11
Smoothing Nr. [pixels]: 0
Data measured with spectrometer [name]: 7318044SP
Wave   ;Sample   ;Dark     ;Reference
[nm]   ;[counts] ;[counts] ;[counts] 

186,757;   25,554;   31,551;    1,318
187,357;   60,734;   22,551;    0,955
187,958;   34,746;   15,460;   -1,591
188,558;   74,622;    8,915;   -1,227
189,159;   52,950;    6,733;   -4,500
189,759;   20,632;    7,278;   -3,591
190,360;   12,287;    2,824;   -2,136
190,960;   60,772;    2,915;   -4,136
191,560;   83,230;    3,189;   -6,591
192,161;  356,202;    4,372;   -3,500
192,761;  176,550;    4,010;   -3,227
193,361;  112,458;    1,556;   -3,773
193,962;  169,024;    2,010;   -2,682
194,562;   88,897;    1,189;   -3,955
195,162;  127,532;   -2,448;   -2,227
195,762;  321,242;   -3,176;   -0,045
196,362;  253,470;    1,370;   -2,500
196,963;  112,698;    2,006;   -0,864
197,563;  191,361;    1,551;   -0,955
198,163;  127,705;    0,096;   -0,682
198,763;  148,635;    1,733;   -0,500
199,363;  263,544;    3,096;   -0,500
199,963;  231,456;    0,369;    0,409
200,563;  201,003;    2,823;   -1,409
201,163;  173,220;    3,277;   -0,227
201,763;  279,345;    3,732;    0,318
202,363;  208,959;    1,459;    1,500
202,963;  335,301;    1,459;    1,045
203,563;  464,118;    0,277;    0,500
204,162;  272,982;    2,096;   -1,864
204,762;  262,202;    0,550;    0,591
205,362;  236,519;    3,004;    1,955
205,962;  351,208;    3,096;    1,955
206,562;  346,177;    1,823;    2,318
207,161;  310,475;   -0,087;    0,318
207,761;  483,120;    1,277;    2,409
208,361;  350,642;   -0,268;    1,409
208,960;  458,097;    0,459;    1,500
209,560;  539,963;    1,277;    1,591
210,160;  502,894;    0,550;    1,864
210,759;  471,359;    4,186;    1,227
211,359;  486,044;    1,459;    1,045
211,958;  770,474;    1,277;    2,045
212,558;  863,678;    1,732;    1,864
213,157;  695,827;    1,822;    1,500
213,757; 1174,386;    3,822;   -0,227
214,356;  860,055;    1,277;   -0,409
214,956; 1207,143;    3,095;    0,409
215,555;  809,352;    2,095;    2,136
216,154;  745,477;   -2,723;   -0,591
216,754;  761,181;    0,277;    0,773
217,353;  911,816;   -0,268;   -1,045
217,952;  750,194;   -0,178;    0,318
218,552;  997,933;    1,368;   -0,773
219,151;  901,468;    0,277;    0,955
219,750;  894,027;    0,004;   -0,227
220,349; 1059,956;   -0,451;    1,045
220,948; 1103,480;   -1,360;    1,136
221,548; 1159,774;    0,913;    1,227
222,147; 1275,660;   -0,087;   -0,409
222,746; 1591,809;   -0,451;   -0,955
223,345; 1453,503;    0,731;    0,500
223,944; 1466,979;   -0,451;    0,773
224,543; 1662,194;    1,004;   -1,409
225,142; 1776,425;    0,094;    0,136
225,741; 1696,570;   -0,814;    1,045
226,340; 1726,025;   -0,451;   -0,955
226,939; 2211,091;   -0,996;   -0,136
227,538; 2202,388;   -0,360;   -0,773
228,137; 2343,875;   -0,814;    0,864
228,735; 2555,954;   -0,541;    1,227
229,334; 2270,204;   -0,905;   -0,227
229,933; 2648,204;    0,459;    0,591
230,532; 2770,612;    1,186;   -0,409
231,131; 2824,191;    1,732;    0,318
231,729; 3025,783;   -2,450;   -2,318
232,328; 3186,897;   -0,723;   -1,500
232,927; 3289,634;    1,004;   -0,500
233,525; 3431,240;    3,640;    0,045
234,124; 3651,669;    2,368;   -1,591
234,723; 3678,033;    0,913;   -1,045
235,321; 3859,728;    2,277;    0,136
235,920; 4116,431;    1,186;   -1,227
236,518; 4371,671;    3,459;    0,318
237,117; 4581,296;    0,004;   -0,227
237,715; 4788,454;    0,640;   -0,500
238,314; 4823,283;   -0,087;   -2,318
238,912; 4924,317;   -0,723;   -1,409
239,510; 4974,726;    0,459;   -1,227
240,109; 5160,122;    0,004;    3,773
240,707; 5203,509;   -0,996;    1,227
241,305; 5605,441;    0,550;    0,136
241,904; 5844,532;   -0,178;   -2,045
242,502; 5826,203;   -0,632;   -0,227
243,100; 5745,067;   -0,087;   -0,955
243,698; 6008,771;    0,732;    1,682
244,297; 6199,397;   -0,632;    0,682
244,895; 5992,159;   -0,269;   -2,318
245,493; 6371,694;    2,186;   -0,591
246,091; 6401,069;    1,368;   -1,318
246,689; 6414,148;    1,004;    0,591
247,287; 6586,557;    0,822;   -1,136
247,885; 6871,968;   -1,451;    1,227
248,483; 6994,876;    1,822;   -0,500
249,081; 7116,242;    0,185;    1,591
249,679; 7293,503;   -0,178;    1,682
250,277; 7533,070;   -1,723;    0,864
250,875; 7545,352;   -1,087;   -1,045
251,473; 7592,160;   -1,178;    0,500
252,071; 7804,148;    1,459;    1,045
252,669; 7970,342;   -1,814;    0,318
253,267; 8223,459;   -0,087;    0,773
253,864; 8201,012;   -0,360;    0,682
254,462; 8030,843;    1,640;    1,591
255,060; 8027,604;   -0,269;    1,318
255,658; 8365,797;    0,822;   -0,136
256,255; 8799,637;    0,186;   -2,045
256,853; 8669,332;   -0,269;    1,409
257,451; 8679,671;    0,822;    1,864
258,048; 8944,069;    1,822;    1,864
258,646; 8692,013;    1,731;   -1,045
259,243; 8894,786;   -0,087;    2,227
259,841; 8954,502;   -0,814;    0,318
260,438; 8876,491;   -0,087;    0,864
261,036; 9658,079;   -1,905;    1,409
261,633; 9503,547;   -0,087;    2,227
262,231; 9234,069;    2,731;   -0,045
262,828; 9318,454;   -0,905;    1,136
263,425; 9386,500;    0,913;   -0,591
264,023; 9678,695;    0,186;    0,045
264,620; 9232,809;   -0,360;   -0,318
265,217; 9591,081;   -2,087;    3,136
265,815; 9700,220;   -1,905;    2,136
266,412; 9464,468;    0,731;    0,136
267,009; 9513,115;   -1,451;    0,773
267,606; 9389,831;    0,822;   -0,955
268,203; 9374,341;   -0,269;   -0,591
268,801; 9675,638;    1,731;    0,591
269,398; 9985,309;   -0,360;    2,500
269,995; 9995,272;    0,277;    1,591
270,592; 9760,329;   -0,632;   -0,500
271,189; 9981,434;    0,186;    0,409
271,786;10096,637;   -0,632;    1,227
272,383; 9876,193;   -1,087;    0,227
272,980;10141,740;    0,277;    0,318
273,577;10666,373;    0,004;    1,227
274,174;10216,090;    0,822;    2,591
274,771;10229,979;   -0,814;   -0,773
275,367;10355,544;    2,277;    1,409
275,964;10293,113;    0,731;   -0,500
276,561;10425,013;    1,549;   -1,045
277,158;10664,413;    0,095;   -1,773
277,755;10812,424;    2,185;    0,409
278,351;10198,275;   -0,451;   -1,500
278,948;10518,833;   -0,815;    0,045
279,545;10531,912;   -1,360;    2,318
280,141;11198,989;   -1,723;   -2,045
280,738;11076,865;   -0,451;   -0,136
281,334;11317,946;   -1,633;    0,591
281,931;10704,744;   -0,087;   -1,318
282,528;10782,357;    0,822;   -0,500
283,124;11563,388;   -1,087;   -0,500
283,721;11475,334;   -0,451;    1,409
284,317;11271,551;    0,185;    2,500
284,913;11856,778;   -1,360;    0,591
285,510;12046,323;    0,640;   -0,318
286,106;12068,413;   -2,269;   -0,955
286,703;11700,310;   -0,360;    1,955
287,299;11880,683;   -1,451;   -0,591
287,895;12106,479;    0,822;   -1,045
288,491;12742,218;    0,186;    2,136
289,088;12448,924;   -2,360;    2,409
289,684;12527,342;   -1,723;    1,500
290,280;12552,046;    0,368;    0,682
290,876;12626,490;    1,822;    5,500
291,472;12510,538;    1,276;    2,227
292,068;12630,072;    1,367;    0,227
292,665;12356,138;    2,095;    0,773
293,261;11921,275;    0,276;    2,136
293,857;12320,023;    2,913;    2,136
294,453;12268,829;    3,550;    0,955
295,049;12216,722;   -0,268;    1,955
295,644;12210,645;    0,095;    0,136
296,240;12119,780;   -0,905;   -0,136
296,836;12162,892;   -0,995;    0,318
297,432;12434,720;    1,096;   -0,500
298,028;12482,606;    0,732;    0,773
298,624;12949,744;    1,459;    1,864
299,220;13192,789;    2,368;    0,591
299,815;12834,904;    1,005;   -0,409
300,411;12635,632;    0,914;    1,773
301,007;12670,754;    1,368;    0,227
301,602;12698,790;   -0,541;   -2,318
302,198;12857,367;    0,732;   -0,773
302,794;13222,448;    1,187;   -0,500
303,389;13344,028;   -1,177;    1,045
303,985;13443,483;    0,550;    1,409
304,580;13448,709;    1,459;    1,591
305,176;13391,052;   -3,086;    0,136
305,771;13332,916;   -1,268;   -1,227
306,367;13170,690;    4,095;    0,136
306,962;13532,881;    0,641;    1,500
307,558;13276,358;   -0,450;    0,136
308,153;13217,245;    1,095;   -1,136
308,748;13494,961;   -0,814;    1,682
309,344;13457,269;   -0,632;   -1,318
309,939;13541,200;   -1,905;   -1,318
310,534;13850,098;   -0,086;   -1,682
311,130;13802,222;    0,459;   -2,500
311,725;13513,495;    1,004;   -0,500
312,320;13850,142;    2,459;    0,045
312,915;13678,928;    1,459;   -1,045
313,510;13758,814;    1,550;   -0,500
314,105;14255,618;    1,096;    1,409
314,700;13676,982;   -3,086;   -1,045
315,295;13240,346;   -0,904;    0,045
315,890;12805,858;    1,277;    0,864
316,485;13143,155;   -0,359;   -0,318
317,080;13219,176;   -3,086;    1,591
317,675;13799,063;    2,005;   -0,682
318,270;13194,606;    5,550;    3,318
318,865;13184,958;    3,278;    3,045
319,460;13060,483;   -0,904;    0,591
320,055;13275,912;   -0,541;   -1,227
320,650;12913,457;   -1,995;   -0,591
321,244;12971,605;   -0,177;   -1,409
321,839;14024,562;   -1,541;   -0,227
322,434;13900,779;   -1,086;   -1,591
323,029;13484,697;    1,732;    1,591
323,623;13303,597;    1,550;    0,773
324,218;13079,799;    2,368;    1,409
324,812;12975,278;    1,096;    1,591
325,407;12785,119;   -0,814;    2,045
326,002;12712,835;    0,277;   -0,409
326,596;13004,039;    0,914;    1,318
327,191;13220,687;    0,823;   -1,045
327,785;12792,675;   -0,813;   -0,227
328,379;13025,449;    1,368;    0,136
328,974;12850,937;    0,914;   -3,955
329,568;13032,141;    0,186;   -2,409
330,163;12873,936;    2,096;    1,045
330,757;13243,700;    2,459;    1,591
331,351;12530,609;    0,459;    0,682
331,945;12837,527;    0,914;    1,409
332,540;12409,438;   -1,723;   -0,591
333,134;12607,053;   -1,086;    0,773
333,728;12880,495;    0,005;    0,318
334,322;13211,914;   -1,177;   -0,864
334,916;12470,417;    0,277;    0,955
335,510;12812,893;   -0,450;   -0,136
336,105;13066,051;   -1,086;    1,591
336,699;12789,836;   -1,086;    0,591
337,293;12723,088;   -1,723;    0,318
337,887;12866,994;   -2,723;    1,955
338,481;12989,188;    0,459;    0,591
339,074;13107,769;   -0,359;    2,682
339,668;12899,587;   -1,632;    1,227
340,262;13184,735;    1,732;    3,227
340,856;12687,225;    1,822;   -0,682
341,450;11985,839;    1,004;    1,864
342,044;12993,906;    1,459;    0,136
342,637;12743,667;    0,913;   -2,136
343,231;12654,194;   -2,360;    0,682
343,825;12585,552;   -1,086;   -0,591
344,419;12524,869;   -1,995;    0,500
345,012;12234,254;    2,459;    4,045
345,606;12255,788;    4,641;    1,591
346,199;12111,310;   -1,813;   -0,227
346,793;11602,037;    1,914;    2,045
347,386;11761,777;   -0,813;   -1,136
347,980;11778,842;   -0,268;   -0,045
348,573;11553,080;    2,278;    0,409
349,167;11219,294;    5,278;    4,773
349,760;11555,988;    2,914;    2,682
350,354;11553,757;   -0,813;    1,136
350,947;11273,940;    1,096;    1,682
351,540;10953,224;   -0,358;   -1,409
352,134;10878,294;    1,096;    1,136
352,727;10923,876;   -0,086;    1,136
353,320;10698,113;    0,005;    0,591
353,913;10556,489;   -1,995;    1,864
354,507;10773,091;    0,823;   -1,227
355,100;10712,932;    0,460;    0,864
355,693; 9932,690;    2,005;    2,409
356,286; 9982,919;    0,823;    2,773
356,879;10356,283;   -0,722;    1,227
357,472; 9956,352;   -0,904;    1,500
358,065;10152,225;   -0,722;    2,500
358,658;10039,999;   -0,540;    2,318
359,251; 9696,113;   -1,631;   -0,591
359,844; 9154,918;   -1,904;   -1,136
360,437; 9296,193;   -2,995;    0,045
361,030; 9585,897;    1,369;   -0,682
361,623; 9196,440;    2,824;    0,318
362,215; 9238,043;   -0,086;    2,045
362,808; 9058,476;   -2,358;   -1,682
363,401; 9251,042;   -2,449;    0,136
363,994; 8918,905;   -0,631;   -1,500
364,586; 8859,334;    0,824;   -1,500
365,179; 9067,799;   -0,449;   -1,136
365,772; 8552,452;   -1,995;    2,045
366,364; 8891,129;    1,915;   -3,227
366,957; 9064,966;    2,279;   -0,045
367,549; 9110,499;    2,188;   -0,864
368,142; 8728,395;    1,825;   -1,500
368,734; 8937,493;    0,734;   -2,136
369,327; 8888,549;    1,643;   -0,500
369,919; 8804,682;   -1,538;    0,409
370,512; 8576,894;   -1,083;   -0,500
371,104; 8346,785;   -0,901;    1,591
371,696; 8537,379;    1,191;   -0,955
372,289; 8643,078;    0,373;    1,136
372,881; 8797,569;   -2,080;    1,318
373,473; 8708,050;   -2,170;    1,136
374,066; 8496,695;   -0,169;    0,500
374,658; 8306,904;    0,378;    1,136
375,250; 8726,784;    0,653;   -1,409
375,842; 8543,423;    0,473;   -0,045
376,434; 8433,896;   -0,435;   -0,409
377,026; 9028,397;    0,204;   -2,500
377,618; 8920,604;   -0,158;   -0,682
378,210; 8749,324;   -0,338;   -1,955
378,802; 8592,198;    0,754;   -0,591
379,394; 8579,005;    1,846;    0,682
379,986; 9193,395;    1,393;   -0,955
380,578; 9308,313;   -0,153;    0,773
381,170; 8615,549;   -0,972;    0,045
381,762; 8591,843;    0,755;    1,409
382,354; 8827,017;   -0,065;   -1,318
382,945; 8928,441;   -2,976;    0,318
383,537; 9051,424;   -2,705;   -1,955
384,129; 9058,823;   -2,160;   -1,136
384,721; 9288,623;   -0,252;    0,955
385,312; 9211,467;   -0,161;   -0,955
385,904; 9290,726;   -2,706;    1,591
386,496; 8645,246;   -0,979;    1,045
387,087; 8795,003;    1,022;    2,500
387,679; 8861,762;   -1,160;    0,045
388,270; 8967,953;    2,840;    2,045
388,862; 9083,261;    1,295;   -0,318
389,453; 8997,147;   -0,887;    1,045
390,045; 9297,385;   -0,705;   -2,682
390,636; 9216,315;    0,204;   -0,591
391,227; 9054,886;   -0,523;   -0,045
391,819; 9187,717;    0,204;    0,773
392,410; 9277,594;    1,022;    0,045
393,001; 9172,531;   -0,979;   -1,591
393,593; 9485,828;    1,930;   -0,045
394,184; 9362,463;    1,385;   -0,409
394,775; 9298,691;    1,839;    2,136
395,366; 9488,972;    1,385;    0,773
395,957; 9502,378;    0,113;    0,136
396,548; 9852,584;   -0,342;    2,682
397,139;10184,399;   -2,433;    0,591
397,730; 9885,369;   -1,888;    0,955
398,321; 9946,098;   -1,252;    0,955
398,912; 9981,588;   -0,615;    0,136
399,503;10048,508;   -3,524;   -1,409
400,094; 9455,543;    0,294;    1,682
400,685; 9301,178;   -0,433;    0,045
401,276; 9401,813;    0,930;   -0,955
401,867; 9760,667;   -0,888;    0,773
402,458; 9822,302;   -2,251;   -2,318
403,048; 9819,565;    1,112;    0,591
403,639; 9402,665;    0,840;    0,864
404,230; 9607,622;    2,476;    0,318
404,821; 9559,235;   -0,615;    0,045
405,411; 9692,112;    1,203;   -2,591
406,002; 9266,804;   -1,252;   -1,136
406,592; 9092,636;    2,294;    0,045
407,183; 9455,320;    0,566;   -1,500
407,774; 9353,501;    3,475;   -0,136
408,364; 9729,091;    0,930;    0,409
408,954; 9275,910;    0,384;    1,227
409,545; 9323,240;    1,021;    1,045
410,135; 8869,287;    1,293;    0,500
410,726; 9019,803;    1,838;    0,318
411,316; 9418,084;    0,111;    0,773
411,906; 9083,461;   -0,253;   -0,409
412,497; 8523,890;   -1,070;   -0,045
413,087; 9124,344;   -1,980;   -0,227
413,677; 9549,564;   -0,707;    3,864
414,267; 9411,212;    0,656;    1,409
414,857; 9425,008;   -2,980;    4,227
415,448; 9733,436;    0,839;    0,500
416,038; 9391,709;    0,020;   -0,591
416,628; 9393,984;   -0,889;    0,409
417,218; 8808,020;    0,565;    3,318
417,808; 9061,906;    0,202;   -0,409
418,398; 9601,588;    0,020;    2,682
418,988; 9630,975;    2,020;    0,591
419,578; 9915,326;   -0,707;    1,409
420,168;10286,029;   -1,343;   -0,955
420,757; 9839,561;   -1,343;   -1,500
421,347; 9482,136;    0,111;   -0,227
421,937; 9675,681;    2,292;    1,409
422,527; 9625,648;    0,838;   -0,773
423,116; 9451,520;   -0,253;   -0,045
423,706; 9791,817;   -1,889;    0,318
424,296; 9782,157;    1,384;    0,682
424,885;10208,157;   -0,071;   -3,045
425,475;10530,511;    1,474;   -2,864
426,065;10434,522;   -0,980;   -0,318
426,654;10052,241;   -0,435;   -0,318
427,244;10171,409;    0,020;    1,409
427,833; 9585,511;    1,383;   -0,500
428,423;10103,900;   -0,526;    1,136
429,012;10913,118;   -0,344;   -1,136
429,601;10367,494;   -1,344;    0,136
430,191;10611,412;    1,292;    4,318
430,780;10273,706;   -0,344;   -0,409
431,369;10154,505;    0,746;   -0,045
431,959;10838,869;   -1,254;    0,500
432,548;10637,665;   -1,163;   -0,045
433,137;10789,257;   -1,254;   -1,318
433,726;11342,972;    0,292;    0,500
434,315;10620,314;   -0,526;    2,409
434,905;10714,715;   -1,254;    1,409
435,494;10575,793;    0,746;    0,955
436,083;11082,359;   -0,981;   -0,955
436,672;11006,042;    0,110;    0,500
437,261;10488,259;    0,292;   -1,955
437,850;10654,565;    1,383;    0,682
438,439;10669,136;    3,291;    1,955
439,027;10485,683;    3,655;    1,773
439,616;10846,582;    2,927;    1,227
440,205;10713,058;    0,200;   -2,136
440,794;10818,275;    2,109;   -0,045
441,383;11110,891;   -1,346;   -0,591
441,971;10969,391;   -2,436;    0,591
442,560;10850,427;    0,563;   -1,773
443,149;10580,234;    0,379;   -1,318
443,737;10734,785;   -0,074;   -2,318
444,326;10982,825;    0,018;    0,318
444,915;11059,984;   -1,982;    0,864
445,503;11499,130;   -2,891;   -0,318
446,092;10716,767;    0,382;    2,136
446,680;11283,030;    0,382;    0,318
447,269;11479,553;   -0,346;   -0,318
447,857;11224,146;    0,018;   -1,773
448,445;11295,715;    0,563;    1,318
449,034;11536,589;   -1,528;   -1,136
449,622;11739,873;   -1,073;    3,500
450,210;10875,456;    2,017;    2,227
450,799;11457,446;    0,290;   -0,591
451,387;11426,844;    1,381;   -0,591
451,975;10995,536;    2,654;    0,864
452,563;11090,114;    3,472;    2,318
453,151;11148,083;   -0,528;   -1,227
453,739;11081,245;   -1,347;    0,136
454,328;10910,971;    2,381;   -2,136
454,916;10607,188;    2,562;   -0,136
455,504;10814,687;    1,017;    1,227
456,092;10943,027;    0,017;   -1,591
456,679;10977,664;    1,472;    0,682
457,267;10864,529;    4,017;    1,045
457,855;11086,178;    1,017;    1,409
458,443;10863,907;   -0,165;    1,682
459,031;10967,190;    0,108;    2,409
459,619;11441,734;   -1,801;    2,864
460,206;11646,417;    0,835;    2,045
460,794;11698,429;   -2,983;   -0,227
461,382;11984,807;   -0,529;   -0,864
461,970;11526,738;    1,198;    1,864
462,557;11507,204;   -0,711;   -0,682
463,145;11725,317;   -3,165;   -1,682
463,732;11923,410;    2,016;   -1,045
464,320;11877,083;   -0,075;   -3,045
464,907;11481,037;    2,743;   -0,773
465,495;11349,279;    0,743;   -1,227
466,082;11520,628;   -1,984;   -0,045
466,670;11457,310;   -2,529;    1,227
467,257;11870,697;   -1,711;    2,045
467,844;12016,380;   -0,075;    0,045
468,432;12040,914;    0,834;    3,500
469,019;11482,292;    0,925;   -1,773
469,606;11983,438;    0,470;    3,682
470,193;11823,725;   -1,439;    0,227
470,780;11365,450;   -2,075;    0,864
471,368;11742,054;   -1,257;   -0,773
471,955;11492,860;    1,379;   -0,682
472,542;11098,828;    0,652;   -1,136
473,129;11342,076;   -0,166;    0,136
473,716;11037,598;    1,470;    0,591
474,303;11280,894;    0,652;   -0,864
474,890;11611,830;   -1,439;   -0,500
475,477;11621,672;   -1,621;    0,409
476,064;11548,367;    1,106;   -1,591
476,650;11510,979;    0,288;    0,318
477,237;11303,979;   -0,258;    0,955
477,824;11517,354;   -1,076;    0,864
478,411;11553,036;   -1,894;   -0,318
478,997;11760,390;    0,560;   -0,773
479,584;11818,426;    1,196;   -0,409
480,171;12587,471;   -0,440;   -0,773
480,757;12230,723;    2,651;    0,773
481,344;12511,914;    0,469;    0,409
481,931;12052,171;    1,105;    1,045
482,517;13199,509;   -1,258;    0,318
483,104;13880,210;    1,106;    2,864
483,690;14196,790;   -1,804;    0,045
484,276;14598,894;   -0,895;    0,227
484,863;14332,745;    2,469;    1,136
485,449;15000,373;   -0,077;    0,318
486,035;14992,635;   -1,986;   -0,136
486,622;15413,122;   -0,895;    0,045
487,208;15380,066;    1,378;    1,500
487,794;15158,954;    0,741;    0,318
488,380;15308,500;    0,105;   -1,409
488,967;15422,855;   -1,168;   -0,409
489,553;15462,343;   -1,895;   -1,409
490,139;15671,695;    1,559;    0,773
490,725;15037,389;    0,741;   -0,227
491,311;14496,297;    3,287;    3,045
491,897;13720,786;   -0,986;    1,500
492,483;13458,276;    0,105;    1,227
493,069;13209,980;    3,923;    0,864
493,655;13199,049;    1,650;    0,682
494,241;13096,504;    1,377;   -0,955
494,826;13570,513;    0,287;   -1,045
495,412;13007,002;    2,559;   -0,682
495,998;13132,040;   -0,805;   -0,318
496,584;13307,380;    0,377;    1,045
497,169;13324,017;    1,014;   -0,682
497,755;13245,759;    0,650;    1,227
498,341;13836,733;    0,559;    0,318
498,926;13401,791;    1,832;    1,955
499,512;13572,275;    1,286;    2,955
500,097;13743,886;    0,195;   -0,318
500,683;13672,294;   -0,350;    2,136
501,268;14045,260;   -0,169;   -0,955
501,854;13755,181;   -0,169;    1,227
502,439;13662,502;   -0,624;   -1,773
503,024;13898,602;    0,195;    0,500
503,610;13981,238;   -0,078;   -0,682
504,195;14007,944;    0,558;    1,955
504,780;14090,851;    2,922;    1,227
505,366;13886,419;    3,013;    2,864
505,951;13606,663;    0,740;    1,045
506,536;13625,810;   -3,260;   -3,682
507,121;13609,889;    0,285;   -0,318
507,706;14151,196;    2,376;    1,045
508,291;14560,129;    2,649;    1,136
508,876;14011,883;   -0,988;    2,591
509,461;13435,916;   -0,169;   -0,773
510,046;13893,722;    0,194;    0,318
510,631;14133,437;   -0,351;   -0,773
511,216;13785,199;    2,467;   -0,500
511,801;14158,628;   -0,442;    2,591
512,386;14504,312;    0,740;    0,500
512,971;14426,633;   -2,988;    0,955
513,555;13962,199;   -0,897;   -1,500
514,140;14784,041;   -0,442;   -3,136
514,725;14796,918;   -0,715;   -1,136
515,309;14923,304;   -0,533;    0,318
515,894;14316,531;   -0,624;   -2,227
516,479;14794,100;   -0,624;   -0,955
517,063;14637,907;    0,376;    1,227
517,648;14768,134;    1,012;   -1,136
518,232;14446,638;   -0,261;   -1,409
518,817;14784,809;   -0,079;    1,682
519,401;15009,251;    2,194;    0,591
519,985;14489,523;    1,103;    1,136
520,570;14400,854;    0,830;   -1,955
521,154;14698,708;    2,102;    0,591
521,738;14841,846;   -2,352;    2,409
522,323;15388,912;   -0,170;    1,682
522,907;15173,414;    0,466;   -0,136
523,491;14854,721;    0,557;    0,955
524,075;14816,892;    2,284;    0,591
524,659;14969,641;    1,466;    0,591
525,243;14390,721;    1,739;    0,409
525,827;14680,142;    0,648;   -0,045
526,411;15617,550;   -1,989;   -0,136
526,995;15818,448;   -0,352;    1,409
527,579;15372,872;   -0,443;   -1,045
528,163;15664,816;    0,375;   -1,500
528,747;15606,850;    2,466;   -0,773
529,331;15951,463;   -0,080;   -1,409
529,915;16140,873;    1,738;    0,955
530,499;16142,566;   -0,807;    1,227
531,082;15830,122;   -0,534;    1,591
531,666;15222,330;    1,374;    0,773
532,250;15946,111;    1,284;    2,682
532,833;16329,329;    0,920;    2,773
533,417;16174,932;   -1,807;    0,864
534,001;16142,547;    1,647;   -0,318
534,584;16878,912;    0,374;    0,500
535,168;16716,435;    0,465;    1,409
535,751;16798,557;    0,647;    0,045
536,334;16251,933;   -0,898;   -0,409
536,918;16831,387;    0,011;    1,591
537,501;16936,547;   -0,899;    1,318
538,085;16920,446;   -0,444;    1,045
538,668;17129,253;    0,829;    2,409
539,251;17472,241;    1,829;    3,773
539,834;17455,378;    0,101;    0,773
540,418;17395,823;   -1,990;    4,318
541,001;17575,697;   -0,990;    1,773
541,584;17525,565;    2,101;    2,227
542,167;17225,812;    1,374;    2,955
542,750;17393,404;    1,919;   -0,773
543,333;16984,293;    0,555;    2,136
543,916;17793,620;    0,192;    2,500
544,499;18462,428;   -1,354;    0,227
545,082;18464,065;    1,374;    3,591
545,665;18579,280;    1,919;    1,500
546,248;18987,202;    1,010;   -0,318
546,830;18631,474;   -0,445;    1,955
547,413;19057,703;    1,010;   -0,773
547,996;19607,727;    0,555;    0,500
548,579;19376,251;    0,919;    0,955
549,161;19138,615;    1,828;    2,682
549,744;18941,866;   -0,809;    0,409
550,326;19469,889;   -0,809;   -1,136
550,909;19257,924;    2,737;    0,591
551,492;19668,366;   -0,263;    0,227
552,074;19457,686;   -0,173;   -1,318
552,657;20043,027;    2,373;    0,045
553,239;19741,903;   -0,173;   -0,773
553,821;19655,856;   -1,082;    1,045
554,404;19182,618;    1,282;    1,136
554,986;19599,028;    0,464;    1,045
555,568;20223,176;    1,191;   -0,955
556,151;19403,711;    1,191;   -0,227
556,733;19580,335;   -0,264;   -0,864
557,315;20055,428;    0,100;    0,500
557,897;19913,985;    0,554;   -0,500
558,479;20022,132;   -1,991;    1,318
559,061;20166,658;   -0,719;   -0,864
559,643;20525,281;   -0,264;    0,045
560,225;20904,449;    1,645;    2,864
560,807;20919,372;    0,918;    0,318
561,389;20392,861;    0,554;    2,318
561,971;21270,024;    0,463;    2,136
562,553;20993,430;   -1,628;    1,591
563,135;21160,157;   -0,537;    1,136
563,717;20824,294;    3,372;    1,136
564,298;21571,351;    3,645;   -0,045
564,880;21285,900;    0,645;   -1,409
565,462;21452,628;    0,645;    1,318
566,043;22677,829;   -0,446;    2,318
566,625;22233,363;    1,918;    1,227
567,207;22112,933;    1,099;    1,682
567,788;23289,445;   -1,264;    1,500
568,370;24209,970;    1,917;   -0,500
568,951;24080,127;    0,190;    0,227
569,533;25033,766;   -0,628;   -0,500
570,114;25497,876;   -0,446;    0,682
570,695;26111,686;   -0,174;   -1,318
571,277;26730,732;   -0,265;   -1,682
571,858;27530,470;    2,008;   -1,136
572,439;28498,742;    1,554;   -1,045
573,021;28725,019;    2,099;   -2,773
573,602;29307,052;   -1,265;    0,318
574,183;30329,894;   -2,083;    2,227
574,764;30510,916;   -1,629;    0,409
575,345;31174,133;    0,917;   -0,136
575,926;31776,483;   -0,356;    0,136
576,507;31705,404;    1,099;   -0,227
577,088;32950,642;    3,099;    1,682
577,669;33001,462;    0,735;    1,955
578,250;33854,803;    0,644;   -1,045
578,831;34620,794;   -1,356;   -2,227
579,412;34871,996;   -0,810;    0,955
579,993;35780,088;    1,008;    0,227
580,573;36093,224;   -0,629;   -0,955
581,154;35108,962;    0,735;   -0,591
581,735;35992,508;    0,644;    0,773
582,315;35533,417;   -0,629;    2,136
582,896;35797,734;   -0,174;    1,227
583,477;35198,827;    0,189;    1,227
584,057;35387,235;    0,553;    0,955
584,638;35684,815;    2,553;    2,318
585,218;35697,667;   -0,538;    2,682
585,799;35870,337;    0,281;   -0,227
586,379;35786,552;    0,372;    1,591
586,959;34456,598;    0,735;    0,318
587,540;33670,112;   -0,629;    2,227
588,120;33125,467;    1,007;   -0,045
588,700;32005,692;    2,553;    2,136
589,281;32358,792;    0,462;   -0,955
589,861;32336,168;    0,099;   -1,682
590,441;32120,724;    2,371;   -2,682
591,021;31017,622;   -0,265;   -2,591
591,601;31228,233;   -0,537;    0,500
592,181;31182,039;   -0,719;   -0,773
592,761;30467,045;    0,007;    1,409
593,341;30328,553;   -0,901;    0,045
593,921;30358,881;   -0,265;    1,591
594,501;30185,360;   -0,538;    1,318
595,081;30065,074;    0,917;   -0,318
595,661;30444,075;   -1,447;    0,955
596,240;30974,994;   -0,537;    0,136
596,820;30594,902;    0,372;    1,955
597,400;30818,348;    2,008;    0,773
597,980;31014,482;    2,008;    1,045
598,559;30986,586;    2,735;   -0,227
599,139;30642,564;   -0,174;   -1,227
599,718;30617,745;   -0,174;   -0,409
600,298;30849,347;    0,735;    0,682
600,877;31144,517;    2,917;    1,409
601,457;31431,788;    2,281;    1,136
602,036;31349,585;    0,190;    2,045
602,616;31559,380;    0,644;    1,682
603,195;31902,685;   -0,355;    3,500
603,774;31437,902;   -0,901;    2,045
604,354;31280,163;    0,826;   -0,500
604,933;30775,017;    0,463;    1,864
605,512;30811,891;    3,554;    0,591
606,091;30876,298;   -0,537;    3,773
606,671;31705,220;    0,281;    0,773
607,250;30819,606;    1,644;    3,136
607,829;31058,343;    2,372;    3,227
608,408;30884,969;    1,190;    2,591
608,987;29847,978;    1,281;    3,409
609,566;30164,359;   -1,265;   -2,500
610,145;30325,989;   -1,082;    0,682
610,723;30670,160;    4,372;    6,864
611,302;29924,147;   -0,446;    1,682
611,881;29422,603;    5,008;   11,227
612,460;30275,512;    1,645;    3,955
613,039;30703,317;   -0,082;    2,045
613,617;29410,332;    1,736;    4,773
614,196;29533,637;    1,099;    1,227
614,775;29867,533;    1,009;    2,409
615,353;29812,009;    0,736;    0,864
615,932;29507,737;    0,100;    2,409
616,510;30100,794;    0,554;    0,591
617,089;29596,100;    7,100;   17,591
617,667;29303,112;    2,372;    6,136
618,246;29149,645;   -1,537;    1,318
618,824;29327,838;   -3,355;   -0,955
619,402;28889,123;   -2,900;   -1,773
619,981;29381,883;   -0,173;   -1,045
620,559;29226,655;    0,009;    1,682
621,137;28694,962;   -0,718;    1,864
621,715;28712,678;   -1,173;   -0,682
622,293;28652,007;   -0,537;   -0,773
622,871;29080,064;   -0,718;    0,500
623,450;28675,438;    0,373;   -0,864
624,028;28542,677;    0,191;   -0,955
624,606;28175,222;   -1,718;    1,682
625,183;28544,755;   -1,536;   -1,136
625,761;28147,562;    1,009;    1,136
626,339;28437,700;    1,373;    2,591
626,917;28829,867;   -0,172;   -0,045
627,495;28878,299;   -0,354;    1,318
628,073;28324,161;   -0,263;    2,864
628,650;28029,675;    0,100;    2,136
629,228;28469,426;    0,373;    4,409
629,806;27772,061;    2,282;    1,136
630,383;28067,378;    1,464;   -0,318
630,961;27852,368;    2,555;   -0,955
631,539;27559,775;    2,464;    0,227
632,116;26884,823;   11,373;   15,409
632,694;27455,219;    2,555;    6,500
633,271;27806,796;    0,828;    2,682
633,848;27736,229;    1,828;    2,045
634,426;27733,193;   -1,081;    1,773
635,003;26798,201;    1,101;   -0,409
635,580;27150,701;    1,192;    3,682
636,158;27707,987;    3,737;    1,227
636,735;27703,285;    0,555;   -0,500
637,312;27868,252;   -0,809;   -0,682
637,889;27919,647;   -4,354;   -0,682
638,466;27365,087;   -3,990;   -0,409
639,043;27411,698;    2,101;   -1,136
639,620;27783,289;   -2,262;   -0,955
640,197;28082,359;    1,100;    1,682
640,774;28214,342;   -0,172;    1,136
641,351;28633,507;    0,737;    1,136
641,928;28011,853;   -0,627;    1,409
642,505;27657,654;    0,828;   -0,500
643,082;27764,001;   -1,718;    1,227
643,658;26767,075;   -0,718;    1,500
644,235;27511,876;    1,191;    2,500
644,812;27838,495;    1,918;    0,773
645,388;27578,023;   -0,991;    1,409
645,965;27656,279;   -0,809;    1,682
646,542;27735,989;   -1,445;   -0,227
647,118;27691,608;    1,009;   -0,955
647,695;28027,137;   -0,263;    1,136
648,271;27935,210;   -0,536;    0,500
648,848;28229,466;    0,736;    2,227
649,424;28096,994;    0,827;    1,318
650,000;27876,432;   -0,354;   -1,045
650,577;27572,324;   -0,627;   -0,955
651,153;28163,489;   -1,809;    0,955
651,729;29241,381;    1,191;    0,864
652,305;29779,000;    0,645;    2,773
652,881;35296,619;   -0,082;    1,136
653,458;42887,420;    1,100;    0,227
654,034;46762,403;    0,282;    1,591
654,610;48272,477;    0,554;    0,773
655,186;49633,460;    0,645;    3,045
655,762;49316,443;   -0,991;    0,409
656,338;49392,517;    0,100;    0,136
656,913;50376,318;   -0,082;    0,409
657,489;49674,937;    0,827;   -0,318
658,065;49615,647;   -0,173;   -1,591
658,641;50261,903;   -0,900;   -0,864
659,217;49590,795;   -0,991;    0,409
659,792;48963,778;    0,645;   -0,409
660,368;49130,760;   -2,173;   -0,682
660,944;48559,198;   -2,082;    1,227
661,519;42897,726;   -0,628;    0,409
662,095;36072,073;   -1,719;    0,591
662,670;31288,056;    1,281;   -0,136
663,246;30145,130;    1,009;   -0,409
663,821;29524,658;    0,281;    1,682
664,396;29007,277;    0,009;    1,864
664,972;29235,987;    0,009;   -0,500
665,547;29578,152;    1,372;    0,136
666,122;29608,499;   -1,082;    0,318
666,698;29893,481;   -0,173;    0,318
667,273;29223,192;   -0,173;    0,136
667,848;30121,720;    2,372;    1,500
668,423;29890,794;    2,190;    2,318
668,998;30493,868;    2,827;   -0,682
669,573;31074,669;   -3,264;   -1,500
670,148;30913,742;   -1,446;   -0,682
670,723;30703,271;   -1,810;    0,318
671,298;31102,072;    2,372;    1,045
671,873;31255,146;   -0,082;   -0,136
672,448;31201,947;    0,645;    0,136
673,023;31529,748;   -1,992;   -0,227
673,597;31852,185;    0,827;    2,318
674,172;31638,714;   -0,355;    0,318
674,747;31074,697;    0,372;   -1,045
675,321;30931,043;   -0,628;    3,318
675,896;30471,844;    0,645;    1,045
676,471;31538,463;    2,645;    1,591
677,045;31344,810;   -1,264;    0,682
677,620;31420,338;    0,190;    1,136
678,194;31704,776;   -2,628;    1,136
678,769;31256,850;   -1,083;   -0,318
679,343;31550,923;   -0,628;    1,773
679,917;31396,088;   -1,446;    1,955
680,492;31452,253;    0,826;    3,227
681,066;31637,690;    3,372;    0,409
681,640;31656,037;    1,463;   -0,318
682,214;32464,565;    0,735;    0,500
682,788;32042,821;   -1,356;   -0,773
683,363;32035,440;   -1,810;    1,682
683,937;31698,878;   -1,719;   -0,318
684,511;32499,860;    0,463;   -0,591
685,085;32175,480;   -1,356;    0,318
685,659;31842,463;   -2,538;    0,864
686,232;32202,355;   -0,356;   -0,318
686,806;31922,701;   -0,901;    0,409
687,380;32538,684;   -0,174;    0,591
687,954;32754,576;   -1,174;    1,136
688,528;32443,195;   -0,719;    1,955
689,101;33290,451;   -3,992;    1,045
689,675;32784,797;   -0,356;   -0,136
690,249;32177,780;   -0,719;    0,409
690,822;32470,581;    0,280;    0,318
691,396;32589,201;   -0,265;    1,227
691,969;32048,820;    1,280;    0,136
692,543;32486,894;   -0,447;   -1,955
693,116;32090,877;   -0,265;   -1,409
693,690;31962,223;    0,099;    0,500
694,263;32550,933;   -1,083;    2,955
694,836;32623,644;    1,371;    3,591
695,410;31196,808;   -0,265;    1,773
695,983;31681,791;    0,189;    0,591
696,556;31675,592;   -0,447;   -1,045
697,129;32074,575;   -0,356;    1,409
697,703;31666,922;   -1,629;    1,955
698,276;31617,541;    1,462;   -0,773
698,849;31452,615;    1,280;    1,409
699,422;31745,052;   -1,083;    0,591
699,995;31467,853;    0,007;    0,136
700,568;32022,018;   -0,629;    3,045
701,140;32043,001;   -2,811;    1,682
701,713;31788,802;   -0,174;    2,409
702,286;31474,512;   -0,538;    0,864
702,859;31358,495;   -0,902;   -0,591
703,432;30530,205;    0,825;    0,682
704,004;31014,006;    0,462;    0,318
704,577;30862,353;   -0,629;    0,136
705,150;31439,427;    0,189;    2,500
705,722;31222,228;   -0,356;   -3,227
706,295;31026,847;   -0,175;   -0,591
706,867;30909,103;   -0,175;    1,955
707,440;31136,904;   -1,720;   -0,409
708,012;31420,887;    0,462;    0,591
708,584;31237,688;    2,462;    0,227
709,157;31491,216;    1,825;   -0,591
709,729;31183,744;    2,280;    2,045
710,301;32019,364;    0,734;    0,045
710,874;32065,074;   -1,447;   -0,227
711,446;30928,784;    0,371;    0,864
712,018;30820,131;    0,098;    0,500
712,590;30587,477;   -1,993;    1,682
713,162;31161,096;    0,825;    1,318
713,734;31371,988;    1,825;   -2,045
714,306;31222,153;   -1,902;   -0,409
714,878;29933,500;    0,825;    0,864
715,450;30701,664;    0,643;    0,864
716,022;30901,374;    1,552;    1,318
716,593;31073,176;    0,189;    0,591
717,165;31013,340;   -3,175;   -1,227
717,737;30712,505;    0,280;    0,409
718,309;30380,488;    0,280;   -0,045
718,880;30315,289;   -0,539;   -1,409
719,452;30486,454;   -0,175;   -1,591
720,024;30082,800;    0,734;   -0,591
720,595;30686,147;   -2,902;    0,955
721,167;30272,311;    0,370;   -2,045
721,738;29772,385;   -0,812;   -1,045
722,309;29773,186;   -0,993;   -1,227
722,881;29509,806;   -1,357;    0,773
723,452;30186,698;   -2,630;    2,864
724,023;30389,862;   -0,721;    2,682
724,595;30065,118;    0,007;    0,682
725,166;29814,283;    0,007;   -0,409
725,737;29524,447;    1,734;    0,227
726,308;29529,976;   -0,266;    0,318
726,879;30009,777;   -1,630;    1,227
727,450;29828,487;    0,552;   -0,045
728,021;29773,288;    3,097;    0,682
728,592;29627,453;    0,734;    0,500
729,163;29941,981;    0,643;   -0,136
729,734;29996,509;    0,188;   -0,227
730,305;30332,220;    1,734;    0,136
730,876;30704,112;    0,188;    2,955
731,447;30453,731;    2,188;    2,682
732,017;30563,350;    1,097;    1,864
732,588;30020,879;    0,734;    1,227
733,159;30197,589;    0,643;   -1,045
733,729;30020,481;    0,006;    0,409
734,300;29247,554;    0,915;    0,864
734,870;29703,810;    3,461;    0,591
735,441;30295,611;    0,370;   -0,591
736,011;30085,503;    0,643;   -1,591
736,582;30013,941;   -0,812;    0,045
737,152;29459,651;   -1,721;   -2,045
737,722;29854,361;   -0,267;   -0,682
738,293;29596,435;   -1,358;    1,318
738,863;29452,236;    2,461;    2,318
739,433;29263,673;    5,279;    0,318
740,003;29872,202;   -0,994;   -0,682
740,573;29287,094;    2,097;   -1,591
741,143;29216,349;   -1,085;    0,318
741,713;30029,332;    1,188;   -0,500
742,283;29745,406;    0,915;    1,591
742,853;29446,571;    1,915;    1,591
743,423;28895,826;    1,733;    0,045
743,993;29127,446;   -0,358;    1,500
744,563;28389,792;    0,097;   -0,864
745,133;28356,411;   -0,812;   -0,864
745,702;29073,940;   -0,267;    1,773
746,272;28282,832;   -0,176;    0,591
746,842;28001,996;   -1,358;   -0,591
747,411;28397,525;   -0,267;   -0,318
747,981;28615,235;    0,097;    0,500
748,551;28643,854;    2,278;   -1,045
749,120;28464,837;    0,642;   -0,227
749,690;28907,366;   -0,631;    2,409
750,259;29200,076;    1,369;    2,955
750,828;29169,331;    1,551;   -1,955
751,398;29426,496;    1,278;   -0,045
751,967;28946,115;    2,187;    0,409
752,536;29147,553;   -0,813;   -0,227
753,105;29596,263;    0,096;    0,227
753,675;29367,064;    0,096;    1,773
754,244;29348,956;   -0,904;    3,591
754,813;29373,212;    0,551;    1,227
755,382;28956,194;    0,460;    0,955
755,951;29606,541;    1,551;    3,682
756,520;29061,888;   -0,085;    1,864
757,089;29618,870;    0,278;    0,500
757,658;29789,126;    1,733;    1,227
758,227;29761,291;    1,096;    0,318
758,795;30127,637;    1,187;    1,136
759,364;30343,620;   -0,086;   -0,591
759,933;29316,058;   -1,176;   -0,045
760,501;28784,859;    0,733;   -1,318
761,070;29309,205;   -2,813;   -1,409
761,639;30020,370;   -1,904;    1,318
762,207;29314,898;    1,551;   -0,955
762,776;29264,518;    0,369;    0,864
763,344;29196,137;   -0,995;    0,591
763,913;28264,756;   -0,722;    1,409
764,481;29067,830;    1,005;   -0,136
765,049;28824,358;   -1,358;    1,409
765,618;28681,341;   -0,086;    0,318
766,186;28729,597;    0,278;    0,136
766,754;28888,580;    0,005;    1,864
767,322;27898,835;   -1,995;    0,409
767,890;27951,818;   -0,722;   -1,773
768,459;28336,619;   -2,177;   -0,318
769,027;28573,330;    1,641;    3,409
769,595;27449,767;    3,278;    2,591
770,163;27891,659;    3,823;    2,955
770,730;27589,369;    0,732;   -0,136
771,298;27468,170;    0,187;   -1,409
771,866;27538,699;   -1,541;    4,955
772,434;27856,954;   -0,631;   -1,864
773,002;28071,028;    0,005;    0,682
773,569;27680,375;    0,914;    1,682
774,137;27522,994;   -0,268;   -0,045
774,705;28322,249;    0,278;   -0,136
775,272;27752,687;    0,641;    0,682
775,840;27519,670;   -0,177;    2,682
776,407;27092,562;    0,277;    1,955
776,975;26658,726;   -0,632;    0,318
777,542;27620,528;   -1,086;   -0,045
778,110;27500,692;   -1,268;   -0,045
778,677;27115,948;   -2,359;   -0,864
779,244;26837,931;    2,186;    1,045
779,812;26982,368;    1,823;    0,864
780,379;26870,260;    0,005;    1,136
780,946;27088,880;    1,005;   -0,773
781,513;27450,317;   -1,450;    0,318
782,080;26797,845;   -0,086;    2,864
782,647;27577,283;   -0,268;    3,045
783,214;27074,629;   -0,177;    3,864
783,781;26748,430;   -0,723;   -0,682
784,348;26605,231;   -0,632;    1,500
784,915;27083,123;   -3,177;    0,318
785,482;26834,197;    1,368;    2,591
786,049;27292,453;    0,186;   -0,591
786,615;27395,345;    0,277;   -0,955
787,182;27129,328;    0,186;   -0,682
787,749;26758,765;   -2,814;    1,409
788,315;26123,566;   -1,632;   -0,409
788,882;26407,731;    1,550;   -1,227
789,448;27088,532;    1,732;   -0,955
790,015;27135,788;    1,095;    3,227
790,581;26692,952;    1,459;    0,227
791,148;26602,299;    0,641;    1,045
791,714;26827,646;   -0,541;    3,136
792,280;26479,901;    0,186;    1,591
792,847;26004,884;    0,550;    2,500
793,413;26554,231;   -0,269;   -0,318
793,979;26099,668;    3,459;   -1,318
794,545;26212,651;    4,459;    2,682
795,111;25560,179;    2,186;    1,318
795,678;25712,435;    0,731;   -1,682
796,244;25319,781;    3,368;    0,136
796,810;25920,219;    1,731;    0,773
797,375;25632,838;    0,549;   -2,136
797,941;25673,457;   -0,541;    0,591
798,507;25805,077;   -0,451;   -0,955
799,073;25358,241;   -0,360;    0,591
799,639;25340,770;   -2,632;    3,136
800,205;25375,844;    0,095;    2,682
800,770;24902,917;    0,640;    1,773
801,336;25013,900;    1,368;   -0,955
801,901;24701,701;    4,549;    3,136
802,467;25249,412;   -0,542;    2,045
803,033;24633,394;   -0,087;    0,864
803,598;24863,832;    1,913;   -1,045
804,163;24851,087;    1,095;   -0,318
804,729;24809,525;   -0,178;    1,136
805,294;25264,781;    0,822;    2,227
805,859;25036,763;    0,731;   -0,409
806,425;24443,746;    1,186;    2,682
806,990;24096,275;    2,186;    4,318
807,555;24607,258;   -1,451;    2,591
808,120;24473,150;    0,822;   -0,409
808,685;24554,769;    0,185;   -2,500
809,250;24044,934;    0,004;   -0,500
809,815;24353,189;    1,913;    0,682
810,380;24891,718;   -0,269;    1,591
810,945;25485,610;   -1,087;    2,045
811,510;24623,047;    2,094;    1,591
812,075;24286,484;   -0,633;   -1,409
812,640;24305,286;    2,003;    1,409
813,204;24361,359;    0,822;   -0,227
813,769;24862,888;    2,094;   -0,045
814,334;24269,961;    0,458;    0,864
814,898;24281,944;    0,367;    0,591
815,463;24117,018;    1,276;   -0,773
816,027;24119,183;   -0,724;   -2,318
816,592;24150,893;    0,640;   -2,045
817,156;23679,512;    2,094;    1,136
817,721;23578,404;    4,276;    2,318
818,285;23494,933;    2,912;    1,500
818,849;24148,007;   -1,451;    1,682
819,414;24077,353;   -0,269;    2,955
819,978;23645,336;   -1,269;    1,773
820,542;24201,955;    2,003;    0,500
821,106;23870,211;   -0,815;    0,682
821,670;24021,012;   -0,815;    2,591
822,234;23749,177;   -0,270;    1,409
822,798;23045,978;    0,003;    0,500
823,362;23006,506;   -0,633;    4,227
823,926;22297,580;    0,094;    1,136
824,490;22535,017;   -0,997;   -0,682
825,054;22990,364;   -0,088;   -1,136
825,618;22628,983;   -1,542;   -1,500
826,181;22593,784;    0,458;   -1,318
826,745;22525,131;    1,367;   -1,045
827,309;22881,568;    1,185;    1,318
827,872;22238,915;    1,367;    0,955
828,436;23209,170;    1,185;   -0,773
828,999;23294,153;   -0,997;    1,227
829,563;22012,863;   -0,179;    1,136
830,126;21878,210;   -0,179;   -0,591
830,690;21878,193;   -1,997;    2,864
831,253;21364,539;   -0,543;    2,227
831,816;21517,522;   -1,906;    0,500
832,380;21452,142;    0,185;    0,864
832,943;21710,397;   -1,361;   -0,500
833,506;21114,562;    2,639;   -1,227
834,069;21923,363;    3,912;   -0,955
834,632;21970,164;    1,730;    1,318
835,195;21843,783;    1,003;    0,955
835,758;21018,493;   -0,997;    1,955
836,321;20878,749;    0,730;   -1,045
836,884;20999,277;   -0,725;   -0,955
837,447;20965,715;   -2,816;    1,773
838,010;21278,971;    0,366;    3,227
838,573;21569,681;   -1,179;    0,773
839,135;21500,755;   -1,361;   -0,955
839,698;20957,465;    1,275;    0,409
840,261;20453,993;    1,003;   -0,227
840,823;20247,340;   -0,543;    0,864
841,386;20577,595;   -0,452;   -2,409
841,948;20416,033;   -1,361;    1,773
842,511;20158,743;    0,912;    1,682
843,073;20295,998;    1,912;    0,227
843,636;20066,072;   -0,361;   -0,227
844,198;20053,510;    0,911;    0,591
844,760;20207,856;    1,093;    1,955
845,322;19816,203;    0,548;    1,136
845,885;20301,640;    0,730;    0,591
846,447;20717,714;   -1,998;    0,227
847,009;20279,151;    1,911;   -0,682
847,571;20631,134;    0,820;   -2,045
848,133;20721,390;   -1,089;   -1,864
848,695;20534,737;   -0,543;    1,409
849,257;20067,538;   -1,089;   -1,682
849,819;20261,975;   -0,998;   -0,409
850,381;20371,776;   -0,725;   -0,864
850,942;20701,850;    1,093;   -0,591
851,504;20630,287;    1,184;    0,227
852,066;20648,452;    1,275;   -1,591
852,628;20147,890;   -0,180;    1,955
853,189;19690,782;    1,638;    2,682
853,751;19822,674;   -0,907;    1,409
854,312;19632,566;   -0,453;   -1,682
854,874;20162,276;   -2,089;   -0,773
855,435;20722,622;   -0,907;   -1,682
855,997;20859,423;   -1,816;   -0,136
856,558;20136,952;    0,366;    1,773
857,119;20219,480;    0,820;    2,864
857,681;19910,372;    0,002;    0,318
858,242;19936,446;    1,911;   -2,136
858,803;20416,792;    0,456;   -0,773
859,364;20977,412;    0,184;   -4,773
859,925;20240,667;   -2,453;   -0,955
860,486;20139,287;   -0,453;   -0,955
861,047;19832,451;   -0,544;   -1,227
861,608;19642,252;   -1,089;   -0,773
862,169;19738,326;    0,638;   -0,045
862,730;19507,945;    0,456;    1,409
863,291;19824,292;   -0,635;   -0,500
863,852;20195,275;   -0,635;    1,955
864,412;19630,803;   -0,271;   -0,864
864,973;18144,059;   -0,089;    0,500
865,534;18007,042;   -1,726;    0,227
866,094;19580,752;    1,820;    0,227
866,655;19237,189;    1,274;    3,318
867,215;19488,536;    0,274;    0,136
867,776;19311,337;    0,547;   -0,136
868,336;19427,229;   -1,453;    0,136
868,897;18862,848;    2,638;    1,682
869,457;18622,377;    1,365;    0,318
870,017;18852,723;    0,547;   -1,227
870,578;19370,615;   -0,817;    0,773
871,138;19070,689;   -2,089;   -0,955
871,698;18639,308;   -0,817;   -1,318
872,258;18482,382;   -0,453;   -2,864
872,818;18888,819;    2,729;    0,045
873,378;18808,802;    0,638;    1,045
873,938;18308,603;    0,547;    0,500
874,498;18692,677;    0,274;   -1,955
875,058;18630,206;    2,183;    1,773
875,618;18423,370;    1,910;   -2,682
876,177;18342,990;    1,274;    0,136
876,737;17933,609;   -0,090;    1,955
877,297;17969,319;    0,183;    1,955
877,856;17991,575;   -0,362;    0,318
878,416;17933,830;    1,183;   -0,136
878,976;18132,268;   -1,817;    0,409
879,535;18257,887;    0,092;    3,136
880,095;17996,870;   -0,544;    0,045
880,654;18152,125;   -1,090;    1,318
881,213;18296,472;    2,456;    1,500
881,773;17930,273;    2,637;    2,682
882,332;18288,347;    3,365;    5,136
882,891;18076,693;    3,092;    2,136
883,451;18547,949;   -1,272;    1,682
884,010;17991,023;   -2,908;   -0,409
884,569;18111,278;   -0,999;   -0,045
885,128;18260,989;    2,819;   -1,864
885,687;18329,972;    4,455;    0,682
886,246;18001,227;    1,455;    2,136
886,805;17775,119;    2,455;    2,045
887,364;18078,738;   -0,999;   -0,500
887,922;18463,540;   -1,181;    0,045
888,481;17945,886;   -1,545;    0,591
889,040;18275,051;    1,183;    2,136
889,599;18965,306;    2,455;    1,409
890,157;19061,653;    1,455;    2,409
890,716;18705,818;   -0,090;    0,227
891,274;18490,164;    0,092;   -1,136
891,833;18939,965;    1,546;    0,864
892,391;18804,039;   -0,454;    0,500
892,950;18893,386;    1,819;   -0,773
893,508;19301,823;    0,455;   -0,409
894,067;18582,988;    0,637;    0,136
894,625;18501,334;   -0,636;   -1,500
895,183;18758,863;   -0,363;   -0,682
895,741;18612,846;    1,728;   -1,773
896,299;18433,465;   -0,545;   -2,409
896,858;18659,357;    0,819;   -1,591
897,416;18817,431;    2,728;   -1,318
897,974;18510,595;    1,819;    0,318
898,532;18670,124;    6,091;    2,682
899,089;18534,834;    2,091;   -0,682
899,647;18550,908;   -1,454;    1,318
900,205;18256,436;    1,182;    1,045
900,763;18462,510;   -0,454;    0,227
901,321;18463,402;    2,364;   -1,409
901,878;17876,021;   -1,000;   -0,773
902,436;17733,640;   -1,363;    1,318
902,994;18107,896;    4,728;    3,682
903,551;17516,243;    0,728;    0,409
904,109;17936,498;    0,182;   -1,409
904,666;17512,572;    2,455;    1,045
905,224;17304,464;    0,182;   -0,409
905,781;17039,992;    0,727;   -0,318
906,338;17118,248;   -1,363;    1,045
906,895;17033,049;    0,637;    2,045
907,453;16965,305;    1,727;    1,136
908,010;17064,378;   -0,909;    0,409
908,567;16676,543;    1,273;    0,591
909,124;16125,344;    0,364;   -1,500
909,681;16238,600;   -2,909;    0,682
910,238;16354,219;    0,636;   -1,318
910,795;16650,475;   -0,273;   -1,136
911,352;16252,657;   -2,909;   -2,682
911,909;15635,384;   -1,364;   -0,864
912,466;16171,929;   -3,182;    1,500
913,022;15705,111;   -1,636;    0,500
913,579;16071,111;   -0,909;    2,045
914,136;15744,293;    1,636;    0,955
914,692;16093,929;    0,091;   -1,227
915,249;15670,475;    1,455;    0,409
915,806;15924,384;    0,182;    1,955
916,362;15672,020;    1,909;    1,864
916,918;15232,929;    2,000;    1,045
917,475;15200,111;   -1,182;    0,955
918,031;15246,384;    3,364;   -0,045
918,587;14669,293;   -0,909;   -0,318
919,144;14909,475;   -2,273;    0,227
919,700;15204,929;    1,727;    0,773
920,256;14763,929;    0,727;    0,045
920,812;14367,566;   -0,727;   -1,045
921,368;14399,020;   -1,727;   -1,045
921,924;14006,475;    0,182;   -0,136
922,480;13568,657;   -0,545;    1,227
923,036;14211,657;    1,273;    1,955
923,592;14167,929;    0,455;    0,318
924,148;14044,657;    0,455;   -0,955
924,704;13319,202;   -1,364;   -0,409
925,259;13565,747;   -0,273;    0,591
925,815;13336,111;    1,455;    0,500
926,371;12815,111;    2,909;    1,409
926,926;12690,747;    2,091;    0,591
927,482;12318,657;   -1,364;    0,773
928,037;12174,838;    0,909;    2,045
928,593;12475,657;    1,636;    1,045
929,148;12266,929;   -1,818;   -1,500
929,704;11781,657;   -1,455;   -0,500
930,259;12012,202;    0,091;   -0,136
930,814;11018,020;   -0,818;    1,955
931,369;10673,657;    1,091;   -0,773
931,925;10539,838;   -0,091;    0,136
932,480;10422,111;   -2,818;   -2,591
933,035;10318,293;    0,545;   -0,318
933,590;10050,657;    0,364;   -1,773
934,145; 9644,566;   -1,364;   -0,318
934,700; 9979,384;    0,455;   -0,591
935,255; 9798,020;   -0,091;    0,045
935,809; 9041,929;    3,182;    0,864
936,364; 8090,838;   -0,455;   -0,136
936,919; 8057,657;    0,455;   -1,773
937,474; 7925,566;    1,455;    0,136
938,028; 7694,202;   -1,636;    1,136
938,583; 7120,020;    1,818;    4,682
939,138; 7408,566;    2,091;    2,136
939,692; 6802,657;    1,636;   -1,136
940,247; 6498,384;   -0,727;   -1,045
940,801; 5999,475;   -0,636;    0,227
941,355; 5875,929;   -0,364;    2,591
941,910; 5521,747;   -0,273;   -2,136
942,464; 5623,838;   -0,818;   -0,318
943,018; 5372,475;    1,000;   -0,227
943,572; 5328,384;    2,545;   -0,682
944,126; 4699,475;    0,091;   -0,409
944,681; 4589,657;    3,091;    0,227
945,235; 4566,020;    1,000;   -0,591
945,789; 4522,747;    0,364;   -1,864
946,342; 4589,657;    0,455;   -0,591
946,896; 4420,929;   -2,273;    0,955
947,450; 4169,657;    1,545;   -0,227
948,004; 4315,111;    1,727;   -0,045
948,558; 4318,293;    0,273;   -0,864
949,111; 4256,384;   -0,273;   -0,318
949,665; 4268,475;    1,636;   -0,682
950,219; 4140,475;   -0,091;   -1,045
950,772; 4258,566;   -1,909;    1,864
951,326; 4141,020;    0,545;   -0,955
951,879; 4268,747;    0,727;   -2,318
952,433; 4256,747;    0,000;    2,227
952,986; 4088,020;    2,909;    0,682
953,539; 4053,929;   -0,273;    0,591
954,093; 3985,747;    0,545;   -1,318
954,646; 4105,747;    0,909;    1,318
955,199; 3937,384;    0,000;   -0,500
955,752; 3801,020;   -0,455;    1,773
956,305; 3768,838;   -0,091;    2,955
956,858; 3956,111;    0,818;   -0,318
957,411; 4127,111;   -0,545;    2,136
957,964; 3931,475;    1,364;    2,136
958,517; 3923,838;   -1,545;    3,136
959,070; 3757,838;   -0,455;    1,955
959,623; 3805,657;    1,091;    1,500
960,176; 3577,293;    1,727;    2,045
960,728; 3541,384;   -2,727;    0,773
961,281; 3594,475;    0,545;    0,500
961,834; 3669,747;   -0,909;    0,864
962,386; 3562,929;    1,727;    1,045
962,939; 3484,838;    0,364;   -0,318
963,491; 3653,202;    0,455;    1,136
964,043; 3509,747;    1,182;    2,409
964,596; 3634,566;   -1,000;    2,227
965,148; 3477,202;   -1,000;    1,773
965,700; 3390,384;    1,091;   -0,227
966,253; 3539,929;   -0,636;    0,318
966,805; 3361,566;   -2,273;    0,773
967,357; 3415,747;    1,091;   -1,500
967,909; 3381,566;    0,455;   -1,227
968,461; 3498,020;    0,545;    3,136
969,013; 3434,293;   -0,182;   -0,864
969,565; 3516,202;   -0,455;   -1,136
970,117; 3535,929;   -0,364;    1,045
970,669; 3376,202;    0,182;   -0,136
971,220; 3247,020;   -0,455;   -1,500
971,772; 3179,111;   -0,636;   -0,318
972,324; 3291,475;    0,091;   -0,500
972,876; 3255,111;    0,818;   -0,045
973,427; 3388,566;    1,909;   -1,045
973,979; 3342,566;   -0,727;   -2,500
974,530; 3417,111;    1,818;    1,318
975,082; 3408,111;   -0,545;    1,682
975,633; 3303,202;    1,091;    1,682
976,184; 3442,929;    0,909;    0,773
976,736; 3201,111;    0,091;    0,227
977,287; 2987,566;   -0,909;   -0,500
977,838; 3171,020;    0,909;   -0,318
978,389; 3240,111;   -1,000;   -0,500
978,940; 3120,384;    0,545;   -0,409
979,491; 3141,657;    0,091;   -0,500
980,042; 3099,657;    0,182;    3,045
980,593; 3154,747;   -2,545;    0,227
981,144; 3183,657;    2,545;   -0,500
981,695; 3155,020;    1,455;    1,500
982,246; 3138,202;   -0,273;    1,045
982,797; 3314,929;   -1,727;    0,682
983,347; 3400,929;    0,364;    0,591
983,898; 3568,838;    3,091;    0,409
984,449; 3383,202;    2,182;    0,773
984,999; 3299,929;    1,455;   -1,136
985,550; 3065,293;    0,182;   -0,318
986,100; 3113,929;   -0,455;   -0,318
986,651; 3140,566;   -0,818;    0,045
987,201; 3117,929;   -1,000;   -0,591
987,751; 3194,657;    0,818;    2,864
988,302; 3175,384;    2,636;    1,500
988,852; 3216,747;    0,455;   -1,136
989,402; 3262,384;    0,091;    0,682
989,952; 3155,202;   -2,182;    0,864
990,502; 3269,293;   -0,091;    0,682
991,052; 3238,111;   -0,727;    0,045
991,602; 3114,838;   -2,909;    1,318
992,152; 3093,929;    0,455;    0,682
992,702; 3088,111;    1,364;   -0,045
993,252; 2979,838;   -3,000;   -0,500
993,802; 3075,020;   -0,273;    1,318
994,352; 3342,747;   -1,545;    1,136
994,901; 3418,929;   -0,182;    3,227
995,451; 3332,475;   -0,182;    0,318
996,000; 3413,657;    1,636;    0,318
996,550; 3118,747;    2,273;    0,227
997,100; 3110,202;    1,273;   -0,045
997,649; 3407,293;    2,182;    0,955
998,198; 3007,111;    1,727;   -1,500
998,748; 3229,020;    1,091;   -2,318
999,297; 3147,384;   -0,818;   -0,409
999,846; 3197,838;    1,000;   -0,773
1000,395; 3261,020;   -0,818;    0,500
1000,945; 3194,929;    1,818;   -0,773
1001,494; 3279,566;    2,364;    0,682
1002,043; 3299,475;    4,636;    0,864
1002,592; 3121,657;   -1,091;    1,955
1003,141; 3274,657;   -0,455;   -0,682
1003,690; 3117,566;    1,727;    0,500
1004,238; 3218,384;    1,455;   -0,045
1004,787; 2847,020;    1,364;    1,227
1005,336; 3071,657;    0,364;    0,682
1005,885; 3227,747;    1,364;   -2,773
1006,433; 3367,747;    0,545;    0,955
1006,982; 3407,111;    0,455;    1,682
1007,531; 3322,566;   -1,818;   -0,227
1008,079; 3302,838;   -2,273;    0,500
1008,627; 3428,293;   -1,455;    0,409
1009,176; 3140,020;    0,000;   -1,955
1009,724; 3195,747;    1,091;    0,864
1010,273; 3263,566;    1,273;    0,500
1010,821; 3382,020;    0,091;    1,409
1011,369; 3096,838;   -1,364;    1,318
1011,917; 3077,838;   -1,364;   -0,591
1012,465; 3365,202;    1,273;   -1,591
1013,013; 3484,202;    2,091;   -1,682
1013,561; 3343,293;    0,455;   -0,773
1014,109; 3397,384;   -1,909;    1,682
1014,657; 3286,657;    0,364;    0,591
1015,205; 3413,747;    1,636;   -0,955
1015,753; 3444,111;   -0,545;   -1,409
1016,301; 3469,747;   -2,636;    3,045
1016,848; 3470,838;   -1,273;    0,409
1017,396; 3538,111;    2,545;    0,045
1017,944; 3656,202;    1,182;    1,864
1018,491; 3412,929;    0,273;    1,409
1019,039; 3532,475;    0,455;    0,591
1019,586; 3462,747;   -1,364;    1,682
1020,134; 3572,111;    0,455;    1,500
1020,681; 3597,293;    0,182;   -1,136
1021,228; 3604,657;    2,909;   -2,227
1021,776; 3428,293;    1,182;   -1,136
1022,323; 3660,293;    0,455;    0,773
1022,870; 3585,384;   -1,000;   -0,045
1023,417; 3462,111;    2,636;    1,864
1023,964; 3627,202;    2,636;    1,227
1024,511; 3460,838;    1,000;    0,773
1025,058; 3246,293;    3,182;   -0,045
1025,605; 3297,475;   -2,273;    3,136
1026,152; 3527,475;    1,727;   -0,591
1026,699; 3253,475;    1,818;    1,318
1027,245; 3409,929;   -0,091;    0,318
1027,792; 3626,111;   -1,000;    1,409
1028,339; 3511,838;    2,364;   -0,045
1028,885; 3350,202;    1,000;   -0,227
1029,432; 3282,566;   -0,091;    0,227
1029,978; 3346,929;   -1,000;   -1,591
1030,525; 3249,111;    1,000;    0,409
1031,071; 3514,020;   -1,364;    1,136
1031,618; 3594,838;    0,364;    1,682
1032,164; 3379,929;   -0,091;    3,045
1032,710; 3437,020;    1,636;   -1,500
1033,256; 3354,020;   -0,636;   -0,136
1033,803; 3344,111;   -0,545;    1,500
1034,349; 3044,838;   -1,364;    0,136
1034,895; 3215,384;    0,000;   -0,318
1035,441; 3188,838;   -0,818;    0,318
1035,987; 3196,111;   -2,364;   -0,682
1036,533; 3172,657;   -1,455;   -0,955
1037,078; 3362,020;    1,455;    1,682
1037,624; 3195,293;    2,455;   -0,955
1038,170; 3235,566;    0,455;   -0,318
1038,716; 3131,475;    1,636;   -0,409
1039,261; 3049,202;   -2,273;   -0,773
1039,807; 2987,475;   -0,091;    3,409
1040,352; 3041,293;   -1,909;   -0,318
1040,898; 3096,929;   -1,545;   -0,682
1041,443; 2989,929;   -1,455;   -2,591
1041,989; 2981,111;    1,091;    1,591
1042,534; 2875,566;   -0,364;    2,591
1043,079; 3001,475;    2,909;    0,955
1043,625; 2783,020;    1,818;    0,500
1044,170; 2835,838;   -1,364;    1,045
1044,715; 3080,838;    2,455;    0,955
1045,260; 2895,566;    2,182;   -0,955
1045,805; 2936,929;    1,182;   -0,591
1046,350; 2868,202;    1,364;   -0,409
1046,895; 2834,384;    2,909;    1,591
1047,440; 2779,293;    5,364;    0,409
1047,985; 2681,838;    2,818;   -0,955
1048,530; 2586,566;    1,545;    1,227
1049,074; 2645,747;    0,000;    0,318
1049,619; 2633,202;   -1,364;    1,955
1050,164; 2426,202;    0,455;    0,227
1050,708; 2465,384;   -0,455;    0,045
1051,253; 2849,293;    1,273;   -2,227
1051,797; 2525,202;    0,818;   -1,318
1052,342; 2560,475;   -1,182;    1,045
1052,886; 2550,747;    0,364;   -1,409
1053,430; 2421,566;   -1,364;    0,136
1053,975; 2446,657;   -0,818;   -0,318
1054,519; 2434,566;   -0,727;    3,227
1055,063; 2440,475;    0,909;    1,318
1055,607; 2312,747;   -0,182;    0,227
1056,151; 2329,202;    2,909;    1,682
1056,695; 2253,838;    2,273;   -1,136
1057,239; 2327,202;   -1,727;   -0,682
1057,783; 2341,475;    0,818;   -1,500
1058,327; 2275,111;    0,000;    1,409
1058,871; 2501,111;   -0,545;    1,318
1059,415; 2201,838;   -0,818;   -0,045
1059,958; 2475,202;    1,455;    2,591
1060,502; 2181,293;   -1,000;   -0,773
1061,046; 2091,566;    0,364;   -0,955
1061,589; 2071,657;   -3,000;   -1,136
1062,133; 1954,838;   -1,273;    1,864
1062,676; 1895,838;    1,182;    0,864
1063,220; 1902,838;    1,091;    0,500
1063,763; 1916,747;    0,909;    1,136
1064,306; 2004,111;   -0,909;    1,864
1064,849; 1867,293;   -0,909;    0,591
1065,393; 1863,747;    2,000;   -1,500
1065,936; 1974,111;    0,182;   -0,409
1066,479; 1884,020;   -1,455;    1,318
1067,022; 1898,475;   -0,273;   -0,227
1067,565; 1795,111;   -0,091;   -1,318
1068,108; 1823,838;    0,727;   -0,591
1068,651; 1800,929;   -0,636;    1,409
1069,194; 1734,293;   -0,455;   -1,682
1069,736; 1724,111;   -1,273;    0,955
1070,279; 1691,475;   -1,364;   -0,500
1070,822; 1734,384;   -2,000;   -0,318
1071,364; 1826,475;   -0,364;    1,318
1071,907; 1659,566;   -0,727;    3,227
1072,450; 1558,020;    0,000;   -0,045
1072,992; 1539,384;   -0,273;    3,136
1073,535; 1696,384;    2,091;    2,136
1074,077; 1473,929;   -0,727;    2,045
1074,619; 1443,475;   -1,364;    0,591
1075,161; 1482,838;   -1,091;    1,500
1075,704; 1658,293;    1,545;    1,227
1076,246; 1466,475;   -0,182;    0,682
1076,788; 1392,293;   -0,364;    1,773
1077,330; 1476,566;    1,273;    2,136
1077,872; 1420,202;    0,909;    0,955
1078,414; 1640,747;    2,727;    0,773
1078,956; 1368,929;    1,273;   -0,227
1079,498; 1637,475;    1,636;    0,318
1080,040; 1339,020;    1,909;   -1,318
1080,581; 1279,111;    1,636;   -0,318
1081,123; 1193,293;    0,091;   -0,773
1081,665; 1245,111;   -1,182;   -0,955
1082,206; 1551,657;    1,364;   -0,500
1082,748; 1412,293;    0,727;    2,045
1083,289; 1300,293;   -2,000;    1,318
1083,831; 1181,111;   -0,545;    0,227
1084,372; 1226,111;    0,000;    0,591
1084,913; 1228,747;    1,091;    0,864
1085,455; 1191,929;   -1,909;   -2,045
1085,996; 1174,475;   -2,273;    0,136
1086,537; 1189,475;   -0,091;    0,864
1087,078; 1219,384;   -0,909;   -2,136
1087,619; 1257,929;   -1,273;    0,227
1088,160; 1172,293;    0,000;    1,318
1088,701; 1178,020;   -1,091;    0,682
1089,242; 1108,838;    1,364;   -2,227
1089,783; 1206,929;   -0,273;    1,409
1090,324; 1164,929;    0,455;    0,682
1090,865; 1033,202;    2,727;   -0,409
1091,405;  999,475;    0,727;    2,227
1091,946; 1026,657;    0,182;   -0,955
1092,487;  945,838;    0,818;   -1,409
1093,027; 1138,293;   -1,364;   -1,500
1093,568;  975,384;   -0,364;    1,227
1094,108; 1086,929;    0,273;    1,773
1094,649; 1010,111;   -1,182;    0,136
1095,189;  945,202;   -0,636;   -0,682
1095,729;  894,838;   -0,091;    0,955
1096,269;  911,566;    0,727;   -0,955
1096,810; 1228,475;   -1,364;    0,500
1097,350; 1040,566;    1,364;   -0,773
1097,890;  947,657;    0,364;    1,227
1098,430; 1203,293;    2,364;    2,864
1098,970; 1070,838;    2,182;    1,682
1099,510;  933,566;    0,545;   -2,318
1100,050;  857,566;    1,000;   -1,591
1100,589;  819,293;   -0,727;   -0,318
1101,129;  956,838;    0,818;   -0,955
1101,669; 1113,111;    1,727;    2,136
1102,209;  917,384;   -0,091;    2,227
1102,748;  871,838;    0,000;    0,955
1103,288;  867,111;    1,273;   -1,227
1103,827;  899,202;    3,091;   -2,227
1104,367;  760,657;   -0,091;   -2,409
1104,906;  721,202;    1,364;   -1,136
1105,445;  809,293;    0,636;   -1,136
1105,985;  744,657;   -0,727;    1,500
1106,524;  793,475;   -1,727;   -0,682
1107,063;  760,929;   -2,727;    1,409
1107,602;  752,202;   -1,909;   -1,500
1108,141;  663,020;   -1,909;    1,500
1108,680;  780,202;   -3,455;   -0,591
1109,219;  711,020;   -0,909;   -0,500
1109,758;  705,566;    0,455;    0,682
1110,297;  683,111;    1,000;   -0,682
1110,836;  625,747;   -0,727;    0,955
1111,375;  793,747;   -2,545;    0,409
1111,913;  805,293;   -1,000;    0,773
1112,452;  730,384;   -0,273;    0,136
1112,991;  619,020;    1,091;    1,955
1113,529;  566,566;   -0,818;   -0,045
1114,068;  639,293;   -0,273;    2,955
1114,606;  540,838;   -0,364;   -0,955
1115,144;  701,020;   -1,273;    1,045
1115,683;  642,929;   -0,727;    0,318
1116,221;  687,384;   -0,455;   -0,864
1116,759;  589,111;    0,636;   -0,864
1117,297;  810,202;    0,000;    1,864
1117,836;  607,293;   -2,182;   -1,227
1118,374;  605,293;    0,182;   -0,682
1118,912;  551,929;    0,909;    2,682
1119,450;  546,838;    1,000;    0,864
1119,988;  608,020;    1,545;    2,136
1120,525; 1053,657;    5,091;    3,318
1121,063;  748,384;    1,182;    1,864
1121,601;  557,566;   -0,909;   -1,227
1122,139;  503,747;   -0,727;   -2,045
1122,676;  716,384;   -0,727;    2,773
1123,214;  636,838;   -1,182;    4,409
1123,751;  438,566;    1,727;    2,227
1124,289;  592,838;   -0,091;   -0,409
1124,826;  447,929;    1,727;    0,227
1125,364;  362,929;    1,727;   -0,955
1125,901;  567,020;    1,182;    1,227
1126,438;  687,020;    0,818;    0,955
1126,975;  397,475;   -0,727;   -0,773
1127,513;  470,838;    0,273;    2,136
1128,050;  365,475;    1,636;   -0,682
1128,587;  480,020;    2,000;   -0,227
1129,124;  525,657;    0,091;    1,318
1129,661;  382,111;    0,273;    0,227
1130,198;  558,384;    1,636;    0,773
1130,734;  498,384;    0,182;    1,409
1131,271;  348,475;   -0,909;    0,864
1131,808;  528,475;    2,909;    3,045
1132,345;  394,838;    1,545;    0,318
1132,881;  254,020;   -1,545;   -1,864
1133,418;  407,384;    0,727;   -1,136
1133,954;  336,657;    2,455;   -2,682
1134,491;  426,111;    1,364;   -0,773
1135,027;  318,747;    2,364;    0,864
1135,564;  414,838;    0,273;    2,955
1136,100;  389,475;    0,364;    2,136
1136,636;  274,111;   -1,273;   -1,045
1137,172;  376,293;    0,000;   -1,045
1137,708;  299,566;   -1,364;   -1,045
1138,245;  297,202;    1,273;   -1,227
1138,781;  240,657;    1,091;   -3,318
1139,317;  316,384;    1,273;   -1,409
1139,852;  305,293;    3,091;    0,136
1140,388;  432,293;   -1,182;   -0,409
1140,924;  304,838;   -1,091;   -2,227
1141,460;  240,566;   -1,636;    0,136
1141,996;  170,657;   -1,364;    2,682
1142,531;  227,657;    1,364;    3,318
1143,067;  454,838;    1,182;    1,045
1143,602;  521,929;   -0,091;   -0,318
1144,138;  348,566;   -2,636;    1,045
1144,673;  198,384;   -1,455;    1,409
1145,209;  267,293;   -1,909;   -0,318
1145,744;  195,929;   -0,727;    0,864
1146,279;  351,202;    1,818;   -0,136
1146,815;  248,566;    1,545;   -2,682
1147,350;  290,838;   -1,364;    0,045
1147,885;  191,202;   -0,818;   -1,318
1148,420;  195,202;   -2,273;    0,773
1148,955;  169,475;   -1,727;    1,864
1149,490;  205,020;   -0,909;   -1,591
1150,025;  188,020;    0,455;   -1,773
1150,560;  309,929;    1,091;   -0,955
1151,094;  272,657;    1,455;   -0,591
1151,629;  272,566;    1,636;    0,864
1152,164;  191,838;    1,364;    1,318
1152,698;  151,566;   -0,182;   -0,136
1153,233;  110,838;    0,091;   -0,682
1153,767;  163,747;   -3,000;   -2,318
1154,302;  216,747;   -1,455;    1,773
1154,836;  220,293;   -0,455;   -2,136
1155,371;  274,747;   -1,364;    3,682
1155,905;  214,657;   -0,636;    1,682
1156,439;  185,384;   -0,636;   -0,500
1156,973;  219,747;    0,364;    0,318
1157,507;  148,475;   -0,364;    0,682
1158,042;  188,202;   -0,727;    1,045
1158,576;  239,929;    0,182;    1,773
1159,110;  220,202;   -0,818;    2,409
1159,643;  190,293;    0,636;   -0,045
1160,177;  124,929;   -1,545;    1,500

