
Integration time [ms]:   0,040
Averaging Nr. [scans]: 11
Smoothing Nr. [pixels]: 0
Data measured with spectrometer [name]: 7318044SP
Wave   ;Sample   ;Dark     ;Reference
[nm]   ;[counts] ;[counts] ;[counts] 

186,757;   31,732;   31,551;    1,318
187,357;   59,994;   22,551;    0,955
187,958;   31,519;   15,460;   -1,591
188,558;   73,868;    8,915;   -1,227
189,159;   37,200;    6,733;   -4,500
189,759;   20,382;    7,278;   -3,591
190,360;   14,501;    2,824;   -2,136
190,960;   54,233;    2,915;   -4,136
191,560;   66,171;    3,189;   -6,591
192,161;  299,839;    4,372;   -3,500
192,761;  149,126;    4,010;   -3,227
193,361;   96,482;    1,556;   -3,773
193,962;  157,958;    2,010;   -2,682
194,562;   80,447;    1,189;   -3,955
195,162;  114,066;   -2,448;   -2,227
195,762;  262,681;   -3,176;   -0,045
196,362;  210,958;    1,370;   -2,500
196,963;   90,602;    2,006;   -0,864
197,563;  151,209;    1,551;   -0,955
198,163;  103,360;    0,096;   -0,682
198,763;  121,308;    1,733;   -0,500
199,363;  232,400;    3,096;   -0,500
199,963;  192,867;    0,369;    0,409
200,563;  158,781;    2,823;   -1,409
201,163;  140,447;    3,277;   -0,227
201,763;  227,468;    3,732;    0,318
202,363;  169,880;    1,459;    1,500
202,963;  273,932;    1,459;    1,045
203,563;  385,565;    0,277;    0,500
204,162;  236,202;    2,096;   -1,864
204,762;  222,515;    0,550;    0,591
205,362;  185,235;    3,004;    1,955
205,962;  287,015;    3,096;    1,955
206,562;  286,550;    1,823;    2,318
207,161;  247,883;   -0,087;    0,318
207,761;  407,300;    1,277;    2,409
208,361;  284,431;   -0,268;    1,409
208,960;  383,071;    0,459;    1,500
209,560;  443,448;    1,277;    1,591
210,160;  417,033;    0,550;    1,864
210,759;  383,916;    4,186;    1,227
211,359;  386,568;    1,459;    1,045
211,958;  638,512;    1,277;    2,045
212,558;  720,919;    1,732;    1,864
213,157;  564,447;    1,822;    1,500
213,757;  998,616;    3,822;   -0,227
214,356;  688,087;    1,277;   -0,409
214,956; 1017,620;    3,095;    0,409
215,555;  649,413;    2,095;    2,136
216,154;  584,254;   -2,723;   -0,591
216,754;  588,026;    0,277;    0,773
217,353;  719,654;   -0,268;   -1,045
217,952;  562,558;   -0,178;    0,318
218,552;  805,626;    1,368;   -0,773
219,151;  681,018;    0,277;    0,955
219,750;  678,912;    0,004;   -0,227
220,349;  774,401;   -0,451;    1,045
220,948;  870,543;   -1,360;    1,136
221,548;  833,397;    0,913;    1,227
222,147;  951,077;   -0,087;   -0,409
222,746; 1244,792;   -0,451;   -0,955
223,345; 1094,771;    0,731;    0,500
223,944; 1100,445;   -0,451;    0,773
224,543; 1237,553;    1,004;   -1,409
225,142; 1365,029;    0,094;    0,136
225,741; 1258,811;   -0,814;    1,045
226,340; 1263,904;   -0,451;   -0,955
226,939; 1675,758;   -0,996;   -0,136
227,538; 1555,992;   -0,360;   -0,773
228,137; 1743,822;   -0,814;    0,864
228,735; 1822,663;   -0,541;    1,227
229,334; 1584,980;   -0,905;   -0,227
229,933; 1959,436;    0,459;    0,591
230,532; 2048,977;    1,186;   -0,409
231,131; 2113,996;    1,732;    0,318
231,729; 2174,911;   -2,450;   -2,318
232,328; 2223,592;   -0,723;   -1,500
232,927; 2269,380;    1,004;   -0,500
233,525; 2358,647;    3,640;    0,045
234,124; 2549,863;    2,368;   -1,591
234,723; 2541,411;    0,913;   -1,045
235,321; 2661,031;    2,277;    0,136
235,920; 2843,253;    1,186;   -1,227
236,518; 3088,418;    3,459;    0,318
237,117; 3163,351;    0,004;   -0,227
237,715; 3299,935;    0,640;   -0,500
238,314; 3336,728;   -0,087;   -2,318
238,912; 3464,387;   -0,723;   -1,409
239,510; 3444,658;    0,459;   -1,227
240,109; 3592,400;    0,004;    3,773
240,707; 3591,902;   -0,996;    1,227
241,305; 3862,768;    0,550;    0,136
241,904; 4059,950;   -0,178;   -2,045
242,502; 4019,610;   -0,632;   -0,227
243,100; 3932,162;   -0,087;   -0,955
243,698; 4129,564;    0,732;    1,682
244,297; 4281,594;   -0,632;    0,682
244,895; 4136,076;   -0,269;   -2,318
245,493; 4401,739;    2,186;   -0,591
246,091; 4412,987;    1,368;   -1,318
246,689; 4363,555;    1,004;    0,591
247,287; 4484,100;    0,822;   -1,136
247,885; 4741,926;   -1,451;    1,227
248,483; 4793,009;    1,822;   -0,500
249,081; 4887,115;    0,185;    1,591
249,679; 5025,773;   -0,178;    1,682
250,277; 5223,719;   -1,723;    0,864
250,875; 5189,321;   -1,087;   -1,045
251,473; 5170,988;   -1,178;    0,500
252,071; 5356,645;    1,459;    1,045
252,669; 5486,627;   -1,814;    0,318
253,267; 5662,686;   -0,087;    0,773
253,864; 5606,100;   -0,360;    0,682
254,462; 5562,539;    1,640;    1,591
255,060; 5464,923;   -0,269;    1,318
255,658; 5735,900;    0,822;   -0,136
256,255; 6091,577;    0,186;   -2,045
256,853; 5975,653;   -0,269;    1,409
257,451; 5963,875;    0,822;    1,864
258,048; 6263,623;    1,822;    1,864
258,646; 5980,743;    1,731;   -1,045
259,243; 6156,199;   -0,087;    2,227
259,841; 6166,491;   -0,814;    0,318
260,438; 6051,063;   -0,087;    0,864
261,036; 6656,777;   -1,905;    1,409
261,633; 6562,128;   -0,087;    2,227
262,231; 6327,535;    2,731;   -0,045
262,828; 6410,297;   -0,905;    1,136
263,425; 6463,031;    0,913;   -0,591
264,023; 6683,741;    0,186;    0,045
264,620; 6260,696;   -0,360;   -0,318
265,217; 6599,786;   -2,087;    3,136
265,815; 6649,069;   -1,905;    2,136
266,412; 6523,651;    0,731;    0,136
267,009; 6565,897;   -1,451;    0,773
267,606; 6489,106;    0,822;   -0,955
268,203; 6426,983;   -0,269;   -0,591
268,801; 6648,399;    1,731;    0,591
269,398; 6907,700;   -0,360;    2,500
269,995; 6882,388;    0,277;    1,591
270,592; 6702,912;   -0,632;   -0,500
271,189; 6859,632;    0,186;    0,409
271,786; 6972,759;   -0,632;    1,227
272,383; 6866,914;   -1,087;    0,227
272,980; 6971,648;    0,277;    0,318
273,577; 7399,544;    0,004;    1,227
274,174; 6983,841;    0,822;    2,591
274,771; 6984,536;   -0,814;   -0,773
275,367; 7149,748;    2,277;    1,409
275,964; 7109,980;    0,731;   -0,500
276,561; 7168,560;    1,549;   -1,045
277,158; 7309,955;    0,095;   -1,773
277,755; 7457,297;    2,185;    0,409
278,351; 6922,038;   -0,451;   -1,500
278,948; 7193,660;   -0,815;    0,045
279,545; 7169,860;   -1,360;    2,318
280,141; 7803,509;   -1,723;   -2,045
280,738; 7617,490;   -0,451;   -0,136
281,334; 7766,337;   -1,633;    0,591
281,931; 7214,395;   -0,087;   -1,318
282,528; 7328,075;    0,822;   -0,500
283,124; 7944,266;   -1,087;   -0,500
283,721; 7865,212;   -0,451;    1,409
284,317; 7657,509;    0,185;    2,500
284,913; 8153,690;   -1,360;    0,591
285,510; 8341,962;    0,640;   -0,318
286,106; 8339,412;   -2,269;   -0,955
286,703; 7938,341;   -0,360;    1,955
287,299; 8129,491;   -1,451;   -0,591
287,895; 8320,538;    0,822;   -1,045
288,491; 8825,427;    0,186;    2,136
289,088; 8618,204;   -2,360;    2,409
289,684; 8677,990;   -1,723;    1,500
290,280; 8675,576;    0,368;    0,682
290,876; 8746,150;    1,822;    5,500
291,472; 8663,796;    1,276;    2,227
292,068; 8786,821;    1,367;    0,227
292,665; 8455,582;    2,095;    0,773
293,261; 8155,497;    0,276;    2,136
293,857; 8524,985;    2,913;    2,136
294,453; 8440,731;    3,550;    0,955
295,049; 8352,187;   -0,268;    1,955
295,644; 8382,993;    0,095;    0,136
296,240; 8300,713;   -0,905;   -0,136
296,836; 8359,750;   -0,995;    0,318
297,432; 8596,902;    1,096;   -0,500
298,028; 8646,766;    0,732;    0,773
298,624; 9004,229;    1,459;    1,864
299,220; 9170,588;    2,368;    0,591
299,815; 8846,639;    1,005;   -0,409
300,411; 8717,005;    0,914;    1,773
301,007; 8735,469;    1,368;    0,227
301,602; 8707,501;   -0,541;   -2,318
302,198; 8889,329;    0,732;   -0,773
302,794; 9158,814;    1,187;   -0,500
303,389; 9226,566;   -1,177;    1,045
303,985; 9278,839;    0,550;    1,409
304,580; 9276,837;    1,459;    1,591
305,176; 9238,800;   -3,086;    0,136
305,771; 9168,804;   -1,268;   -1,227
306,367; 9124,534;    4,095;    0,136
306,962; 9356,046;    0,641;    1,500
307,558; 9081,546;   -0,450;    0,136
308,153; 8979,869;    1,095;   -1,136
308,748; 9179,980;   -0,814;    1,682
309,344; 9176,375;   -0,632;   -1,318
309,939; 9318,417;   -1,905;   -1,318
310,534; 9504,441;   -0,086;   -1,682
311,130; 9431,821;    0,459;   -2,500
311,725; 9174,825;    1,004;   -0,500
312,320; 9514,615;    2,459;    0,045
312,915; 9364,783;    1,459;   -1,045
313,510; 9469,916;    1,550;   -0,500
314,105; 9862,744;    1,096;    1,409
314,700; 9299,565;   -3,086;   -1,045
315,295; 8990,382;   -0,904;    0,045
315,890; 8579,818;    1,277;    0,864
316,485; 8856,507;   -0,359;   -0,318
317,080; 8963,002;   -3,086;    1,591
317,675; 9457,502;    2,005;   -0,682
318,270; 8997,036;    5,550;    3,318
318,865; 8991,331;    3,278;    3,045
319,460; 8836,387;   -0,904;    0,591
320,055; 8994,963;   -0,541;   -1,227
320,650; 8692,052;   -1,995;   -0,591
321,244; 8754,852;   -0,177;   -1,409
321,839; 9631,316;   -1,541;   -0,227
322,434; 9490,251;   -1,086;   -1,591
323,029; 9166,947;    1,732;    1,591
323,623; 9058,434;    1,550;    0,773
324,218; 8933,012;    2,368;    1,409
324,812; 8812,428;    1,096;    1,591
325,407; 8633,932;   -0,814;    2,045
326,002; 8542,865;    0,277;   -0,409
326,596; 8860,541;    0,914;    1,318
327,191; 9003,704;    0,823;   -1,045
327,785; 8623,450;   -0,813;   -0,227
328,379; 8864,636;    1,368;    0,136
328,974; 8633,295;    0,914;   -3,955
329,568; 8896,974;    0,186;   -2,409
330,163; 8751,743;    2,096;    1,045
330,757; 9031,963;    2,459;    1,591
331,351; 8448,049;    0,459;    0,682
331,945; 8751,746;    0,914;    1,409
332,540; 8415,209;   -1,723;   -0,591
333,134; 8556,259;   -1,086;    0,773
333,728; 8765,913;    0,005;    0,318
334,322; 9055,794;   -1,177;   -0,864
334,916; 8406,536;    0,277;    0,955
335,510; 8707,117;   -0,450;   -0,136
336,105; 8954,613;   -1,086;    1,591
336,699; 8664,415;   -1,086;    0,591
337,293; 8625,739;   -1,723;    0,318
337,887; 8732,002;   -2,723;    1,955
338,481; 8809,890;    0,459;    0,591
339,074; 8985,376;   -0,359;    2,682
339,668; 8846,738;   -1,632;    1,227
340,262; 9143,078;    1,732;    3,227
340,856; 8675,017;    1,822;   -0,682
341,450; 8098,248;    1,004;    1,864
342,044; 8854,103;    1,459;    0,136
342,637; 8659,491;    0,913;   -2,136
343,231; 8556,375;   -2,360;    0,682
343,825; 8488,255;   -1,086;   -0,591
344,419; 8500,612;   -1,995;    0,500
345,012; 8398,290;    2,459;    4,045
345,606; 8373,674;    4,641;    1,591
346,199; 8220,442;   -1,813;   -0,227
346,793; 7838,349;    1,914;    2,045
347,386; 7969,973;   -0,813;   -1,136
347,980; 7960,549;   -0,268;   -0,045
348,573; 7812,247;    2,278;    0,409
349,167; 7579,716;    5,278;    4,773
349,760; 7901,695;    2,914;    2,682
350,354; 7860,767;   -0,813;    1,136
350,947; 7682,685;    1,096;    1,682
351,540; 7386,570;   -0,358;   -1,409
352,134; 7326,536;    1,096;    1,136
352,727; 7410,478;   -0,086;    1,136
353,320; 7223,174;    0,005;    0,591
353,913; 7077,518;   -1,995;    1,864
354,507; 7284,951;    0,823;   -1,227
355,100; 7270,995;    0,460;    0,864
355,693; 6694,730;    2,005;    2,409
356,286; 6722,558;    0,823;    2,773
356,879; 7008,832;   -0,722;    1,227
357,472; 6653,697;   -0,904;    1,500
358,065; 6858,213;   -0,722;    2,500
358,658; 6764,945;   -0,540;    2,318
359,251; 6452,900;   -1,631;   -0,591
359,844; 6084,371;   -1,904;   -1,136
360,437; 6265,291;   -2,995;    0,045
361,030; 6509,332;    1,369;   -0,682
361,623; 6135,321;    2,824;    0,318
362,215; 6203,121;   -0,086;    2,045
362,808; 6026,987;   -2,358;   -1,682
363,401; 6198,386;   -2,449;    0,136
363,994; 6045,746;   -0,631;   -1,500
364,586; 5933,689;    0,824;   -1,500
365,179; 6129,114;   -0,449;   -1,136
365,772; 5677,573;   -1,995;    2,045
366,364; 5918,732;    1,915;   -3,227
366,957; 6151,032;    2,279;   -0,045
367,549; 6117,959;    2,188;   -0,864
368,142; 5840,881;    1,825;   -1,500
368,734; 6014,383;    0,734;   -2,136
369,327; 5968,262;    1,643;   -0,500
369,919; 5911,431;   -1,538;    0,409
370,512; 5779,798;   -1,083;   -0,500
371,104; 5572,332;   -0,901;    1,591
371,696; 5726,177;    1,191;   -0,955
372,289; 5775,016;    0,373;    1,136
372,881; 5889,061;   -2,080;    1,318
373,473; 5811,683;   -2,170;    1,136
374,066; 5655,932;   -0,169;    0,500
374,658; 5570,841;    0,378;    1,136
375,250; 5860,958;    0,653;   -1,409
375,842; 5730,269;    0,473;   -0,045
376,434; 5610,305;   -0,435;   -0,409
377,026; 6108,335;    0,204;   -2,500
377,618; 6038,961;   -0,158;   -0,682
378,210; 5868,757;   -0,338;   -1,955
378,802; 5750,466;    0,754;   -0,591
379,394; 5770,050;    1,846;    0,682
379,986; 6243,942;    1,393;   -0,955
380,578; 6293,181;   -0,153;    0,773
381,170; 5770,220;   -0,972;    0,045
381,762; 5702,158;    0,755;    1,409
382,354; 5875,731;   -0,065;   -1,318
382,945; 5939,168;   -2,976;    0,318
383,537; 6078,409;   -2,705;   -1,955
384,129; 6086,611;   -2,160;   -1,136
384,721; 6234,679;   -0,252;    0,955
385,312; 6157,831;   -0,161;   -0,955
385,904; 6270,659;   -2,706;    1,591
386,496; 5725,510;   -0,979;    1,045
387,087; 5858,053;    1,022;    2,500
387,679; 5877,701;   -1,160;    0,045
388,270; 6033,669;    2,840;    2,045
388,862; 6104,516;    1,295;   -0,318
389,453; 5971,012;   -0,887;    1,045
390,045; 6203,171;   -0,705;   -2,682
390,636; 6140,660;    0,204;   -0,591
391,227; 6013,901;   -0,523;   -0,045
391,819; 6137,885;    0,204;    0,773
392,410; 6198,508;    1,022;    0,045
393,001; 6148,855;   -0,979;   -1,591
393,593; 6373,998;    1,930;   -0,045
394,184; 6258,447;    1,385;   -0,409
394,775; 6155,084;    1,839;    2,136
395,366; 6329,501;    1,385;    0,773
395,957; 6300,668;    0,113;    0,136
396,548; 6569,452;   -0,342;    2,682
397,139; 6863,890;   -2,433;    0,591
397,730; 6615,432;   -1,888;    0,955
398,321; 6646,260;   -1,252;    0,955
398,912; 6642,104;   -0,615;    0,136
399,503; 6736,444;   -3,524;   -1,409
400,094; 6260,019;    0,294;    1,682
400,685; 6136,826;   -0,433;    0,045
401,276; 6180,641;    0,930;   -0,955
401,867; 6473,490;   -0,888;    0,773
402,458; 6535,845;   -2,251;   -2,318
403,048; 6522,606;    1,112;    0,591
403,639; 6160,844;    0,840;    0,864
404,230; 6443,585;    2,476;    0,318
404,821; 6389,353;   -0,615;    0,045
405,411; 6497,974;    1,203;   -2,591
406,002; 6150,948;   -1,252;   -1,136
406,592; 6062,754;    2,294;    0,045
407,183; 6283,676;    0,566;   -1,500
407,774; 6212,125;    3,475;   -0,136
408,364; 6500,394;    0,930;    0,409
408,954; 6166,489;    0,384;    1,227
409,545; 6210,556;    1,021;    1,045
410,135; 5778,659;    1,293;    0,500
410,726; 5920,565;    1,838;    0,318
411,316; 6298,073;    0,111;    0,773
411,906; 5990,241;   -0,253;   -0,409
412,497; 5549,454;   -1,070;   -0,045
413,087; 6085,728;   -1,980;   -0,227
413,677; 6416,406;   -0,707;    3,864
414,267; 6277,382;    0,656;    1,409
414,857; 6263,793;   -2,980;    4,227
415,448; 6529,639;    0,839;    0,500
416,038; 6261,096;    0,020;   -0,591
416,628; 6200,382;   -0,889;    0,409
417,218; 5803,956;    0,565;    3,318
417,808; 6007,458;    0,202;   -0,409
418,398; 6364,822;    0,020;    2,682
418,988; 6370,870;    2,020;    0,591
419,578; 6592,067;   -0,707;    1,409
420,168; 6879,469;   -1,343;   -0,955
420,757; 6541,389;   -1,343;   -1,500
421,347; 6245,197;    0,111;   -0,227
421,937; 6359,286;    2,292;    1,409
422,527; 6377,269;    0,838;   -0,773
423,116; 6210,049;   -0,253;   -0,045
423,706; 6447,100;   -1,889;    0,318
424,296; 6402,054;    1,384;    0,682
424,885; 6795,326;   -0,071;   -3,045
425,475; 7039,173;    1,474;   -2,864
426,065; 6944,059;   -0,980;   -0,318
426,654; 6620,280;   -0,435;   -0,318
427,244; 6776,289;    0,020;    1,409
427,833; 6299,263;    1,383;   -0,500
428,423; 6684,957;   -0,526;    1,136
429,012; 7329,900;   -0,344;   -1,136
429,601; 6890,247;   -1,344;    0,136
430,191; 7075,032;    1,292;    4,318
430,780; 6734,799;   -0,344;   -0,409
431,369; 6727,588;    0,746;   -0,045
431,959; 7250,045;   -1,254;    0,500
432,548; 7053,546;   -1,163;   -0,045
433,137; 7127,642;   -1,254;   -1,318
433,726; 7628,206;    0,292;    0,500
434,315; 7078,346;   -0,526;    2,409
434,905; 7151,112;   -1,254;    1,409
435,494; 7090,218;    0,746;    0,955
436,083; 7461,435;   -0,981;   -0,955
436,672; 7326,258;    0,110;    0,500
437,261; 6994,290;    0,292;   -1,955
437,850; 7140,036;    1,383;    0,682
438,439; 7106,278;    3,291;    1,955
439,027; 6993,826;    3,655;    1,773
439,616; 7280,493;    2,927;    1,227
440,205; 7126,713;    0,200;   -2,136
440,794; 7167,473;    2,109;   -0,045
441,383; 7351,346;   -1,346;   -0,591
441,971; 7212,526;   -2,436;    0,591
442,560; 7093,286;    0,563;   -1,773
443,149; 6877,376;    0,379;   -1,318
443,737; 7017,794;   -0,074;   -2,318
444,326; 7259,310;    0,018;    0,318
444,915; 7288,536;   -1,982;    0,864
445,503; 7637,236;   -2,891;   -0,318
446,092; 7004,239;    0,382;    2,136
446,680; 7498,813;    0,382;    0,318
447,269; 7613,317;   -0,346;   -0,318
447,857; 7397,415;    0,018;   -1,773
448,445; 7506,009;    0,563;    1,318
449,034; 7705,348;   -1,528;   -1,136
449,622; 7802,780;   -1,073;    3,500
450,210; 7203,002;    2,017;    2,227
450,799; 7672,300;    0,290;   -0,591
451,387; 7591,690;    1,381;   -0,591
451,975; 7309,481;    2,654;    0,864
452,563; 7423,860;    3,472;    2,318
453,151; 7426,576;   -0,528;   -1,227
453,739; 7355,547;   -1,347;    0,136
454,328; 7216,814;    2,381;   -2,136
454,916; 6967,116;    2,562;   -0,136
455,504; 7147,929;    1,017;    1,227
456,092; 7284,878;    0,017;   -1,591
456,679; 7233,334;    1,472;    0,682
457,267; 7292,523;    4,017;    1,045
457,855; 7382,051;    1,017;    1,409
458,443; 7135,333;   -0,165;    1,682
459,031; 7297,304;    0,108;    2,409
459,619; 7647,208;   -1,801;    2,864
460,206; 7714,576;    0,835;    2,045
460,794; 7777,013;   -2,983;   -0,227
461,382; 7987,730;   -0,529;   -0,864
461,970; 7632,411;    1,198;    1,864
462,557; 7641,933;   -0,711;   -0,682
463,145; 7830,793;   -3,165;   -1,682
463,732; 7955,260;    2,016;   -1,045
464,320; 7853,110;   -0,075;   -3,045
464,907; 7609,561;    2,743;   -0,773
465,495; 7492,376;    0,743;   -1,227
466,082; 7614,655;   -1,984;   -0,045
466,670; 7514,566;   -2,529;    1,227
467,257; 7900,524;   -1,711;    2,045
467,844; 8075,437;   -0,075;    0,045
468,432; 8072,098;    0,834;    3,500
469,019; 7651,632;    0,925;   -1,773
469,606; 8093,420;    0,470;    3,682
470,193; 7907,412;   -1,439;    0,227
470,780; 7546,764;   -2,075;    0,864
471,368; 7848,385;   -1,257;   -0,773
471,955; 7663,131;    1,379;   -0,682
472,542; 7353,483;    0,652;   -1,136
473,129; 7556,974;   -0,166;    0,136
473,716; 7360,653;    1,470;    0,591
474,303; 7474,427;    0,652;   -0,864
474,890; 7733,946;   -1,439;   -0,500
475,477; 7782,360;   -1,621;    0,409
476,064; 7664,076;    1,106;   -1,591
476,650; 7581,748;    0,288;    0,318
477,237; 7454,202;   -0,258;    0,955
477,824; 7603,546;   -1,076;    0,864
478,411; 7597,180;   -1,894;   -0,318
478,997; 7771,758;    0,560;   -0,773
479,584; 7800,247;    1,196;   -0,409
480,171; 8415,969;   -0,440;   -0,773
480,757; 8124,753;    2,651;    0,773
481,344; 8360,356;    0,469;    0,409
481,931; 7896,434;    1,105;    1,045
482,517; 8789,739;   -1,258;    0,318
483,104; 9242,042;    1,106;    2,864
483,690; 9413,702;   -1,804;    0,045
484,276; 9697,234;   -0,895;    0,227
484,863; 9460,433;    2,469;    1,136
485,449; 9933,923;   -0,077;    0,318
486,035; 9931,129;   -1,986;   -0,136
486,622;10316,053;   -0,895;    0,045
487,208;10236,354;    1,378;    1,500
487,794;10093,680;    0,741;    0,318
488,380;10193,774;    0,105;   -1,409
488,967;10275,267;   -1,168;   -0,409
489,553;10333,829;   -1,895;   -1,409
490,139;10505,306;    1,559;    0,773
490,725;10029,468;    0,741;   -0,227
491,311; 9648,193;    3,287;    3,045
491,897; 9076,308;   -0,986;    1,500
492,483; 8996,424;    0,105;    1,227
493,069; 8933,832;    3,923;    0,864
493,655; 8847,158;    1,650;    0,682
494,241; 8791,701;    1,377;   -0,955
494,826; 9115,851;    0,287;   -1,045
495,412; 8578,874;    2,559;   -0,682
495,998; 8739,008;   -0,805;   -0,318
496,584; 8824,139;    0,377;    1,045
497,169; 8792,871;    1,014;   -0,682
497,755; 8759,226;    0,650;    1,227
498,341; 9311,711;    0,559;    0,318
498,926; 8922,786;    1,832;    1,955
499,512; 9045,408;    1,286;    2,955
500,097; 9080,895;    0,195;   -0,318
500,683; 9050,617;   -0,350;    2,136
501,268; 9383,959;   -0,169;   -0,955
501,854; 9127,214;   -0,169;    1,227
502,439; 9059,679;   -0,624;   -1,773
503,024; 9254,467;    0,195;    0,500
503,610; 9299,011;   -0,078;   -0,682
504,195; 9284,970;    0,558;    1,955
504,780; 9427,688;    2,922;    1,227
505,366; 9299,822;    3,013;    2,864
505,951; 9023,189;    0,740;    1,045
506,536; 9071,619;   -3,260;   -3,682
507,121; 9044,637;    0,285;   -0,318
507,706; 9477,297;    2,376;    1,045
508,291; 9783,985;    2,649;    1,136
508,876; 9296,325;   -0,988;    2,591
509,461; 8848,612;   -0,169;   -0,773
510,046; 9181,270;    0,194;    0,318
510,631; 9435,650;   -0,351;   -0,773
511,216; 9091,405;    2,467;   -0,500
511,801; 9467,074;   -0,442;    2,591
512,386; 9690,084;    0,740;    0,500
512,971; 9625,732;   -2,988;    0,955
513,555; 9201,406;   -0,897;   -1,500
514,140; 9916,091;   -0,442;   -3,136
514,725; 9899,081;   -0,715;   -1,136
515,309;10030,760;   -0,533;    0,318
515,894; 9569,760;   -0,624;   -2,227
516,479; 9945,173;   -0,624;   -0,955
517,063; 9776,010;    0,376;    1,227
517,648; 9898,012;    1,012;   -1,136
518,232; 9499,759;   -0,261;   -1,409
518,817; 9846,509;   -0,079;    1,682
519,401;10072,530;    2,194;    0,591
519,985; 9605,072;    1,103;    1,136
520,570; 9486,784;    0,830;   -1,955
521,154; 9729,994;    2,102;    0,591
521,738; 9879,187;   -2,352;    2,409
522,323;10410,128;   -0,170;    1,682
522,907;10129,867;    0,466;   -0,136
523,491; 9884,164;    0,557;    0,955
524,075; 9902,914;    2,284;    0,591
524,659; 9991,226;    1,466;    0,591
525,243; 9505,432;    1,739;    0,409
525,827; 9706,960;    0,648;   -0,045
526,411;10427,771;   -1,989;   -0,136
526,995;10598,616;   -0,352;    1,409
527,579;10255,063;   -0,443;   -1,045
528,163;10524,092;    0,375;   -1,500
528,747;10485,113;    2,466;   -0,773
529,331;10700,520;   -0,080;   -1,409
529,915;10864,161;    1,738;    0,955
530,499;10817,684;   -0,807;    1,227
531,082;10570,380;   -0,534;    1,591
531,666;10106,353;    1,374;    0,773
532,250;10645,409;    1,284;    2,682
532,833;10940,987;    0,920;    2,773
533,417;10799,511;   -1,807;    0,864
534,001;10746,291;    1,647;   -0,318
534,584;11365,663;    0,374;    0,500
535,168;11207,617;    0,465;    1,409
535,751;11273,899;    0,647;    0,045
536,334;10717,879;   -0,898;   -0,409
536,918;11238,969;    0,011;    1,591
537,501;11312,202;   -0,899;    1,318
538,085;11304,410;   -0,444;    1,045
538,668;11404,615;    0,829;    2,409
539,251;11717,274;    1,829;    3,773
539,834;11754,091;    0,101;    0,773
540,418;11685,307;   -1,990;    4,318
541,001;11756,645;   -0,990;    1,773
541,584;11748,754;    2,101;    2,227
542,167;11453,877;    1,374;    2,955
542,750;11503,426;    1,919;   -0,773
543,333;11152,485;    0,555;    2,136
543,916;11862,362;    0,192;    2,500
544,499;12315,298;   -1,354;    0,227
545,082;12357,117;    1,374;    3,591
545,665;12440,319;    1,919;    1,500
546,248;12709,303;    1,010;   -0,318
546,830;12386,755;   -0,445;    1,955
547,413;12762,855;    1,010;   -0,773
547,996;13227,269;    0,555;    0,500
548,579;12998,867;    0,919;    0,955
549,161;12839,595;    1,828;    2,682
549,744;12609,102;   -0,809;    0,409
550,326;13061,057;   -0,809;   -1,136
550,909;12903,904;    2,737;    0,591
551,492;13223,828;   -0,263;    0,227
552,074;13019,475;   -0,173;   -1,318
552,657;13528,248;    2,373;    0,045
553,239;13339,409;   -0,173;   -0,773
553,821;13233,219;   -1,082;    1,045
554,404;12746,520;    1,282;    1,136
554,986;13115,889;    0,464;    1,045
555,568;13603,686;    1,191;   -0,955
556,151;12961,800;    1,191;   -0,227
556,733;13115,273;   -0,264;   -0,864
557,315;13500,013;    0,100;    0,500
557,897;13292,716;    0,554;   -0,500
558,479;13387,603;   -1,991;    1,318
559,061;13520,570;   -0,719;   -0,864
559,643;13822,769;   -0,264;    0,045
560,225;14093,778;    1,645;    2,864
560,807;14083,405;    0,918;    0,318
561,389;13654,066;    0,554;    2,318
561,971;14272,036;    0,463;    2,136
562,553;14138,025;   -1,628;    1,591
563,135;14255,842;   -0,537;    1,136
563,717;13881,478;    3,372;    1,136
564,298;14437,005;    3,645;   -0,045
564,880;14175,022;    0,645;   -1,409
565,462;14321,931;    0,645;    1,318
566,043;15299,509;   -0,446;    2,318
566,625;14876,440;    1,918;    1,227
567,207;14686,584;    1,099;    1,682
567,788;15632,017;   -1,264;    1,500
568,370;16327,255;    1,917;   -0,500
568,951;16059,293;    0,190;    0,227
569,533;16769,760;   -0,628;   -0,500
570,114;17199,422;   -0,446;    0,682
570,695;17576,642;   -0,174;   -1,318
571,277;17869,192;   -0,265;   -1,682
571,858;18444,165;    2,008;   -1,136
572,439;19155,887;    1,554;   -1,045
573,021;19305,363;    2,099;   -2,773
573,602;19674,017;   -1,265;    0,318
574,183;20422,886;   -2,083;    2,227
574,764;20402,475;   -1,629;    0,409
575,345;20774,866;    0,917;   -0,136
575,926;21262,424;   -0,356;    0,136
576,507;21274,585;    1,099;   -0,227
577,088;22225,926;    3,099;    1,682
577,669;22184,842;    0,735;    1,955
578,250;22877,522;    0,644;   -1,045
578,831;23299,467;   -1,356;   -2,227
579,412;23456,684;   -0,810;    0,955
579,993;24272,230;    1,008;    0,227
580,573;24564,503;   -0,629;   -0,955
581,154;23553,115;    0,735;   -0,591
581,735;24353,296;    0,644;    0,773
582,315;23843,205;   -0,629;    2,136
582,896;24078,930;   -0,174;    1,227
583,477;23623,667;    0,189;    1,227
584,057;23862,207;    0,553;    0,955
584,638;24106,139;    2,553;    2,318
585,218;24151,070;   -0,538;    2,682
585,799;24218,999;    0,281;   -0,227
586,379;24227,380;    0,372;    1,591
586,959;23147,477;    0,735;    0,318
587,540;22664,284;   -0,629;    2,227
588,120;22289,318;    1,007;   -0,045
588,700;21494,036;    2,553;    2,136
589,281;21831,549;    0,462;   -0,955
589,861;21761,528;    0,099;   -1,682
590,441;21585,413;    2,371;   -2,682
591,021;20689,798;   -0,265;   -2,591
591,601;20960,287;   -0,537;    0,500
592,181;21068,035;   -0,719;   -0,773
592,761;20399,971;    0,007;    1,409
593,341;20394,022;   -0,901;    0,045
593,921;20404,994;   -0,265;    1,591
594,501;20297,045;   -0,538;    1,318
595,081;20132,970;    0,917;   -0,318
595,661;20434,884;   -1,447;    0,955
596,240;20930,037;   -0,537;    0,136
596,820;20555,666;    0,372;    1,955
597,400;20645,610;    2,008;    0,773
597,980;20855,238;    2,008;    1,045
598,559;20902,677;    2,735;   -0,227
599,139;20664,088;   -0,174;   -1,227
599,718;20530,997;   -0,174;   -0,409
600,298;20787,427;    0,735;    0,682
600,877;21052,080;    2,917;    1,409
601,457;21252,618;    2,281;    1,136
602,036;21149,582;    0,190;    2,045
602,616;21312,897;    0,644;    1,682
603,195;21597,095;   -0,355;    3,500
603,774;21183,302;   -0,901;    2,045
604,354;21094,416;    0,826;   -0,500
604,933;20645,626;    0,463;    1,864
605,512;20764,326;    3,554;    0,591
606,091;20862,047;   -0,537;    3,773
606,671;21616,300;    0,281;    0,773
607,250;20822,892;    1,644;    3,136
607,829;21022,951;    2,372;    3,227
608,408;20850,978;    1,190;    2,591
608,987;20044,943;    1,281;    3,409
609,566;20273,770;   -1,265;   -2,500
610,145;20422,649;   -1,082;    0,682
610,723;20778,218;    4,372;    6,864
611,302;20115,598;   -0,446;    1,682
611,881;19667,874;    5,008;   11,227
612,460;20373,784;    1,645;    3,955
613,039;20808,163;   -0,082;    2,045
613,617;19660,339;    1,736;    4,773
614,196;19812,534;    1,099;    1,227
614,775;20122,366;    1,009;    2,409
615,353;20047,407;    0,736;    0,864
615,932;19900,408;    0,100;    2,409
616,510;20453,479;    0,554;    0,591
617,089;19999,955;    7,100;   17,591
617,667;19819,840;    2,372;    6,136
618,246;19699,949;   -1,537;    1,318
618,824;19820,837;   -3,355;   -0,955
619,402;19419,269;   -2,900;   -1,773
619,981;19881,923;   -0,173;   -1,045
620,559;19759,283;    0,009;    1,682
621,137;19351,581;   -0,718;    1,864
621,715;19332,787;   -1,173;   -0,682
622,293;19251,035;   -0,537;   -0,773
622,871;19678,650;   -0,718;    0,500
623,450;19321,345;    0,373;   -0,864
624,028;19278,510;    0,191;   -0,955
624,606;18922,233;   -1,718;    1,682
625,183;19280,341;   -1,536;   -1,136
625,761;18991,454;    1,009;    1,136
626,339;19272,099;    1,373;    2,591
626,917;19568,741;   -0,172;   -0,045
627,495;19643,788;   -0,354;    1,318
628,073;19115,510;   -0,263;    2,864
628,650;18820,678;    0,100;    2,136
629,228;19252,457;    0,373;    4,409
629,806;18711,997;    2,282;    1,136
630,383;18933,808;    1,464;   -0,318
630,961;18825,656;    2,555;   -0,955
631,539;18556,739;    2,464;    0,227
632,116;18055,293;   11,373;   15,409
632,694;18515,582;    2,555;    6,500
633,271;18727,774;    0,828;    2,682
633,848;18727,552;    1,828;    2,045
634,426;18727,156;   -1,081;    1,773
635,003;17989,028;    1,101;   -0,409
635,580;18242,026;    1,192;    3,682
636,158;18754,469;    3,737;    1,227
636,735;18715,342;    0,555;   -0,500
637,312;18770,236;   -0,809;   -0,682
637,889;18872,972;   -4,354;   -0,682
638,466;18458,160;   -3,990;   -0,409
639,043;18464,376;    2,101;   -1,136
639,620;18742,830;   -2,262;   -0,955
640,197;18987,031;    1,100;    1,682
640,774;19121,202;   -0,172;    1,136
641,351;19425,283;    0,737;    1,136
641,928;19008,454;   -0,627;    1,409
642,505;18692,262;    0,828;   -0,500
643,082;18775,524;   -1,718;    1,227
643,658;17888,968;   -0,718;    1,500
644,235;18540,685;    1,191;    2,500
644,812;18787,947;    1,918;    0,773
645,388;18585,936;   -0,991;    1,409
645,965;18675,108;   -0,809;    1,682
646,542;18738,188;   -1,445;   -0,227
647,118;18754,450;    1,009;   -0,955
647,695;18953,712;   -0,263;    1,136
648,271;18900,793;   -0,536;    0,500
648,848;19119,418;    0,736;    2,227
649,424;18999,135;    0,827;    1,318
650,000;18715,579;   -0,354;   -1,045
650,577;18590,660;   -0,627;   -0,955
651,153;18965,922;   -1,809;    0,955
651,729;19808,639;    1,191;    0,864
652,305;20090,355;    0,645;    2,773
652,881;23611,890;   -0,082;    1,136
653,458;28891,880;    1,100;    0,227
654,034;31534,687;    0,282;    1,591
654,610;32495,677;    0,554;    0,773
655,186;33559,303;    0,645;    3,045
655,762;33143,747;   -0,991;    0,409
656,338;33183,191;    0,100;    0,136
656,913;34052,907;   -0,082;    0,409
657,489;33338,624;    0,827;   -0,318
658,065;33401,341;   -0,173;   -1,591
658,641;34015,058;   -0,900;   -0,864
659,217;33411,592;   -0,991;    0,409
659,792;32861,127;    0,645;   -0,409
660,368;33119,753;   -2,173;   -0,682
660,944;32959,106;   -2,082;    1,227
661,519;29186,550;   -0,628;    0,409
662,095;24605,449;   -1,719;    0,591
662,670;21263,438;    1,281;   -0,136
663,246;20583,155;    1,009;   -0,409
663,821;20055,872;    0,281;    1,682
664,396;19547,407;    0,009;    1,864
664,972;19764,214;    0,009;   -0,500
665,547;20061,840;    1,372;    0,136
666,122;20117,284;   -1,082;    0,318
666,698;20347,728;   -0,173;    0,318
667,273;19677,899;   -0,173;    0,136
667,848;20403,434;    2,372;    1,500
668,423;20230,060;    2,190;    2,318
668,998;20615,504;    2,827;   -0,682
669,573;21101,312;   -3,264;   -1,500
670,148;21021,756;   -1,446;   -0,682
670,723;20773,018;   -1,810;    0,318
671,298;21111,917;    2,372;    1,045
671,873;21193,997;   -0,082;   -0,136
672,448;21123,986;    0,645;    0,136
673,023;21416,067;   -1,992;   -0,227
673,597;21782,056;    0,827;    2,318
674,172;21551,318;   -0,355;    0,318
674,747;21091,399;    0,372;   -1,045
675,321;20799,752;   -0,628;    3,318
675,896;20453,923;    0,645;    1,045
676,471;21370,549;    2,645;    1,591
677,045;21127,902;   -1,264;    0,682
677,620;21177,528;    0,190;    1,136
678,194;21481,245;   -2,628;    1,136
678,769;21127,416;   -1,083;   -0,318
679,343;21372,769;   -0,628;    1,773
679,917;21209,395;   -1,446;    1,955
680,492;21240,930;    0,826;    3,227
681,066;21317,647;    3,372;    0,409
681,640;21393,000;    1,463;   -0,318
682,214;22156,171;    0,735;    0,500
682,788;21726,524;   -1,356;   -0,773
683,363;21629,695;   -1,810;    1,682
683,937;21360,867;   -1,719;   -0,318
684,511;22036,220;    0,463;   -0,591
685,085;21744,482;   -1,356;    0,318
685,659;21491,744;   -2,538;    0,864
686,232;21778,461;   -0,356;   -0,318
686,806;21499,723;   -0,901;    0,409
687,380;22034,894;   -0,174;    0,591
687,954;22209,066;   -1,174;    1,136
688,528;21941,873;   -0,719;    1,955
689,101;22670,499;   -3,992;    1,045
689,675;22264,943;   -0,356;   -0,136
690,249;21703,387;   -0,719;    0,409
690,822;22028,558;    0,280;    0,318
691,396;22111,639;   -0,265;    1,227
691,969;21622,992;    1,280;    0,136
692,543;22065,254;   -0,447;   -1,955
693,116;21748,516;   -0,265;   -1,409
693,690;21612,233;    0,099;    0,500
694,263;22134,313;   -1,083;    2,955
694,836;22184,121;    1,371;    3,591
695,410;20963,201;   -0,265;    1,773
695,983;21350,100;    0,189;    0,591
696,556;21371,453;   -0,447;   -1,045
697,129;21683,897;   -0,356;    1,409
697,703;21365,886;   -1,629;    1,955
698,276;21382,149;    1,462;   -0,773
698,849;21232,865;    1,280;    1,409
699,422;21569,037;   -1,083;    0,591
699,995;21284,299;    0,007;    0,136
700,568;21721,834;   -0,629;    3,045
701,140;21747,005;   -2,811;    1,682
701,713;21534,540;   -0,174;    2,409
702,286;21319,439;   -0,538;    0,864
702,859;21186,973;   -0,902;   -0,591
703,432;20533,781;    0,825;    0,682
704,004;20851,952;    0,462;    0,318
704,577;20721,124;   -0,629;    0,136
705,150;21261,750;    0,189;    2,500
705,722;21089,921;   -0,356;   -3,227
706,295;20900,728;   -0,175;   -0,591
706,867;20783,627;   -0,175;    1,955
707,440;20990,980;   -1,720;   -0,409
708,012;21222,788;    0,462;    0,591
708,584;21106,868;    2,462;    0,227
709,157;21320,676;    1,825;   -0,591
709,729;21068,574;    2,280;    2,045
710,301;21799,655;    0,734;    0,045
710,874;21858,008;   -1,447;   -0,227
711,446;20781,088;    0,371;    0,864
712,018;20710,259;    0,098;    0,500
712,590;20480,885;   -1,993;    1,682
713,162;20978,784;    0,825;    1,318
713,734;21127,501;    1,825;   -2,045
714,306;21075,399;   -1,902;   -0,409
714,878;19898,298;    0,825;    0,864
715,450;20699,014;    0,643;    0,864
716,022;20943,731;    1,552;    1,318
716,593;21083,084;    0,189;    0,591
717,165;21023,256;   -3,175;   -1,227
717,737;20801,972;    0,280;    0,409
718,309;20483,689;    0,280;   -0,045
718,880;20516,042;   -0,539;   -1,409
719,452;20661,486;   -0,175;   -1,591
720,024;20329,839;    0,734;   -0,591
720,595;20825,647;   -2,902;    0,955
721,167;20405,636;    0,370;   -2,045
721,738;19973,898;   -0,812;   -1,045
722,309;20023,161;   -0,993;   -1,227
722,881;19835,787;   -1,357;    0,773
723,452;20379,140;   -2,630;    2,864
724,023;20546,947;   -0,721;    2,682
724,595;20337,573;    0,007;    0,682
725,166;20073,290;    0,007;   -0,409
725,737;19791,825;    1,734;    0,227
726,308;19913,087;   -0,266;    0,318
726,879;20270,531;   -1,630;    1,227
727,450;20117,884;    0,552;   -0,045
728,021;20075,055;    3,097;    0,682
728,592;19902,408;    0,734;    0,500
729,163;20247,671;    0,643;   -0,136
729,734;20215,569;    0,188;   -0,227
730,305;20540,377;    1,734;    0,136
730,876;20824,730;    0,188;    2,955
731,447;20598,083;    2,188;    2,682
732,017;20660,072;    1,097;    1,864
732,588;20219,335;    0,734;    1,227
733,159;20380,233;    0,643;   -1,045
733,729;20167,404;    0,006;    0,409
734,300;19592,576;    0,915;    0,864
734,870;19959,656;    3,461;    0,591
735,441;20461,282;    0,370;   -0,591
736,011;20254,544;    0,643;   -1,591
736,582;20226,625;   -0,812;    0,045
737,152;19689,432;   -1,721;   -2,045
737,722;20127,694;   -0,267;   -0,682
738,293;19819,229;   -1,358;    1,318
738,863;19765,401;    2,461;    2,318
739,433;19674,026;    5,279;    0,318
740,003;20216,561;   -0,994;   -0,682
740,573;19742,460;    2,097;   -1,591
741,143;19720,358;   -1,085;    0,318
741,713;20343,621;    1,188;   -0,500
742,283;20122,337;    0,915;    1,591
742,853;19913,690;    1,915;    1,591
743,423;19440,044;    1,733;    0,045
743,993;19521,578;   -0,358;    1,500
744,563;18995,022;    0,097;   -0,864
745,133;18936,830;   -0,812;   -0,864
745,702;19542,456;   -0,267;    1,773
746,272;18884,991;   -0,176;    0,591
746,842;18693,889;   -1,358;   -0,591
747,411;19113,424;   -0,267;   -0,318
747,981;19242,596;    0,097;    0,500
748,551;19270,858;    2,278;   -1,045
749,120;19138,302;    0,642;   -0,227
749,690;19452,928;   -0,631;    2,409
750,259;19773,372;    1,369;    2,955
750,828;19651,725;    1,551;   -1,955
751,398;19879,532;    1,278;   -0,045
751,967;19502,885;    2,187;    0,409
752,536;19665,602;   -0,813;   -0,227
753,105;20056,955;    0,096;    0,227
753,675;19799,581;    0,096;    1,773
754,244;19736,389;   -0,904;    3,591
754,813;19804,924;    0,551;    1,227
755,382;19362,731;    0,460;    0,955
755,951;19844,084;    1,551;    3,682
756,520;19502,710;   -0,085;    1,864
757,089;19957,063;    0,278;    0,500
757,658;20033,144;    1,733;    1,227
758,227;20094,406;    1,096;    0,318
758,795;20334,486;    1,187;    1,136
759,364;20579,203;   -0,086;   -0,591
759,933;19718,374;   -1,176;   -0,045
760,501;19226,455;    0,733;   -1,318
761,070;19651,990;   -2,813;   -1,409
761,639;20308,434;   -1,904;    1,318
762,207;19690,878;    1,551;   -0,955
762,776;19634,685;    0,369;    0,864
763,344;19665,584;   -0,995;    0,591
763,913;18773,573;   -0,722;    1,409
764,481;19443,836;    1,005;   -0,136
765,049;19315,370;   -1,358;    1,409
765,618;19207,360;   -0,086;    0,318
766,186;19302,349;    0,278;    0,136
766,754;19504,793;    0,005;    1,864
767,322;18630,146;   -1,995;    0,409
767,890;18611,590;   -0,722;   -1,773
768,459;19063,580;   -2,177;   -0,318
769,027;19197,660;    1,641;    3,409
769,595;18259,377;    3,278;    2,591
770,163;18646,003;    3,823;    2,955
770,730;18491,538;    0,732;   -0,136
771,298;18382,982;    0,187;   -1,409
771,866;18406,244;   -1,541;    4,955
772,434;18710,143;   -0,631;   -1,864
773,002;18863,768;    0,005;    0,682
773,569;18552,667;    0,914;    1,682
774,137;18385,020;   -0,268;   -0,045
774,705;19112,009;    0,278;   -0,136
775,272;18708,726;    0,641;    0,682
775,840;18506,807;   -0,177;    2,682
776,407;18103,160;    0,277;    1,955
776,975;17721,695;   -0,632;    0,318
777,542;18615,775;   -1,086;   -0,045
778,110;18517,855;   -1,268;   -0,045
778,677;18167,027;   -2,359;   -0,864
779,244;17958,652;    2,186;    1,045
779,812;18068,642;    1,823;    0,864
780,379;17945,540;    0,005;    1,136
780,946;18162,894;    1,005;   -0,773
781,513;18416,065;   -1,450;    0,318
782,080;17899,691;   -0,086;    2,864
782,647;18522,407;   -0,268;    3,045
783,214;18216,488;   -0,177;    3,864
783,781;17891,659;   -0,723;   -0,682
784,348;17777,103;   -0,632;    1,500
784,915;18153,274;   -3,177;    0,318
785,482;17989,900;    1,368;    2,591
786,049;18394,071;    0,186;   -0,591
786,615;18485,243;    0,277;   -0,955
787,182;18225,414;    0,186;   -0,682
787,749;17946,040;   -2,814;    1,409
788,315;17373,211;   -1,632;   -0,409
788,882;17638,655;    1,550;   -1,227
789,448;18277,645;    1,732;   -0,955
790,015;18266,634;    1,095;    3,227
790,581;17904,987;    1,459;    0,227
791,148;17809,795;    0,641;    1,045
791,714;17957,421;   -0,541;    3,136
792,280;17747,592;    0,186;    1,591
792,847;17357,672;    0,550;    2,500
793,413;17785,844;   -0,269;   -0,318
793,979;17404,560;    3,459;   -1,318
794,545;17525,368;    4,459;    2,682
795,111;17072,085;    2,186;    1,318
795,678;17224,438;    0,731;   -1,682
796,244;16875,973;    3,368;    0,136
796,810;17358,871;    1,731;    0,773
797,375;17152,043;    0,549;   -2,136
797,941;17133,759;   -0,541;    0,591
798,507;17244,476;   -0,451;   -0,955
799,073;16867,738;   -0,360;    0,591
799,639;16939,182;   -2,632;    3,136
800,205;16929,626;    0,095;    2,682
800,770;16566,343;    0,640;    1,773
801,336;16623,878;    1,368;   -0,955
801,901;16439,413;    4,549;    3,136
802,467;16964,402;   -0,542;    2,045
803,033;16353,937;   -0,087;    0,864
803,598;16551,018;    1,913;   -1,045
804,163;16577,007;    1,095;   -0,318
804,729;16557,178;   -0,178;    1,136
805,294;16866,895;    0,822;    2,227
805,859;16658,703;    0,731;   -0,409
806,425;16301,510;    1,186;    2,682
806,990;15931,773;    2,186;    4,318
807,555;16305,489;   -1,451;    2,591
808,120;16283,206;    0,822;   -0,409
808,685;16345,923;    0,185;   -2,500
809,250;15905,821;    0,004;   -0,500
809,815;16149,902;    1,913;    0,682
810,380;16611,618;   -0,269;    1,591
810,945;17128,244;   -1,087;    2,045
811,510;16362,234;    2,094;    1,591
812,075;16076,405;   -0,633;   -1,409
812,640;16125,485;    2,003;    1,409
813,204;16222,111;    0,822;   -0,227
813,769;16685,282;    2,094;   -0,045
814,334;16211,090;    0,458;    0,864
814,898;16191,716;    0,367;    0,591
815,463;16017,978;    1,276;   -0,773
816,027;16007,240;   -0,724;   -2,318
816,592;16171,775;    0,640;   -2,045
817,156;15732,492;    2,094;    1,136
817,721;15649,481;    4,276;    2,318
818,285;15649,471;    2,912;    1,500
818,849;16222,188;   -1,451;    1,682
819,414;16107,723;   -0,269;    2,955
819,978;15690,621;   -1,269;    1,773
820,542;16218,792;    2,003;    0,500
821,106;16015,873;   -0,815;    0,682
821,670;16069,771;   -0,815;    2,591
822,234;15823,124;   -0,270;    1,409
822,798;15343,114;    0,003;    0,500
823,362;15403,194;   -0,633;    4,227
823,926;14789,729;    0,094;    1,136
824,490;14971,173;   -0,997;   -0,682
825,054;15372,526;   -0,088;   -1,136
825,618;15073,425;   -1,542;   -1,500
826,181;15033,596;    0,458;   -1,318
826,745;14983,676;    1,367;   -1,045
827,309;15315,393;    1,185;    1,318
827,872;14759,383;    1,367;    0,955
828,436;15644,645;    1,185;   -0,773
828,999;15734,543;   -0,997;    1,227
829,563;14733,987;   -0,179;    1,136
830,126;14557,159;   -0,179;   -0,591
830,690;14637,239;   -1,997;    2,864
831,253;14143,774;   -0,543;    2,227
831,816;14315,582;   -1,906;    0,500
832,380;14272,662;    0,185;    0,864
832,943;14521,379;   -1,361;   -0,500
833,506;14005,186;    2,639;   -1,227
834,069;14714,085;    3,912;   -0,955
834,632;14829,256;    1,730;    1,318
835,195;14710,700;    1,003;    0,955
835,758;14001,235;   -0,997;    1,955
836,321;13856,406;    0,730;   -1,045
836,884;13984,760;   -0,725;   -0,955
837,447;13989,385;   -2,816;    1,773
838,010;14219,648;    0,366;    3,227
838,573;14524,001;   -1,179;    0,773
839,135;14500,081;   -1,361;   -0,955
839,698;13977,889;    1,275;    0,409
840,261;13553,787;    1,003;   -0,227
840,823;13423,595;   -0,543;    0,864
841,386;13697,312;   -0,452;   -2,409
841,948;13651,937;   -1,361;    1,773
842,511;13391,563;    0,912;    1,682
843,073;13488,462;    1,912;    0,227
843,636;13302,906;   -0,361;   -0,227
844,198;13278,532;    0,911;    0,591
844,760;13421,976;    1,093;    1,955
845,322;13075,511;    0,548;    1,136
845,885;13455,045;    0,730;    0,591
846,447;13862,126;   -1,998;    0,227
847,009;13556,752;    1,911;   -0,682
847,571;13785,741;    0,820;   -2,045
848,133;13879,822;   -1,089;   -1,864
848,695;13692,993;   -0,543;    1,409
849,257;13329,982;   -1,089;   -1,682
849,819;13529,790;   -0,998;   -0,409
850,381;13488,052;   -0,725;   -0,864
850,942;13790,405;    1,093;   -0,591
851,504;13739,213;    1,184;    0,227
852,066;13764,111;    1,275;   -1,591
852,628;13419,192;   -0,180;    1,955
853,189;12949,909;    1,638;    2,682
853,751;13084,807;   -0,907;    1,409
854,312;12915,433;   -0,453;   -1,682
854,874;13377,422;   -2,089;   -0,773
855,435;13809,503;   -0,907;   -1,682
855,997;13988,219;   -1,816;   -0,136
856,558;13336,663;    0,366;    1,773
857,119;13409,471;    0,820;    2,864
857,681;13117,006;    0,002;    0,318
858,242;13177,086;    1,911;   -2,136
858,803;13602,985;    0,456;   -0,773
859,364;14113,429;    0,184;   -4,773
859,925;13556,964;   -2,453;   -0,955
860,486;13421,044;   -0,453;   -0,955
861,047;13162,397;   -0,544;   -1,227
861,608;13044,023;   -1,089;   -0,773
862,169;13209,285;    0,638;   -0,045
862,730;12925,638;    0,456;    1,409
863,291;13219,901;   -0,635;   -0,500
863,852;13505,072;   -0,635;    1,955
864,412;13036,425;   -0,271;   -0,864
864,973;11833,778;   -0,089;    0,500
865,534;11702,586;   -1,726;    0,227
866,094;12963,848;    1,820;    0,227
866,655;12706,928;    1,274;    3,318
867,215;12968,827;    0,274;    0,136
867,776;12834,544;    0,547;   -0,136
868,336;12950,169;   -1,453;    0,136
868,897;12544,795;    2,638;    1,682
869,457;12335,421;    1,365;    0,318
870,017;12551,592;    0,547;   -1,227
870,578;12984,309;   -0,817;    0,773
871,138;12665,480;   -2,089;   -0,955
871,698;12256,924;   -0,817;   -1,318
872,258;12127,187;   -0,453;   -2,864
872,818;12511,903;    2,729;    0,045
873,378;12512,711;    0,638;    1,045
873,938;12099,064;    0,547;    0,500
874,498;12330,599;    0,274;   -1,955
875,058;12298,043;    2,183;    1,773
875,618;12173,851;    1,910;   -2,682
876,177;12062,113;    1,274;    0,136
876,737;11754,466;   -0,090;    1,955
877,297;11818,092;    0,183;    1,955
877,856;11836,536;   -0,362;    0,318
878,416;11786,616;    1,183;   -0,136
878,976;11982,060;   -1,817;    0,409
879,535;12154,231;    0,092;    3,136
880,095;11926,221;   -0,544;    0,045
880,654;12020,483;   -1,090;    1,318
881,213;12143,745;    2,456;    1,500
881,773;11812,371;    2,637;    2,682
882,332;12195,633;    3,365;    5,136
882,891;12005,805;    3,092;    2,136
883,451;12352,794;   -1,272;    1,682
884,010;11860,602;   -2,908;   -0,409
884,569;11973,682;   -0,999;   -0,045
885,128;12086,944;    2,819;   -1,864
885,687;12214,752;    4,455;    0,682
886,246;11999,560;    1,455;    2,136
886,805;11696,004;    2,455;    2,045
887,364;11902,448;   -0,999;   -0,500
887,922;12206,801;   -1,181;    0,045
888,481;11777,972;   -1,545;    0,591
889,040;12047,689;    1,183;    2,136
889,599;12597,769;    2,455;    1,409
890,157;12675,940;    1,455;    2,409
890,716;12288,839;   -0,090;    0,227
891,274;12139,465;    0,092;   -1,136
891,833;12525,272;    1,546;    0,864
892,391;12398,444;   -0,454;    0,500
892,950;12459,706;    1,819;   -0,773
893,508;12800,241;    0,455;   -0,409
894,067;12199,958;    0,637;    0,136
894,625;12116,402;   -0,636;   -1,500
895,183;12306,482;   -0,363;   -0,682
895,741;12279,017;    1,728;   -1,773
896,299;12102,006;   -0,545;   -2,409
896,858;12248,814;    0,819;   -1,591
897,416;12419,258;    2,728;   -1,318
897,974;12209,066;    1,819;    0,318
898,532;12410,510;    6,091;    2,682
899,089;12292,045;    2,091;   -0,682
899,647;12314,398;   -1,454;    1,318
900,205;12124,660;    1,182;    1,045
900,763;12273,013;   -0,454;    0,227
901,321;12282,093;    2,364;   -1,409
901,878;11748,901;   -1,000;   -0,773
902,436;11676,799;   -1,363;    1,318
902,994;12139,880;    4,728;    3,682
903,551;11612,051;    0,728;    0,409
904,109;11939,404;    0,182;   -1,409
904,666;11587,939;    2,455;    1,045
905,224;11432,474;    0,182;   -0,409
905,781;11275,645;    0,727;   -0,318
906,338;11320,908;   -1,363;    1,045
906,895;11280,715;    0,637;    2,045
907,453;11232,886;    1,727;    1,136
908,010;11255,058;   -0,909;    0,409
908,567;10991,320;    1,273;    0,591
909,124;10535,764;    0,364;   -1,500
909,681;10619,299;   -2,909;    0,682
910,238;10767,652;    0,636;   -1,318
910,795;11090,460;   -0,273;   -1,136
911,352;10777,278;   -2,909;   -2,682
911,909;10281,914;   -1,364;   -0,864
912,466;10763,096;   -3,182;    1,500
913,022;10304,460;   -1,636;    0,500
913,579;10645,551;   -0,909;    2,045
914,136;10418,460;    1,636;    0,955
914,692;10727,278;    0,091;   -1,227
915,249;10331,369;    1,455;    0,409
915,806;10530,914;    0,182;    1,955
916,362;10408,460;    1,909;    1,864
916,918; 9989,823;    2,000;    1,045
917,475; 9997,005;   -1,182;    0,955
918,031;10052,732;    3,364;   -0,045
918,587; 9620,005;   -0,909;   -0,318
919,144; 9844,187;   -2,273;    0,227
919,700;10060,551;    1,727;    0,773
920,256; 9733,460;    0,727;    0,045
920,812; 9424,641;   -0,727;   -1,045
921,368; 9494,005;   -1,727;   -1,045
921,924; 9156,187;    0,182;   -0,136
922,480; 8817,278;   -0,545;    1,227
923,036; 9413,460;    1,273;    1,955
923,592; 9359,914;    0,455;    0,318
924,148; 9285,187;    0,455;   -0,955
924,704; 8720,732;   -1,364;   -0,409
925,259; 9013,823;   -0,273;    0,591
925,815; 8819,096;    1,455;    0,500
926,371; 8402,460;    2,909;    1,409
926,926; 8348,005;    2,091;    0,591
927,482; 8068,187;   -1,364;    0,773
928,037; 7974,823;    0,909;    2,045
928,593; 8271,641;    1,636;    1,045
929,148; 8119,187;   -1,818;   -1,500
929,704; 7699,551;   -1,455;   -0,500
930,259; 7890,914;    0,091;   -0,136
930,814; 7164,460;   -0,818;    1,955
931,369; 6935,641;    1,091;   -0,773
931,925; 6854,096;   -0,091;    0,136
932,480; 6814,641;   -2,818;   -2,591
933,035; 6816,096;    0,545;   -0,318
933,590; 6600,641;    0,364;   -1,773
934,145; 6280,914;   -1,364;   -0,318
934,700; 6596,369;    0,455;   -0,591
935,255; 6456,641;   -0,091;    0,045
935,809; 5967,187;    3,182;    0,864
936,364; 5215,369;   -0,455;   -0,136
936,919; 5286,460;    0,455;   -1,773
937,474; 5188,187;    1,455;    0,136
938,028; 5011,551;   -1,636;    1,136
938,583; 4681,914;    1,818;    4,682
939,138; 4881,823;    2,091;    2,136
939,692; 4427,914;    1,636;   -1,136
940,247; 4233,460;   -0,727;   -1,045
940,801; 3963,914;   -0,636;    0,227
941,355; 3876,823;   -0,364;    2,591
941,910; 3579,732;   -0,273;   -2,136
942,464; 3697,460;   -0,818;   -0,318
943,018; 3621,460;    1,000;   -0,227
943,572; 3541,823;    2,545;   -0,682
944,126; 3133,460;    0,091;   -0,409
944,681; 3012,187;    3,091;    0,227
945,235; 3003,187;    1,000;   -0,591
945,789; 2947,187;    0,364;   -1,864
946,342; 3149,096;    0,455;   -0,591
946,896; 2903,914;   -2,273;    0,955
947,450; 2700,914;    1,545;   -0,227
948,004; 2948,096;    1,727;   -0,045
948,558; 2908,096;    0,273;   -0,864
949,111; 2836,369;   -0,273;   -0,318
949,665; 2961,369;    1,636;   -0,682
950,219; 2838,460;   -0,091;   -1,045
950,772; 2862,187;   -1,909;    1,864
951,326; 2803,369;    0,545;   -0,955
951,879; 2835,005;    0,727;   -2,318
952,433; 2917,005;    0,000;    2,227
952,986; 2724,278;    2,909;    0,682
953,539; 2679,914;   -0,273;    0,591
954,093; 2622,369;    0,545;   -1,318
954,646; 2761,096;    0,909;    1,318
955,199; 2597,005;    0,000;   -0,500
955,752; 2578,551;   -0,455;    1,773
956,305; 2504,914;   -0,091;    2,955
956,858; 2641,914;    0,818;   -0,318
957,411; 2785,096;   -0,545;    2,136
957,964; 2617,641;    1,364;    2,136
958,517; 2601,005;   -1,545;    3,136
959,070; 2477,551;   -0,455;    1,955
959,623; 2638,096;    1,091;    1,500
960,176; 2433,369;    1,727;    2,045
960,728; 2422,187;   -2,727;    0,773
961,281; 2457,460;    0,545;    0,500
961,834; 2460,005;   -0,909;    0,864
962,386; 2387,732;    1,727;    1,045
962,939; 2336,369;    0,364;   -0,318
963,491; 2454,187;    0,455;    1,136
964,043; 2341,369;    1,182;    2,409
964,596; 2469,369;   -1,000;    2,227
965,148; 2324,187;   -1,000;    1,773
965,700; 2263,460;    1,091;   -0,227
966,253; 2401,096;   -0,636;    0,318
966,805; 2275,460;   -2,273;    0,773
967,357; 2302,096;    1,091;   -1,500
967,909; 2303,278;    0,455;   -1,227
968,461; 2338,823;    0,545;    3,136
969,013; 2263,823;   -0,182;   -0,864
969,565; 2353,278;   -0,455;   -1,136
970,117; 2568,096;   -0,364;    1,045
970,669; 2319,005;    0,182;   -0,136
971,220; 2135,732;   -0,455;   -1,500
971,772; 2111,187;   -0,636;   -0,318
972,324; 2234,096;    0,091;   -0,500
972,876; 2162,187;    0,818;   -0,045
973,427; 2338,914;    1,909;   -1,045
973,979; 2317,460;   -0,727;   -2,500
974,530; 2244,187;    1,818;    1,318
975,082; 2265,914;   -0,545;    1,682
975,633; 2179,551;    1,091;    1,682
976,184; 2331,551;    0,909;    0,773
976,736; 2177,732;    0,091;    0,227
977,287; 2041,005;   -0,909;   -0,500
977,838; 2159,732;    0,909;   -0,318
978,389; 2209,551;   -1,000;   -0,500
978,940; 2057,823;    0,545;   -0,409
979,491; 2074,460;    0,091;   -0,500
980,042; 2096,732;    0,182;    3,045
980,593; 2106,096;   -2,545;    0,227
981,144; 2214,005;    2,545;   -0,500
981,695; 2233,732;    1,455;    1,500
982,246; 2172,005;   -0,273;    1,045
982,797; 2217,914;   -1,727;    0,682
983,347; 2345,823;    0,364;    0,591
983,898; 2549,369;    3,091;    0,409
984,449; 2423,278;    2,182;    0,773
984,999; 2242,914;    1,455;   -1,136
985,550; 2089,823;    0,182;   -0,318
986,100; 2048,641;   -0,455;   -0,318
986,651; 2062,096;   -0,818;    0,045
987,201; 2072,732;   -1,000;   -0,591
987,751; 2140,641;    0,818;    2,864
988,302; 2137,641;    2,636;    1,500
988,852; 2165,278;    0,455;   -1,136
989,402; 2265,823;    0,091;    0,682
989,952; 2210,369;   -2,182;    0,864
990,502; 2210,641;   -0,091;    0,682
991,052; 2133,732;   -0,727;    0,045
991,602; 2053,369;   -2,909;    1,318
992,152; 2085,369;    0,455;    0,682
992,702; 2057,278;    1,364;   -0,045
993,252; 2002,096;   -3,000;   -0,500
993,802; 2119,187;   -0,273;    1,318
994,352; 2259,823;   -1,545;    1,136
994,901; 2271,187;   -0,182;    3,227
995,451; 2224,005;   -0,182;    0,318
996,000; 2292,005;    1,636;    0,318
996,550; 2086,187;    2,273;    0,227
997,100; 2092,187;    1,273;   -0,045
997,649; 2346,460;    2,182;    0,955
998,198; 2022,551;    1,727;   -1,500
998,748; 2242,823;    1,091;   -2,318
999,297; 2106,187;   -0,818;   -0,409
999,846; 2219,096;    1,000;   -0,773
1000,395; 2215,278;   -0,818;    0,500
1000,945; 2243,005;    1,818;   -0,773
1001,494; 2303,187;    2,364;    0,682
1002,043; 2270,278;    4,636;    0,864
1002,592; 2080,641;   -1,091;    1,955
1003,141; 2215,641;   -0,455;   -0,682
1003,690; 2158,187;    1,727;    0,500
1004,238; 2158,187;    1,455;   -0,045
1004,787; 1859,187;    1,364;    1,227
1005,336; 2146,369;    0,364;    0,682
1005,885; 2195,732;    1,364;   -2,773
1006,433; 2254,005;    0,545;    0,955
1006,982; 2440,641;    0,455;    1,682
1007,531; 2275,278;   -1,818;   -0,227
1008,079; 2192,641;   -2,273;    0,500
1008,627; 2288,005;   -1,455;    0,409
1009,176; 2093,460;    0,000;   -1,955
1009,724; 2111,460;    1,091;    0,864
1010,273; 2224,005;    1,273;    0,500
1010,821; 2252,096;    0,091;    1,409
1011,369; 2041,005;   -1,364;    1,318
1011,917; 2043,369;   -1,364;   -0,591
1012,465; 2276,823;    1,273;   -1,591
1013,013; 2340,641;    2,091;   -1,682
1013,561; 2314,278;    0,455;   -0,773
1014,109; 2398,732;   -1,909;    1,682
1014,657; 2250,096;    0,364;    0,591
1015,205; 2287,005;    1,636;   -0,955
1015,753; 2287,005;   -0,545;   -1,409
1016,301; 2340,914;   -2,636;    3,045
1016,848; 2364,278;   -1,273;    0,409
1017,396; 2408,732;    2,545;    0,045
1017,944; 2503,278;    1,182;    1,864
1018,491; 2269,187;    0,273;    1,409
1019,039; 2542,641;    0,455;    0,591
1019,586; 2369,005;   -1,364;    1,682
1020,134; 2402,096;    0,455;    1,500
1020,681; 2450,278;    0,182;   -1,136
1021,228; 2418,460;    2,909;   -2,227
1021,776; 2279,278;    1,182;   -1,136
1022,323; 2541,551;    0,455;    0,773
1022,870; 2467,914;   -1,000;   -0,045
1023,417; 2418,278;    2,636;    1,864
1023,964; 2447,551;    2,636;    1,227
1024,511; 2330,823;    1,000;    0,773
1025,058; 2163,005;    3,182;   -0,045
1025,605; 2212,369;   -2,273;    3,136
1026,152; 2479,551;    1,727;   -0,591
1026,699; 2209,732;    1,818;    1,318
1027,245; 2302,551;   -0,091;    0,318
1027,792; 2430,187;   -1,000;    1,409
1028,339; 2441,914;    2,364;   -0,045
1028,885; 2287,460;    1,000;   -0,227
1029,432; 2216,551;   -0,091;    0,227
1029,978; 2316,914;   -1,000;   -1,591
1030,525; 2221,914;    1,000;    0,409
1031,071; 2363,278;   -1,364;    1,136
1031,618; 2586,187;    0,364;    1,682
1032,164; 2329,460;   -0,091;    3,045
1032,710; 2389,369;    1,636;   -1,500
1033,256; 2282,187;   -0,636;   -0,136
1033,803; 2207,005;   -0,545;    1,500
1034,349; 1992,460;   -1,364;    0,136
1034,895; 2129,187;    0,000;   -0,318
1035,441; 2129,460;   -0,818;    0,318
1035,987; 2154,460;   -2,364;   -0,682
1036,533; 2196,187;   -1,455;   -0,955
1037,078; 2411,914;    1,455;    1,682
1037,624; 2203,551;    2,455;   -0,955
1038,170; 2173,641;    0,455;   -0,318
1038,716; 2163,005;    1,636;   -0,409
1039,261; 2040,460;   -2,273;   -0,773
1039,807; 2005,732;   -0,091;    3,409
1040,352; 2089,187;   -1,909;   -0,318
1040,898; 2106,460;   -1,545;   -0,682
1041,443; 2006,278;   -1,455;   -2,591
1041,989; 2171,914;    1,091;    1,591
1042,534; 1973,460;   -0,364;    2,591
1043,079; 1995,551;    2,909;    0,955
1043,625; 1882,914;    1,818;    0,500
1044,170; 1963,005;   -1,364;    1,045
1044,715; 2220,732;    2,455;    0,955
1045,260; 2046,005;    2,182;   -0,955
1045,805; 2010,278;    1,182;   -0,591
1046,350; 1942,005;    1,364;   -0,409
1046,895; 2019,005;    2,909;    1,591
1047,440; 1993,096;    5,364;    0,409
1047,985; 1851,823;    2,818;   -0,955
1048,530; 1771,914;    1,545;    1,227
1049,074; 1858,187;    0,000;    0,318
1049,619; 1794,641;   -1,364;    1,955
1050,164; 1664,914;    0,455;    0,227
1050,708; 1721,551;   -0,455;    0,045
1051,253; 2120,187;    1,273;   -2,227
1051,797; 1819,914;    0,818;   -1,318
1052,342; 1761,823;   -1,182;    1,045
1052,886; 1784,823;    0,364;   -1,409
1053,430; 1637,823;   -1,364;    0,136
1053,975; 1690,096;   -0,818;   -0,318
1054,519; 1699,369;   -0,727;    3,227
1055,063; 1767,641;    0,909;    1,318
1055,607; 1677,823;   -0,182;    0,227
1056,151; 1675,823;    2,909;    1,682
1056,695; 1560,732;    2,273;   -1,136
1057,239; 1623,914;   -1,727;   -0,682
1057,783; 1642,460;    0,818;   -1,500
1058,327; 1650,278;    0,000;    1,409
1058,871; 1885,641;   -0,545;    1,318
1059,415; 1621,005;   -0,818;   -0,045
1059,958; 1898,460;    1,455;    2,591
1060,502; 1606,641;   -1,000;   -0,773
1061,046; 1473,096;    0,364;   -0,955
1061,589; 1436,460;   -3,000;   -1,136
1062,133; 1334,278;   -1,273;    1,864
1062,676; 1318,005;    1,182;    0,864
1063,220; 1354,278;    1,091;    0,500
1063,763; 1391,914;    0,909;    1,136
1064,306; 1458,278;   -0,909;    1,864
1064,849; 1382,460;   -0,909;    0,591
1065,393; 1374,641;    2,000;   -1,500
1065,936; 1440,823;    0,182;   -0,409
1066,479; 1307,823;   -1,455;    1,318
1067,022; 1346,096;   -0,273;   -0,227
1067,565; 1276,914;   -0,091;   -1,318
1068,108; 1261,551;    0,727;   -0,591
1068,651; 1228,005;   -0,636;    1,409
1069,194; 1191,005;   -0,455;   -1,682
1069,736; 1210,278;   -1,273;    0,955
1070,279; 1161,641;   -1,364;   -0,500
1070,822; 1271,823;   -2,000;   -0,318
1071,364; 1401,460;   -0,364;    1,318
1071,907; 1189,732;   -0,727;    3,227
1072,450; 1045,823;    0,000;   -0,045
1072,992; 1092,096;   -0,273;    3,136
1073,535; 1245,369;    2,091;    2,136
1074,077; 1040,823;   -0,727;    2,045
1074,619; 1026,187;   -1,364;    0,591
1075,161; 1076,278;   -1,091;    1,500
1075,704; 1267,551;    1,545;    1,227
1076,246; 1024,278;   -0,182;    0,682
1076,788;  939,005;   -0,364;    1,773
1077,330; 1003,823;    1,273;    2,136
1077,872; 1015,823;    0,909;    0,955
1078,414; 1264,551;    2,727;    0,773
1078,956; 1003,096;    1,273;   -0,227
1079,498; 1272,914;    1,636;    0,318
1080,040;  991,823;    1,909;   -1,318
1080,581;  925,641;    1,636;   -0,318
1081,123;  824,551;    0,091;   -0,773
1081,665;  865,187;   -1,182;   -0,955
1082,206; 1182,187;    1,364;   -0,500
1082,748; 1038,278;    0,727;    2,045
1083,289;  904,096;   -2,000;    1,318
1083,831;  842,551;   -0,545;    0,227
1084,372;  908,005;    0,000;    0,591
1084,913;  905,823;    1,091;    0,864
1085,455;  845,096;   -1,909;   -2,045
1085,996;  839,551;   -2,273;    0,136
1086,537;  884,732;   -0,091;    0,864
1087,078;  889,551;   -0,909;   -2,136
1087,619;  949,460;   -1,273;    0,227
1088,160;  870,641;    0,000;    1,318
1088,701;  852,641;   -1,091;    0,682
1089,242;  806,460;    1,364;   -2,227
1089,783;  903,823;   -0,273;    1,409
1090,324;  872,551;    0,455;    0,682
1090,865;  745,823;    2,727;   -0,409
1091,405;  703,369;    0,727;    2,227
1091,946;  731,641;    0,182;   -0,955
1092,487;  653,096;    0,818;   -1,409
1093,027;  844,187;   -1,364;   -1,500
1093,568;  716,005;   -0,364;    1,227
1094,108;  812,914;    0,273;    1,773
1094,649;  746,187;   -1,182;    0,136
1095,189;  676,369;   -0,636;   -0,682
1095,729;  649,278;   -0,091;    0,955
1096,269;  628,005;    0,727;   -0,955
1096,810;  950,460;   -1,364;    0,500
1097,350;  800,005;    1,364;   -0,773
1097,890;  706,914;    0,364;    1,227
1098,430;  964,641;    2,364;    2,864
1098,970;  850,641;    2,182;    1,682
1099,510;  687,460;    0,545;   -2,318
1100,050;  625,369;    1,000;   -1,591
1100,589;  600,641;   -0,727;   -0,318
1101,129;  725,914;    0,818;   -0,955
1101,669;  883,369;    1,727;    2,136
1102,209;  706,278;   -0,091;    2,227
1102,748;  652,278;    0,000;    0,955
1103,288;  649,005;    1,273;   -1,227
1103,827;  674,460;    3,091;   -2,227
1104,367;  557,823;   -0,091;   -2,409
1104,906;  535,551;    1,364;   -1,136
1105,445;  613,732;    0,636;   -1,136
1105,985;  566,641;   -0,727;    1,500
1106,524;  610,460;   -1,727;   -0,682
1107,063;  585,732;   -2,727;    1,409
1107,602;  543,732;   -1,909;   -1,500
1108,141;  473,732;   -1,909;    1,500
1108,680;  593,641;   -3,455;   -0,591
1109,219;  527,278;   -0,909;   -0,500
1109,758;  525,278;    0,455;    0,682
1110,297;  505,278;    1,000;   -0,682
1110,836;  448,096;   -0,727;    0,955
1111,375;  593,732;   -2,545;    0,409
1111,913;  623,278;   -1,000;    0,773
1112,452;  565,641;   -0,273;    0,136
1112,991;  449,096;    1,091;    1,955
1113,529;  414,551;   -0,818;   -0,045
1114,068;  483,005;   -0,273;    2,955
1114,606;  397,823;   -0,364;   -0,955
1115,144;  558,369;   -1,273;    1,045
1115,683;  483,641;   -0,727;    0,318
1116,221;  535,732;   -0,455;   -0,864
1116,759;  448,460;    0,636;   -0,864
1117,297;  633,369;    0,000;    1,864
1117,836;  452,460;   -2,182;   -1,227
1118,374;  464,823;    0,182;   -0,682
1118,912;  415,187;    0,909;    2,682
1119,450;  412,369;    1,000;    0,864
1119,988;  454,369;    1,545;    2,136
1120,525;  888,460;    5,091;    3,318
1121,063;  601,005;    1,182;    1,864
1121,601;  428,005;   -0,909;   -1,227
1122,139;  379,641;   -0,727;   -2,045
1122,676;  582,096;   -0,727;    2,773
1123,214;  506,641;   -1,182;    4,409
1123,751;  334,641;    1,727;    2,227
1124,289;  462,187;   -0,091;   -0,409
1124,826;  337,641;    1,727;    0,227
1125,364;  263,005;    1,727;   -0,955
1125,901;  452,096;    1,182;    1,227
1126,438;  543,187;    0,818;    0,955
1126,975;  291,278;   -0,727;   -0,773
1127,513;  360,914;    0,273;    2,136
1128,050;  268,914;    1,636;   -0,682
1128,587;  366,278;    2,000;   -0,227
1129,124;  414,914;    0,091;    1,318
1129,661;  284,551;    0,273;    0,227
1130,198;  453,823;    1,636;    0,773
1130,734;  389,823;    0,182;    1,409
1131,271;  255,460;   -0,909;    0,864
1131,808;  426,369;    2,909;    3,045
1132,345;  308,096;    1,545;    0,318
1132,881;  177,369;   -1,545;   -1,864
1133,418;  319,823;    0,727;   -1,136
1133,954;  257,823;    2,455;   -2,682
1134,491;  330,732;    1,364;   -0,773
1135,027;  239,005;    2,364;    0,864
1135,564;  320,732;    0,273;    2,955
1136,100;  306,278;    0,364;    2,136
1136,636;  203,914;   -1,273;   -1,045
1137,172;  287,187;    0,000;   -1,045
1137,708;  219,369;   -1,364;   -1,045
1138,245;  219,096;    1,273;   -1,227
1138,781;  172,551;    1,091;   -3,318
1139,317;  238,551;    1,273;   -1,409
1139,852;  237,551;    3,091;    0,136
1140,388;  338,369;   -1,182;   -0,409
1140,924;  232,641;   -1,091;   -2,227
1141,460;  179,914;   -1,636;    0,136
1141,996;  123,914;   -1,364;    2,682
1142,531;  166,369;    1,364;    3,318
1143,067;  352,369;    1,182;    1,045
1143,602;  417,096;   -0,091;   -0,318
1144,138;  277,278;   -2,636;    1,045
1144,673;  155,641;   -1,455;    1,409
1145,209;  209,369;   -1,909;   -0,318
1145,744;  134,460;   -0,727;    0,864
1146,279;  267,278;    1,818;   -0,136
1146,815;  183,914;    1,545;   -2,682
1147,350;  223,005;   -1,364;    0,045
1147,885;  141,732;   -0,818;   -1,318
1148,420;  148,460;   -2,273;    0,773
1148,955;  131,732;   -1,727;    1,864
1149,490;  144,641;   -0,909;   -1,591
1150,025;  133,823;    0,455;   -1,773
1150,560;  245,732;    1,091;   -0,955
1151,094;  212,369;    1,455;   -0,591
1151,629;  215,460;    1,636;    0,864
1152,164;  149,551;    1,364;    1,318
1152,698;  113,278;   -0,182;   -0,136
1153,233;   73,278;    0,091;   -0,682
1153,767;  122,369;   -3,000;   -2,318
1154,302;  169,369;   -1,455;    1,773
1154,836;  160,914;   -0,455;   -2,136
1155,371;  213,551;   -1,364;    3,682
1155,905;  172,914;   -0,636;    1,682
1156,439;  146,005;   -0,636;   -0,500
1156,973;  171,732;    0,364;    0,318
1157,507;  110,096;   -0,364;    0,682
1158,042;  135,914;   -0,727;    1,045
1158,576;  181,914;    0,182;    1,773
1159,110;  169,460;   -0,818;    2,409
1159,643;  146,369;    0,636;   -0,045
1160,177;   87,914;   -1,545;    1,500

