
Integration time [ms]:   0,040
Averaging Nr. [scans]: 11
Smoothing Nr. [pixels]: 0
Data measured with spectrometer [name]: 7318044SP
Wave   ;Sample   ;Dark     ;Reference
[nm]   ;[counts] ;[counts] ;[counts] 

186,757;   28,749;   31,551;    1,318
187,357;   57,551;   22,551;    0,955
187,958;   34,076;   15,460;   -1,591
188,558;   82,884;    8,915;   -1,227
189,159;   49,303;    6,733;   -4,500
189,759;   18,484;    7,278;   -3,591
190,360;   17,594;    2,824;   -2,136
190,960;   50,317;    2,915;   -4,136
191,560;   65,599;    3,189;   -6,591
192,161;  299,136;    4,372;   -3,500
192,761;  153,021;    4,010;   -3,227
193,361;  100,101;    1,556;   -3,773
193,962;  153,326;    2,010;   -2,682
194,562;   71,957;    1,189;   -3,955
195,162;  105,874;   -2,448;   -2,227
195,762;  269,682;   -3,176;   -0,045
196,362;  212,871;    1,370;   -2,500
196,963;   91,155;    2,006;   -0,864
197,563;  158,952;    1,551;   -0,955
198,163;   94,383;    0,096;   -0,682
198,763;  123,691;    1,733;   -0,500
199,363;  221,329;    3,096;   -0,500
199,963;  174,803;    0,369;    0,409
200,563;  154,902;    2,823;   -1,409
201,163;  130,934;    3,277;   -0,227
201,763;  223,499;    3,732;    0,318
202,363;  161,550;    1,459;    1,500
202,963;  261,242;    1,459;    1,045
203,563;  372,508;    0,277;    0,500
204,162;  223,874;    2,096;   -1,864
204,762;  210,741;    0,550;    0,591
205,362;  174,639;    3,004;    1,955
205,962;  282,138;    3,096;    1,955
206,562;  269,952;    1,823;    2,318
207,161;  235,565;   -0,087;    0,318
207,761;  400,339;    1,277;    2,409
208,361;  271,012;   -0,268;    1,409
208,960;  375,563;    0,459;    1,500
209,560;  435,947;    1,277;    1,591
210,160;  408,984;    0,550;    1,864
210,759;  375,228;    4,186;    1,227
211,359;  382,615;    1,459;    1,045
211,958;  634,736;    1,277;    2,045
212,558;  714,414;    1,732;    1,864
213,157;  554,036;    1,822;    1,500
213,757;  986,301;    3,822;   -0,227
214,356;  678,950;    1,277;   -0,409
214,956; 1001,478;    3,095;    0,409
215,555;  627,281;    2,095;    2,136
216,154;  569,213;   -2,723;   -0,591
216,754;  563,803;    0,277;    0,773
217,353;  698,517;   -0,268;   -1,045
217,952;  546,611;   -0,178;    0,318
218,552;  787,135;    1,368;   -0,773
219,151;  666,347;    0,277;    0,955
219,750;  666,518;    0,004;   -0,227
220,349;  755,274;   -0,451;    1,045
220,948;  837,782;   -1,360;    1,136
221,548;  812,904;    0,913;    1,227
222,147;  930,856;   -0,087;   -0,409
222,746; 1208,940;   -0,451;   -0,955
223,345; 1072,374;    0,731;    0,500
223,944; 1061,681;   -0,451;    0,773
224,543; 1205,696;    1,004;   -1,409
225,142; 1328,545;    0,094;    0,136
225,741; 1223,321;   -0,814;    1,045
226,340; 1227,961;   -0,451;   -0,955
226,939; 1635,173;   -0,996;   -0,136
227,538; 1504,956;   -0,360;   -0,773
228,137; 1686,781;   -0,814;    0,864
228,735; 1767,712;   -0,541;    1,227
229,334; 1527,302;   -0,905;   -0,227
229,933; 1902,031;    0,459;    0,591
230,532; 2012,751;    1,186;   -0,409
231,131; 2069,042;    1,732;    0,318
231,729; 2115,596;   -2,450;   -2,318
232,328; 2152,094;   -0,723;   -1,500
232,927; 2184,061;    1,004;   -0,500
233,525; 2261,518;    3,640;    0,045
234,124; 2465,183;    2,368;   -1,591
234,723; 2442,188;    0,913;   -1,045
235,321; 2546,083;    2,277;    0,136
235,920; 2736,392;    1,186;   -1,227
236,518; 2959,470;    3,459;    0,318
237,117; 3056,222;    0,004;   -0,227
237,715; 3204,803;    0,640;   -0,500
238,314; 3225,321;   -0,087;   -2,318
238,912; 3328,162;   -0,723;   -1,409
239,510; 3324,160;    0,459;   -1,227
240,109; 3485,352;    0,004;    3,773
240,707; 3484,855;   -0,996;    1,227
241,305; 3735,177;    0,550;    0,136
241,904; 3923,814;   -0,178;   -2,045
242,502; 3926,293;   -0,632;   -0,227
243,100; 3822,210;   -0,087;   -0,955
243,698; 4036,791;    0,732;    1,682
244,297; 4163,189;   -0,632;    0,682
244,895; 4021,128;   -0,269;   -2,318
245,493; 4297,702;    2,186;   -0,591
246,091; 4308,767;    1,368;   -1,318
246,689; 4266,426;    1,004;    0,591
247,287; 4375,516;    0,822;   -1,136
247,885; 4631,528;   -1,451;    1,227
248,483; 4713,242;    1,822;   -0,500
249,081; 4784,448;    0,185;    1,591
249,679; 4911,650;   -0,178;    1,682
250,277; 5136,228;   -1,723;    0,864
250,875; 5103,643;   -1,087;   -1,045
251,473; 5124,951;   -1,178;    0,500
252,071; 5281,697;    1,459;    1,045
252,669; 5379,317;   -1,814;    0,318
253,267; 5557,747;   -0,087;    0,773
253,864; 5497,334;   -0,360;    0,682
254,462; 5453,412;    1,640;    1,591
255,060; 5344,159;   -0,269;    1,318
255,658; 5621,226;    0,822;   -0,136
256,255; 5999,174;    0,186;   -2,045
256,853; 5875,982;   -0,269;    1,409
257,451; 5857,291;    0,822;    1,864
258,048; 6168,493;    1,822;    1,864
258,646; 5856,525;    1,731;   -1,045
259,243; 6038,073;   -0,087;    2,227
259,841; 6070,636;   -0,814;    0,318
260,438; 5960,574;   -0,087;    0,864
261,036; 6544,463;   -1,905;    1,409
261,633; 6465,364;   -0,087;    2,227
262,231; 6235,043;    2,731;   -0,045
262,828; 6295,981;   -0,905;    1,136
263,425; 6349,264;    0,913;   -0,591
264,023; 6583,614;    0,186;    0,045
264,620; 6176,479;   -0,360;   -0,318
265,217; 6485,841;   -2,087;    3,136
265,815; 6546,674;   -1,905;    2,136
266,412; 6405,524;    0,731;    0,136
267,009; 6433,677;   -1,451;    0,773
267,606; 6399,162;    0,822;   -0,955
268,203; 6331,670;   -0,269;   -0,591
268,801; 6549,181;    1,731;    0,591
269,398; 6822,848;   -0,360;    2,500
269,995; 6796,527;    0,277;    1,591
270,592; 6584,507;   -0,632;   -0,500
271,189; 6747,144;    0,186;    0,409
271,786; 6851,174;   -0,632;    1,227
272,383; 6778,237;   -1,087;    0,227
272,980; 6890,883;    0,277;    0,318
273,577; 7286,682;    0,004;    1,227
274,174; 6853,980;    0,822;    2,591
274,771; 6848,317;   -0,814;   -0,773
275,367; 7038,522;    2,277;    1,409
275,964; 7009,120;    0,731;   -0,500
276,561; 7064,706;    1,549;   -1,045
277,158; 7219,196;    0,095;   -1,773
277,755; 7368,448;    2,185;    0,409
278,351; 6819,184;   -0,451;   -1,500
278,948; 7093,993;   -0,815;    0,045
279,545; 7075,645;   -1,360;    2,318
280,141; 7699,198;   -1,723;   -2,045
280,738; 7563,362;   -0,451;   -0,136
281,334; 7687,939;   -1,633;    0,591
281,931; 7156,731;   -0,087;   -1,318
282,528; 7263,228;    0,822;   -0,500
283,124; 7883,776;   -1,087;   -0,500
283,721; 7740,183;   -0,451;    1,409
284,317; 7574,028;    0,185;    2,500
284,913; 8085,662;   -1,360;    0,591
285,510; 8265,116;    0,640;   -0,318
286,106; 8272,835;   -2,269;   -0,955
286,703; 7888,763;   -0,360;    1,955
287,299; 8074,727;   -1,451;   -0,591
287,895; 8280,320;    0,822;   -1,045
288,491; 8742,302;    0,186;    2,136
289,088; 8511,989;   -2,360;    2,409
289,684; 8627,772;   -1,723;    1,500
290,280; 8629,628;    0,368;    0,682
290,876; 8702,023;    1,822;    5,500
291,472; 8564,764;    1,276;    2,227
292,068; 8681,609;    1,367;    0,227
292,665; 8391,909;    2,095;    0,773
293,261; 8123,008;    0,276;    2,136
293,857; 8467,036;    2,913;    2,136
294,453; 8386,326;    3,550;    0,955
295,049; 8324,862;   -0,268;    1,955
295,644; 8353,855;    0,095;    0,136
296,240; 8226,481;   -0,905;   -0,136
296,836; 8309,423;   -0,995;    0,318
297,432; 8571,208;    1,096;   -0,500
298,028; 8611,253;    0,732;    0,773
298,624; 8941,538;    1,459;    1,864
299,220; 9130,442;    2,368;    0,591
299,815; 8827,767;    1,005;   -0,409
300,411; 8678,407;    0,914;    1,773
301,007; 8679,774;    1,368;    0,227
301,602; 8650,446;   -0,541;   -2,318
302,198; 8820,632;    0,732;   -0,773
302,794; 9112,758;    1,187;   -0,500
303,389; 9195,873;   -1,177;    1,045
303,985; 9232,693;    0,550;    1,409
304,580; 9236,325;    1,459;    1,591
305,176; 9191,111;   -3,086;    0,136
305,771; 9104,844;   -1,268;   -1,227
306,367; 9046,394;    4,095;    0,136
306,962; 9304,810;    0,641;    1,500
307,558; 9043,401;   -0,450;    0,136
308,153; 8929,544;    1,095;   -1,136
308,748; 9159,381;   -0,814;    1,682
309,344; 9168,053;   -0,632;   -1,318
309,939; 9297,184;   -1,905;   -1,318
310,534; 9490,573;   -0,086;   -1,682
311,130; 9395,132;    0,459;   -2,500
311,725; 9144,500;    1,004;   -0,500
312,320; 9429,834;    2,459;    0,045
312,915; 9330,005;    1,459;   -1,045
313,510; 9387,683;    1,550;   -0,500
314,105; 9778,413;    1,096;    1,409
314,700; 9255,236;   -3,086;   -1,045
315,295; 8943,598;   -0,904;    0,045
315,890; 8553,672;    1,277;    0,864
316,485; 8841,274;   -0,359;   -0,318
317,080; 8905,857;   -3,086;    1,591
317,675; 9410,357;    2,005;   -0,682
318,270; 8953,794;    5,550;    3,318
318,865; 8930,271;    3,278;    3,045
319,460; 8781,787;   -0,904;    0,591
320,055; 8993,083;   -0,541;   -1,227
320,650; 8684,807;   -1,995;   -0,591
321,244; 8743,518;   -0,177;   -1,409
321,839; 9587,079;   -1,541;   -0,227
322,434; 9440,925;   -1,086;   -1,591
323,029; 9185,161;    1,732;    1,591
323,623; 9040,472;    1,550;    0,773
324,218; 8850,498;    2,368;    1,409
324,812; 8748,008;    1,096;    1,591
325,407; 8579,423;   -0,814;    2,045
326,002; 8508,084;    0,277;   -0,409
326,596; 8794,030;    0,914;    1,318
327,191; 8930,467;    0,823;   -1,045
327,785; 8595,030;   -0,813;   -0,227
328,379; 8808,581;    1,368;    0,136
328,974; 8606,967;    0,914;   -3,955
329,568; 8815,464;    0,186;   -2,409
330,163; 8688,140;    2,096;    1,045
330,757; 9005,458;    2,459;    1,591
331,351; 8403,088;    0,459;    0,682
331,945; 8698,962;    0,914;    1,409
332,540; 8385,065;   -1,723;   -0,591
333,134; 8510,663;   -1,086;    0,773
333,728; 8730,043;    0,005;    0,318
334,322; 9046,921;   -1,177;   -0,864
334,916; 8406,488;    0,277;    0,955
335,510; 8692,609;   -0,450;   -0,136
336,105; 8939,740;   -1,086;    1,591
336,699; 8644,363;   -1,086;    0,591
337,293; 8603,236;   -1,723;    0,318
337,887; 8698,675;   -2,723;    1,955
338,481; 8846,111;    0,459;    0,591
339,074; 9005,692;   -0,359;    2,682
339,668; 8844,143;   -1,632;    1,227
340,262; 9105,755;    1,732;    3,227
340,856; 8620,334;    1,822;   -0,682
341,450; 8085,567;    1,004;    1,864
342,044; 8847,418;    1,459;    0,136
342,637; 8624,806;    0,913;   -2,136
343,231; 8527,610;   -2,360;    0,682
343,825; 8498,567;   -1,086;   -0,591
344,419; 8497,465;   -1,995;    0,500
345,012; 8388,597;    2,459;    4,045
345,606; 8373,434;    4,641;    1,591
346,199; 8211,926;   -1,813;   -0,227
346,793; 7842,196;    1,914;    2,045
347,386; 7971,826;   -0,813;   -1,136
347,980; 7937,484;   -0,268;   -0,045
348,573; 7817,724;    2,278;    0,409
349,167; 7600,372;    5,278;    4,773
349,760; 7913,806;    2,914;    2,682
350,354; 7863,869;   -0,813;    1,136
350,947; 7638,609;    1,096;    1,682
351,540; 7355,403;   -0,358;   -1,409
352,134; 7309,101;    1,096;    1,136
352,727; 7371,322;   -0,086;    1,136
353,320; 7225,650;    0,005;    0,591
353,913; 7072,449;   -1,995;    1,864
354,507; 7261,975;    0,823;   -1,227
355,100; 7277,653;    0,460;    0,864
355,693; 6687,381;    2,005;    2,409
356,286; 6707,760;    0,823;    2,773
356,879; 7000,943;   -0,722;    1,227
357,472; 6648,445;   -0,904;    1,500
358,065; 6838,504;   -0,722;    2,500
358,658; 6757,874;   -0,540;    2,318
359,251; 6491,012;   -1,631;   -0,591
359,844; 6077,570;   -1,904;   -1,136
360,437; 6238,495;   -2,995;    0,045
361,030; 6479,534;    1,369;   -0,682
361,623; 6132,246;    2,824;    0,318
362,215; 6175,502;   -0,086;    2,045
362,808; 6021,915;   -2,358;   -1,682
363,401; 6219,036;   -2,449;    0,136
363,994; 6051,212;   -0,631;   -1,500
364,586; 5940,695;    0,824;   -1,500
365,179; 6126,207;   -0,449;   -1,136
365,772; 5638,498;   -1,995;    2,045
366,364; 5896,736;    1,915;   -3,227
366,957; 6122,663;    2,279;   -0,045
367,549; 6078,952;    2,188;   -0,864
368,142; 5803,414;    1,825;   -1,500
368,734; 5979,543;    0,734;   -2,136
369,327; 5943,600;    1,643;   -0,500
369,919; 5882,035;   -1,538;    0,409
370,512; 5732,302;   -1,083;   -0,500
371,104; 5549,727;   -0,901;    1,591
371,696; 5730,916;    1,191;   -0,955
372,289; 5774,924;    0,373;    1,136
372,881; 5881,310;   -2,080;    1,318
373,473; 5785,550;   -2,170;    1,136
374,066; 5655,582;   -0,169;    0,500
374,658; 5561,173;    0,378;    1,136
375,250; 5828,429;    0,653;   -1,409
375,842; 5724,054;    0,473;   -0,045
376,434; 5605,233;   -0,435;   -0,409
377,026; 6068,574;    0,204;   -2,500
377,618; 6001,239;   -0,158;   -0,682
378,210; 5853,263;   -0,338;   -1,955
378,802; 5724,304;    0,754;   -0,591
379,394; 5749,499;    1,846;    0,682
379,986; 6213,553;    1,393;   -0,955
380,578; 6261,877;   -0,153;    0,773
381,170; 5736,935;   -0,972;    0,045
381,762; 5677,536;    0,755;    1,409
382,354; 5842,508;   -0,065;   -1,318
382,945; 5928,437;   -2,976;    0,318
383,537; 6060,174;   -2,705;   -1,955
384,129; 6060,226;   -2,160;   -1,136
384,721; 6223,214;   -0,252;    0,955
385,312; 6141,920;   -0,161;   -0,955
385,904; 6241,379;   -2,706;    1,591
386,496; 5691,040;   -0,979;    1,045
387,087; 5845,935;    1,022;    2,500
387,679; 5845,941;   -1,160;    0,045
388,270; 5981,631;    2,840;    2,045
388,862; 6095,573;    1,295;   -0,318
389,453; 5942,249;   -0,887;    1,045
390,045; 6196,317;   -0,705;   -2,682
390,636; 6125,800;    0,204;   -0,591
391,227; 5991,684;   -0,523;   -0,045
391,819; 6085,126;    0,204;    0,773
392,410; 6164,663;    1,022;    0,045
393,001; 6120,570;   -0,979;   -1,591
393,593; 6362,443;    1,930;   -0,045
394,184; 6241,798;    1,385;   -0,409
394,775; 6117,526;    1,839;    2,136
395,366; 6289,664;    1,385;    0,773
395,957; 6272,278;    0,113;    0,136
396,548; 6522,430;   -0,342;    2,682
397,139; 6831,497;   -2,433;    0,591
397,730; 6566,049;   -1,888;    0,955
398,321; 6639,154;   -1,252;    0,955
398,912; 6637,363;   -0,615;    0,136
399,503; 6721,612;   -3,524;   -1,409
400,094; 6234,918;    0,294;    1,682
400,685; 6096,902;   -0,433;    0,045
401,276; 6158,351;    0,930;   -0,955
401,867; 6453,386;   -0,888;    0,773
402,458; 6503,191;   -2,251;   -2,318
403,048; 6507,685;    1,112;    0,591
403,639; 6188,462;    0,840;    0,864
404,230; 6427,391;    2,476;    0,318
404,821; 6372,612;   -0,615;    0,045
405,411; 6468,146;    1,203;   -2,591
406,002; 6094,664;   -1,252;   -1,136
406,592; 6053,929;    2,294;    0,045
407,183; 6275,858;    0,566;   -1,500
407,774; 6176,941;    3,475;   -0,136
408,364; 6440,481;    0,930;    0,409
408,954; 6144,214;    0,384;    1,227
409,545; 6177,644;    1,021;    1,045
410,135; 5748,388;    1,293;    0,500
410,726; 5910,305;    1,838;    0,318
411,316; 6247,170;    0,111;    0,773
411,906; 5961,706;   -0,253;   -0,409
412,497; 5534,547;   -1,070;   -0,045
413,087; 6050,549;   -1,980;   -0,227
413,677; 6374,510;   -0,707;    3,864
414,267; 6218,575;    0,656;    1,409
414,857; 6196,170;   -2,980;    4,227
415,448; 6477,007;    0,839;    0,500
416,038; 6219,646;    0,020;   -0,591
416,628; 6164,212;   -0,889;    0,409
417,218; 5740,607;    0,565;    3,318
417,808; 5990,656;    0,202;   -0,409
418,398; 6315,566;    0,020;    2,682
418,988; 6309,069;    2,020;    0,591
419,578; 6521,354;   -0,707;    1,409
420,168; 6790,207;   -1,343;   -0,955
420,757; 6461,848;   -1,343;   -1,500
421,347; 6150,127;    0,111;   -0,227
421,937; 6279,308;    2,292;    1,409
422,527; 6275,929;    0,838;   -0,773
423,116; 6103,066;   -0,253;   -0,045
423,706; 6394,210;   -1,889;    0,318
424,296; 6342,163;    1,384;    0,682
424,885; 6736,254;   -0,071;   -3,045
425,475; 6968,831;    1,474;   -2,864
426,065; 6865,444;   -0,980;   -0,318
426,654; 6549,128;   -0,435;   -0,318
427,244; 6690,220;    0,020;    1,409
427,833; 6227,557;    1,383;   -0,500
428,423; 6576,621;   -0,526;    1,136
429,012; 7220,114;   -0,344;   -1,136
429,601; 6781,373;   -1,344;    0,136
430,191; 6964,335;    1,292;    4,318
430,780; 6634,736;   -0,344;   -0,409
431,369; 6628,714;    0,746;   -0,045
431,959; 7155,263;   -1,254;    0,500
432,548; 6953,401;   -1,163;   -0,045
433,137; 7030,409;   -1,254;   -1,318
433,726; 7489,699;    0,292;    0,500
434,315; 6945,568;   -0,526;    2,409
434,905; 7021,978;   -1,254;    1,409
435,494; 6934,262;    0,746;    0,955
436,083; 7323,020;   -0,981;   -0,955
436,672; 7211,754;    0,110;    0,500
437,261; 6865,517;    0,292;   -1,955
437,850; 7020,988;    1,383;    0,682
438,439; 6969,510;    3,291;    1,955
439,027; 6837,697;    3,655;    1,773
439,616; 7131,368;    2,927;    1,227
440,205; 6965,311;    0,200;   -2,136
440,794; 6997,257;    2,109;   -0,045
441,383; 7186,590;   -1,346;   -0,591
441,971; 7057,315;   -2,436;    0,591
442,560; 6917,716;    0,563;   -1,773
443,149; 6702,135;    0,379;   -1,318
443,737; 6845,057;   -0,074;   -2,318
444,326; 7058,832;    0,018;    0,318
444,915; 7114,693;   -1,982;    0,864
445,503; 7429,481;   -2,891;   -0,318
446,092; 6804,304;    0,382;    2,136
446,680; 7292,791;    0,382;    0,318
447,269; 7414,478;   -0,346;   -0,318
447,857; 7203,035;    0,018;   -1,773
448,445; 7286,176;    0,563;    1,318
449,034; 7509,695;   -1,528;   -1,136
449,622; 7584,128;   -1,073;    3,500
450,210; 6980,267;    2,017;    2,227
450,799; 7455,385;    0,290;   -0,591
451,387; 7358,413;    1,381;   -0,591
451,975; 7082,292;    2,654;    0,864
452,563; 7184,122;    3,472;    2,318
453,151; 7173,117;   -0,528;   -1,227
453,739; 7118,641;   -1,347;    0,136
454,328; 7020,997;    2,381;   -2,136
454,916; 6802,484;    2,562;   -0,136
455,504; 6923,112;    1,017;    1,227
456,092; 7049,877;    0,017;   -1,591
456,679; 7008,696;    1,472;    0,682
457,267; 7062,527;    4,017;    1,045
457,855; 7117,147;    1,017;    1,409
458,443; 6861,889;   -0,165;    1,682
459,031; 7022,130;    0,108;    2,409
459,619; 7411,849;   -1,801;    2,864
460,206; 7446,491;    0,835;    2,045
460,794; 7546,568;   -2,983;   -0,227
461,382; 7754,927;   -0,529;   -0,864
461,970; 7372,336;    1,198;    1,864
462,557; 7416,312;   -0,711;   -0,682
463,145; 7596,078;   -3,165;   -1,682
463,732; 7688,188;    2,016;   -1,045
464,320; 7567,407;   -0,075;   -3,045
464,907; 7340,038;    2,743;   -0,773
465,495; 7230,771;    0,743;   -1,227
466,082; 7364,133;   -1,984;   -0,045
466,670; 7253,408;   -2,529;    1,227
467,257; 7611,914;   -1,711;    2,045
467,844; 7790,374;   -0,075;    0,045
468,432; 7784,763;    0,834;    3,500
469,019; 7362,030;    0,925;   -1,773
469,606; 7786,724;    0,470;    3,682
470,193; 7655,814;   -1,439;    0,227
470,780; 7307,433;   -2,075;    0,864
471,368; 7575,694;   -1,257;   -0,773
471,955; 7386,802;    1,379;   -0,682
472,542; 7051,704;    0,652;   -1,136
473,129; 7234,101;   -0,166;    0,136
473,716; 7037,778;    1,470;    0,591
474,303; 7172,552;    0,652;   -0,864
474,890; 7428,808;   -1,439;   -0,500
475,477; 7469,224;   -1,621;    0,409
476,064; 7362,128;    1,106;   -1,591
476,650; 7280,522;    0,288;    0,318
477,237; 7159,522;   -0,258;    0,955
477,824; 7280,048;   -1,076;    0,864
478,411; 7262,046;   -1,894;   -0,318
478,997; 7426,355;    0,560;   -0,773
479,584; 7482,668;    1,196;   -0,409
480,171; 8087,661;   -0,440;   -0,773
480,757; 7768,450;    2,651;    0,773
481,344; 8010,503;    0,469;    0,409
481,931; 7567,415;    1,105;    1,045
482,517; 8420,531;   -1,258;    0,318
483,104; 8869,282;    1,106;    2,864
483,690; 9042,215;   -1,804;    0,045
484,276; 9275,479;   -0,895;    0,227
484,863; 9071,857;    2,469;    1,136
485,449; 9537,535;   -0,077;    0,318
486,035; 9480,106;   -1,986;   -0,136
486,622; 9862,843;   -0,895;    0,045
487,208; 9779,601;    1,378;    1,500
487,794; 9684,931;    0,741;    0,318
488,380; 9766,118;    0,105;   -1,409
488,967; 9845,437;   -1,168;   -0,409
489,553; 9871,268;   -1,895;   -1,409
490,139;10075,655;    1,559;    0,773
490,725; 9575,818;    0,741;   -0,227
491,311; 9253,542;    3,287;    3,045
491,897; 8681,112;   -0,986;    1,500
492,483; 8634,685;    0,105;    1,227
493,069; 8631,546;    3,923;    0,864
493,655; 8526,784;    1,650;    0,682
494,241; 8474,963;    1,377;   -0,955
494,826; 8789,563;    0,287;   -1,045
495,412; 8304,586;    2,559;   -0,682
495,998; 8450,366;   -0,805;   -0,318
496,584; 8535,950;    0,377;    1,045
497,169; 8517,138;    1,014;   -0,682
497,755; 8504,591;    0,650;    1,227
498,341; 9037,160;    0,559;    0,318
498,926; 8674,238;    1,832;    1,955
499,512; 8816,513;    1,286;    2,955
500,097; 8886,901;    0,195;   -0,318
500,683; 8837,167;   -0,350;    2,136
501,268; 9195,236;   -0,169;   -0,955
501,854; 8958,948;   -0,169;    1,227
502,439; 8891,601;   -0,624;   -1,773
503,024; 9061,202;    0,195;    0,500
503,610; 9140,019;   -0,078;   -0,682
504,195; 9127,162;    0,558;    1,955
504,780; 9236,966;    2,922;    1,227
505,366; 9146,735;    3,013;    2,864
505,951; 8926,116;    0,740;    1,045
506,536; 8965,726;   -3,260;   -3,682
507,121; 8916,287;    0,285;   -0,318
507,706; 9371,494;    2,376;    1,045
508,291; 9695,003;    2,649;    1,136
508,876; 9205,900;   -0,988;    2,591
509,461; 8766,092;   -0,169;   -0,773
510,046; 9136,930;    0,194;    0,318
510,631; 9380,670;   -0,351;   -0,773
511,216; 9053,337;    2,467;   -0,500
511,801; 9413,273;   -0,442;    2,591
512,386; 9663,016;    0,740;    0,500
512,971; 9577,669;   -2,988;    0,955
513,555; 9226,521;   -0,897;   -1,500
514,140; 9917,571;   -0,442;   -3,136
514,725; 9883,930;   -0,715;   -1,136
515,309; 9991,245;   -0,533;    0,318
515,894; 9529,699;   -0,624;   -2,227
516,479; 9922,114;   -0,624;   -0,955
517,063; 9755,859;    0,376;    1,227
517,648; 9855,043;    1,012;   -1,136
518,232; 9527,345;   -0,261;   -1,409
518,817; 9862,369;   -0,079;    1,682
519,401;10091,660;    2,194;    0,591
519,985; 9603,747;    1,103;    1,136
520,570; 9482,644;    0,830;   -1,955
521,154; 9757,220;    2,102;    0,591
521,738; 9912,692;   -2,352;    2,409
522,323;10447,898;   -0,170;    1,682
522,907;10159,280;    0,466;   -0,136
523,491; 9916,032;    0,557;    0,955
524,075; 9900,147;    2,284;    0,591
524,659; 9995,091;    1,466;    0,591
525,243; 9548,299;    1,739;    0,409
525,827; 9773,465;    0,648;   -0,045
526,411;10482,001;   -1,989;   -0,136
526,995;10641,484;   -0,352;    1,409
527,579;10281,847;   -0,443;   -1,045
528,163;10550,788;    0,375;   -1,500
528,747;10490,808;    2,466;   -0,773
529,331;10742,851;   -0,080;   -1,409
529,915;10909,040;    1,738;    0,955
530,499;10849,017;   -0,807;    1,227
531,082;10596,255;   -0,534;    1,591
531,666;10109,690;    1,374;    0,773
532,250;10671,923;    1,284;    2,682
532,833;10943,596;    0,920;    2,773
533,417;10808,120;   -1,807;    0,864
534,001;10768,541;    1,647;   -0,318
534,584;11380,918;    0,374;    0,500
535,168;11235,962;    0,465;    1,409
535,751;11276,873;    0,647;    0,045
536,334;10742,856;   -0,898;   -0,409
536,918;11275,218;    0,011;    1,591
537,501;11357,090;   -0,899;    1,318
538,085;11366,571;   -0,444;    1,045
538,668;11462,504;    0,829;    2,409
539,251;11792,255;    1,829;    3,773
539,834;11779,616;    0,101;    0,773
540,418;11734,111;   -1,990;    4,318
541,001;11782,265;   -0,990;    1,773
541,584;11771,838;    2,101;    2,227
542,167;11476,863;    1,374;    2,955
542,750;11555,232;    1,919;   -0,773
543,333;11174,934;    0,555;    2,136
543,916;11871,898;    0,192;    2,500
544,499;12314,563;   -1,354;    0,227
545,082;12375,110;    1,374;    3,591
545,665;12468,219;    1,919;    1,500
546,248;12723,388;    1,010;   -0,318
546,830;12409,658;   -0,445;    1,955
547,413;12809,217;    1,010;   -0,773
547,996;13278,179;    0,555;    0,500
548,579;13053,780;    0,919;    0,955
549,161;12857,509;    1,828;    2,682
549,744;12617,746;   -0,809;    0,409
550,326;13087,793;   -0,809;   -1,136
550,909;12922,551;    2,737;    0,591
551,492;13237,198;   -0,263;    0,227
552,074;13058,851;   -0,173;   -1,318
552,657;13569,534;    2,373;    0,045
553,239;13365,423;   -0,173;   -0,773
553,821;13241,593;   -1,082;    1,045
554,404;12804,260;    1,282;    1,136
554,986;13125,449;    0,464;    1,045
555,568;13630,975;    1,191;   -0,955
556,151;12976,908;    1,191;   -0,227
556,733;13152,742;   -0,264;   -0,864
557,315;13564,033;    0,100;    0,500
557,897;13332,826;    0,554;   -0,500
558,479;13432,623;   -1,991;    1,318
559,061;13575,050;   -0,719;   -0,864
559,643;13851,701;   -0,264;    0,045
560,225;14123,613;    1,645;    2,864
560,807;14164,428;    0,918;    0,318
561,389;13721,181;    0,554;    2,318
561,971;14339,431;    0,463;    2,136
562,553;14158,869;   -1,628;    1,591
563,135;14270,413;   -0,537;    1,136
563,717;13888,230;    3,372;    1,136
564,298;14492,214;    3,645;   -0,045
564,880;14240,421;    0,645;   -1,409
565,462;14320,512;    0,645;    1,318
566,043;15348,993;   -0,446;    2,318
566,625;14948,833;    1,918;    1,227
567,207;14760,980;    1,099;    1,682
567,788;15651,506;   -1,264;    1,500
568,370;16359,748;    1,917;   -0,500
568,951;16156,873;    0,190;    0,227
569,533;16856,165;   -0,628;   -0,500
570,114;17248,271;   -0,446;    0,682
570,695;17614,499;   -0,174;   -1,318
571,277;17908,688;   -0,265;   -1,682
571,858;18570,932;    2,008;   -1,136
572,439;19231,106;    1,554;   -1,045
573,021;19306,592;    2,099;   -2,773
573,602;19682,062;   -1,265;    0,318
574,183;20456,933;   -2,083;    2,227
574,764;20460,522;   -1,629;    0,409
575,345;20901,460;    0,917;   -0,136
575,926;21344,650;   -0,356;    0,136
576,507;21312,175;    1,099;   -0,227
577,088;22252,697;    3,099;    1,682
577,669;22264,800;    0,735;    1,955
578,250;22957,933;    0,644;   -1,045
578,831;23395,340;   -1,356;   -2,227
579,412;23521,732;   -0,810;    0,955
579,993;24280,189;    1,008;    0,227
580,573;24596,735;   -0,629;   -0,955
581,154;23598,346;    0,735;   -0,591
581,735;24416,344;    0,644;    0,773
582,315;23916,799;   -0,629;    2,136
582,896;24189,158;   -0,174;    1,227
583,477;23695,627;    0,189;    1,227
584,057;23895,620;    0,553;    0,955
584,638;24170,825;    2,553;    2,318
585,218;24204,937;   -0,538;    2,682
585,799;24330,319;    0,281;   -0,227
586,379;24275,243;    0,372;    1,591
586,959;23271,979;    0,735;    0,318
587,540;22734,792;   -0,629;    2,227
588,120;22374,650;    1,007;   -0,045
588,700;21596,727;    2,553;    2,136
589,281;21924,053;    0,462;   -0,955
589,861;21844,761;    0,099;   -1,682
590,441;21671,645;    2,371;   -2,682
591,021;20746,392;   -0,265;   -2,591
591,601;21021,693;   -0,537;    0,500
592,181;21141,987;   -0,719;   -0,773
592,761;20480,663;    0,007;    1,409
593,341;20434,069;   -0,901;    0,045
593,921;20449,947;   -0,265;    1,591
594,501;20385,911;   -0,538;    1,318
595,081;20189,833;    0,917;   -0,318
595,661;20541,112;   -1,447;    0,955
596,240;20986,353;   -0,537;    0,136
596,820;20663,342;    0,372;    1,955
597,400;20689,747;    2,008;    0,773
597,980;20844,735;    2,008;    1,045
598,559;20909,086;    2,735;   -0,227
599,139;20728,953;   -0,174;   -1,227
599,718;20599,589;   -0,174;   -0,409
600,298;20857,563;    0,735;    0,682
600,877;21128,305;    2,917;    1,409
601,457;21336,839;    2,281;    1,136
602,036;21227,534;    0,190;    2,045
602,616;21383,575;    0,644;    1,682
603,195;21711,497;   -0,355;    3,500
603,774;21215,705;   -0,901;    2,045
604,354;21064,365;    0,826;   -0,500
604,933;20703,124;    0,463;    1,864
605,512;20848,640;    3,554;    0,591
606,091;20912,538;   -0,537;    3,773
606,671;21627,794;    0,281;    0,773
607,250;20884,386;    1,644;    3,136
607,829;21055,531;    2,372;    3,227
608,408;20938,105;    1,190;    2,591
608,987;20095,518;    1,281;    3,409
609,566;20340,908;   -1,265;   -2,500
610,145;20505,952;   -1,082;    0,682
610,723;20858,250;    4,372;    6,864
611,302;20177,899;   -0,446;    1,682
611,881;19773,631;    5,008;   11,227
612,460;20511,451;    1,645;    3,955
613,039;20792,826;   -0,082;    2,045
613,617;19685,284;    1,736;    4,773
614,196;19828,110;    1,099;    1,227
614,775;20156,938;    1,009;    2,409
615,353;20155,249;    0,736;    0,864
615,932;19957,887;    0,100;    2,409
616,510;20503,415;    0,554;    0,591
617,089;20065,434;    7,100;   17,591
617,667;19867,138;    2,372;    6,136
618,246;19733,154;   -1,537;    1,318
618,824;19886,860;   -3,355;   -0,955
619,402;19519,475;   -2,900;   -1,773
619,981;19938,217;   -0,173;   -1,045
620,559;19761,666;    0,009;    1,682
621,137;19381,419;   -0,718;    1,864
621,715;19366,535;   -1,173;   -0,682
622,293;19311,418;   -0,537;   -0,773
622,871;19765,943;   -0,718;    0,500
623,450;19421,542;    0,373;   -0,864
624,028;19334,075;    0,191;   -0,955
624,606;19008,068;   -1,718;    1,682
625,183;19329,900;   -1,536;   -1,136
625,761;19048,650;    1,009;    1,136
626,339;19342,844;    1,373;    2,591
626,917;19614,024;   -0,172;   -0,045
627,495;19678,617;   -0,354;    1,318
628,073;19200,426;   -0,263;    2,864
628,650;18911,326;    0,100;    2,136
629,228;19288,472;    0,373;    4,409
629,806;18768,282;    2,282;    1,136
630,383;19002,545;    1,464;   -0,318
630,961;18869,760;    2,555;   -0,955
631,539;18644,839;    2,464;    0,227
632,116;18129,396;   11,373;   15,409
632,694;18575,591;    2,555;    6,500
633,271;18770,504;    0,828;    2,682
633,848;18789,194;    1,828;    2,045
634,426;18813,702;   -1,081;    1,773
635,003;18037,840;    1,101;   -0,409
635,580;18308,292;    1,192;    3,682
636,158;18805,286;    3,737;    1,227
636,735;18759,982;    0,555;   -0,500
637,312;18845,152;   -0,809;   -0,682
637,889;18951,608;   -4,354;   -0,682
638,466;18497,879;   -3,990;   -0,409
639,043;18500,635;    2,101;   -1,136
639,620;18781,725;   -2,262;   -0,955
640,197;19065,490;    1,100;    1,682
640,774;19182,935;   -0,172;    1,136
641,351;19509,379;    0,737;    1,136
641,928;19054,642;   -0,627;    1,409
642,505;18723,632;    0,828;   -0,500
643,082;18855,258;   -1,718;    1,227
643,658;17985,885;   -0,718;    1,500
644,235;18586,238;    1,191;    2,500
644,812;18811,046;    1,918;    0,773
645,388;18621,673;   -0,991;    1,409
645,965;18669,572;   -0,809;    1,682
646,542;18793,107;   -1,445;   -0,227
647,118;18823,734;    1,009;   -0,955
647,695;19033,542;   -0,263;    1,136
648,271;18920,077;   -0,536;    0,500
648,848;19139,613;    0,736;    2,227
649,424;19052,693;    0,827;    1,318
650,000;18807,411;   -0,354;   -1,045
650,577;18684,401;   -0,627;   -0,955
651,153;19036,754;   -1,809;    0,955
651,729;19854,017;    1,191;    0,864
652,305;20122,370;    0,645;    2,773
652,881;23796,724;   -0,082;    1,136
653,458;28962,987;    1,100;    0,227
654,034;31651,522;    0,282;    1,591
654,610;32610,421;    0,554;    0,773
655,186;33698,866;    0,645;    3,045
655,762;33305,856;   -0,991;    0,409
656,338;33297,300;    0,100;    0,136
656,913;34110,381;   -0,082;    0,409
657,489;33439,462;    0,827;   -0,318
658,065;33505,361;   -0,173;   -1,591
658,641;34160,533;   -0,900;   -0,864
659,217;33475,614;   -0,991;    0,409
659,792;32950,240;    0,645;   -0,409
660,368;33230,048;   -2,173;   -0,682
660,944;33070,129;   -2,082;    1,227
661,519;29254,301;   -0,628;    0,409
662,095;24682,200;   -1,719;    0,591
662,670;21270,644;    1,281;   -0,136
663,246;20550,452;    1,009;   -0,409
663,821;20104,442;    0,281;    1,682
664,396;19597,614;    0,009;    1,864
664,972;19839,513;    0,009;   -0,500
665,547;20127,412;    1,372;    0,136
666,122;20143,402;   -1,082;    0,318
666,698;20375,756;   -0,173;    0,318
667,273;19771,564;   -0,173;    0,136
667,848;20505,827;    2,372;    1,500
668,423;20292,726;    2,190;    2,318
668,998;20691,443;    2,827;   -0,682
669,573;21171,342;   -3,264;   -1,500
670,148;21044,968;   -1,446;   -0,682
670,723;20855,686;   -1,810;    0,318
671,298;21223,857;    2,372;    1,045
671,873;21246,938;   -0,082;   -0,136
672,448;21201,201;    0,645;    0,136
673,023;21527,555;   -1,992;   -0,227
673,597;21808,181;    0,827;    2,318
674,172;21613,989;   -0,355;    0,318
674,747;21110,888;    0,372;   -1,045
675,321;20887,333;   -0,628;    3,318
675,896;20530,595;    0,645;    1,045
676,471;21416,312;    2,645;    1,591
677,045;21205,030;   -1,264;    0,682
677,620;21215,383;    0,190;    1,136
678,194;21524,646;   -2,628;    1,136
678,769;21200,091;   -1,083;   -0,318
679,343;21421,808;   -0,628;    1,773
679,917;21307,980;   -1,446;    1,955
680,492;21353,879;    0,826;    3,227
681,066;21431,050;    3,372;    0,409
681,640;21493,768;    1,463;   -0,318
682,214;22213,212;    0,735;    0,500
682,788;21780,748;   -1,356;   -0,773
683,363;21703,192;   -1,810;    1,682
683,937;21399,727;   -1,719;   -0,318
684,511;22054,990;    0,463;   -0,591
685,085;21791,526;   -1,356;    0,318
685,659;21552,334;   -2,538;    0,864
686,232;21884,687;   -0,356;   -0,318
686,806;21599,859;   -0,901;    0,409
687,380;22097,576;   -0,174;    0,591
687,954;22281,839;   -1,174;    1,136
688,528;22013,829;   -0,719;    1,955
689,101;22764,910;   -3,992;    1,045
689,675;22335,900;   -0,356;   -0,136
690,249;21709,526;   -0,719;    0,409
690,822;22055,152;    0,280;    0,318
691,396;22177,506;   -0,265;    1,227
691,969;21746,132;    1,280;    0,136
692,543;22105,577;   -0,447;   -1,955
693,116;21804,658;   -0,265;   -1,409
693,690;21700,920;    0,099;    0,500
694,263;22224,819;   -1,083;    2,955
694,836;22255,537;    1,371;    3,591
695,410;20993,527;   -0,265;    1,773
695,983;21405,153;    0,189;    0,591
696,556;21460,143;   -0,447;   -1,045
697,129;21752,406;   -0,356;    1,409
697,703;21456,214;   -1,629;    1,955
698,276;21427,204;    1,462;   -0,773
698,849;21257,648;    1,280;    1,409
699,422;21620,911;   -1,083;    0,591
699,995;21386,628;    0,007;    0,136
700,568;21793,800;   -0,629;    3,045
701,140;21827,608;   -2,811;    1,682
701,713;21610,325;   -0,174;    2,409
702,286;21383,497;   -0,538;    0,864
702,859;21212,669;   -0,902;   -0,591
703,432;20540,568;    0,825;    0,682
704,004;20898,376;    0,462;    0,318
704,577;20810,730;   -0,629;    0,136
705,150;21329,174;    0,189;    2,500
705,722;21119,255;   -0,356;   -3,227
706,295;20970,336;   -0,175;   -0,591
706,867;20822,326;   -0,175;    1,955
707,440;21095,043;   -1,720;   -0,409
708,012;21257,306;    0,462;    0,591
708,584;21197,114;    2,462;    0,227
709,157;21418,468;    1,825;   -0,591
709,729;21191,094;    2,280;    2,045
710,301;21943,538;    0,734;    0,045
710,874;21920,619;   -1,447;   -0,227
711,446;20842,518;    0,371;    0,864
712,018;20759,599;    0,098;    0,500
712,590;20523,771;   -1,993;    1,682
713,162;21004,397;    0,825;    1,318
713,734;21264,569;    1,825;   -2,045
714,306;21168,559;   -1,902;   -0,409
714,878;19977,458;    0,825;    0,864
715,450;20763,539;    0,643;    0,864
716,022;20995,074;    1,552;    1,318
716,593;21135,064;    0,189;    0,591
717,165;21043,418;   -3,175;   -1,227
717,737;20846,681;    0,280;    0,409
718,309;20570,398;    0,280;   -0,045
718,880;20520,842;   -0,539;   -1,409
719,452;20731,832;   -0,175;   -1,591
720,024;20391,004;    0,734;   -0,591
720,595;20864,176;   -2,902;    0,955
721,167;20479,348;    0,370;   -2,045
721,738;20079,065;   -0,812;   -1,045
722,309;20105,600;   -0,993;   -1,227
722,881;19881,318;   -1,357;    0,773
723,452;20425,944;   -2,630;    2,864
724,023;20632,297;   -0,721;    2,682
724,595;20434,106;    0,007;    0,682
725,166;20138,005;    0,007;   -0,409
725,737;19878,358;    1,734;    0,227
726,308;19962,803;   -0,266;    0,318
726,879;20369,338;   -1,630;    1,227
727,450;20220,692;    0,552;   -0,045
728,021;20136,227;    3,097;    0,682
728,592;19968,399;    0,734;    0,500
729,163;20324,934;    0,643;   -0,136
729,734;20244,197;    0,188;   -0,227
730,305;20583,914;    1,734;    0,136
730,876;20905,177;    0,188;    2,955
731,447;20672,440;    2,188;    2,682
732,017;20751,248;    1,097;    1,864
732,588;20302,147;    0,734;    1,227
733,159;20495,955;    0,643;   -1,045
733,729;20269,490;    0,006;    0,409
734,300;19643,844;    0,915;    0,864
734,870;19995,198;    3,461;    0,591
735,441;20468,915;    0,370;   -0,591
736,011;20326,087;    0,643;   -1,591
736,582;20301,622;   -0,812;    0,045
737,152;19760,703;   -1,721;   -2,045
737,722;20204,602;   -0,267;   -0,682
738,293;19912,319;   -1,358;    1,318
738,863;19840,127;    2,461;    2,318
739,433;19716,663;    5,279;    0,318
740,003;20299,380;   -0,994;   -0,682
740,573;19792,552;    2,097;   -1,591
741,143;19739,815;   -1,085;    0,318
741,713;20395,259;    1,188;   -0,500
742,283;20170,885;    0,915;    1,591
742,853;19974,603;    1,915;    1,591
743,423;19471,593;    1,733;    0,045
743,993;19603,492;   -0,358;    1,500
744,563;19044,663;    0,097;   -0,864
745,133;18989,472;   -0,812;   -0,864
745,702;19574,280;   -0,267;    1,773
746,272;18904,088;   -0,176;    0,591
746,842;18784,350;   -1,358;   -0,591
747,411;19183,340;   -0,267;   -0,318
747,981;19305,967;    0,097;    0,500
748,551;19350,229;    2,278;   -1,045
749,120;19190,947;    0,642;   -0,227
749,690;19545,664;   -0,631;    2,409
750,259;19835,381;    1,369;    2,955
750,828;19717,826;    1,551;   -1,955
751,398;19953,452;    1,278;   -0,045
751,967;19561,442;    2,187;    0,409
752,536;19728,523;   -0,813;   -0,227
753,105;20121,695;    0,096;    0,227
753,675;19857,048;    0,096;    1,773
754,244;19812,765;   -0,904;    3,591
754,813;19848,028;    0,551;    1,227
755,382;19420,018;    0,460;    0,955
755,951;19912,554;    1,551;    3,682
756,520;19541,271;   -0,085;    1,864
757,089;20073,624;    0,278;    0,500
757,658;20145,523;    1,733;    1,227
758,227;20165,877;    1,096;    0,318
758,795;20345,140;    1,187;    1,136
759,364;20578,039;   -0,086;   -0,591
759,933;19734,938;   -1,176;   -0,045
760,501;19297,473;    0,733;   -1,318
761,070;19705,009;   -2,813;   -1,409
761,639;20328,999;   -1,904;    1,318
762,207;19733,443;    1,551;   -0,955
762,776;19720,978;    0,369;    0,864
763,344;19706,423;   -0,995;    0,591
763,913;18783,595;   -0,722;    1,409
764,481;19504,494;    1,005;   -0,136
765,049;19399,575;   -1,358;    1,409
765,618;19256,201;   -0,086;    0,318
766,186;19342,373;    0,278;    0,136
766,754;19605,908;    0,005;    1,864
767,322;18702,989;   -1,995;    0,409
767,890;18644,888;   -0,722;   -1,773
768,459;19061,696;   -2,177;   -0,318
769,027;19219,504;    1,641;    3,409
769,595;18289,494;    3,278;    2,591
770,163;18713,121;    3,823;    2,955
770,730;18510,293;    0,732;   -0,136
771,298;18384,192;    0,187;   -1,409
771,866;18473,091;   -1,541;    4,955
772,434;18786,262;   -0,631;   -1,864
773,002;18987,980;    0,005;    0,682
773,569;18679,879;    0,914;    1,682
774,137;18490,050;   -0,268;   -0,045
774,705;19174,586;    0,278;   -0,136
775,272;18760,030;    0,641;    0,682
775,840;18586,384;   -0,177;    2,682
776,407;18162,101;    0,277;    1,955
776,975;17767,364;   -0,632;    0,318
777,542;18703,172;   -1,086;   -0,045
778,110;18540,980;   -1,268;   -0,045
778,677;18218,879;   -2,359;   -0,864
779,244;18014,415;    2,186;    1,045
779,812;18149,132;    1,823;    0,864
780,379;17975,940;    0,005;    1,136
780,946;18235,566;    1,005;   -0,773
781,513;18541,375;   -1,450;    0,318
782,080;17971,819;   -0,086;    2,864
782,647;18602,445;   -0,268;    3,045
783,214;18228,890;   -0,177;    3,864
783,781;17878,425;   -0,723;   -0,682
784,348;17810,506;   -0,632;    1,500
784,915;18210,042;   -3,177;    0,318
785,482;18033,213;    1,368;    2,591
786,049;18448,749;    0,186;   -0,591
786,615;18564,011;    0,277;   -0,955
787,182;18268,365;    0,186;   -0,682
787,749;17985,900;   -2,814;    1,409
788,315;17417,618;   -1,632;   -0,409
788,882;17685,244;    1,550;   -1,227
789,448;18321,870;    1,732;   -0,955
790,015;18342,133;    1,095;    3,227
790,581;17937,941;    1,459;    0,227
791,148;17859,840;    0,641;    1,045
791,714;18036,194;   -0,541;    3,136
792,280;17789,093;    0,186;    1,591
792,847;17433,992;    0,550;    2,500
793,413;17833,709;   -0,269;   -0,318
793,979;17494,245;    3,459;   -1,318
794,545;17614,053;    4,459;    2,682
795,111;17125,043;    2,186;    1,318
795,678;17221,214;    0,731;   -1,682
796,244;16933,204;    3,368;    0,136
796,810;17429,103;    1,731;    0,773
797,375;17152,457;    0,549;   -2,136
797,941;17203,447;   -0,541;    0,591
798,507;17329,073;   -0,451;   -0,955
799,073;16895,336;   -0,360;    0,591
799,639;16984,599;   -2,632;    3,136
800,205;17016,225;    0,095;    2,682
800,770;16638,670;    0,640;    1,773
801,336;16665,296;    1,368;   -0,955
801,901;16505,195;    4,549;    3,136
802,467;17009,912;   -0,542;    2,045
803,033;16334,811;   -0,087;    0,864
803,598;16535,347;    1,913;   -1,045
804,163;16621,700;    1,095;   -0,318
804,729;16573,327;   -0,178;    1,136
805,294;16926,317;    0,822;    2,227
805,859;16727,579;    0,731;   -0,409
806,425;16324,569;    1,186;    2,682
806,990;16037,468;    2,186;    4,318
807,555;16397,367;   -1,451;    2,591
808,120;16324,630;    0,822;   -0,409
808,685;16357,711;    0,185;   -2,500
809,250;15950,519;    0,004;   -0,500
809,815;16213,145;    1,913;    0,682
810,380;16682,953;   -0,269;    1,591
810,945;17145,762;   -1,087;    2,045
811,510;16442,115;    2,094;    1,591
812,075;16170,469;   -0,633;   -1,409
812,640;16233,550;    2,003;    1,409
813,204;16305,994;    0,822;   -0,227
813,769;16741,620;    2,094;   -0,045
814,334;16255,338;    0,458;    0,864
814,898;16255,055;    0,367;    0,591
815,463;16094,409;    1,276;   -0,773
816,027;16080,489;   -0,724;   -2,318
816,592;16213,298;    0,640;   -2,045
817,156;15776,469;    2,094;    1,136
817,721;15708,277;    4,276;    2,318
818,285;15697,449;    2,912;    1,500
818,849;16228,621;   -1,451;    1,682
819,414;16083,066;   -0,269;    2,955
819,978;15749,510;   -1,269;    1,773
820,542;16307,045;    2,003;    0,500
821,106;16044,308;   -0,815;    0,682
821,670;16130,934;   -0,815;    2,591
822,234;15905,288;   -0,270;    1,409
822,798;15386,824;    0,003;    0,500
823,362;15396,359;   -0,633;    4,227
823,926;14870,167;    0,094;    1,136
824,490;15054,521;   -0,997;   -0,682
825,054;15388,056;   -0,088;   -1,136
825,618;15125,137;   -1,542;   -1,500
826,181;15087,581;    0,458;   -1,318
826,745;15032,208;    1,367;   -1,045
827,309;15335,198;    1,185;    1,318
827,872;14843,097;    1,367;    0,955
828,436;15689,359;    1,185;   -0,773
828,999;15787,077;   -0,997;    1,227
829,563;14725,612;   -0,179;    1,136
830,126;14587,329;   -0,179;   -0,591
830,690;14648,592;   -1,997;    2,864
831,253;14189,127;   -0,543;    2,227
831,816;14317,027;   -1,906;    0,500
832,380;14269,926;    0,185;    0,864
832,943;14529,461;   -1,361;   -0,500
833,506;14057,178;    2,639;   -1,227
834,069;14745,350;    3,912;   -0,955
834,632;14809,795;    1,730;    1,318
835,195;14708,966;    1,003;    0,955
835,758;14034,865;   -0,997;    1,955
836,321;13888,946;    0,730;   -1,045
836,884;13994,573;   -0,725;   -0,955
837,447;13998,926;   -2,816;    1,773
838,010;14248,007;    0,366;    3,227
838,573;14508,906;   -1,179;    0,773
839,135;14504,351;   -1,361;   -0,955
839,698;14025,977;    1,275;    0,409
840,261;13588,694;    1,003;   -0,227
840,823;13497,411;   -0,543;    0,864
841,386;13724,856;   -0,452;   -2,409
841,948;13675,664;   -1,361;    1,773
842,511;13428,563;    0,912;    1,682
843,073;13530,735;    1,912;    0,227
843,636;13356,452;   -0,361;   -0,227
844,198;13325,078;    0,911;    0,591
844,760;13472,432;    1,093;    1,955
845,322;13102,604;    0,548;    1,136
845,885;13515,412;    0,730;    0,591
846,447;13887,220;   -1,998;    0,227
847,009;13616,301;    1,911;   -0,682
847,571;13829,564;    0,820;   -2,045
848,133;13931,554;   -1,089;   -1,864
848,695;13730,180;   -0,543;    1,409
849,257;13377,352;   -1,089;   -1,682
849,819;13551,160;   -0,998;   -0,409
850,381;13536,150;   -0,725;   -0,864
850,942;13808,322;    1,093;   -0,591
851,504;13757,675;    1,184;    0,227
852,066;13754,938;    1,275;   -1,591
852,628;13428,564;   -0,180;    1,955
853,189;12995,009;    1,638;    2,682
853,751;13155,817;   -0,907;    1,409
854,312;12966,989;   -0,453;   -1,682
854,874;13424,706;   -2,089;   -0,773
855,435;13809,241;   -0,907;   -1,682
855,997;13987,777;   -1,816;   -0,136
856,558;13373,494;    0,366;    1,773
857,119;13441,575;    0,820;    2,864
857,681;13166,383;    0,002;    0,318
858,242;13216,827;    1,911;   -2,136
858,803;13627,090;    0,456;   -0,773
859,364;14133,535;    0,184;   -4,773
859,925;13587,434;   -2,453;   -0,955
860,486;13461,696;   -0,453;   -0,955
861,047;13210,141;   -0,544;   -1,227
861,608;13109,949;   -1,089;   -0,773
862,169;13207,757;    0,638;   -0,045
862,730;12979,111;    0,456;    1,409
863,291;13243,828;   -0,635;   -0,500
863,852;13535,273;   -0,635;    1,955
864,412;13083,353;   -0,271;   -0,864
864,973;11879,252;   -0,089;    0,500
865,534;11761,697;   -1,726;    0,227
866,094;13036,141;    1,820;    0,227
866,655;12784,768;    1,274;    3,318
867,215;13059,485;    0,274;    0,136
867,776;12916,384;    0,547;   -0,136
868,336;12965,738;   -1,453;    0,136
868,897;12591,091;    2,638;    1,682
869,457;12357,627;    1,365;    0,318
870,017;12579,344;    0,547;   -1,227
870,578;13004,516;   -0,817;    0,773
871,138;12657,415;   -2,089;   -0,955
871,698;12292,405;   -0,817;   -1,318
872,258;12181,486;   -0,453;   -2,864
872,818;12589,294;    2,729;    0,045
873,378;12548,466;    0,638;    1,045
873,938;12134,728;    0,547;    0,500
874,498;12387,900;    0,274;   -1,955
875,058;12328,435;    2,183;    1,773
875,618;12224,425;    1,910;   -2,682
876,177;12139,143;    1,274;    0,136
876,737;11799,223;   -0,090;    1,955
877,297;11895,304;    0,183;    1,955
877,856;11923,112;   -0,362;    0,318
878,416;11837,830;    1,183;   -0,136
878,976;12032,092;   -1,817;    0,409
879,535;12222,173;    0,092;    3,136
880,095;12014,618;   -0,544;    0,045
880,654;12054,608;   -1,090;    1,318
881,213;12186,780;    2,456;    1,500
881,773;11872,133;    2,637;    2,682
882,332;12209,850;    3,365;    5,136
882,891;12017,749;    3,092;    2,136
883,451;12450,012;   -1,272;    1,682
884,010;11926,820;   -2,908;   -0,409
884,569;12010,992;   -0,999;   -0,045
885,128;12162,527;    2,819;   -1,864
885,687;12226,426;    4,455;    0,682
886,246;12006,962;    1,455;    2,136
886,805;11785,861;    2,455;    2,045
887,364;11946,487;   -0,999;   -0,500
887,922;12235,932;   -1,181;    0,045
888,481;11767,740;   -1,545;    0,591
889,040;12073,275;    1,183;    2,136
889,599;12617,993;    2,455;    1,409
890,157;12689,346;    1,455;    2,409
890,716;12340,518;   -0,090;    0,227
891,274;12187,508;    0,092;   -1,136
891,833;12553,043;    1,546;    0,864
892,391;12436,942;   -0,454;    0,500
892,950;12531,114;    1,819;   -0,773
893,508;12854,104;    0,455;   -0,409
894,067;12219,458;    0,637;    0,136
894,625;12130,175;   -0,636;   -1,500
895,183;12338,710;   -0,363;   -0,682
895,741;12271,246;    1,728;   -1,773
896,299;12127,690;   -0,545;   -2,409
896,858;12295,771;    0,819;   -1,591
897,416;12431,125;    2,728;   -1,318
897,974;12229,297;    1,819;    0,318
898,532;12416,377;    6,091;    2,682
899,089;12311,913;    2,091;   -0,682
899,647;12380,630;   -1,454;    1,318
900,205;12159,802;    1,182;    1,045
900,763;12310,155;   -0,454;    0,227
901,321;12340,600;    2,364;   -1,409
901,878;11805,954;   -1,000;   -0,773
902,436;11731,853;   -1,363;    1,318
902,994;12171,570;    4,728;    3,682
903,551;11643,833;    0,728;    0,409
904,109;12021,186;    0,182;   -1,409
904,666;11633,358;    2,455;    1,045
905,224;11471,711;    0,182;   -0,409
905,781;11312,611;    0,727;   -0,318
906,338;11363,328;   -1,363;    1,045
906,895;11316,772;    0,637;    2,045
907,453;11275,853;    1,727;    1,136
908,010;11297,934;   -0,909;    0,409
908,567;11007,924;    1,273;    0,591
909,124;10540,005;    0,364;   -1,500
909,681;10630,358;   -2,909;    0,682
910,238;10836,621;    0,636;   -1,318
910,795;11112,702;   -0,273;   -1,136
911,352;10781,702;   -2,909;   -2,682
911,909;10314,247;   -1,364;   -0,864
912,466;10756,702;   -3,182;    1,500
913,022;10337,429;   -1,636;    0,500
913,579;10699,520;   -0,909;    2,045
914,136;10414,338;    1,636;    0,955
914,692;10732,520;    0,091;   -1,227
915,249;10352,884;    1,455;    0,409
915,806;10549,066;    0,182;    1,955
916,362;10426,520;    1,909;    1,864
916,918; 9992,520;    2,000;    1,045
917,475;10031,247;   -1,182;    0,955
918,031;10097,066;    3,364;   -0,045
918,587; 9647,157;   -0,909;   -0,318
919,144; 9905,884;   -2,273;    0,227
919,700;10150,611;    1,727;    0,773
920,256; 9731,611;    0,727;    0,045
920,812; 9464,157;   -0,727;   -1,045
921,368; 9538,884;   -1,727;   -1,045
921,924; 9217,975;    0,182;   -0,136
922,480; 8869,520;   -0,545;    1,227
923,036; 9426,611;    1,273;    1,955
923,592; 9375,884;    0,455;    0,318
924,148; 9299,520;    0,455;   -0,955
924,704; 8783,975;   -1,364;   -0,409
925,259; 9044,429;   -0,273;    0,591
925,815; 8801,066;    1,455;    0,500
926,371; 8394,975;    2,909;    1,409
926,926; 8388,884;    2,091;    0,591
927,482; 8086,066;   -1,364;    0,773
928,037; 7984,975;    0,909;    2,045
928,593; 8296,247;    1,636;    1,045
929,148; 8163,793;   -1,818;   -1,500
929,704; 7736,247;   -1,455;   -0,500
930,259; 7914,338;    0,091;   -0,136
930,814; 7184,884;   -0,818;    1,955
931,369; 6955,975;    1,091;   -0,773
931,925; 6867,611;   -0,091;    0,136
932,480; 6798,702;   -2,818;   -2,591
933,035; 6809,157;    0,545;   -0,318
933,590; 6602,429;    0,364;   -1,773
934,145; 6316,611;   -1,364;   -0,318
934,700; 6619,157;    0,455;   -0,591
935,255; 6469,066;   -0,091;    0,045
935,809; 5994,884;    3,182;    0,864
936,364; 5254,975;   -0,455;   -0,136
936,919; 5311,520;    0,455;   -1,773
937,474; 5211,066;    1,455;    0,136
938,028; 5014,884;   -1,636;    1,136
938,583; 4702,429;    1,818;    4,682
939,138; 4886,975;    2,091;    2,136
939,692; 4440,520;    1,636;   -1,136
940,247; 4231,157;   -0,727;   -1,045
940,801; 3966,611;   -0,636;    0,227
941,355; 3904,520;   -0,364;    2,591
941,910; 3588,520;   -0,273;   -2,136
942,464; 3686,247;   -0,818;   -0,318
943,018; 3620,247;    1,000;   -0,227
943,572; 3557,793;    2,545;   -0,682
944,126; 3158,520;    0,091;   -0,409
944,681; 3035,702;    3,091;    0,227
945,235; 2994,520;    1,000;   -0,591
945,789; 2946,520;    0,364;   -1,864
946,342; 3166,338;    0,455;   -0,591
946,896; 2908,611;   -2,273;    0,955
947,450; 2692,157;    1,545;   -0,227
948,004; 2941,338;    1,727;   -0,045
948,558; 2893,793;    0,273;   -0,864
949,111; 2824,066;   -0,273;   -0,318
949,665; 2953,066;    1,636;   -0,682
950,219; 2856,702;   -0,091;   -1,045
950,772; 2881,247;   -1,909;    1,864
951,326; 2802,702;    0,545;   -0,955
951,879; 2826,975;    0,727;   -2,318
952,433; 2895,975;    0,000;    2,227
952,986; 2728,611;    2,909;    0,682
953,539; 2672,975;   -0,273;    0,591
954,093; 2612,157;    0,545;   -1,318
954,646; 2764,520;    0,909;    1,318
955,199; 2600,975;    0,000;   -0,500
955,752; 2587,520;   -0,455;    1,773
956,305; 2507,611;   -0,091;    2,955
956,858; 2618,429;    0,818;   -0,318
957,411; 2778,066;   -0,545;    2,136
957,964; 2631,702;    1,364;    2,136
958,517; 2606,884;   -1,545;    3,136
959,070; 2465,702;   -0,455;    1,955
959,623; 2637,066;    1,091;    1,500
960,176; 2448,066;    1,727;    2,045
960,728; 2427,611;   -2,727;    0,773
961,281; 2467,611;    0,545;    0,500
961,834; 2466,884;   -0,909;    0,864
962,386; 2394,429;    1,727;    1,045
962,939; 2332,247;    0,364;   -0,318
963,491; 2450,429;    0,455;    1,136
964,043; 2335,157;    1,182;    2,409
964,596; 2487,702;   -1,000;    2,227
965,148; 2341,793;   -1,000;    1,773
965,700; 2254,247;    1,091;   -0,227
966,253; 2404,611;   -0,636;    0,318
966,805; 2299,247;   -2,273;    0,773
967,357; 2316,520;    1,091;   -1,500
967,909; 2325,702;    0,455;   -1,227
968,461; 2328,611;    0,545;    3,136
969,013; 2270,520;   -0,182;   -0,864
969,565; 2376,975;   -0,455;   -1,136
970,117; 2580,884;   -0,364;    1,045
970,669; 2327,157;    0,182;   -0,136
971,220; 2125,247;   -0,455;   -1,500
971,772; 2107,884;   -0,636;   -0,318
972,324; 2236,975;    0,091;   -0,500
972,876; 2160,975;    0,818;   -0,045
973,427; 2328,611;    1,909;   -1,045
973,979; 2323,975;   -0,727;   -2,500
974,530; 2264,884;    1,818;    1,318
975,082; 2267,247;   -0,545;    1,682
975,633; 2203,702;    1,091;    1,682
976,184; 2346,975;    0,909;    0,773
976,736; 2199,338;    0,091;    0,227
977,287; 2054,338;   -0,909;   -0,500
977,838; 2177,793;    0,909;   -0,318
978,389; 2216,975;   -1,000;   -0,500
978,940; 2065,247;    0,545;   -0,409
979,491; 2078,702;    0,091;   -0,500
980,042; 2095,247;    0,182;    3,045
980,593; 2105,429;   -2,545;    0,227
981,144; 2202,611;    2,545;   -0,500
981,695; 2235,793;    1,455;    1,500
982,246; 2170,702;   -0,273;    1,045
982,797; 2211,702;   -1,727;    0,682
983,347; 2348,338;    0,364;    0,591
983,898; 2542,520;    3,091;    0,409
984,449; 2414,429;    2,182;    0,773
984,999; 2238,338;    1,455;   -1,136
985,550; 2078,247;    0,182;   -0,318
986,100; 2070,520;   -0,455;   -0,318
986,651; 2082,884;   -0,818;    0,045
987,201; 2075,157;   -1,000;   -0,591
987,751; 2146,247;    0,818;    2,864
988,302; 2160,884;    2,636;    1,500
988,852; 2175,520;    0,455;   -1,136
989,402; 2253,338;    0,091;    0,682
989,952; 2196,611;   -2,182;    0,864
990,502; 2204,520;   -0,091;    0,682
991,052; 2139,157;   -0,727;    0,045
991,602; 2064,702;   -2,909;    1,318
992,152; 2085,611;    0,455;    0,682
992,702; 2081,884;    1,364;   -0,045
993,252; 2009,793;   -3,000;   -0,500
993,802; 2116,429;   -0,273;    1,318
994,352; 2259,520;   -1,545;    1,136
994,901; 2298,884;   -0,182;    3,227
995,451; 2230,793;   -0,182;    0,318
996,000; 2298,975;    1,636;    0,318
996,550; 2092,611;    2,273;    0,227
997,100; 2093,611;    1,273;   -0,045
997,649; 2343,975;    2,182;    0,955
998,198; 2040,338;    1,727;   -1,500
998,748; 2237,702;    1,091;   -2,318
999,297; 2111,338;   -0,818;   -0,409
999,846; 2223,793;    1,000;   -0,773
1000,395; 2210,157;   -0,818;    0,500
1000,945; 2244,702;    1,818;   -0,773
1001,494; 2307,247;    2,364;    0,682
1002,043; 2265,338;    4,636;    0,864
1002,592; 2077,066;   -1,091;    1,955
1003,141; 2230,702;   -0,455;   -0,682
1003,690; 2155,702;    1,727;    0,500
1004,238; 2157,793;    1,455;   -0,045
1004,787; 1853,338;    1,364;    1,227
1005,336; 2123,702;    0,364;    0,682
1005,885; 2185,702;    1,364;   -2,773
1006,433; 2259,611;    0,545;    0,955
1006,982; 2417,157;    0,455;    1,682
1007,531; 2277,611;   -1,818;   -0,227
1008,079; 2201,611;   -2,273;    0,500
1008,627; 2286,247;   -1,455;    0,409
1009,176; 2094,429;    0,000;   -1,955
1009,724; 2141,975;    1,091;    0,864
1010,273; 2264,157;    1,273;    0,500
1010,821; 2276,884;    0,091;    1,409
1011,369; 2064,429;   -1,364;    1,318
1011,917; 2071,338;   -1,364;   -0,591
1012,465; 2299,702;    1,273;   -1,591
1013,013; 2362,247;    2,091;   -1,682
1013,561; 2317,429;    0,455;   -0,773
1014,109; 2400,066;   -1,909;    1,682
1014,657; 2252,066;    0,364;    0,591
1015,205; 2311,702;    1,636;   -0,955
1015,753; 2288,338;   -0,545;   -1,409
1016,301; 2340,702;   -2,636;    3,045
1016,848; 2382,884;   -1,273;    0,409
1017,396; 2429,338;    2,545;    0,045
1017,944; 2504,429;    1,182;    1,864
1018,491; 2274,975;    0,273;    1,409
1019,039; 2540,702;    0,455;    0,591
1019,586; 2370,157;   -1,364;    1,682
1020,134; 2404,884;    0,455;    1,500
1020,681; 2455,975;    0,182;   -1,136
1021,228; 2398,247;    2,909;   -2,227
1021,776; 2288,247;    1,182;   -1,136
1022,323; 2544,157;    0,455;    0,773
1022,870; 2458,338;   -1,000;   -0,045
1023,417; 2405,429;    2,636;    1,864
1023,964; 2421,702;    2,636;    1,227
1024,511; 2352,520;    1,000;    0,773
1025,058; 2190,975;    3,182;   -0,045
1025,605; 2224,793;   -2,273;    3,136
1026,152; 2480,066;    1,727;   -0,591
1026,699; 2213,429;    1,818;    1,318
1027,245; 2333,975;   -0,091;    0,318
1027,792; 2452,793;   -1,000;    1,409
1028,339; 2446,247;    2,364;   -0,045
1028,885; 2297,975;    1,000;   -0,227
1029,432; 2221,429;   -0,091;    0,227
1029,978; 2337,338;   -1,000;   -1,591
1030,525; 2226,247;    1,000;    0,409
1031,071; 2354,611;   -1,364;    1,136
1031,618; 2582,793;    0,364;    1,682
1032,164; 2347,884;   -0,091;    3,045
1032,710; 2381,702;    1,636;   -1,500
1033,256; 2282,611;   -0,636;   -0,136
1033,803; 2240,702;   -0,545;    1,500
1034,349; 1982,884;   -1,364;    0,136
1034,895; 2118,611;    0,000;   -0,318
1035,441; 2128,338;   -0,818;    0,318
1035,987; 2157,611;   -2,364;   -0,682
1036,533; 2195,429;   -1,455;   -0,955
1037,078; 2416,793;    1,455;    1,682
1037,624; 2217,520;    2,455;   -0,955
1038,170; 2191,429;    0,455;   -0,318
1038,716; 2169,520;    1,636;   -0,409
1039,261; 2041,066;   -2,273;   -0,773
1039,807; 1984,702;   -0,091;    3,409
1040,352; 2085,520;   -1,909;   -0,318
1040,898; 2108,702;   -1,545;   -0,682
1041,443; 2004,702;   -1,455;   -2,591
1041,989; 2160,157;    1,091;    1,591
1042,534; 1975,975;   -0,364;    2,591
1043,079; 2007,611;    2,909;    0,955
1043,625; 1907,247;    1,818;    0,500
1044,170; 1968,975;   -1,364;    1,045
1044,715; 2234,066;    2,455;    0,955
1045,260; 2042,975;    2,182;   -0,955
1045,805; 2036,702;    1,182;   -0,591
1046,350; 1947,247;    1,364;   -0,409
1046,895; 2018,975;    2,909;    1,591
1047,440; 2004,520;    5,364;    0,409
1047,985; 1853,702;    2,818;   -0,955
1048,530; 1773,520;    1,545;    1,227
1049,074; 1851,247;    0,000;    0,318
1049,619; 1806,975;   -1,364;    1,955
1050,164; 1662,157;    0,455;    0,227
1050,708; 1714,338;   -0,455;    0,045
1051,253; 2128,066;    1,273;   -2,227
1051,797; 1820,884;    0,818;   -1,318
1052,342; 1742,157;   -1,182;    1,045
1052,886; 1786,338;    0,364;   -1,409
1053,430; 1657,702;   -1,364;    0,136
1053,975; 1700,520;   -0,818;   -0,318
1054,519; 1700,157;   -0,727;    3,227
1055,063; 1768,702;    0,909;    1,318
1055,607; 1677,247;   -0,182;    0,227
1056,151; 1689,247;    2,909;    1,682
1056,695; 1558,884;    2,273;   -1,136
1057,239; 1618,975;   -1,727;   -0,682
1057,783; 1655,429;    0,818;   -1,500
1058,327; 1649,793;    0,000;    1,409
1058,871; 1892,520;   -0,545;    1,318
1059,415; 1620,157;   -0,818;   -0,045
1059,958; 1913,975;    1,455;    2,591
1060,502; 1610,793;   -1,000;   -0,773
1061,046; 1471,247;    0,364;   -0,955
1061,589; 1438,429;   -3,000;   -1,136
1062,133; 1349,247;   -1,273;    1,864
1062,676; 1327,884;    1,182;    0,864
1063,220; 1348,338;    1,091;    0,500
1063,763; 1388,066;    0,909;    1,136
1064,306; 1461,611;   -0,909;    1,864
1064,849; 1364,520;   -0,909;    0,591
1065,393; 1373,793;    2,000;   -1,500
1065,936; 1446,429;    0,182;   -0,409
1066,479; 1310,338;   -1,455;    1,318
1067,022; 1340,066;   -0,273;   -0,227
1067,565; 1254,793;   -0,091;   -1,318
1068,108; 1265,338;    0,727;   -0,591
1068,651; 1234,702;   -0,636;    1,409
1069,194; 1184,702;   -0,455;   -1,682
1069,736; 1204,702;   -1,273;    0,955
1070,279; 1163,157;   -1,364;   -0,500
1070,822; 1261,884;   -2,000;   -0,318
1071,364; 1390,975;   -0,364;    1,318
1071,907; 1199,338;   -0,727;    3,227
1072,450; 1046,611;    0,000;   -0,045
1072,992; 1088,338;   -0,273;    3,136
1073,535; 1251,247;    2,091;    2,136
1074,077; 1036,975;   -0,727;    2,045
1074,619; 1024,611;   -1,364;    0,591
1075,161; 1079,157;   -1,091;    1,500
1075,704; 1268,702;    1,545;    1,227
1076,246; 1034,338;   -0,182;    0,682
1076,788;  940,429;   -0,364;    1,773
1077,330;  995,066;    1,273;    2,136
1077,872; 1006,066;    0,909;    0,955
1078,414; 1255,157;    2,727;    0,773
1078,956; 1002,611;    1,273;   -0,227
1079,498; 1269,520;    1,636;    0,318
1080,040;  992,975;    1,909;   -1,318
1080,581;  921,157;    1,636;   -0,318
1081,123;  837,884;    0,091;   -0,773
1081,665;  868,884;   -1,182;   -0,955
1082,206; 1185,975;    1,364;   -0,500
1082,748; 1045,157;    0,727;    2,045
1083,289;  912,884;   -2,000;    1,318
1083,831;  844,247;   -0,545;    0,227
1084,372;  896,702;    0,000;    0,591
1084,913;  902,702;    1,091;    0,864
1085,455;  839,975;   -1,909;   -2,045
1085,996;  847,884;   -2,273;    0,136
1086,537;  883,338;   -0,091;    0,864
1087,078;  897,338;   -0,909;   -2,136
1087,619;  952,157;   -1,273;    0,227
1088,160;  868,338;    0,000;    1,318
1088,701;  840,066;   -1,091;    0,682
1089,242;  796,338;    1,364;   -2,227
1089,783;  900,338;   -0,273;    1,409
1090,324;  871,702;    0,455;    0,682
1090,865;  754,066;    2,727;   -0,409
1091,405;  701,066;    0,727;    2,227
1091,946;  733,066;    0,182;   -0,955
1092,487;  654,247;    0,818;   -1,409
1093,027;  848,975;   -1,364;   -1,500
1093,568;  710,611;   -0,364;    1,227
1094,108;  805,247;    0,273;    1,773
1094,649;  737,066;   -1,182;    0,136
1095,189;  672,338;   -0,636;   -0,682
1095,729;  654,429;   -0,091;    0,955
1096,269;  637,975;    0,727;   -0,955
1096,810;  948,429;   -1,364;    0,500
1097,350;  800,066;    1,364;   -0,773
1097,890;  692,611;    0,364;    1,227
1098,430;  950,884;    2,364;    2,864
1098,970;  836,429;    2,182;    1,682
1099,510;  681,520;    0,545;   -2,318
1100,050;  618,520;    1,000;   -1,591
1100,589;  597,611;   -0,727;   -0,318
1101,129;  710,247;    0,818;   -0,955
1101,669;  869,884;    1,727;    2,136
1102,209;  703,793;   -0,091;    2,227
1102,748;  665,520;    0,000;    0,955
1103,288;  658,157;    1,273;   -1,227
1103,827;  678,338;    3,091;   -2,227
1104,367;  566,793;   -0,091;   -2,409
1104,906;  531,884;    1,364;   -1,136
1105,445;  608,066;    0,636;   -1,136
1105,985;  564,702;   -0,727;    1,500
1106,524;  606,338;   -1,727;   -0,682
1107,063;  592,247;   -2,727;    1,409
1107,602;  556,884;   -1,909;   -1,500
1108,141;  477,066;   -1,909;    1,500
1108,680;  602,793;   -3,455;   -0,591
1109,219;  530,338;   -0,909;   -0,500
1109,758;  519,520;    0,455;    0,682
1110,297;  506,429;    1,000;   -0,682
1110,836;  453,611;   -0,727;    0,955
1111,375;  606,338;   -2,545;    0,409
1111,913;  630,157;   -1,000;    0,773
1112,452;  558,702;   -0,273;    0,136
1112,991;  441,520;    1,091;    1,955
1113,529;  405,247;   -0,818;   -0,045
1114,068;  480,429;   -0,273;    2,955
1114,606;  392,066;   -0,364;   -0,955
1115,144;  553,611;   -1,273;    1,045
1115,683;  490,247;   -0,727;    0,318
1116,221;  534,429;   -0,455;   -0,864
1116,759;  440,884;    0,636;   -0,864
1117,297;  642,702;    0,000;    1,864
1117,836;  453,247;   -2,182;   -1,227
1118,374;  471,520;    0,182;   -0,682
1118,912;  421,520;    0,909;    2,682
1119,450;  412,429;    1,000;    0,864
1119,988;  459,611;    1,545;    2,136
1120,525;  892,247;    5,091;    3,318
1121,063;  603,975;    1,182;    1,864
1121,601;  429,247;   -0,909;   -1,227
1122,139;  379,793;   -0,727;   -2,045
1122,676;  574,520;   -0,727;    2,773
1123,214;  504,975;   -1,182;    4,409
1123,751;  333,884;    1,727;    2,227
1124,289;  453,611;   -0,091;   -0,409
1124,826;  340,884;    1,727;    0,227
1125,364;  267,702;    1,727;   -0,955
1125,901;  453,884;    1,182;    1,227
1126,438;  552,702;    0,818;    0,955
1126,975;  299,247;   -0,727;   -0,773
1127,513;  354,247;    0,273;    2,136
1128,050;  271,611;    1,636;   -0,682
1128,587;  367,975;    2,000;   -0,227
1129,124;  413,702;    0,091;    1,318
1129,661;  277,429;    0,273;    0,227
1130,198;  440,247;    1,636;    0,773
1130,734;  389,338;    0,182;    1,409
1131,271;  261,247;   -0,909;    0,864
1131,808;  419,066;    2,909;    3,045
1132,345;  299,793;    1,545;    0,318
1132,881;  185,975;   -1,545;   -1,864
1133,418;  316,157;    0,727;   -1,136
1133,954;  259,702;    2,455;   -2,682
1134,491;  330,793;    1,364;   -0,773
1135,027;  233,702;    2,364;    0,864
1135,564;  313,066;    0,273;    2,955
1136,100;  298,338;    0,364;    2,136
1136,636;  194,247;   -1,273;   -1,045
1137,172;  276,247;    0,000;   -1,045
1137,708;  219,702;   -1,364;   -1,045
1138,245;  222,157;    1,273;   -1,227
1138,781;  174,884;    1,091;   -3,318
1139,317;  238,429;    1,273;   -1,409
1139,852;  236,338;    3,091;    0,136
1140,388;  341,702;   -1,182;   -0,409
1140,924;  242,702;   -1,091;   -2,227
1141,460;  178,611;   -1,636;    0,136
1141,996;  115,884;   -1,364;    2,682
1142,531;  162,702;    1,364;    3,318
1143,067;  362,702;    1,182;    1,045
1143,602;  418,520;   -0,091;   -0,318
1144,138;  273,611;   -2,636;    1,045
1144,673;  151,429;   -1,455;    1,409
1145,209;  210,247;   -1,909;   -0,318
1145,744;  133,066;   -0,727;    0,864
1146,279;  265,247;    1,818;   -0,136
1146,815;  193,884;    1,545;   -2,682
1147,350;  230,429;   -1,364;    0,045
1147,885;  149,520;   -0,818;   -1,318
1148,420;  146,793;   -2,273;    0,773
1148,955;  135,884;   -1,727;    1,864
1149,490;  152,247;   -0,909;   -1,591
1150,025;  136,611;    0,455;   -1,773
1150,560;  237,338;    1,091;   -0,955
1151,094;  216,975;    1,455;   -0,591
1151,629;  218,975;    1,636;    0,864
1152,164;  149,338;    1,364;    1,318
1152,698;  105,247;   -0,182;   -0,136
1153,233;   68,338;    0,091;   -0,682
1153,767;  123,884;   -3,000;   -2,318
1154,302;  167,975;   -1,455;    1,773
1154,836;  156,429;   -0,455;   -2,136
1155,371;  213,157;   -1,364;    3,682
1155,905;  169,429;   -0,636;    1,682
1156,439;  147,520;   -0,636;   -0,500
1156,973;  171,702;    0,364;    0,318
1157,507;  107,338;   -0,364;    0,682
1158,042;  134,429;   -0,727;    1,045
1158,576;  179,338;    0,182;    1,773
1159,110;  165,429;   -0,818;    2,409
1159,643;  134,429;    0,636;   -0,045
1160,177;   82,884;   -1,545;    1,500

