
Integration time [ms]:   0,040
Averaging Nr. [scans]: 11
Smoothing Nr. [pixels]: 0
Data measured with spectrometer [name]: 7318044SP
Wave   ;Sample   ;Dark     ;Reference
[nm]   ;[counts] ;[counts] ;[counts] 

186,757;   27,108;   31,551;    1,318
187,357;   54,401;   22,551;    0,955
187,958;   27,103;   15,460;   -1,591
188,558;   68,973;    8,915;   -1,227
189,159;   41,331;    6,733;   -4,500
189,759;   16,877;    7,278;   -3,591
190,360;   22,137;    2,824;   -2,136
190,960;   52,375;    2,915;   -4,136
191,560;   64,789;    3,189;   -6,591
192,161;  291,601;    4,372;   -3,500
192,761;  146,654;    4,010;   -3,227
193,361;  100,304;    1,556;   -3,773
193,962;  159,562;    2,010;   -2,682
194,562;   78,211;    1,189;   -3,955
195,162;  103,502;   -2,448;   -2,227
195,762;  254,322;   -3,176;   -0,045
196,362;  207,494;    1,370;   -2,500
196,963;   81,754;    2,006;   -0,864
197,563;  154,586;    1,551;   -0,955
198,163;  101,060;    0,096;   -0,682
198,763;  117,572;    1,733;   -0,500
199,363;  219,570;    3,096;   -0,500
199,963;  178,183;    0,369;    0,409
200,563;  156,900;    2,823;   -1,409
201,163;  140,729;    3,277;   -0,227
201,763;  223,482;    3,732;    0,318
202,363;  160,067;    1,459;    1,500
202,963;  259,463;    1,459;    1,045
203,563;  371,199;    0,277;    0,500
204,162;  224,923;    2,096;   -1,864
204,762;  219,459;    0,550;    0,591
205,362;  183,381;    3,004;    1,955
205,962;  278,388;    3,096;    1,955
206,562;  280,342;    1,823;    2,318
207,161;  235,905;   -0,087;    0,318
207,761;  405,910;    1,277;    2,409
208,361;  280,512;   -0,268;    1,409
208,960;  373,959;    0,459;    1,500
209,560;  434,025;    1,277;    1,591
210,160;  415,263;    0,550;    1,864
210,759;  372,338;    4,186;    1,227
211,359;  380,127;    1,459;    1,045
211,958;  639,647;    1,277;    2,045
212,558;  717,242;    1,732;    1,864
213,157;  558,846;    1,822;    1,500
213,757;  991,623;    3,822;   -0,227
214,356;  689,112;    1,277;   -0,409
214,956; 1007,406;    3,095;    0,409
215,555;  639,687;    2,095;    2,136
216,154;  576,801;   -2,723;   -0,591
216,754;  576,211;    0,277;    0,773
217,353;  705,136;   -0,268;   -1,045
217,952;  552,990;   -0,178;    0,318
218,552;  791,239;    1,368;   -0,773
219,151;  678,434;    0,277;    0,955
219,750;  668,033;    0,004;   -0,227
220,349;  744,554;   -0,451;    1,045
220,948;  849,952;   -1,360;    1,136
221,548;  817,380;    0,913;    1,227
222,147;  930,883;   -0,087;   -0,409
222,746; 1223,841;   -0,451;   -0,955
223,345; 1071,178;    0,731;    0,500
223,944; 1074,965;   -0,451;    0,773
224,543; 1212,452;    1,004;   -1,409
225,142; 1329,232;    0,094;    0,136
225,741; 1236,688;   -0,814;    1,045
226,340; 1240,956;   -0,451;   -0,955
226,939; 1668,203;   -0,996;   -0,136
227,538; 1538,508;   -0,360;   -0,773
228,137; 1721,278;   -0,814;    0,864
228,735; 1784,665;   -0,541;    1,227
229,334; 1559,893;   -0,905;   -0,227
229,933; 1923,982;    0,459;    0,591
230,532; 2026,810;    1,186;   -0,409
231,131; 2078,565;    1,732;    0,318
231,729; 2145,645;   -2,450;   -2,318
232,328; 2193,420;   -0,723;   -1,500
232,927; 2227,411;    1,004;   -0,500
233,525; 2321,084;    3,640;    0,045
234,124; 2491,969;    2,368;   -1,591
234,723; 2487,599;    0,913;   -1,045
235,321; 2582,838;    2,277;    0,136
235,920; 2777,258;    1,186;   -1,227
236,518; 3002,496;    3,459;    0,318
237,117; 3100,061;    0,004;   -0,227
237,715; 3233,211;    0,640;   -0,500
238,314; 3281,830;   -0,087;   -2,318
238,912; 3389,489;   -0,723;   -1,409
239,510; 3358,765;    0,459;   -1,227
240,109; 3530,985;    0,004;    3,773
240,707; 3526,118;   -0,996;    1,227
241,305; 3777,794;    0,550;    0,136
241,904; 3966,976;   -0,178;   -2,045
242,502; 3957,178;   -0,632;   -0,227
243,100; 3853,531;   -0,087;   -0,955
243,698; 4050,863;    0,732;    1,682
244,297; 4185,234;   -0,632;    0,682
244,895; 4046,066;   -0,269;   -2,318
245,493; 4335,355;    2,186;   -0,591
246,091; 4349,608;    1,368;   -1,318
246,689; 4292,177;    1,004;    0,591
247,287; 4395,087;    0,822;   -1,136
247,885; 4625,799;   -1,451;    1,227
248,483; 4705,542;    1,822;   -0,500
249,081; 4809,240;    0,185;    1,591
249,679; 4927,174;   -0,178;    1,682
250,277; 5141,236;   -1,723;    0,864
250,875; 5083,598;   -1,087;   -1,045
251,473; 5097,424;   -1,178;    0,500
252,071; 5267,179;    1,459;    1,045
252,669; 5390,511;   -1,814;    0,318
253,267; 5571,622;   -0,087;    0,773
253,864; 5488,996;   -0,360;    0,682
254,462; 5465,506;    1,640;    1,591
255,060; 5381,987;   -0,269;    1,318
255,658; 5618,511;    0,822;   -0,136
256,255; 6015,474;    0,186;   -2,045
256,853; 5880,526;   -0,269;    1,409
257,451; 5858,492;    0,822;    1,864
258,048; 6182,701;    1,822;    1,864
258,646; 5861,257;    1,731;   -1,045
259,243; 6015,799;   -0,087;    2,227
259,841; 6051,010;   -0,814;    0,318
260,438; 5944,389;   -0,087;    0,864
261,036; 6541,233;   -1,905;    1,409
261,633; 6454,464;   -0,087;    2,227
262,231; 6228,513;    2,731;   -0,045
262,828; 6310,124;   -0,905;    1,136
263,425; 6334,657;    0,913;   -0,591
264,023; 6587,169;    0,186;    0,045
264,620; 6165,849;   -0,360;   -0,318
265,217; 6485,306;   -2,087;    3,136
265,815; 6530,105;   -1,905;    2,136
266,412; 6378,986;    0,731;    0,136
267,009; 6399,152;   -1,451;    0,773
267,606; 6383,348;    0,822;   -0,955
268,203; 6306,707;   -0,269;   -0,591
268,801; 6526,193;    1,731;    0,591
269,398; 6786,387;   -0,360;    2,500
269,995; 6785,306;    0,277;    1,591
270,592; 6592,916;   -0,632;   -0,500
271,189; 6727,228;    0,186;    0,409
271,786; 6822,292;   -0,632;    1,227
272,383; 6742,822;   -1,087;    0,227
272,980; 6857,446;    0,277;    0,318
273,577; 7256,198;    0,004;    1,227
274,174; 6832,854;    0,822;    2,591
274,771; 6847,238;   -0,814;   -0,773
275,367; 7026,130;    2,277;    1,409
275,964; 6986,984;    0,731;   -0,500
276,561; 7036,259;    1,549;   -1,045
277,158; 7174,720;    0,095;   -1,773
277,755; 7345,967;    2,185;    0,409
278,351; 6790,462;   -0,451;   -1,500
278,948; 7079,695;   -0,815;    0,045
279,545; 7050,999;   -1,360;    2,318
280,141; 7645,586;   -1,723;   -2,045
280,738; 7490,831;   -0,451;   -0,136
281,334; 7624,478;   -1,633;    0,591
281,931; 7089,681;   -0,087;   -1,318
282,528; 7227,185;    0,822;   -0,500
283,124; 7837,415;   -1,087;   -0,500
283,721; 7710,411;   -0,451;    1,409
284,317; 7532,521;    0,185;    2,500
284,913; 8017,978;   -1,360;    0,591
285,510; 8226,887;    0,640;   -0,318
286,106; 8231,443;   -2,269;   -0,955
286,703; 7815,289;   -0,360;    1,955
287,299; 8000,738;   -1,451;   -0,591
287,895; 8196,599;    0,822;   -1,045
288,491; 8704,478;    0,186;    2,136
289,088; 8456,790;   -2,360;    2,409
289,684; 8503,511;   -1,723;    1,500
290,280; 8530,293;    0,368;    0,682
290,876; 8623,214;    1,822;    5,500
291,472; 8490,106;    1,276;    2,227
292,068; 8605,123;    1,367;    0,227
292,665; 8314,829;    2,095;    0,773
293,261; 8013,636;    0,276;    2,136
293,857; 8371,431;    2,913;    2,136
294,453; 8310,824;    3,550;    0,955
295,049; 8179,978;   -0,268;    1,955
295,644; 8238,299;    0,095;    0,136
296,240; 8161,584;   -0,905;   -0,136
296,836; 8201,374;   -0,995;    0,318
297,432; 8468,728;    1,096;   -0,500
298,028; 8526,136;    0,732;    0,773
298,624; 8833,576;    1,459;    1,864
299,220; 9004,128;    2,368;    0,591
299,815; 8678,710;    1,005;   -0,409
300,411; 8536,342;    0,914;    1,773
301,007; 8564,934;    1,368;    0,227
301,602; 8540,395;   -0,541;   -2,318
302,198; 8694,078;    0,732;   -0,773
302,794; 8973,267;    1,187;   -0,500
303,389; 9075,106;   -1,177;    1,045
303,985; 9131,740;    0,550;    1,409
304,580; 9123,109;    1,459;    1,591
305,176; 9078,774;   -3,086;    0,136
305,771; 9008,585;   -1,268;   -1,227
306,367; 8954,762;    4,095;    0,136
306,962; 9160,486;    0,641;    1,500
307,558; 8929,895;   -0,450;    0,136
308,153; 8842,296;    1,095;   -1,136
308,748; 9034,142;   -0,814;    1,682
309,344; 9046,785;   -0,632;   -1,318
309,939; 9181,200;   -1,905;   -1,318
310,534; 9385,856;   -0,086;   -1,682
311,130; 9258,436;    0,459;   -2,500
311,725; 9005,339;    1,004;   -0,500
312,320; 9345,144;    2,459;    0,045
312,915; 9204,105;    1,459;   -1,045
313,510; 9288,520;    1,550;   -0,500
314,105; 9688,931;    1,096;    1,409
314,700; 9124,743;   -3,086;   -1,045
315,295; 8817,654;   -0,904;    0,045
315,890; 8420,624;    1,277;    0,864
316,485; 8723,292;   -0,359;   -0,318
317,080; 8822,984;   -3,086;    1,591
317,675; 9300,666;    2,005;   -0,682
318,270; 8833,779;    5,550;    3,318
318,865; 8832,711;    3,278;    3,045
319,460; 8684,827;   -0,904;    0,591
320,055; 8876,627;   -0,541;   -1,227
320,650; 8585,540;   -1,995;   -0,591
321,244; 8641,055;   -0,177;   -1,409
321,839; 9473,855;   -1,541;   -0,227
322,434; 9346,689;   -1,086;   -1,591
323,029; 9052,956;    1,732;    1,591
323,623; 8920,869;    1,550;    0,773
324,218; 8750,666;    2,368;    1,409
324,812; 8637,698;    1,096;    1,591
325,407; 8486,282;   -0,814;    2,045
326,002; 8401,485;    0,277;   -0,409
326,596; 8692,723;    0,914;    1,318
327,191; 8854,148;    0,823;   -1,045
327,785; 8497,268;   -0,813;   -0,227
328,379; 8725,625;    1,368;    0,136
328,974; 8466,920;    0,914;   -3,955
329,568; 8721,879;    0,186;   -2,409
330,163; 8567,023;    2,096;    1,045
330,757; 8879,563;    2,459;    1,591
331,351; 8295,025;    0,459;    0,682
331,945; 8612,745;    0,914;    1,409
332,540; 8288,911;   -1,723;   -0,591
333,134; 8433,039;   -1,086;    0,773
333,728; 8615,070;    0,005;    0,318
334,322; 8913,331;   -1,177;   -0,864
334,916; 8244,576;    0,277;    0,955
335,510; 8597,731;   -0,450;   -0,136
336,105; 8815,784;   -1,086;    1,591
336,699; 8510,204;   -1,086;    0,591
337,293; 8490,055;   -1,723;    0,318
337,887; 8599,803;   -2,723;    1,955
338,481; 8662,321;    0,459;    0,591
339,074; 8827,327;   -0,359;    2,682
339,668; 8708,149;   -1,632;    1,227
340,262; 8977,129;    1,732;    3,227
340,856; 8518,955;    1,822;   -0,682
341,450; 7960,358;    1,004;    1,864
342,044; 8723,601;    1,459;    0,136
342,637; 8545,258;    0,913;   -2,136
343,231; 8431,537;   -2,360;    0,682
343,825; 8380,319;   -1,086;   -0,591
344,419; 8369,059;   -1,995;    0,500
345,012; 8249,747;    2,459;    4,045
345,606; 8243,956;    4,641;    1,591
346,199; 8080,193;   -1,813;   -0,227
346,793; 7717,561;    1,914;    2,045
347,386; 7874,426;   -0,813;   -1,136
347,980; 7841,410;   -0,268;   -0,045
348,573; 7717,491;    2,278;    0,409
349,167; 7469,436;    5,278;    4,773
349,760; 7781,230;    2,914;    2,682
350,354; 7715,629;   -0,813;    1,136
350,947; 7536,431;    1,096;    1,682
351,540; 7239,773;   -0,358;   -1,409
352,134; 7207,707;    1,096;    1,136
352,727; 7274,073;   -0,086;    1,136
353,320; 7087,612;    0,005;    0,591
353,913; 6927,312;   -1,995;    1,864
354,507; 7146,013;    0,823;   -1,227
355,100; 7169,972;    0,460;    0,864
355,693; 6580,386;    2,005;    2,409
356,286; 6598,094;    0,823;    2,773
356,879; 6890,001;   -0,722;    1,227
357,472; 6549,772;   -0,904;    1,500
358,065; 6765,397;   -0,722;    2,500
358,658; 6678,934;   -0,540;    2,318
359,251; 6370,069;   -1,631;   -0,591
359,844; 5967,741;   -1,904;   -1,136
360,437; 6185,084;   -2,995;    0,045
361,030; 6380,410;    1,369;   -0,682
361,623; 6019,339;    2,824;    0,318
362,215; 6097,309;   -0,086;    2,045
362,808; 5934,531;   -2,358;   -1,682
363,401; 6124,777;   -2,449;    0,136
363,994; 5938,239;   -0,631;   -1,500
364,586; 5847,215;    0,824;   -1,500
365,179; 6018,114;   -0,449;   -1,136
365,772; 5580,223;   -1,995;    2,045
366,364; 5833,720;    1,915;   -3,227
366,957; 6023,527;    2,279;   -0,045
367,549; 6015,468;    2,188;   -0,864
368,142; 5725,328;    1,825;   -1,500
368,734; 5912,888;    0,734;   -2,136
369,327; 5890,061;    1,643;   -0,500
369,919; 5789,722;   -1,538;    0,409
370,512; 5667,872;   -1,083;   -0,500
371,104; 5514,323;   -0,901;    1,591
371,696; 5651,103;    1,191;   -0,955
372,289; 5696,378;    0,373;    1,136
372,881; 5813,008;   -2,080;    1,318
373,473; 5727,192;   -2,170;    1,136
374,066; 5595,186;   -0,169;    0,500
374,658; 5475,720;    0,378;    1,136
375,250; 5751,178;    0,653;   -1,409
375,842; 5649,590;    0,473;   -0,045
376,434; 5524,031;   -0,435;   -0,409
377,026; 5992,548;    0,204;   -2,500
377,618; 5934,921;   -0,158;   -0,682
378,210; 5788,431;   -0,338;   -1,955
378,802; 5632,960;    0,754;   -0,591
379,394; 5659,967;    1,846;    0,682
379,986; 6117,699;    1,393;   -0,955
380,578; 6194,334;   -0,153;    0,773
381,170; 5675,443;   -0,972;    0,045
381,762; 5626,960;    0,755;    1,409
382,354; 5775,960;   -0,065;   -1,318
382,945; 5837,185;   -2,976;    0,318
383,537; 5962,918;   -2,705;   -1,955
384,129; 5979,660;   -2,160;   -1,136
384,721; 6157,390;   -0,252;    0,955
385,312; 6081,861;   -0,161;   -0,955
385,904; 6192,088;   -2,706;    1,591
386,496; 5602,341;   -0,979;    1,045
387,087; 5754,500;    1,022;    2,500
387,679; 5799,363;   -1,160;    0,045
388,270; 5922,993;    2,840;    2,045
388,862; 6002,277;    1,295;   -0,318
389,453; 5877,784;   -0,887;    1,045
390,045; 6119,944;   -0,705;   -2,682
390,636; 6056,373;    0,204;   -0,591
391,227; 5917,302;   -0,523;   -0,045
391,819; 6026,812;    0,204;    0,773
392,410; 6078,772;    1,022;    0,045
393,001; 6058,491;   -0,979;   -1,591
393,593; 6263,161;    1,930;   -0,045
394,184; 6126,535;    1,385;   -0,409
394,775; 6021,261;    1,839;    2,136
395,366; 6255,357;    1,385;    0,773
395,957; 6226,656;    0,113;    0,136
396,548; 6458,137;   -0,342;    2,682
397,139; 6733,985;   -2,433;    0,591
397,730; 6479,290;   -1,888;    0,955
398,321; 6540,363;   -1,252;    0,955
398,912; 6558,380;   -0,615;    0,136
399,503; 6669,904;   -3,524;   -1,409
400,094; 6184,096;    0,294;    1,682
400,685; 6073,116;   -0,433;    0,045
401,276; 6096,304;    0,930;   -0,955
401,867; 6351,403;   -0,888;    0,773
402,458; 6432,419;   -2,251;   -2,318
403,048; 6454,330;    1,112;    0,591
403,639; 6087,057;    0,840;    0,864
404,230; 6326,032;    2,476;    0,318
404,821; 6254,449;   -0,615;    0,045
405,411; 6371,413;    1,203;   -2,591
406,002; 6024,396;   -1,252;   -1,136
406,592; 5971,536;    2,294;    0,045
407,183; 6180,966;    0,566;   -1,500
407,774; 6089,067;    3,475;   -0,136
408,364; 6386,074;    0,930;    0,409
408,954; 6072,975;    0,384;    1,227
409,545; 6110,318;    1,021;    1,045
410,135; 5683,843;    1,293;    0,500
410,726; 5827,237;    1,838;    0,318
411,316; 6196,241;    0,111;    0,773
411,906; 5887,020;   -0,253;   -0,409
412,497; 5445,002;   -1,070;   -0,045
413,087; 5966,273;   -1,980;   -0,227
413,677; 6306,259;   -0,707;    3,864
414,267; 6166,149;    0,656;    1,409
414,857; 6149,826;   -2,980;    4,227
415,448; 6402,269;    0,839;    0,500
416,038; 6155,719;    0,020;   -0,591
416,628; 6125,511;   -0,889;    0,409
417,218; 5705,251;    0,565;    3,318
417,808; 5922,383;    0,202;   -0,409
418,398; 6259,655;    0,020;    2,682
418,988; 6252,515;    2,020;    0,591
419,578; 6455,459;   -0,707;    1,409
420,168; 6755,064;   -1,343;   -0,955
420,757; 6410,018;   -1,343;   -1,500
421,347; 6129,544;    0,111;   -0,227
421,937; 6285,728;    2,292;    1,409
422,527; 6257,877;    0,838;   -0,773
423,116; 6099,883;   -0,253;   -0,045
423,706; 6353,373;   -1,889;    0,318
424,296; 6308,966;    1,384;    0,682
424,885; 6696,238;   -0,071;   -3,045
425,475; 6931,795;    1,474;   -2,864
426,065; 6826,046;   -0,980;   -0,318
426,654; 6515,674;   -0,435;   -0,318
427,244; 6676,360;    0,020;    1,409
427,833; 6193,434;    1,383;   -0,500
428,423; 6575,183;   -0,526;    1,136
429,012; 7236,367;   -0,344;   -1,136
429,601; 6787,152;   -1,344;    0,136
430,191; 6985,057;    1,292;    4,318
430,780; 6632,204;   -0,344;   -0,409
431,369; 6623,037;    0,746;   -0,045
431,959; 7129,306;   -1,254;    0,500
432,548; 6928,258;   -1,163;   -0,045
433,137; 7029,522;   -1,254;   -1,318
433,726; 7539,279;    0,292;    0,500
434,315; 6956,590;   -0,526;    2,409
434,905; 7042,310;   -1,254;    1,409
435,494; 6956,348;    0,746;    0,955
436,083; 7337,775;   -0,981;   -0,955
436,672; 7237,221;    0,110;    0,500
437,261; 6903,591;    0,292;   -1,955
437,850; 7049,712;    1,383;    0,682
438,439; 7009,185;    3,291;    1,955
439,027; 6899,088;    3,655;    1,773
439,616; 7167,914;    2,927;    1,227
440,205; 7010,610;    0,200;   -2,136
440,794; 7044,160;    2,109;   -0,045
441,383; 7278,278;   -1,346;   -0,591
441,971; 7100,463;   -2,436;    0,591
442,560; 6964,740;    0,563;   -1,773
443,149; 6727,778;    0,379;   -1,318
443,737; 6895,342;   -0,074;   -2,318
444,326; 7144,397;    0,018;    0,318
444,915; 7157,991;   -1,982;    0,864
445,503; 7461,249;   -2,891;   -0,318
446,092; 6880,698;    0,382;    2,136
446,680; 7378,891;    0,382;    0,318
447,269; 7487,021;   -0,346;   -0,318
447,857; 7279,006;    0,018;   -1,773
448,445; 7373,228;    0,563;    1,318
449,034; 7570,027;   -1,528;   -1,136
449,622; 7667,913;   -1,073;    3,500
450,210; 7062,085;    2,017;    2,227
450,799; 7515,285;    0,290;   -0,591
451,387; 7467,392;    1,381;   -0,591
451,975; 7182,559;    2,654;    0,864
452,563; 7290,141;    3,472;    2,318
453,151; 7277,279;   -0,528;   -1,227
453,739; 7222,748;   -1,347;    0,136
454,328; 7121,122;    2,381;   -2,136
454,916; 6878,314;    2,562;   -0,136
455,504; 7026,598;    1,017;    1,227
456,092; 7160,926;    0,017;   -1,591
456,679; 7113,105;    1,472;    0,682
457,267; 7167,272;    4,017;    1,045
457,855; 7257,877;    1,017;    1,409
458,443; 6984,768;   -0,165;    1,682
459,031; 7156,484;    0,108;    2,409
459,619; 7527,767;   -1,801;    2,864
460,206; 7592,942;    0,835;    2,045
460,794; 7670,363;   -2,983;   -0,227
461,382; 7856,863;   -0,529;   -0,864
461,970; 7521,818;    1,198;    1,864
462,557; 7548,433;   -0,711;   -0,682
463,145; 7711,123;   -3,165;   -1,682
463,732; 7834,462;    2,016;   -1,045
464,320; 7757,376;   -0,075;   -3,045
464,907; 7493,747;    2,743;   -0,773
465,495; 7364,325;    0,743;   -1,227
466,082; 7495,833;   -1,984;   -0,045
466,670; 7364,830;   -2,529;    1,227
467,257; 7759,322;   -1,711;    2,045
467,844; 7914,770;   -0,075;    0,045
468,432; 7958,607;    0,834;    3,500
469,019; 7529,928;    0,925;   -1,773
469,606; 7915,372;    0,470;    3,682
470,193; 7784,595;   -1,439;    0,227
470,780; 7440,435;   -2,075;    0,864
471,368; 7719,399;   -1,257;   -0,773
471,955; 7557,610;    1,379;   -0,682
472,542; 7215,931;    0,652;   -1,136
473,129; 7417,901;   -0,166;    0,136
473,716; 7164,588;    1,470;    0,591
474,303; 7348,996;    0,652;   -0,864
474,890; 7613,188;   -1,439;   -0,500
475,477; 7652,769;   -1,621;    0,409
476,064; 7520,452;    1,106;   -1,591
476,650; 7479,699;    0,288;    0,318
477,237; 7300,790;   -0,258;    0,955
477,824; 7477,853;   -1,076;    0,864
478,411; 7448,674;   -1,894;   -0,318
478,997; 7628,952;    0,560;   -0,773
479,584; 7699,317;    1,196;   -0,409
480,171; 8279,507;   -0,440;   -0,773
480,757; 7993,078;    2,651;    0,773
481,344; 8233,074;    0,469;    0,409
481,931; 7759,878;    1,105;    1,045
482,517; 8664,767;   -1,258;    0,318
483,104; 9100,112;    1,106;    2,864
483,690; 9282,769;   -1,804;    0,045
484,276; 9518,366;   -0,895;    0,227
484,863; 9271,035;    2,469;    1,136
485,449; 9765,580;   -0,077;    0,318
486,035; 9751,963;   -1,986;   -0,136
486,622;10130,638;   -0,895;    0,045
487,208;10054,559;    1,378;    1,500
487,794; 9920,590;    0,741;    0,318
488,380;10060,403;    0,105;   -1,409
488,967;10111,760;   -1,168;   -0,409
489,553;10167,976;   -1,895;   -1,409
490,139;10332,997;    1,559;    0,773
490,725; 9828,880;    0,741;   -0,227
491,311; 9477,339;    3,287;    3,045
491,897; 8900,359;   -0,986;    1,500
492,483; 8809,739;    0,105;    1,227
493,069; 8779,697;    3,923;    0,864
493,655; 8706,910;    1,650;    0,682
494,241; 8612,369;    1,377;   -0,955
494,826; 8935,727;    0,287;   -1,045
495,412; 8480,022;    2,559;   -0,682
495,998; 8629,188;   -0,805;   -0,318
496,584; 8709,789;    0,377;    1,045
497,169; 8644,417;    1,014;   -0,682
497,755; 8618,095;    0,650;    1,227
498,341; 9143,804;    0,559;    0,318
498,926; 8757,951;    1,832;    1,955
499,512; 8880,574;    1,286;    2,955
500,097; 8951,099;    0,195;   -0,318
500,683; 8911,745;   -0,350;    2,136
501,268; 9254,357;   -0,169;   -0,955
501,854; 8984,598;   -0,169;    1,227
502,439; 8912,940;   -0,624;   -1,773
503,024; 9098,297;    0,195;    0,500
503,610; 9100,026;   -0,078;   -0,682
504,195; 9072,790;    0,558;    1,955
504,780; 9240,626;    2,922;    1,227
505,366; 9097,858;    3,013;    2,864
505,951; 8895,149;    0,740;    1,045
506,536; 8890,585;   -3,260;   -3,682
507,121; 8855,890;    0,285;   -0,318
507,706; 9276,001;    2,376;    1,045
508,291; 9612,489;    2,649;    1,136
508,876; 9132,403;   -0,988;    2,591
509,461; 8657,805;   -0,169;   -0,773
510,046; 9039,376;    0,194;    0,318
510,631; 9251,047;   -0,351;   -0,773
511,216; 8948,424;    2,467;   -0,500
511,801; 9299,856;   -0,442;    2,591
512,386; 9512,746;    0,740;    0,500
512,971; 9450,271;   -2,988;    0,955
513,555; 9090,967;   -0,897;   -1,500
514,140; 9778,371;   -0,442;   -3,136
514,725; 9729,779;   -0,715;   -1,136
515,309; 9832,920;   -0,533;    0,318
515,894; 9391,102;   -0,624;   -2,227
516,479; 9769,413;   -0,624;   -0,955
517,063; 9569,624;    0,376;    1,227
517,648; 9701,349;    1,012;   -1,136
518,232; 9372,493;   -0,261;   -1,409
518,817; 9690,969;   -0,079;    1,682
519,401; 9899,633;    2,194;    0,591
519,985; 9397,185;    1,103;    1,136
520,570; 9310,966;    0,830;   -1,955
521,154; 9570,433;    2,102;    0,591
521,738; 9737,049;   -2,352;    2,409
522,323;10262,665;   -0,170;    1,682
522,907; 9971,097;    0,466;   -0,136
523,491; 9717,935;    0,557;    0,955
524,075; 9713,866;    2,284;    0,591
524,659; 9800,924;    1,466;    0,591
525,243; 9378,398;    1,739;    0,409
525,827; 9577,093;    0,648;   -0,045
526,411;10258,833;   -1,989;   -0,136
526,995;10442,394;   -0,352;    1,409
527,579;10092,071;   -0,443;   -1,045
528,163;10364,263;    0,375;   -1,500
528,747;10301,562;    2,466;   -0,773
529,331;10522,429;   -0,080;   -1,409
529,915;10700,784;    1,738;    0,955
530,499;10642,398;   -0,807;    1,227
531,082;10376,845;   -0,534;    1,591
531,666; 9927,584;    1,374;    0,773
532,250;10489,947;    1,284;    2,682
532,833;10721,134;    0,920;    2,773
533,417;10613,837;   -1,807;    0,864
534,001;10558,231;    1,647;   -0,318
534,584;11153,306;    0,374;    0,500
535,168;11021,444;    0,465;    1,409
535,751;11085,129;    0,647;    0,045
536,334;10541,827;   -0,898;   -0,409
536,918;11082,374;    0,011;    1,591
537,501;11112,500;   -0,899;    1,318
538,085;11110,608;   -0,444;    1,045
538,668;11229,903;    0,829;    2,409
539,251;11540,106;    1,829;    3,773
539,834;11535,836;    0,101;    0,773
540,418;11487,110;   -1,990;    4,318
541,001;11544,912;   -0,990;    1,773
541,584;11516,604;    2,101;    2,227
542,167;11239,403;    1,374;    2,955
542,750;11324,123;    1,919;   -0,773
543,333;10970,689;    0,555;    2,136
543,916;11644,410;    0,192;    2,500
544,499;12098,062;   -1,354;    0,227
545,082;12149,060;    1,374;    3,591
545,665;12216,361;    1,919;    1,500
546,248;12494,144;    1,010;   -0,318
546,830;12211,421;   -0,445;    1,955
547,413;12580,222;    1,010;   -0,773
547,996;13010,894;    0,555;    0,500
548,579;12805,654;    0,919;    0,955
549,161;12639,380;    1,828;    2,682
549,744;12411,503;   -0,809;    0,409
550,326;12845,093;   -0,809;   -1,136
550,909;12682,287;    2,737;    0,591
551,492;13028,870;   -0,263;    0,227
552,074;12839,667;   -0,173;   -1,318
552,657;13308,258;    2,373;    0,045
553,239;13113,777;   -0,173;   -0,773
553,821;13040,337;   -1,082;    1,045
554,404;12591,713;    1,282;    1,136
554,986;12893,341;    0,464;    1,045
555,568;13410,587;    1,191;   -0,955
556,151;12737,608;    1,191;   -0,227
556,733;12885,549;   -0,264;   -0,864
557,315;13275,161;    0,100;    0,500
557,897;13063,505;    0,554;   -0,500
558,479;13167,299;   -1,991;    1,318
559,061;13320,595;   -0,719;   -0,864
559,643;13623,265;   -0,264;    0,045
560,225;13890,676;    1,645;    2,864
560,807;13880,992;    0,918;    0,318
561,389;13448,919;    0,554;    2,318
561,971;14078,482;    0,463;    2,136
562,553;13914,230;   -1,628;    1,591
563,135;13997,778;   -0,537;    1,136
563,717;13624,597;    3,372;    1,136
564,298;14222,294;    3,645;   -0,045
564,880;13965,898;    0,645;   -1,409
565,462;14093,353;    0,645;    1,318
566,043;15069,422;   -0,446;    2,318
566,625;14642,355;    1,918;    1,227
567,207;14464,751;    1,099;    1,682
567,788;15332,451;   -1,264;    1,500
568,370;16068,115;    1,917;   -0,500
568,951;15820,083;    0,190;    0,227
569,533;16507,422;   -0,628;   -0,500
570,114;16916,506;   -0,446;    0,682
570,695;17295,773;   -0,174;   -1,318
571,277;17557,218;   -0,265;   -1,682
571,858;18181,839;    2,008;   -1,136
572,439;18874,122;    1,554;   -1,045
573,021;18941,264;    2,099;   -2,773
573,602;19333,842;   -1,265;    0,318
574,183;20066,241;   -2,083;    2,227
574,764;20078,653;   -1,629;    0,409
575,345;20494,213;    0,917;   -0,136
575,926;20911,618;   -0,356;    0,136
576,507;20892,229;    1,099;   -0,227
577,088;21859,933;    3,099;    1,682
577,669;21852,919;    0,735;    1,955
578,250;22502,514;    0,644;   -1,045
578,831;22893,239;   -1,356;   -2,227
579,412;23032,032;   -0,810;    0,955
579,993;23887,212;    1,008;    0,227
580,573;24179,483;   -0,629;   -0,955
581,154;23193,646;    0,735;   -0,591
581,735;23966,920;    0,644;    0,773
582,315;23476,830;   -0,629;    2,136
582,896;23674,925;   -0,174;    1,227
583,477;23244,089;    0,189;    1,227
584,057;23437,644;    0,553;    0,955
584,638;23696,212;    2,553;    2,318
585,218;23706,509;   -0,538;    2,682
585,799;23838,719;    0,281;   -0,227
586,379;23832,024;    0,372;    1,591
586,959;22839,741;    0,735;    0,318
587,540;22305,696;   -0,629;    2,227
588,120;21984,516;    1,007;   -0,045
588,700;21213,442;    2,553;    2,136
589,281;21499,257;    0,462;   -0,955
589,861;21414,047;    0,099;   -1,682
590,441;21261,210;    2,371;   -2,682
591,021;20363,508;   -0,265;   -2,591
591,601;20633,029;   -0,537;    0,500
592,181;20715,600;   -0,719;   -0,773
592,761;20067,369;    0,007;    1,409
593,341;20045,378;   -0,901;    0,045
593,921;20050,002;   -0,265;    1,591
594,501;19978,945;   -0,538;    1,318
595,081;19836,071;    0,917;   -0,318
595,661;20167,791;   -1,447;    0,955
596,240;20565,688;   -0,537;    0,136
596,820;20218,975;    0,372;    1,955
597,400;20319,702;    2,008;    0,773
597,980;20513,989;    2,008;    1,045
598,559;20503,136;    2,735;   -0,227
599,139;20301,631;   -0,174;   -1,227
599,718;20202,540;   -0,174;   -0,409
600,298;20472,158;    0,735;    0,682
600,877;20743,737;    2,917;    1,409
601,457;20916,842;    2,281;    1,136
602,036;20848,144;    0,190;    2,045
602,616;20974,740;    0,644;    1,682
603,195;21280,956;   -0,355;    3,500
603,774;20856,066;   -0,901;    2,045
604,354;20730,178;    0,826;   -0,500
604,933;20317,282;    0,463;    1,864
605,512;20439,722;    3,554;    0,591
606,091;20531,553;   -0,537;    3,773
606,671;21219,251;    0,281;    0,773
607,250;20504,204;    1,644;    3,136
607,829;20666,653;    2,372;    3,227
608,408;20541,396;    1,190;    2,591
608,987;19684,851;    1,281;    3,409
609,566;19914,676;   -1,265;   -2,500
610,145;20091,280;   -1,082;    0,682
610,723;20503,481;    4,372;    6,864
611,302;19801,425;   -0,446;    1,682
611,881;19330,783;    5,008;   11,227
612,460;20094,781;    1,645;    3,955
613,039;20438,364;   -0,082;    2,045
613,617;19346,763;    1,736;    4,773
614,196;19475,076;    1,099;    1,227
614,775;19808,843;    1,009;    2,409
615,353;19750,624;    0,736;    0,864
615,932;19565,259;    0,100;    2,409
616,510;20100,412;    0,554;    0,591
617,089;19724,166;    7,100;   17,591
617,667;19533,599;    2,372;    6,136
618,246;19390,176;   -1,537;    1,318
618,824;19552,968;   -3,355;   -0,955
619,402;19139,945;   -2,900;   -1,773
619,981;19580,250;   -0,173;   -1,045
620,559;19439,166;    0,009;    1,682
621,137;18995,639;   -0,718;    1,864
621,715;19008,204;   -1,173;   -0,682
622,293;18964,458;   -0,537;   -0,773
622,871;19431,798;   -0,718;    0,500
623,450;19057,519;    0,373;   -0,864
624,028;18964,485;    0,191;   -0,955
624,606;18623,857;   -1,718;    1,682
625,183;18979,254;   -1,536;   -1,136
625,761;18670,550;    1,009;    1,136
626,339;18964,808;    1,373;    2,591
626,917;19269,407;   -0,172;   -0,045
627,495;19313,722;   -0,354;    1,318
628,073;18794,733;   -0,263;    2,864
628,650;18516,511;    0,100;    2,136
629,228;18926,272;    0,373;    4,409
629,806;18381,918;    2,282;    1,136
630,383;18579,931;    1,464;   -0,318
630,961;18486,305;    2,555;   -0,955
631,539;18264,774;    2,464;    0,227
632,116;17770,486;   11,373;   15,409
632,694;18217,157;    2,555;    6,500
633,271;18429,567;    0,828;    2,682
633,848;18416,875;    1,828;    2,045
634,426;18395,416;   -1,081;    1,773
635,003;17654,875;    1,101;   -0,409
635,580;17940,060;    1,192;    3,682
636,158;18404,289;    3,737;    1,227
636,735;18395,953;    0,555;   -0,500
637,312;18499,917;   -0,809;   -0,682
637,889;18578,602;   -4,354;   -0,682
638,466;18126,746;   -3,990;   -0,409
639,043;18154,449;    2,101;   -1,136
639,620;18399,360;   -2,262;   -0,955
640,197;18658,814;    1,100;    1,682
640,774;18786,528;   -0,172;    1,136
641,351;19127,424;    0,737;    1,136
641,928;18667,228;   -0,627;    1,409
642,505;18325,761;    0,828;   -0,500
643,082;18453,747;   -1,718;    1,227
643,658;17619,734;   -0,718;    1,500
644,235;18217,811;    1,191;    2,500
644,812;18484,980;    1,918;    0,773
645,388;18279,784;   -0,991;    1,409
645,965;18378,044;   -0,809;    1,682
646,542;18393,667;   -1,445;   -0,227
647,118;18458,926;    1,009;   -0,955
647,695;18703,822;   -0,263;    1,136
648,271;18596,899;   -0,536;    0,500
648,848;18807,340;    0,736;    2,227
649,424;18697,054;    0,827;    1,318
650,000;18447,586;   -0,354;   -1,045
650,577;18276,300;   -0,627;   -0,955
651,153;18655,650;   -1,809;    0,955
651,729;19475,001;    1,191;    0,864
652,305;19714,896;    0,645;    2,773
652,881;23285,156;   -0,082;    1,136
653,458;28443,051;    1,100;    0,227
654,034;31019,583;    0,282;    1,591
654,610;32023,024;    0,554;    0,773
655,186;33038,920;    0,645;    3,045
655,762;32687,361;   -0,991;    0,409
656,338;32697,257;    0,100;    0,136
656,913;33572,607;   -0,082;    0,409
657,489;32793,139;    0,827;   -0,318
658,065;32829,944;   -0,173;   -1,591
658,641;33513,567;   -0,900;   -0,864
659,217;32901,644;   -0,991;    0,409
659,792;32326,540;    0,645;   -0,409
660,368;32660,709;   -2,173;   -0,682
660,944;32469,877;   -2,082;    1,227
661,519;28755,591;   -0,628;    0,409
662,095;24259,577;   -1,719;    0,591
662,670;20944,564;    1,281;   -0,136
663,246;20215,732;    1,009;   -0,409
663,821;19705,719;    0,281;    1,682
664,396;19201,887;    0,009;    1,864
664,972;19416,056;    0,009;   -0,500
665,547;19768,133;    1,372;    0,136
666,122;19795,575;   -1,082;    0,318
666,698;19989,652;   -0,173;    0,318
667,273;19388,184;   -0,173;    0,136
667,848;20078,716;    2,372;    1,500
668,423;19859,794;    2,190;    2,318
668,998;20276,598;    2,827;   -0,682
669,573;20768,858;   -3,264;   -1,500
670,148;20643,299;   -1,446;   -0,682
670,723;20375,740;   -1,810;    0,318
671,298;20794,363;    2,372;    1,045
671,873;20842,531;   -0,082;   -0,136
672,448;20753,882;    0,645;    0,136
673,023;21037,777;   -1,992;   -0,227
673,597;21366,218;    0,827;    2,318
674,172;21177,569;   -0,355;    0,318
674,747;20723,828;    0,372;   -1,045
675,321;20508,451;   -0,628;    3,318
675,896;20129,256;    0,645;    1,045
676,471;21002,970;    2,645;    1,591
677,045;20739,229;   -1,264;    0,682
677,620;20769,125;    0,190;    1,136
678,194;21099,111;   -2,628;    1,136
678,769;20755,098;   -1,083;   -0,318
679,343;21045,084;   -0,628;    1,773
679,917;20894,525;   -1,446;    1,955
680,492;20917,330;    0,826;    3,227
681,066;20957,044;    3,372;    0,409
681,640;21014,940;    1,463;   -0,318
682,214;21743,290;    0,735;    0,500
682,788;21334,186;   -1,356;   -0,773
683,363;21253,263;   -1,810;    1,682
683,937;21015,341;   -1,719;   -0,318
684,511;21629,327;    0,463;   -0,591
685,085;21386,496;   -1,356;    0,318
685,659;21130,391;   -2,538;    0,864
686,232;21445,742;   -0,356;   -0,318
686,806;21134,637;   -0,901;    0,409
687,380;21687,624;   -0,174;    0,591
687,954;21905,974;   -1,174;    1,136
688,528;21603,052;   -0,719;    1,955
689,101;22294,220;   -3,992;    1,045
689,675;21900,298;   -0,356;   -0,136
690,249;21292,466;   -0,719;    0,409
690,822;21659,907;    0,280;    0,318
691,396;21765,439;   -0,265;    1,227
691,969;21278,517;    1,280;    0,136
692,543;21678,140;   -0,447;   -1,955
693,116;21350,035;   -0,265;   -1,409
693,690;21259,749;    0,099;    0,500
694,263;21794,099;   -1,083;    2,955
694,836;21787,450;    1,371;    3,591
695,410;20612,709;   -0,265;    1,773
695,983;21005,514;    0,189;    0,591
696,556;20973,773;   -0,447;   -1,045
697,129;21304,305;   -0,356;    1,409
697,703;21002,474;   -1,629;    1,955
698,276;21048,006;    1,462;   -0,773
698,849;20884,719;    1,280;    1,409
699,422;21205,888;   -1,083;    0,591
699,995;20956,238;    0,007;    0,136
700,568;21426,225;   -0,629;    3,045
701,140;21396,484;   -2,811;    1,682
701,713;21204,289;   -0,174;    2,409
702,286;20999,821;   -0,538;    0,864
702,859;20820,989;   -0,902;   -0,591
703,432;20156,521;    0,825;    0,682
704,004;20554,690;    0,462;    0,318
704,577;20381,494;   -0,629;    0,136
705,150;20897,299;    0,189;    2,500
705,722;20735,195;   -0,356;   -3,227
706,295;20546,818;   -0,175;   -0,591
706,867;20397,441;   -0,175;    1,955
707,440;20626,246;   -1,720;   -0,409
708,012;20914,869;    0,462;    0,591
708,584;20781,219;    2,462;    0,227
709,157;21028,933;    1,825;   -0,591
709,729;20742,737;    2,280;    2,045
710,301;21465,088;    0,734;    0,045
710,874;21478,892;   -1,447;   -0,227
711,446;20426,788;    0,371;    0,864
712,018;20327,957;    0,098;    0,500
712,590;20115,034;   -1,993;    1,682
713,162;20603,112;    0,825;    1,318
713,734;20865,371;    1,825;   -2,045
714,306;20763,357;   -1,902;   -0,409
714,878;19606,526;    0,825;    0,864
715,450;20364,785;    0,643;    0,864
716,022;20550,772;    1,552;    1,318
716,593;20722,304;    0,189;    0,591
717,165;20684,654;   -3,175;   -1,227
717,737;20487,641;    0,280;    0,409
718,309;20160,718;    0,280;   -0,045
718,880;20138,887;   -0,539;   -1,409
719,452;20325,873;   -0,175;   -1,591
720,024;19987,405;    0,734;   -0,591
720,595;20464,755;   -2,902;    0,955
721,167;20072,651;    0,370;   -2,045
721,738;19707,910;   -0,812;   -1,045
722,309;19715,352;   -0,993;   -1,227
722,881;19457,429;   -1,357;    0,773
723,452;20030,325;   -2,630;    2,864
724,023;20233,948;   -0,721;    2,682
724,595;20036,480;    0,007;    0,682
725,166;19761,194;    0,007;   -0,409
725,737;19477,998;    1,734;    0,227
726,308;19531,530;   -0,266;    0,318
726,879;19957,881;   -1,630;    1,227
727,450;19834,140;    0,552;   -0,045
728,021;19790,672;    3,097;    0,682
728,592;19623,840;    0,734;    0,500
729,163;19895,554;    0,643;   -0,136
729,734;19866,905;    0,188;   -0,227
730,305;20171,800;    1,734;    0,136
730,876;20473,696;    0,188;    2,955
731,447;20257,864;    2,188;    2,682
732,017;20316,760;    1,097;    1,864
732,588;19906,928;    0,734;    1,227
733,159;20059,097;    0,643;   -1,045
733,729;19834,174;    0,006;    0,409
734,300;19253,161;    0,915;    0,864
734,870;19648,238;    3,461;    0,591
735,441;20149,589;    0,370;   -0,591
736,011;19931,393;    0,643;   -1,591
736,582;19869,016;   -0,812;    0,045
737,152;19336,276;   -1,721;   -2,045
737,722;19785,171;   -0,267;   -0,682
738,293;19506,976;   -1,358;    1,318
738,863;19426,326;    2,461;    2,318
739,433;19306,949;    5,279;    0,318
740,003;19908,936;   -0,994;   -0,682
740,573;19367,832;    2,097;   -1,591
741,143;19338,182;   -1,085;    0,318
741,713;19999,896;    1,188;   -0,500
742,283;19774,337;    0,915;    1,591
742,853;19576,051;    1,915;    1,591
743,423;19042,219;    1,733;    0,045
743,993;19156,569;   -0,358;    1,500
744,563;18655,829;    0,097;   -0,864
745,133;18648,906;   -0,812;   -0,864
745,702;19226,075;   -0,267;    1,773
746,272;18532,607;   -0,176;    0,591
746,842;18390,048;   -1,358;   -0,591
747,411;18803,125;   -0,267;   -0,318
747,981;18914,566;    0,097;    0,500
748,551;18946,462;    2,278;   -1,045
749,120;18789,812;    0,642;   -0,227
749,690;19144,163;   -0,631;    2,409
750,259;19395,422;    1,369;    2,955
750,828;19321,318;    1,551;   -1,955
751,398;19576,395;    1,278;   -0,045
751,967;19184,200;    2,187;    0,409
752,536;19291,914;   -0,813;   -0,227
753,105;19673,537;    0,096;    0,227
753,675;19440,160;    0,096;    1,773
754,244;19400,692;   -0,904;    3,591
754,813;19424,951;    0,551;    1,227
755,382;19049,847;    0,460;    0,955
755,951;19498,288;    1,551;    3,682
756,520;19183,911;   -0,085;    1,864
757,089;19635,988;    0,278;    0,500
757,658;19710,975;    1,733;    1,227
758,227;19753,871;    1,096;    0,318
758,795;19960,766;    1,187;    1,136
759,364;20181,026;   -0,086;   -0,591
759,933;19325,830;   -1,176;   -0,045
760,501;18978,726;    0,733;   -1,318
761,070;19368,167;   -2,813;   -1,409
761,639;19970,063;   -1,904;    1,318
762,207;19381,777;    1,551;   -0,955
762,776;19303,491;    0,369;    0,864
763,344;19305,386;   -0,995;    0,591
763,913;18373,464;   -0,722;    1,409
764,481;19129,814;    1,005;   -0,136
765,049;19010,801;   -1,358;    1,409
765,618;18920,151;   -0,086;    0,318
766,186;18998,319;    0,278;    0,136
766,754;19192,488;    0,005;    1,864
767,322;18320,565;   -1,995;    0,409
767,890;18278,279;   -0,722;   -1,773
768,459;18707,357;   -2,177;   -0,318
769,027;18870,161;    1,641;    3,409
769,595;17939,057;    3,278;    2,591
770,163;18323,589;    3,823;    2,955
770,730;18151,394;    0,732;   -0,136
771,298;18005,471;    0,187;   -1,409
771,866;18095,549;   -1,541;    4,955
772,434;18387,899;   -0,631;   -1,864
773,002;18556,340;    0,005;    0,682
773,569;18280,781;    0,914;    1,682
774,137;18118,768;   -0,268;   -0,045
774,705;18800,027;    0,278;   -0,136
775,272;18385,559;    0,641;    0,682
775,840;18221,182;   -0,177;    2,682
776,407;17765,714;    0,277;    1,955
776,975;17414,974;   -0,632;    0,318
777,542;18290,324;   -1,086;   -0,045
778,110;18198,674;   -1,268;   -0,045
778,677;17898,661;   -2,359;   -0,864
779,244;17653,284;    2,186;    1,045
779,812;17754,270;    1,823;    0,864
780,379;17646,984;    0,005;    1,136
780,946;17884,516;    1,005;   -0,773
781,513;18152,503;   -1,450;    0,318
782,080;17603,489;   -0,086;    2,864
782,647;18216,203;   -0,268;    3,045
783,214;17922,099;   -0,177;    3,864
783,781;17587,813;   -0,723;   -0,682
784,348;17490,618;   -0,632;    1,500
784,915;17813,786;   -3,177;    0,318
785,482;17631,045;    1,368;    2,591
786,049;18067,395;    0,186;   -0,591
786,615;18196,746;    0,277;   -0,955
787,182;17928,096;    0,186;   -0,682
787,749;17639,355;   -2,814;    1,409
788,315;17063,705;   -1,632;   -0,409
788,882;17331,419;    1,550;   -1,227
789,448;17944,860;    1,732;   -0,955
790,015;17961,938;    1,095;    3,227
790,581;17597,561;    1,459;    0,227
791,148;17481,548;    0,641;    1,045
791,714;17675,625;   -0,541;    3,136
792,280;17426,430;    0,186;    1,591
792,847;17098,507;    0,550;    2,500
793,413;17504,130;   -0,269;   -0,318
793,979;17123,662;    3,459;   -1,318
794,545;17244,285;    4,459;    2,682
795,111;16759,181;    2,186;    1,318
795,678;16910,531;    0,731;   -1,682
796,244;16610,245;    3,368;    0,136
796,810;17074,050;    1,731;    0,773
797,375;16842,218;    0,549;   -2,136
797,941;16849,750;   -0,541;    0,591
798,507;16942,373;   -0,451;   -0,955
799,073;16566,087;   -0,360;    0,591
799,639;16628,892;   -2,632;    3,136
800,205;16667,151;    0,095;    2,682
800,770;16263,683;    0,640;    1,773
801,336;16344,306;    1,368;   -0,955
801,901;16178,475;    4,549;    3,136
802,467;16661,189;   -0,542;    2,045
803,033;16041,811;   -0,087;    0,864
803,598;16247,889;    1,913;   -1,045
804,163;16297,512;    1,095;   -0,318
804,729;16270,317;   -0,178;    1,136
805,294;16550,940;    0,822;    2,227
805,859;16391,017;    0,731;   -0,409
806,425;16003,913;    1,186;    2,682
806,990;15648,899;    2,186;    4,318
807,555;16030,068;   -1,451;    2,591
808,120;16035,873;    0,822;   -0,409
808,685;16054,405;    0,185;   -2,500
809,250;15617,573;    0,004;   -0,500
809,815;15881,832;    1,913;    0,682
810,380;16310,910;   -0,269;    1,591
810,945;16802,078;   -1,087;    2,045
811,510;16084,792;    2,094;    1,591
812,075;15804,506;   -0,633;   -1,409
812,640;15892,856;    2,003;    1,409
813,204;15929,570;    0,822;   -0,227
813,769;16352,557;    2,094;   -0,045
814,334;15902,998;    0,458;    0,864
814,898;15968,894;    0,367;    0,591
815,463;15758,789;    1,276;   -0,773
816,027;15748,412;   -0,724;   -2,318
816,592;15849,490;    0,640;   -2,045
817,156;15479,567;    2,094;    1,136
817,721;15378,099;    4,276;    2,318
818,285;15378,449;    2,912;    1,500
818,849;15929,709;   -1,451;    1,682
819,414;15773,786;   -0,269;    2,955
819,978;15405,864;   -1,269;    1,773
820,542;15949,669;    2,003;    0,500
821,106;15752,292;   -0,815;    0,682
821,670;15851,551;   -0,815;    2,591
822,234;15606,901;   -0,270;    1,409
822,798;15109,342;    0,003;    0,500
823,362;15132,511;   -0,633;    4,227
823,926;14545,770;    0,094;    1,136
824,490;14718,120;   -0,997;   -0,682
825,054;15070,743;   -0,088;   -1,136
825,618;14814,548;   -1,542;   -1,500
826,181;14770,353;    0,458;   -1,318
826,745;14675,157;    1,367;   -1,045
827,309;15025,780;    1,185;    1,318
827,872;14516,494;    1,367;    0,955
828,436;15369,935;    1,185;   -0,773
828,999;15470,558;   -0,997;    1,227
829,563;14458,272;   -0,179;    1,136
830,126;14324,895;   -0,179;   -0,591
830,690;14367,064;   -1,997;    2,864
831,253;13893,141;   -0,543;    2,227
831,816;14046,764;   -1,906;    0,500
832,380;14026,842;    0,185;    0,864
832,943;14200,555;   -1,361;   -0,500
833,506;13742,906;    2,639;   -1,227
834,069;14445,892;    3,912;   -0,955
834,632;14523,606;    1,730;    1,318
835,195;14455,229;    1,003;    0,955
835,758;13746,943;   -0,997;    1,955
836,321;13634,748;    0,730;   -1,045
836,884;13722,643;   -0,725;   -0,955
837,447;13770,175;   -2,816;    1,773
838,010;14042,617;    0,366;    3,227
838,573;14278,876;   -1,179;    0,773
839,135;14243,317;   -1,361;   -0,955
839,698;13763,395;    1,275;    0,409
840,261;13351,018;    1,003;   -0,227
840,823;13168,277;   -0,543;    0,864
841,386;13438,536;   -0,452;   -2,409
841,948;13397,341;   -1,361;    1,773
842,511;13168,418;    0,912;    1,682
843,073;13289,405;    1,912;    0,227
843,636;13103,119;   -0,361;   -0,227
844,198;13070,196;    0,911;    0,591
844,760;13200,365;    1,093;    1,955
845,322;12867,897;    0,548;    1,136
845,885;13206,156;    0,730;    0,591
846,447;13618,143;   -1,998;    0,227
847,009;13338,675;    1,911;   -0,682
847,571;13532,571;    0,820;   -2,045
848,133;13613,284;   -1,089;   -1,864
848,695;13454,453;   -0,543;    1,409
849,257;13082,621;   -1,089;   -1,682
849,819;13258,699;   -0,998;   -0,409
850,381;13251,322;   -0,725;   -0,864
850,942;13533,308;    1,093;   -0,591
851,504;13502,840;    1,184;    0,227
852,066;13523,645;    1,275;   -1,591
852,628;13160,904;   -0,180;    1,955
853,189;12725,891;    1,638;    2,682
853,751;12882,514;   -0,907;    1,409
854,312;12677,682;   -0,453;   -1,682
854,874;13142,033;   -2,089;   -0,773
855,435;13573,565;   -0,907;   -1,682
855,997;13751,460;   -1,816;   -0,136
856,558;13094,901;    0,366;    1,773
857,119;13193,615;    0,820;    2,864
857,681;12927,602;    0,002;    0,318
858,242;12974,316;    1,911;   -2,136
858,803;13336,484;    0,456;   -0,773
859,364;13867,471;    0,184;   -4,773
859,925;13322,639;   -2,453;   -0,955
860,486;13229,353;   -0,453;   -0,955
861,047;12954,794;   -0,544;   -1,227
861,608;12799,054;   -1,089;   -0,773
862,169;12954,858;    0,638;   -0,045
862,730;12757,936;    0,456;    1,409
863,291;12979,013;   -0,635;   -0,500
863,852;13289,091;   -0,635;    1,955
864,412;12815,623;   -0,271;   -0,864
864,973;11652,337;   -0,089;    0,500
865,534;11540,232;   -1,726;    0,227
866,094;12807,219;    1,820;    0,227
866,655;12490,751;    1,274;    3,318
867,215;12748,101;    0,274;    0,136
867,776;12639,724;    0,547;   -0,136
868,336;12708,165;   -1,453;    0,136
868,897;12330,243;    2,638;    1,682
869,457;12108,957;    1,365;    0,318
870,017;12329,852;    0,547;   -1,227
870,578;12775,839;   -0,817;    0,773
871,138;12430,917;   -2,089;   -0,955
871,698;11998,449;   -0,817;   -1,318
872,258;11926,435;   -0,453;   -2,864
872,818;12304,331;    2,729;    0,045
873,378;12296,045;    0,638;    1,045
873,938;11859,668;    0,547;    0,500
874,498;12154,018;    0,274;   -1,955
875,058;12097,732;    2,183;    1,773
875,618;11945,082;    1,910;   -2,682
876,177;11903,069;    1,274;    0,136
876,737;11537,873;   -0,090;    1,955
877,297;11646,860;    0,183;    1,955
877,856;11663,937;   -0,362;    0,318
878,416;11621,742;    1,183;   -0,136
878,976;11796,638;   -1,817;    0,409
879,535;11983,625;    0,092;    3,136
880,095;11740,247;   -0,544;    0,045
880,654;11839,507;   -1,090;    1,318
881,213;11958,675;    2,456;    1,500
881,773;11585,662;    2,637;    2,682
882,332;11969,194;    3,365;    5,136
882,891;11811,362;    3,092;    2,136
883,451;12200,985;   -1,272;    1,682
884,010;11689,608;   -2,908;   -0,409
884,569;11786,322;   -0,999;   -0,045
885,128;11922,763;    2,819;   -1,864
885,687;11991,750;    4,455;    0,682
886,246;11754,555;    1,455;    2,136
886,805;11510,541;    2,455;    2,045
887,364;11703,164;   -0,999;   -0,500
887,922;11998,605;   -1,181;    0,045
888,481;11552,865;   -1,545;    0,591
889,040;11847,488;    1,183;    2,136
889,599;12387,292;    2,455;    1,409
890,157;12439,915;    1,455;    2,409
890,716;12053,084;   -0,090;    0,227
891,274;11920,070;    0,092;   -1,136
891,833;12298,057;    1,546;    0,864
892,391;12197,589;   -0,454;    0,500
892,950;12273,030;    1,819;   -0,773
893,508;12572,653;    0,455;   -0,409
894,067;11999,003;    0,637;    0,136
894,625;11899,081;   -0,636;   -1,500
895,183;12080,795;   -0,363;   -0,682
895,741;12069,599;    1,728;   -1,773
896,299;11871,495;   -0,545;   -2,409
896,858;12048,300;    0,819;   -1,591
897,416;12168,014;    2,728;   -1,318
897,974;11977,182;    1,819;    0,318
898,532;12159,714;    6,091;    2,682
899,089;12032,246;    2,091;   -0,682
899,647;12101,142;   -1,454;    1,318
900,205;11921,038;    1,182;    1,045
900,763;12042,115;   -0,454;    0,227
901,321;12098,374;    2,364;   -1,409
901,878;11573,725;   -1,000;   -0,773
902,436;11459,984;   -1,363;    1,318
902,994;11898,698;    4,728;    3,682
903,551;11414,230;    0,728;    0,409
904,109;11733,853;    0,182;   -1,409
904,666;11403,930;    2,455;    1,045
905,224;11285,462;    0,182;   -0,409
905,781;11058,540;    0,727;   -0,318
906,338;11114,526;   -1,363;    1,045
906,895;11082,786;    0,637;    2,045
907,453;11026,318;    1,727;    1,136
908,010;11051,577;   -0,909;    0,409
908,567;10765,473;    1,273;    0,591
909,124;10312,823;    0,364;   -1,500
909,681;10410,446;   -2,909;    0,682
910,238;10641,342;    0,636;   -1,318
910,795;10899,328;   -0,273;   -1,136
911,352;10544,419;   -2,909;   -2,682
911,909;10104,965;   -1,364;   -0,864
912,466;10572,692;   -3,182;    1,500
913,022;10128,146;   -1,636;    0,500
913,579;10464,965;   -0,909;    2,045
914,136;10273,146;    1,636;    0,955
914,692;10529,965;    0,091;   -1,227
915,249;10115,692;    1,455;    0,409
915,806;10343,783;    0,182;    1,955
916,362;10224,965;    1,909;    1,864
916,918; 9803,692;    2,000;    1,045
917,475; 9838,419;   -1,182;    0,955
918,031; 9896,056;    3,364;   -0,045
918,587; 9465,510;   -0,909;   -0,318
919,144; 9672,783;   -2,273;    0,227
919,700; 9924,601;    1,727;    0,773
920,256; 9560,965;    0,727;    0,045
920,812; 9275,146;   -0,727;   -1,045
921,368; 9333,874;   -1,727;   -1,045
921,924; 9013,328;    0,182;   -0,136
922,480; 8666,056;   -0,545;    1,227
923,036; 9199,874;    1,273;    1,955
923,592; 9187,601;    0,455;    0,318
924,148; 9135,601;    0,455;   -0,955
924,704; 8569,510;   -1,364;   -0,409
925,259; 8846,419;   -0,273;    0,591
925,815; 8643,874;    1,455;    0,500
926,371; 8222,692;    2,909;    1,409
926,926; 8172,056;    2,091;    0,591
927,482; 7922,056;   -1,364;    0,773
928,037; 7835,874;    0,909;    2,045
928,593; 8139,965;    1,636;    1,045
929,148; 7972,237;   -1,818;   -1,500
929,704; 7576,601;   -1,455;   -0,500
930,259; 7765,237;    0,091;   -0,136
930,814; 7068,783;   -0,818;    1,955
931,369; 6791,874;    1,091;   -0,773
931,925; 6726,146;   -0,091;    0,136
932,480; 6659,874;   -2,818;   -2,591
933,035; 6663,692;    0,545;   -0,318
933,590; 6471,419;    0,364;   -1,773
934,145; 6184,783;   -1,364;   -0,318
934,700; 6471,328;    0,455;   -0,591
935,255; 6341,783;   -0,091;    0,045
935,809; 5886,874;    3,182;    0,864
936,364; 5173,965;   -0,455;   -0,136
936,919; 5205,601;    0,455;   -1,773
937,474; 5136,146;    1,455;    0,136
938,028; 4954,328;   -1,636;    1,136
938,583; 4626,601;    1,818;    4,682
939,138; 4798,237;    2,091;    2,136
939,692; 4351,237;    1,636;   -1,136
940,247; 4164,237;   -0,727;   -1,045
940,801; 3897,056;   -0,636;    0,227
941,355; 3833,601;   -0,364;    2,591
941,910; 3533,510;   -0,273;   -2,136
942,464; 3624,510;   -0,818;   -0,318
943,018; 3558,601;    1,000;   -0,227
943,572; 3497,328;    2,545;   -0,682
944,126; 3080,783;    0,091;   -0,409
944,681; 2963,965;    3,091;    0,227
945,235; 2945,965;    1,000;   -0,591
945,789; 2893,510;    0,364;   -1,864
946,342; 3104,328;    0,455;   -0,591
946,896; 2870,692;   -2,273;    0,955
947,450; 2654,601;    1,545;   -0,227
948,004; 2902,692;    1,727;   -0,045
948,558; 2839,419;    0,273;   -0,864
949,111; 2770,783;   -0,273;   -0,318
949,665; 2907,965;    1,636;   -0,682
950,219; 2809,056;   -0,091;   -1,045
950,772; 2794,056;   -1,909;    1,864
951,326; 2739,510;    0,545;   -0,955
951,879; 2782,419;    0,727;   -2,318
952,433; 2851,601;    0,000;    2,227
952,986; 2668,056;    2,909;    0,682
953,539; 2634,419;   -0,273;    0,591
954,093; 2582,692;    0,545;   -1,318
954,646; 2732,874;    0,909;    1,318
955,199; 2547,965;    0,000;   -0,500
955,752; 2531,874;   -0,455;    1,773
956,305; 2441,783;   -0,091;    2,955
956,858; 2584,237;    0,818;   -0,318
957,411; 2749,056;   -0,545;    2,136
957,964; 2571,510;    1,364;    2,136
958,517; 2543,601;   -1,545;    3,136
959,070; 2405,874;   -0,455;    1,955
959,623; 2595,056;    1,091;    1,500
960,176; 2397,601;    1,727;    2,045
960,728; 2385,601;   -2,727;    0,773
961,281; 2407,328;    0,545;    0,500
961,834; 2435,146;   -0,909;    0,864
962,386; 2362,874;    1,727;    1,045
962,939; 2278,783;    0,364;   -0,318
963,491; 2392,783;    0,455;    1,136
964,043; 2275,056;    1,182;    2,409
964,596; 2438,146;   -1,000;    2,227
965,148; 2301,328;   -1,000;    1,773
965,700; 2207,510;    1,091;   -0,227
966,253; 2365,419;   -0,636;    0,318
966,805; 2245,237;   -2,273;    0,773
967,357; 2242,328;    1,091;   -1,500
967,909; 2267,692;    0,455;   -1,227
968,461; 2285,056;    0,545;    3,136
969,013; 2230,601;   -0,182;   -0,864
969,565; 2327,510;   -0,455;   -1,136
970,117; 2533,328;   -0,364;    1,045
970,669; 2266,692;    0,182;   -0,136
971,220; 2084,965;   -0,455;   -1,500
971,772; 2075,328;   -0,636;   -0,318
972,324; 2204,783;    0,091;   -0,500
972,876; 2131,510;    0,818;   -0,045
973,427; 2278,601;    1,909;   -1,045
973,979; 2262,874;   -0,727;   -2,500
974,530; 2209,783;    1,818;    1,318
975,082; 2230,692;   -0,545;    1,682
975,633; 2160,328;    1,091;    1,682
976,184; 2296,237;    0,909;    0,773
976,736; 2131,965;    0,091;    0,227
977,287; 2007,237;   -0,909;   -0,500
977,838; 2139,601;    0,909;   -0,318
978,389; 2185,419;   -1,000;   -0,500
978,940; 2027,692;    0,545;   -0,409
979,491; 2044,510;    0,091;   -0,500
980,042; 2051,056;    0,182;    3,045
980,593; 2074,056;   -2,545;    0,227
981,144; 2171,965;    2,545;   -0,500
981,695; 2191,419;    1,455;    1,500
982,246; 2133,056;   -0,273;    1,045
982,797; 2175,146;   -1,727;    0,682
983,347; 2310,146;    0,364;    0,591
983,898; 2501,328;    3,091;    0,409
984,449; 2365,601;    2,182;    0,773
984,999; 2184,783;    1,455;   -1,136
985,550; 2049,237;    0,182;   -0,318
986,100; 2021,783;   -0,455;   -0,318
986,651; 2030,692;   -0,818;    0,045
987,201; 2040,419;   -1,000;   -0,591
987,751; 2119,510;    0,818;    2,864
988,302; 2124,510;    2,636;    1,500
988,852; 2123,965;    0,455;   -1,136
989,402; 2207,601;    0,091;    0,682
989,952; 2148,237;   -2,182;    0,864
990,502; 2169,692;   -0,091;    0,682
991,052; 2093,874;   -0,727;    0,045
991,602; 2013,146;   -2,909;    1,318
992,152; 2036,874;    0,455;    0,682
992,702; 2030,783;    1,364;   -0,045
993,252; 1962,328;   -3,000;   -0,500
993,802; 2066,965;   -0,273;    1,318
994,352; 2214,146;   -1,545;    1,136
994,901; 2244,783;   -0,182;    3,227
995,451; 2187,056;   -0,182;    0,318
996,000; 2252,965;    1,636;    0,318
996,550; 2038,237;    2,273;    0,227
997,100; 2053,510;    1,273;   -0,045
997,649; 2312,328;    2,182;    0,955
998,198; 1999,146;    1,727;   -1,500
998,748; 2205,965;    1,091;   -2,318
999,297; 2076,328;   -0,818;   -0,409
999,846; 2182,510;    1,000;   -0,773
1000,395; 2172,146;   -0,818;    0,500
1000,945; 2211,146;    1,818;   -0,773
1001,494; 2275,510;    2,364;    0,682
1002,043; 2224,783;    4,636;    0,864
1002,592; 2039,419;   -1,091;    1,955
1003,141; 2176,328;   -0,455;   -0,682
1003,690; 2115,510;    1,727;    0,500
1004,238; 2116,146;    1,455;   -0,045
1004,787; 1816,783;    1,364;    1,227
1005,336; 2092,874;    0,364;    0,682
1005,885; 2167,056;    1,364;   -2,773
1006,433; 2247,783;    0,545;    0,955
1006,982; 2406,874;    0,455;    1,682
1007,531; 2251,237;   -1,818;   -0,227
1008,079; 2151,419;   -2,273;    0,500
1008,627; 2247,510;   -1,455;    0,409
1009,176; 2062,965;    0,000;   -1,955
1009,724; 2086,874;    1,091;    0,864
1010,273; 2209,601;    1,273;    0,500
1010,821; 2225,783;    0,091;    1,409
1011,369; 2014,510;   -1,364;    1,318
1011,917; 2013,328;   -1,364;   -0,591
1012,465; 2245,328;    1,273;   -1,591
1013,013; 2307,146;    2,091;   -1,682
1013,561; 2266,601;    0,455;   -0,773
1014,109; 2361,056;   -1,909;    1,682
1014,657; 2226,874;    0,364;    0,591
1015,205; 2249,146;    1,636;   -0,955
1015,753; 2239,510;   -0,545;   -1,409
1016,301; 2291,056;   -2,636;    3,045
1016,848; 2316,874;   -1,273;    0,409
1017,396; 2365,601;    2,545;    0,045
1017,944; 2456,419;    1,182;    1,864
1018,491; 2230,510;    0,273;    1,409
1019,039; 2534,783;    0,455;    0,591
1019,586; 2328,328;   -1,364;    1,682
1020,134; 2355,601;    0,455;    1,500
1020,681; 2406,601;    0,182;   -1,136
1021,228; 2366,328;    2,909;   -2,227
1021,776; 2251,419;    1,182;   -1,136
1022,323; 2513,146;    0,455;    0,773
1022,870; 2421,419;   -1,000;   -0,045
1023,417; 2370,783;    2,636;    1,864
1023,964; 2388,874;    2,636;    1,227
1024,511; 2298,601;    1,000;    0,773
1025,058; 2149,783;    3,182;   -0,045
1025,605; 2174,692;   -2,273;    3,136
1026,152; 2440,419;    1,727;   -0,591
1026,699; 2177,510;    1,818;    1,318
1027,245; 2278,237;   -0,091;    0,318
1027,792; 2416,601;   -1,000;    1,409
1028,339; 2420,965;    2,364;   -0,045
1028,885; 2261,056;    1,000;   -0,227
1029,432; 2185,237;   -0,091;    0,227
1029,978; 2288,510;   -1,000;   -1,591
1030,525; 2189,783;    1,000;    0,409
1031,071; 2308,419;   -1,364;    1,136
1031,618; 2534,874;    0,364;    1,682
1032,164; 2302,328;   -0,091;    3,045
1032,710; 2331,783;    1,636;   -1,500
1033,256; 2247,783;   -0,636;   -0,136
1033,803; 2186,419;   -0,545;    1,500
1034,349; 1966,783;   -1,364;    0,136
1034,895; 2082,328;    0,000;   -0,318
1035,441; 2110,510;   -0,818;    0,318
1035,987; 2126,419;   -2,364;   -0,682
1036,533; 2149,783;   -1,455;   -0,955
1037,078; 2386,965;    1,455;    1,682
1037,624; 2180,328;    2,455;   -0,955
1038,170; 2146,692;    0,455;   -0,318
1038,716; 2122,056;    1,636;   -0,409
1039,261; 1997,510;   -2,273;   -0,773
1039,807; 1972,056;   -0,091;    3,409
1040,352; 2060,965;   -1,909;   -0,318
1040,898; 2092,874;   -1,545;   -0,682
1041,443; 1967,692;   -1,455;   -2,591
1041,989; 2142,328;    1,091;    1,591
1042,534; 1943,874;   -0,364;    2,591
1043,079; 1972,419;    2,909;    0,955
1043,625; 1872,965;    1,818;    0,500
1044,170; 1942,419;   -1,364;    1,045
1044,715; 2192,601;    2,455;    0,955
1045,260; 2020,783;    2,182;   -0,955
1045,805; 1991,328;    1,182;   -0,591
1046,350; 1907,510;    1,364;   -0,409
1046,895; 1989,965;    2,909;    1,591
1047,440; 1981,601;    5,364;    0,409
1047,985; 1813,056;    2,818;   -0,955
1048,530; 1746,783;    1,545;    1,227
1049,074; 1831,237;    0,000;    0,318
1049,619; 1788,237;   -1,364;    1,955
1050,164; 1642,419;    0,455;    0,227
1050,708; 1705,965;   -0,455;    0,045
1051,253; 2103,510;    1,273;   -2,227
1051,797; 1799,146;    0,818;   -1,318
1052,342; 1733,328;   -1,182;    1,045
1052,886; 1770,237;    0,364;   -1,409
1053,430; 1615,237;   -1,364;    0,136
1053,975; 1663,601;   -0,818;   -0,318
1054,519; 1685,056;   -0,727;    3,227
1055,063; 1730,146;    0,909;    1,318
1055,607; 1647,328;   -0,182;    0,227
1056,151; 1658,783;    2,909;    1,682
1056,695; 1543,692;    2,273;   -1,136
1057,239; 1597,601;   -1,727;   -0,682
1057,783; 1635,510;    0,818;   -1,500
1058,327; 1638,874;    0,000;    1,409
1058,871; 1872,692;   -0,545;    1,318
1059,415; 1608,328;   -0,818;   -0,045
1059,958; 1893,783;    1,455;    2,591
1060,502; 1577,601;   -1,000;   -0,773
1061,046; 1437,692;    0,364;   -0,955
1061,589; 1412,146;   -3,000;   -1,136
1062,133; 1304,510;   -1,273;    1,864
1062,676; 1295,237;    1,182;    0,864
1063,220; 1338,146;    1,091;    0,500
1063,763; 1371,874;    0,909;    1,136
1064,306; 1446,601;   -0,909;    1,864
1064,849; 1344,601;   -0,909;    0,591
1065,393; 1350,692;    2,000;   -1,500
1065,936; 1434,783;    0,182;   -0,409
1066,479; 1299,783;   -1,455;    1,318
1067,022; 1328,146;   -0,273;   -0,227
1067,565; 1248,146;   -0,091;   -1,318
1068,108; 1243,146;    0,727;   -0,591
1068,651; 1215,237;   -0,636;    1,409
1069,194; 1172,146;   -0,455;   -1,682
1069,736; 1188,874;   -1,273;    0,955
1070,279; 1147,237;   -1,364;   -0,500
1070,822; 1251,328;   -2,000;   -0,318
1071,364; 1383,146;   -0,364;    1,318
1071,907; 1183,237;   -0,727;    3,227
1072,450; 1033,601;    0,000;   -0,045
1072,992; 1077,146;   -0,273;    3,136
1073,535; 1223,237;    2,091;    2,136
1074,077; 1019,965;   -0,727;    2,045
1074,619; 1012,965;   -1,364;    0,591
1075,161; 1060,237;   -1,091;    1,500
1075,704; 1252,601;    1,545;    1,227
1076,246; 1008,874;   -0,182;    0,682
1076,788;  936,237;   -0,364;    1,773
1077,330;  991,056;    1,273;    2,136
1077,872;  989,056;    0,909;    0,955
1078,414; 1240,874;    2,727;    0,773
1078,956;  986,146;    1,273;   -0,227
1079,498; 1262,237;    1,636;    0,318
1080,040;  976,965;    1,909;   -1,318
1080,581;  905,692;    1,636;   -0,318
1081,123;  820,146;    0,091;   -0,773
1081,665;  856,965;   -1,182;   -0,955
1082,206; 1170,056;    1,364;   -0,500
1082,748; 1038,146;    0,727;    2,045
1083,289;  884,510;   -2,000;    1,318
1083,831;  834,419;   -0,545;    0,227
1084,372;  892,601;    0,000;    0,591
1084,913;  894,601;    1,091;    0,864
1085,455;  838,601;   -1,909;   -2,045
1085,996;  830,328;   -2,273;    0,136
1086,537;  872,328;   -0,091;    0,864
1087,078;  885,237;   -0,909;   -2,136
1087,619;  934,328;   -1,273;    0,227
1088,160;  852,965;    0,000;    1,318
1088,701;  831,237;   -1,091;    0,682
1089,242;  778,328;    1,364;   -2,227
1089,783;  891,419;   -0,273;    1,409
1090,324;  854,237;    0,455;    0,682
1090,865;  736,601;    2,727;   -0,409
1091,405;  685,965;    0,727;    2,227
1091,946;  729,328;    0,182;   -0,955
1092,487;  646,056;    0,818;   -1,409
1093,027;  846,056;   -1,364;   -1,500
1093,568;  703,237;   -0,364;    1,227
1094,108;  799,601;    0,273;    1,773
1094,649;  725,146;   -1,182;    0,136
1095,189;  671,601;   -0,636;   -0,682
1095,729;  636,056;   -0,091;    0,955
1096,269;  632,965;    0,727;   -0,955
1096,810;  951,237;   -1,364;    0,500
1097,350;  788,692;    1,364;   -0,773
1097,890;  687,874;    0,364;    1,227
1098,430;  948,510;    2,364;    2,864
1098,970;  832,692;    2,182;    1,682
1099,510;  673,874;    0,545;   -2,318
1100,050;  604,965;    1,000;   -1,591
1100,589;  589,601;   -0,727;   -0,318
1101,129;  708,237;    0,818;   -0,955
1101,669;  870,783;    1,727;    2,136
1102,209;  701,601;   -0,091;    2,227
1102,748;  656,783;    0,000;    0,955
1103,288;  650,056;    1,273;   -1,227
1103,827;  666,419;    3,091;   -2,227
1104,367;  549,056;   -0,091;   -2,409
1104,906;  524,146;    1,364;   -1,136
1105,445;  606,328;    0,636;   -1,136
1105,985;  551,146;   -0,727;    1,500
1106,524;  598,692;   -1,727;   -0,682
1107,063;  574,056;   -2,727;    1,409
1107,602;  536,783;   -1,909;   -1,500
1108,141;  473,874;   -1,909;    1,500
1108,680;  592,692;   -3,455;   -0,591
1109,219;  523,510;   -0,909;   -0,500
1109,758;  518,692;    0,455;    0,682
1110,297;  495,146;    1,000;   -0,682
1110,836;  443,146;   -0,727;    0,955
1111,375;  599,328;   -2,545;    0,409
1111,913;  614,510;   -1,000;    0,773
1112,452;  549,783;   -0,273;    0,136
1112,991;  440,146;    1,091;    1,955
1113,529;  403,965;   -0,818;   -0,045
1114,068;  476,874;   -0,273;    2,955
1114,606;  390,328;   -0,364;   -0,955
1115,144;  540,419;   -1,273;    1,045
1115,683;  487,601;   -0,727;    0,318
1116,221;  527,874;   -0,455;   -0,864
1116,759;  437,783;    0,636;   -0,864
1117,297;  633,601;    0,000;    1,864
1117,836;  444,601;   -2,182;   -1,227
1118,374;  456,419;    0,182;   -0,682
1118,912;  423,419;    0,909;    2,682
1119,450;  404,056;    1,000;    0,864
1119,988;  447,965;    1,545;    2,136
1120,525;  892,692;    5,091;    3,318
1121,063;  598,601;    1,182;    1,864
1121,601;  419,783;   -0,909;   -1,227
1122,139;  379,419;   -0,727;   -2,045
1122,676;  573,692;   -0,727;    2,773
1123,214;  510,965;   -1,182;    4,409
1123,751;  327,056;    1,727;    2,227
1124,289;  445,146;   -0,091;   -0,409
1124,826;  335,510;    1,727;    0,227
1125,364;  253,328;    1,727;   -0,955
1125,901;  444,601;    1,182;    1,227
1126,438;  544,783;    0,818;    0,955
1126,975;  287,146;   -0,727;   -0,773
1127,513;  358,419;    0,273;    2,136
1128,050;  270,692;    1,636;   -0,682
1128,587;  365,783;    2,000;   -0,227
1129,124;  410,056;    0,091;    1,318
1129,661;  279,510;    0,273;    0,227
1130,198;  439,874;    1,636;    0,773
1130,734;  382,146;    0,182;    1,409
1131,271;  252,874;   -0,909;    0,864
1131,808;  418,692;    2,909;    3,045
1132,345;  295,146;    1,545;    0,318
1132,881;  170,419;   -1,545;   -1,864
1133,418;  312,510;    0,727;   -1,136
1133,954;  254,237;    2,455;   -2,682
1134,491;  327,146;    1,364;   -0,773
1135,027;  236,328;    2,364;    0,864
1135,564;  315,692;    0,273;    2,955
1136,100;  297,601;    0,364;    2,136
1136,636;  196,328;   -1,273;   -1,045
1137,172;  282,965;    0,000;   -1,045
1137,708;  218,146;   -1,364;   -1,045
1138,245;  221,328;    1,273;   -1,227
1138,781;  172,965;    1,091;   -3,318
1139,317;  237,510;    1,273;   -1,409
1139,852;  232,237;    3,091;    0,136
1140,388;  330,965;   -1,182;   -0,409
1140,924;  229,056;   -1,091;   -2,227
1141,460;  168,419;   -1,636;    0,136
1141,996;  112,510;   -1,364;    2,682
1142,531;  161,783;    1,364;    3,318
1143,067;  361,783;    1,182;    1,045
1143,602;  416,510;   -0,091;   -0,318
1144,138;  269,328;   -2,636;    1,045
1144,673;  150,874;   -1,455;    1,409
1145,209;  209,965;   -1,909;   -0,318
1145,744;  132,328;   -0,727;    0,864
1146,279;  261,510;    1,818;   -0,136
1146,815;  193,419;    1,545;   -2,682
1147,350;  231,510;   -1,364;    0,045
1147,885;  149,328;   -0,818;   -1,318
1148,420;  137,056;   -2,273;    0,773
1148,955;  128,965;   -1,727;    1,864
1149,490;  153,328;   -0,909;   -1,591
1150,025;  137,874;    0,455;   -1,773
1150,560;  241,146;    1,091;   -0,955
1151,094;  211,237;    1,455;   -0,591
1151,629;  217,965;    1,636;    0,864
1152,164;  150,056;    1,364;    1,318
1152,698;  114,692;   -0,182;   -0,136
1153,233;   74,783;    0,091;   -0,682
1153,767;  115,783;   -3,000;   -2,318
1154,302;  160,965;   -1,455;    1,773
1154,836;  151,783;   -0,455;   -2,136
1155,371;  205,056;   -1,364;    3,682
1155,905;  164,874;   -0,636;    1,682
1156,439;  135,601;   -0,636;   -0,500
1156,973;  168,146;    0,364;    0,318
1157,507;  106,328;   -0,364;    0,682
1158,042;  135,874;   -0,727;    1,045
1158,576;  179,601;    0,182;    1,773
1159,110;  171,692;   -0,818;    2,409
1159,643;  142,237;    0,636;   -0,045
1160,177;   79,237;   -1,545;    1,500

