
Integration time [ms]:   0,040
Averaging Nr. [scans]: 11
Smoothing Nr. [pixels]: 0
Data measured with spectrometer [name]: 7318044SP
Wave   ;Sample   ;Dark     ;Reference
[nm]   ;[counts] ;[counts] ;[counts] 

186,757;   26,860;   31,551;    1,318
187,357;   66,850;   22,551;    0,955
187,958;   33,828;   15,460;   -1,591
188,558;   77,904;    8,915;   -1,227
189,159;   45,965;    6,733;   -4,500
189,759;   20,055;    7,278;   -3,591
190,360;   19,902;    2,824;   -2,136
190,960;   56,544;    2,915;   -4,136
191,560;   71,667;    3,189;   -6,591
192,161;  300,795;    4,372;   -3,500
192,761;  157,450;    4,010;   -3,227
193,361;  104,443;    1,556;   -3,773
193,962;  153,007;    2,010;   -2,682
194,562;   76,672;    1,189;   -3,955
195,162;  108,288;   -2,448;   -2,227
195,762;  268,628;   -3,176;   -0,045
196,362;  217,542;    1,370;   -2,500
196,963;   94,366;    2,006;   -0,864
197,563;  161,337;    1,551;   -0,955
198,163;  108,214;    0,096;   -0,682
198,763;  121,435;    1,733;   -0,500
199,363;  235,617;    3,096;   -0,500
199,963;  194,993;    0,369;    0,409
200,563;  165,816;    2,823;   -1,409
201,163;  144,482;    3,277;   -0,227
201,763;  238,866;    3,732;    0,318
202,363;  166,369;    1,459;    1,500
202,963;  267,512;    1,459;    1,045
203,563;  382,872;    0,277;    0,500
204,162;  238,691;    2,096;   -1,864
204,762;  218,912;    0,550;    0,591
205,362;  185,360;    3,004;    1,955
205,962;  281,413;    3,096;    1,955
206,562;  275,038;    1,823;    2,318
207,161;  248,643;   -0,087;    0,318
207,761;  411,061;    1,277;    2,409
208,361;  280,828;   -0,268;    1,409
208,960;  378,469;    0,459;    1,500
209,560;  439,663;    1,277;    1,591
210,160;  412,885;    0,550;    1,864
210,759;  371,859;    4,186;    1,227
211,359;  381,055;    1,459;    1,045
211,958;  644,182;    1,277;    2,045
212,558;  724,134;    1,732;    1,864
213,157;  562,843;    1,822;    1,500
213,757;  994,557;    3,822;   -0,227
214,356;  689,938;    1,277;   -0,409
214,956; 1023,018;    3,095;    0,409
215,555;  647,446;    2,095;    2,136
216,154;  579,832;   -2,723;   -0,591
216,754;  586,331;    0,277;    0,773
217,353;  709,141;   -0,268;   -1,045
217,952;  555,681;   -0,178;    0,318
218,552;  797,931;    1,368;   -0,773
219,151;  687,504;    0,277;    0,955
219,750;  689,216;    0,004;   -0,227
220,349;  777,524;   -0,451;    1,045
220,948;  872,938;   -1,360;    1,136
221,548;  849,520;    0,913;    1,227
222,147;  946,291;   -0,087;   -0,409
222,746; 1225,187;   -0,451;   -0,955
223,345; 1090,439;    0,731;    0,500
223,944; 1079,931;   -0,451;    0,773
224,543; 1236,040;    1,004;   -1,409
225,142; 1360,151;    0,094;    0,136
225,741; 1262,025;   -0,814;    1,045
226,340; 1266,027;   -0,451;   -0,955
226,939; 1679,244;   -0,996;   -0,136
227,538; 1558,206;   -0,360;   -0,773
228,137; 1731,219;   -0,814;    0,864
228,735; 1808,968;   -0,541;    1,227
229,334; 1581,376;   -0,905;   -0,227
229,933; 1959,468;    0,459;    0,591
230,532; 2068,009;    1,186;   -0,409
231,131; 2119,938;    1,732;    0,318
231,729; 2194,126;   -2,450;   -2,318
232,328; 2228,715;   -0,723;   -1,500
232,927; 2272,322;    1,004;   -0,500
233,525; 2369,679;    3,640;    0,045
234,124; 2571,986;    2,368;   -1,591
234,723; 2539,535;    0,913;   -1,045
235,321; 2649,882;    2,277;    0,136
235,920; 2828,194;    1,186;   -1,227
236,518; 3065,450;    3,459;    0,318
237,117; 3164,474;    0,004;   -0,227
237,715; 3314,968;    0,640;   -0,500
238,314; 3331,124;   -0,087;   -2,318
238,912; 3418,511;   -0,723;   -1,409
239,510; 3406,236;    0,459;   -1,227
240,109; 3574,069;    0,004;    3,773
240,707; 3589,026;   -0,996;    1,227
241,305; 3846,619;    0,550;    0,136
241,904; 4055,256;   -0,178;   -2,045
242,502; 4015,189;   -0,632;   -0,227
243,100; 3899,921;   -0,087;   -0,955
243,698; 4102,233;    0,732;    1,682
244,297; 4261,081;   -0,632;    0,682
244,895; 4126,926;   -0,269;   -2,318
245,493; 4409,771;    2,186;   -0,591
246,091; 4404,656;    1,368;   -1,318
246,689; 4371,860;    1,004;    0,591
247,287; 4486,223;    0,822;   -1,136
247,885; 4717,776;   -1,451;    1,227
248,483; 4782,404;    1,822;   -0,500
249,081; 4874,783;    0,185;    1,591
249,679; 5016,532;   -0,178;    1,682
250,277; 5233,387;   -1,723;    0,864
250,875; 5185,899;   -1,087;   -1,045
251,473; 5204,020;   -1,178;    0,500
252,071; 5407,495;    1,459;    1,045
252,669; 5486,386;   -1,814;    0,318
253,267; 5666,535;   -0,087;    0,773
253,864; 5560,950;   -0,360;    0,682
254,462; 5533,661;    1,640;    1,591
255,060; 5459,682;   -0,269;    1,318
255,658; 5704,750;    0,822;   -0,136
256,255; 6084,973;    0,186;   -2,045
256,853; 5968,958;   -0,269;    1,409
257,451; 5961,816;    0,822;    1,864
258,048; 6263,473;    1,822;    1,864
258,646; 5958,320;    1,731;   -1,045
259,243; 6120,321;   -0,087;    2,227
259,841; 6174,977;   -0,814;    0,318
260,438; 6064,004;   -0,087;    0,864
261,036; 6652,264;   -1,905;    1,409
261,633; 6550,341;   -0,087;    2,227
262,231; 6339,658;    2,731;   -0,045
262,828; 6388,966;   -0,905;    1,136
263,425; 6452,336;    0,913;   -0,591
264,023; 6671,591;    0,186;    0,045
264,620; 6257,183;   -0,360;   -0,318
265,217; 6566,364;   -2,087;    3,136
265,815; 6653,100;   -1,905;    2,136
266,412; 6520,683;    0,731;    0,136
267,009; 6530,474;   -1,451;    0,773
267,606; 6479,411;    0,822;   -0,955
268,203; 6415,743;   -0,269;   -0,591
268,801; 6648,340;    1,731;    0,591
269,398; 6903,368;   -0,360;    2,500
269,995; 6886,147;    0,277;    1,591
270,592; 6693,308;   -0,632;   -0,500
271,189; 6866,482;    0,186;    0,409
271,786; 6956,245;   -0,632;    1,227
272,383; 6857,128;   -1,087;    0,227
272,980; 6987,043;    0,277;    0,318
273,577; 7385,758;    0,004;    1,227
274,174; 6977,328;    0,822;    2,591
274,771; 6956,022;   -0,814;   -0,773
275,367; 7123,963;    2,277;    1,409
275,964; 7093,740;    0,731;   -0,500
276,561; 7183,955;    1,549;   -1,045
277,158; 7323,895;    0,095;   -1,773
277,755; 7465,238;    2,185;    0,409
278,351; 6910,888;   -0,451;   -1,500
278,948; 7201,510;   -0,815;    0,045
279,545; 7158,255;   -1,360;    2,318
280,141; 7779,541;   -1,723;   -2,045
280,738; 7613,431;   -0,451;   -0,136
281,334; 7741,368;   -1,633;    0,591
281,931; 7216,608;   -0,087;   -1,318
282,528; 7312,470;    0,822;   -0,500
283,124; 7945,661;   -1,087;   -0,500
283,721; 7829,788;   -0,451;    1,409
284,317; 7627,449;    0,185;    2,500
284,913; 8175,266;   -1,360;    0,591
285,510; 8354,993;    0,640;   -0,318
286,106; 8361,079;   -2,269;   -0,955
286,703; 7936,463;   -0,360;    1,955
287,299; 8143,886;   -1,451;   -0,591
287,895; 8287,387;    0,822;   -1,045
288,491; 8791,186;    0,186;    2,136
289,088; 8595,871;   -2,360;    2,409
289,684; 8660,295;   -1,723;    1,500
290,280; 8665,245;    0,368;    0,682
290,876; 8747,728;    1,822;    5,500
291,472; 8642,918;    1,276;    2,227
292,068; 8722,943;    1,367;    0,227
292,665; 8436,250;    2,095;    0,773
293,261; 8159,255;    0,276;    2,136
293,857; 8520,653;    2,913;    2,136
294,453; 8438,945;    3,550;    0,955
295,049; 8357,038;   -0,268;    1,955
295,644; 8400,663;    0,095;    0,136
296,240; 8291,020;   -0,905;   -0,136
296,836; 8341,875;   -0,995;    0,318
297,432; 8609,573;    1,096;   -0,500
298,028; 8680,982;    0,732;    0,773
298,624; 8987,899;    1,459;    1,864
299,220; 9148,077;    2,368;    0,591
299,815; 8844,127;    1,005;   -0,409
300,411; 8708,493;    0,914;    1,773
301,007; 8687,322;    1,368;    0,227
301,602; 8685,262;   -0,541;   -2,318
302,198; 8842,000;    0,732;   -0,773
302,794; 9139,030;    1,187;   -0,500
303,389; 9216,873;   -1,177;    1,045
303,985; 9284,146;    0,550;    1,409
304,580; 9260,962;    1,459;    1,591
305,176; 9249,743;   -3,086;    0,136
305,771; 9134,928;   -1,268;   -1,227
306,367; 9088,931;    4,095;    0,136
306,962; 9339,171;    0,641;    1,500
307,558; 9056,762;   -0,450;    0,136
308,153; 9001,811;    1,095;   -1,136
308,748; 9192,559;   -0,814;    1,682
309,344; 9212,408;   -0,632;   -1,318
309,939; 9306,996;   -1,905;   -1,318
310,534; 9508,293;   -0,086;   -1,682
311,130; 9414,582;    0,459;   -2,500
311,725; 9177,676;    1,004;   -0,500
312,320; 9486,558;    2,459;    0,045
312,915; 9348,907;    1,459;   -1,045
313,510; 9444,768;    1,550;   -0,500
314,105; 9862,142;    1,096;    1,409
314,700; 9271,781;   -3,086;   -1,045
315,295; 8985,507;   -0,904;    0,045
315,890; 8594,398;    1,277;    0,864
316,485; 8864,813;   -0,359;   -0,318
317,080; 8959,490;   -3,086;    1,591
317,675; 9444,354;    2,005;   -0,682
318,270; 9000,525;    5,550;    3,318
318,865; 8982,729;    3,278;    3,045
319,460; 8806,694;   -0,904;    0,591
320,055; 9008,453;   -0,541;   -1,227
320,650; 8709,269;   -1,995;   -0,591
321,244; 8782,341;   -0,177;   -1,409
321,839; 9619,078;   -1,541;   -0,227
322,434; 9462,558;   -1,086;   -1,591
323,029; 9215,527;    1,732;    1,591
323,623; 9073,468;    1,550;    0,773
324,218; 8883,229;    2,368;    1,409
324,812; 8777,190;    1,096;    1,591
325,407; 8643,057;   -0,814;    2,045
326,002; 8569,353;    0,277;   -0,409
326,596; 8871,485;    0,914;    1,318
327,191; 8999,283;    0,823;   -1,045
327,785; 8622,757;   -0,813;   -0,227
328,379; 8843,215;    1,368;    0,136
328,974; 8664,693;    0,914;   -3,955
329,568; 8886,281;    0,186;   -2,409
330,163; 8738,414;    2,096;    1,045
330,757; 9061,542;    2,459;    1,591
331,351; 8439,629;    0,459;    0,682
331,945; 8758,416;    0,914;    1,409
332,540; 8403,424;   -1,723;   -0,591
333,134; 8568,565;   -1,086;    0,773
333,728; 8778,674;    0,005;    0,318
334,322; 9052,101;   -1,177;   -0,864
334,916; 8368,024;    0,277;    0,955
335,510; 8713,151;   -0,450;   -0,136
336,105; 8959,920;   -1,086;    1,591
336,699; 8668,539;   -1,086;    0,591
337,293; 8611,227;   -1,723;    0,318
337,887; 8733,581;   -2,723;    1,955
338,481; 8838,106;    0,459;    0,591
339,074; 9012,591;   -0,359;    2,682
339,668; 8848,953;   -1,632;    1,227
340,262; 9117,111;    1,732;    3,227
340,856; 8630,777;    1,822;   -0,682
341,450; 8050,190;    1,004;    1,864
342,044; 8851,046;    1,459;    0,136
342,637; 8673,978;    0,913;   -2,136
343,231; 8553,680;   -2,360;    0,682
343,825; 8527,471;   -1,086;   -0,591
344,419; 8491,464;   -1,995;    0,500
345,012; 8372,961;    2,459;    4,045
345,606; 8382,072;    4,641;    1,591
346,199; 8225,295;   -1,813;   -0,227
346,793; 7839,020;    1,914;    2,045
347,386; 8005,371;   -0,813;   -1,136
347,980; 7962,038;   -0,268;   -0,045
348,573; 7838,100;    2,278;    0,409
349,167; 7603,298;    5,278;    4,773
349,760; 7902,185;    2,914;    2,682
350,354; 7836,804;   -0,813;    1,136
350,947; 7648,721;    1,096;    1,682
351,540; 7377,243;   -0,358;   -1,409
352,134; 7319,844;    1,096;    1,136
352,727; 7377,605;   -0,086;    1,136
353,320; 7241,483;    0,005;    0,591
353,913; 7078,281;   -1,995;    1,864
354,507; 7268,987;    0,823;   -1,227
355,100; 7287,939;    0,460;    0,864
355,693; 6721,948;    2,005;    2,409
356,286; 6717,230;    0,823;    2,773
356,879; 7009,868;   -0,722;    1,227
357,472; 6623,369;   -0,904;    1,500
358,065; 6868,704;   -0,722;    2,500
358,658; 6778,345;   -0,540;    2,318
359,251; 6459,209;   -1,631;   -0,591
359,844; 6073,498;   -1,904;   -1,136
360,437; 6270,235;   -2,995;    0,045
361,030; 6490,732;    1,369;   -0,682
361,623; 6117,267;    2,824;    0,318
362,215; 6192,248;   -0,086;    2,045
362,808; 6030,660;   -2,358;   -1,682
363,401; 6229,969;   -2,449;    0,136
363,994; 6038,692;   -0,631;   -1,500
364,586; 5938,363;    0,824;   -1,500
365,179; 6122,061;   -0,449;   -1,136
365,772; 5666,428;   -1,995;    2,045
366,364; 5899,588;    1,915;   -3,227
366,957; 6119,798;    2,279;   -0,045
367,549; 6111,453;    2,188;   -0,864
368,142; 5819,829;    1,825;   -1,500
368,734; 6006,606;    0,734;   -2,136
369,327; 5962,395;    1,643;   -0,500
369,919; 5892,564;   -1,538;    0,409
370,512; 5753,751;   -1,083;   -0,500
371,104; 5569,377;   -0,901;    1,591
371,696; 5754,407;    1,191;   -0,955
372,289; 5757,974;    0,373;    1,136
372,881; 5895,204;   -2,080;    1,318
373,473; 5819,374;   -2,170;    1,136
374,066; 5672,081;   -0,169;    0,500
374,658; 5572,541;    0,378;    1,136
375,250; 5859,573;    0,653;   -1,409
375,842; 5710,526;    0,473;   -0,045
376,434; 5612,021;   -0,435;   -0,409
377,026; 6099,603;    0,204;   -2,500
377,618; 6009,871;   -0,158;   -0,682
378,210; 5890,672;   -0,338;   -1,955
378,802; 5734,749;    0,754;   -0,591
379,394; 5758,700;    1,846;    0,682
379,986; 6224,322;    1,393;   -0,955
380,578; 6299,834;   -0,153;    0,773
381,170; 5789,143;   -0,972;    0,045
381,762; 5740,442;    0,755;    1,409
382,354; 5883,737;   -0,065;   -1,318
382,945; 5958,807;   -2,976;    0,318
383,537; 6080,043;   -2,705;   -1,955
384,129; 6099,422;   -2,160;   -1,136
384,721; 6260,035;   -0,252;    0,955
385,312; 6178,186;   -0,161;   -0,955
385,904; 6303,470;   -2,706;    1,591
386,496; 5731,230;   -0,979;    1,045
387,087; 5878,957;    1,022;    2,500
387,679; 5878,878;   -1,160;    0,045
388,270; 6011,301;    2,840;    2,045
388,862; 6090,421;    1,295;   -0,318
389,453; 5972,644;   -0,887;    1,045
390,045; 6245,985;   -0,705;   -2,682
390,636; 6176,202;    0,204;   -0,591
391,227; 6024,897;   -0,523;   -0,045
391,819; 6129,335;    0,204;    0,773
392,410; 6200,866;    1,022;    0,045
393,001; 6129,120;   -0,979;   -1,591
393,593; 6363,081;    1,930;   -0,045
394,184; 6260,258;    1,385;   -0,409
394,775; 6151,349;    1,839;    2,136
395,366; 6351,676;    1,385;    0,773
395,957; 6313,299;    0,113;    0,136
396,548; 6590,263;   -0,342;    2,682
397,139; 6868,157;   -2,433;    0,591
397,730; 6610,425;   -1,888;    0,955
398,321; 6641,071;   -1,252;    0,955
398,912; 6664,006;   -0,615;    0,136
399,503; 6752,891;   -3,524;   -1,409
400,094; 6282,193;    0,294;    1,682
400,685; 6141,547;   -0,433;    0,045
401,276; 6186,271;    0,930;   -0,955
401,867; 6429,664;   -0,888;    0,773
402,458; 6530,475;   -2,251;   -2,318
403,048; 6542,235;    1,112;    0,591
403,639; 6183,837;    0,840;    0,864
404,230; 6458,395;    2,476;    0,318
404,821; 6401,255;   -0,615;    0,045
405,411; 6508,512;    1,203;   -2,591
406,002; 6128,032;   -1,252;   -1,136
406,592; 6073,473;    2,294;    0,045
407,183; 6275,394;    0,566;   -1,500
407,774; 6199,026;    3,475;   -0,136
408,364; 6478,659;    0,930;    0,409
408,954; 6170,117;    0,384;    1,227
409,545; 6198,275;    1,021;    1,045
410,135; 5771,104;    1,293;    0,500
410,726; 5949,464;    1,838;    0,318
411,316; 6283,427;    0,111;    0,773
411,906; 5969,504;   -0,253;   -0,409
412,497; 5557,081;   -1,070;   -0,045
413,087; 6061,173;   -1,980;   -0,227
413,677; 6397,396;   -0,707;    3,864
414,267; 6270,008;    0,656;    1,409
414,857; 6236,601;   -2,980;    4,227
415,448; 6512,993;    0,839;    0,500
416,038; 6244,177;    0,020;   -0,591
416,628; 6208,190;   -0,889;    0,409
417,218; 5819,581;    0,565;    3,318
417,808; 6014,447;    0,202;   -0,409
418,398; 6377,266;    0,020;    2,682
418,988; 6390,859;    2,020;    0,591
419,578; 6603,602;   -0,707;    1,409
420,168; 6876,823;   -1,343;   -0,955
420,757; 6535,107;   -1,343;   -1,500
421,347; 6221,822;    0,111;   -0,227
421,937; 6359,002;    2,292;    1,409
422,527; 6347,166;    0,838;   -0,773
423,116; 6205,129;   -0,253;   -0,045
423,706; 6456,180;   -1,889;    0,318
424,296; 6419,588;    1,384;    0,682
424,885; 6802,224;   -0,071;   -3,045
425,475; 7041,071;    1,474;   -2,864
426,065; 6938,866;   -0,980;   -0,318
426,654; 6626,540;   -0,435;   -0,318
427,244; 6783,823;    0,020;    1,409
427,833; 6287,888;    1,383;   -0,500
428,423; 6676,127;   -0,526;    1,136
429,012; 7324,887;   -0,344;   -1,136
429,601; 6892,415;   -1,344;    0,136
430,191; 7081,383;    1,292;    4,318
430,780; 6716,605;   -0,344;   -0,409
431,369; 6718,666;    0,746;   -0,045
431,959; 7245,395;   -1,254;    0,500
432,548; 7022,078;   -1,163;   -0,045
433,137; 7131,537;   -1,254;   -1,318
433,726; 7617,738;    0,292;    0,500
434,315; 7050,878;   -0,526;    2,409
434,905; 7157,098;   -1,254;    1,409
435,494; 7095,749;    0,746;    0,955
436,083; 7436,786;   -0,981;   -0,955
436,672; 7325,881;    0,110;    0,500
437,261; 6981,912;    0,292;   -1,955
437,850; 7132,476;    1,383;    0,682
438,439; 7130,263;    3,291;    1,955
439,027; 6997,538;    3,655;    1,773
439,616; 7315,751;    2,927;    1,227
440,205; 7132,152;    0,200;   -2,136
440,794; 7172,548;    2,109;   -0,045
441,383; 7383,784;   -1,346;   -0,591
441,971; 7246,601;   -2,436;    0,591
442,560; 7094,542;    0,563;   -1,773
443,149; 6854,625;    0,379;   -1,318
443,737; 7005,775;   -0,074;   -2,318
444,326; 7229,111;    0,018;    0,318
444,915; 7262,791;   -1,982;    0,864
445,503; 7639,219;   -2,891;   -0,318
446,092; 6993,949;    0,382;    2,136
446,680; 7473,341;    0,382;    0,318
447,269; 7594,390;   -0,346;   -0,318
447,857; 7395,761;    0,018;   -1,773
448,445; 7490,628;    0,563;    1,318
449,034; 7694,512;   -1,528;   -1,136
449,622; 7781,035;   -1,073;    3,500
450,210; 7200,347;    2,017;    2,227
450,799; 7696,645;    0,290;   -0,591
451,387; 7614,216;    1,381;   -0,591
451,975; 7336,826;    2,654;    0,864
452,563; 7404,750;    3,472;    2,318
453,151; 7389,375;   -0,528;   -1,227
453,739; 7333,708;   -1,347;    0,136
454,328; 7231,703;    2,381;   -2,136
454,916; 7000,460;    2,562;   -0,136
455,504; 7124,363;    1,017;    1,227
456,092; 7269,949;    0,017;   -1,591
456,679; 7238,950;    1,472;    0,682
457,267; 7306,867;    4,017;    1,045
457,855; 7363,939;    1,017;    1,409
458,443; 7095,676;   -0,165;    1,682
459,031; 7293,920;    0,108;    2,409
459,619; 7644,642;   -1,801;    2,864
460,206; 7714,282;    0,835;    2,045
460,794; 7816,719;   -2,983;   -0,227
461,382; 7991,799;   -0,529;   -0,864
461,970; 7629,117;    1,198;    1,864
462,557; 7674,094;   -0,711;   -0,682
463,145; 7839,589;   -3,165;   -1,682
463,732; 7962,783;    2,016;   -1,045
464,320; 7873,088;   -0,075;   -3,045
464,907; 7592,175;    2,743;   -0,773
465,495; 7487,443;    0,743;   -1,227
466,082; 7612,996;   -1,984;   -0,045
466,670; 7503,452;   -2,529;    1,227
467,257; 7883,410;   -1,711;    2,045
467,844; 8040,868;   -0,075;    0,045
468,432; 8068,074;    0,834;    3,500
469,019; 7655,517;    0,925;   -1,773
469,606; 8085,579;    0,470;    3,682
470,193; 7916,297;   -1,439;    0,227
470,780; 7553,558;   -2,075;    0,864
471,368; 7861,633;   -1,257;   -0,773
471,955; 7671,835;    1,379;   -0,682
472,542; 7352,640;    0,652;   -1,136
473,129; 7538,223;   -0,166;    0,136
473,716; 7313,266;    1,470;    0,591
474,303; 7482,221;    0,652;   -0,864
474,890; 7753,739;   -1,439;   -0,500
475,477; 7786,698;   -1,621;    0,409
476,064; 7673,141;    1,106;   -1,591
476,650; 7587,086;    0,288;    0,318
477,237; 7420,995;   -0,258;    0,955
477,824; 7560,974;   -1,076;    0,864
478,411; 7586,882;   -1,894;   -0,318
478,997; 7756,823;    0,560;   -0,773
479,584; 7816,675;    1,196;   -0,409
480,171; 8441,943;   -0,440;   -0,773
480,757; 8137,453;    2,651;    0,773
481,344; 8373,421;    0,469;    0,409
481,931; 7890,133;    1,105;    1,045
482,517; 8782,802;   -1,258;    0,318
483,104; 9252,652;    1,106;    2,864
483,690; 9429,948;   -1,804;    0,045
484,276; 9678,479;   -0,895;    0,227
484,863; 9456,497;    2,469;    1,136
485,449; 9939,623;   -0,077;    0,318
486,035; 9918,556;   -1,986;   -0,136
486,622;10291,116;   -0,895;    0,045
487,208;10233,690;    1,378;    1,500
487,794;10120,470;    0,741;    0,318
488,380;10219,109;    0,105;   -1,409
488,967;10264,237;   -1,168;   -0,409
489,553;10311,345;   -1,895;   -1,409
490,139;10471,277;    1,559;    0,773
490,725; 9973,075;    0,741;   -0,227
491,311; 9607,618;    3,287;    3,045
491,897; 9082,733;   -0,986;    1,500
492,483; 8965,304;    0,105;    1,227
493,069; 8903,075;    3,923;    0,864
493,655; 8851,855;    1,650;    0,682
494,241; 8753,308;    1,377;   -0,955
494,826; 9069,367;    0,287;   -1,045
495,412; 8611,299;    2,559;   -0,682
495,998; 8751,250;   -0,805;   -0,318
496,584; 8831,382;    0,377;    1,045
497,169; 8802,477;    1,014;   -0,682
497,755; 8761,468;    0,650;    1,227
498,341; 9313,772;    0,559;    0,318
498,926; 8919,482;    1,832;    1,955
499,512; 9015,649;    1,286;    2,955
500,097; 9101,863;    0,195;   -0,318
500,683; 9045,222;   -0,350;    2,136
501,268; 9403,109;   -0,169;   -0,955
501,854; 9121,000;   -0,169;    1,227
502,439; 9051,192;   -0,624;   -1,773
503,024; 9242,708;    0,195;    0,500
503,610; 9280,707;   -0,078;   -0,682
504,195; 9266,029;    0,558;    1,955
504,780; 9410,656;    2,922;    1,227
505,366; 9303,972;    3,013;    2,864
505,951; 9040,884;    0,740;    1,045
506,536; 9053,768;   -3,260;   -3,682
507,121; 9036,150;    0,285;   -0,318
507,706; 9473,083;    2,376;    1,045
508,291; 9753,952;    2,649;    1,136
508,876; 9258,018;   -0,988;    2,591
509,461; 8805,579;   -0,169;   -0,773
510,046; 9186,782;    0,194;    0,318
510,631; 9428,616;   -0,351;   -0,773
511,216; 9133,099;    2,467;   -0,500
511,801; 9459,860;   -0,442;    2,591
512,386; 9670,415;    0,740;    0,500
512,971; 9589,607;   -2,988;    0,955
513,555; 9248,918;   -0,897;   -1,500
514,140; 9936,330;   -0,442;   -3,136
514,725; 9864,955;   -0,715;   -1,136
515,309;10014,544;   -0,533;    0,318
515,894; 9590,725;   -0,624;   -2,227
516,479; 9954,593;   -0,624;   -0,955
517,063; 9758,248;    0,376;    1,227
517,648; 9893,159;    1,012;   -1,136
518,232; 9512,178;   -0,261;   -1,409
518,817; 9854,019;   -0,079;    1,682
519,401;10061,494;    2,194;    0,591
519,985; 9569,855;    1,103;    1,136
520,570; 9460,657;    0,830;   -1,955
521,154; 9733,685;    2,102;    0,591
521,738; 9878,786;   -2,352;    2,409
522,323;10424,001;   -0,170;    1,682
522,907;10143,921;    0,466;   -0,136
523,491; 9911,491;    0,557;    0,955
524,075; 9886,332;    2,284;    0,591
524,659; 9983,462;    1,466;    0,591
525,243; 9523,123;    1,739;    0,409
525,827; 9721,105;    0,648;   -0,045
526,411;10437,735;   -1,989;   -0,136
526,995;10623,216;   -0,352;    1,409
527,579;10290,207;   -0,443;   -1,045
528,163;10533,600;    0,375;   -1,500
528,747;10451,620;    2,466;   -0,773
529,331;10702,119;   -0,080;   -1,409
529,915;10855,941;    1,738;    0,955
530,499;10826,646;   -0,807;    1,227
531,082;10572,706;   -0,534;    1,591
531,666;10084,587;    1,374;    0,773
532,250;10647,280;    1,284;    2,682
532,833;10932,676;    0,920;    2,773
533,417;10797,472;   -1,807;    0,864
534,001;10754,979;    1,647;   -0,318
534,584;11348,624;    0,374;    0,500
535,168;11197,396;    0,465;    1,409
535,751;11273,224;    0,647;    0,045
536,334;10696,841;   -0,898;   -0,409
536,918;11233,112;    0,011;    1,591
537,501;11278,890;   -0,899;    1,318
538,085;11297,188;   -0,444;    1,045
538,668;11395,121;    0,829;    2,409
539,251;11691,599;    1,829;    3,773
539,834;11724,052;    0,101;    0,773
540,418;11708,540;   -1,990;    4,318
541,001;11739,968;   -0,990;    1,773
541,584;11715,168;    2,101;    2,227
542,167;11476,291;    1,374;    2,955
542,750;11512,568;    1,919;   -0,773
543,333;11139,444;    0,555;    2,136
543,916;11849,231;    0,192;    2,500
544,499;12307,894;   -1,354;    0,227
545,082;12340,258;    1,374;    3,591
545,665;12485,005;    1,919;    1,500
546,248;12700,898;    1,010;   -0,318
546,830;12405,169;   -0,445;    1,955
547,413;12773,814;    1,010;   -0,773
547,996;13252,228;    0,555;    0,500
548,579;12983,734;    0,919;    0,955
549,161;12814,644;    1,828;    2,682
549,744;12572,968;   -0,809;    0,409
550,326;13032,833;   -0,809;   -1,136
550,909;12874,588;    2,737;    0,591
551,492;13209,694;   -0,263;    0,227
552,074;13019,796;   -0,173;   -1,318
552,657;13545,932;    2,373;    0,045
553,239;13313,275;   -0,173;   -0,773
553,821;13191,086;   -1,082;    1,045
554,404;12738,386;    1,282;    1,136
554,986;13077,664;    0,464;    1,045
555,568;13564,461;    1,191;   -0,955
556,151;12924,757;    1,191;   -0,227
556,733;13078,048;   -0,264;   -0,864
557,315;13499,060;    0,100;    0,500
557,897;13257,399;    0,554;   -0,500
558,479;13369,923;   -1,991;    1,318
559,061;13507,525;   -0,719;   -0,864
559,643;13804,088;   -0,264;    0,045
560,225;14082,371;    1,645;    2,864
560,807;14091,997;    0,918;    0,318
561,389;13643,204;    0,554;    2,318
561,971;14246,718;    0,463;    2,136
562,553;14124,980;   -1,628;    1,591
563,135;14240,070;   -0,537;    1,136
563,717;13865,615;    3,372;    1,136
564,298;14441,505;    3,645;   -0,045
564,880;14175,339;    0,645;   -1,409
565,462;14321,158;    0,645;    1,318
566,043;15306,282;   -0,446;    2,318
566,625;14867,577;    1,918;    1,227
567,207;14677,538;    1,099;    1,682
567,788;15602,154;   -1,264;    1,500
568,370;16325,663;    1,917;   -0,500
568,951;16085,338;    0,190;    0,227
569,533;16822,986;   -0,628;   -0,500
570,114;17192,376;   -0,446;    0,682
570,695;17530,959;   -0,174;   -1,318
571,277;17861,145;   -0,265;   -1,682
571,858;18515,028;    2,008;   -1,136
572,439;19185,387;    1,554;   -1,045
573,021;19248,861;    2,099;   -2,773
573,602;19618,334;   -1,265;    0,318
574,183;20375,111;   -2,083;    2,227
574,764;20397,974;   -1,629;    0,409
575,345;20823,273;    0,917;   -0,136
575,926;21293,923;   -0,356;    0,136
576,507;21252,447;    1,099;   -0,227
577,088;22246,515;    3,099;    1,682
577,669;22221,158;    0,735;    1,955
578,250;22847,293;    0,644;   -1,045
578,831;23280,692;   -1,356;   -2,227
579,412;23428,545;   -0,810;    0,955
579,993;24245,637;    1,008;    0,227
580,573;24531,001;   -0,629;   -0,955
581,154;23499,795;    0,735;   -0,591
581,735;24341,612;    0,644;    0,773
582,315;23842,158;   -0,629;    2,136
582,896;24120,792;   -0,174;    1,227
583,477;23577,710;    0,189;    1,227
584,057;23797,978;    0,553;    0,955
584,638;24099,365;    2,553;    2,318
585,218;24123,568;   -0,538;    2,682
585,799;24218,861;    0,281;   -0,227
586,379;24257,606;    0,372;    1,591
586,959;23157,066;    0,735;    0,318
587,540;22650,327;   -0,629;    2,227
588,120;22305,269;    1,007;   -0,045
588,700;21478,261;    2,553;    2,136
589,281;21867,319;    0,462;   -0,955
589,861;21816,572;    0,099;   -1,682
590,441;21626,456;    2,371;   -2,682
591,021;20702,478;   -0,265;   -2,591
591,601;20941,876;   -0,537;    0,500
592,181;21016,170;   -0,719;   -0,773
592,761;20401,559;    0,007;    1,409
593,341;20395,065;   -0,901;    0,045
593,921;20388,310;   -0,265;    1,591
594,501;20248,089;   -0,538;    1,318
595,081;20082,196;    0,917;   -0,318
595,661;20449,927;   -1,447;    0,955
596,240;20898,444;   -0,537;    0,136
596,820;20546,346;    0,372;    1,955
597,400;20604,381;    2,008;    0,773
597,980;20809,373;    2,008;    1,045
598,559;20867,084;    2,735;   -0,227
599,139;20601,223;   -0,174;   -1,227
599,718;20496,587;   -0,174;   -0,409
600,298;20773,380;    0,735;    0,682
600,877;21064,670;    2,917;    1,409
601,457;21262,117;    2,281;    1,136
602,036;21142,898;    0,190;    2,045
602,616;21305,032;    0,644;    1,682
603,195;21616,049;   -0,355;    3,500
603,774;21126,074;   -0,901;    2,045
604,354;21018,370;    0,826;   -0,500
604,933;20646,670;    0,463;    1,864
605,512;20750,280;    3,554;    0,591
606,091;20829,455;   -0,537;    3,773
606,671;21546,618;    0,281;    0,773
607,250;20789,300;    1,644;    3,136
607,829;20985,633;    2,372;    3,227
608,408;20864,659;    1,190;    2,591
608,987;19986,352;    1,281;    3,409
609,566;20236,450;   -1,265;   -2,500
610,145;20407,421;   -1,082;    0,682
610,723;20790,809;    4,372;    6,864
611,302;20107,462;   -0,446;    1,682
611,881;19667,465;    5,008;   11,227
612,460;20385,739;    1,645;    3,955
613,039;20795,209;   -0,082;    2,045
613,617;19637,657;    1,736;    4,773
614,196;19774,398;    1,099;    1,227
614,775;20132,140;    1,009;    2,409
615,353;20079,726;    0,736;    0,864
615,932;19889,727;    0,100;    2,409
616,510;20409,980;    0,554;    0,591
617,089;20018,637;    7,100;   17,591
617,667;19848,614;    2,372;    6,136
618,246;19671,905;   -1,537;    1,318
618,824;19818,793;   -3,355;   -0,955
619,402;19425,498;   -2,900;   -1,773
619,981;19856,061;   -0,173;   -1,045
620,559;19717,330;    0,009;    1,682
621,137;19330,991;   -0,718;    1,864
621,715;19305,925;   -1,173;   -0,682
622,293;19241,173;   -0,537;   -0,773
622,871;19717,060;   -0,718;    0,500
623,450;19337,392;    0,373;   -0,864
624,028;19291,375;    0,191;   -0,955
624,606;18925,826;   -1,718;    1,682
625,183;19243,662;   -1,536;   -1,136
625,761;18967,138;    1,009;    1,136
626,339;19222,691;    1,373;    2,591
626,917;19538,426;   -0,172;   -0,045
627,495;19624,473;   -0,354;    1,318
628,073;19132,649;   -0,263;    2,864
628,650;18877,181;    0,100;    2,136
629,228;19242,868;    0,373;    4,409
629,806;18709,772;    2,282;    1,136
630,383;18941,038;    1,464;   -0,318
630,961;18812,250;    2,555;   -0,955
631,539;18515,060;    2,464;    0,227
632,116;18050,977;   11,373;   15,409
632,694;18532,448;    2,555;    6,500
633,271;18697,823;    0,828;    2,682
633,848;18733,601;    1,828;    2,045
634,426;18711,751;   -1,081;    1,773
635,003;17949,351;    1,101;   -0,409
635,580;18233,531;    1,192;    3,682
636,158;18698,882;    3,737;    1,227
636,735;18688,391;    0,555;   -0,500
637,312;18771,466;   -0,809;   -0,682
637,889;18869,112;   -4,354;   -0,682
638,466;18489,665;   -3,990;   -0,409
639,043;18428,791;    2,101;   -1,136
639,620;18701,063;   -2,262;   -0,955
640,197;18972,625;    1,100;    1,682
640,774;19108,706;   -0,172;    1,136
641,351;19396,513;    0,737;    1,136
641,928;19014,957;   -0,627;    1,409
642,505;18679,128;    0,828;   -0,500
643,082;18788,754;   -1,718;    1,227
643,658;17907,925;   -0,718;    1,500
644,235;18558,642;    1,191;    2,500
644,812;18782,177;    1,918;    0,773
645,388;18553,257;   -0,991;    1,409
645,965;18607,156;   -0,809;    1,682
646,542;18698,872;   -1,445;   -0,227
647,118;18721,680;    1,009;   -0,955
647,695;18969,215;   -0,263;    1,136
648,271;18912,750;   -0,536;    0,500
648,848;19141,648;    0,736;    2,227
649,424;19008,183;    0,827;    1,318
650,000;18765,354;   -0,354;   -1,045
650,577;18642,525;   -0,627;   -0,955
651,153;19009,878;   -1,809;    0,955
651,729;19793,231;    1,191;    0,864
652,305;20021,039;    0,645;    2,773
652,881;23634,938;   -0,082;    1,136
653,458;28852,472;    1,100;    0,227
654,034;31509,553;    0,282;    1,591
654,610;32484,906;    0,554;    0,773
655,186;33519,532;    0,645;    3,045
655,762;33198,430;   -0,991;    0,409
656,338;33190,056;    0,100;    0,136
656,913;34074,136;   -0,082;    0,409
657,489;33358,671;    0,827;   -0,318
658,065;33368,751;   -0,173;   -1,591
658,641;34043,923;   -0,900;   -0,864
659,217;33426,730;   -0,991;    0,409
659,792;32899,901;    0,645;   -0,409
660,368;33141,618;   -2,173;   -0,682
660,944;33003,062;   -2,082;    1,227
661,519;29173,688;   -0,628;    0,409
662,095;24582,132;   -1,719;    0,591
662,670;21232,757;    1,281;   -0,136
663,246;20499,929;    1,009;   -0,409
663,821;20042,100;    0,281;    1,682
664,396;19531,180;    0,009;    1,864
664,972;19749,533;    0,009;   -0,500
665,547;20077,977;    1,372;    0,136
666,122;20111,694;   -1,082;    0,318
666,698;20319,411;   -0,173;    0,318
667,273;19678,582;   -0,173;    0,136
667,848;20430,753;    2,372;    1,500
668,423;20227,470;    2,190;    2,318
668,998;20631,823;    2,827;   -0,682
669,573;21117,267;   -3,264;   -1,500
670,148;20937,165;   -1,446;   -0,682
670,723;20684,427;   -1,810;    0,318
671,298;21116,144;    2,372;    1,045
671,873;21175,133;   -0,082;   -0,136
672,448;21175,759;    0,645;    0,136
673,023;21396,476;   -1,992;   -0,227
673,597;21710,283;    0,827;    2,318
674,172;21513,727;   -0,355;    0,318
674,747;21046,353;    0,372;   -1,045
675,321;20832,161;   -0,628;    3,318
675,896;20496,332;    0,645;    1,045
676,471;21367,776;    2,645;    1,591
677,045;21115,311;   -1,264;    0,682
677,620;21122,391;    0,190;    1,136
678,194;21450,017;   -2,628;    1,136
678,769;21125,006;   -1,083;   -0,318
679,343;21378,268;   -0,628;    1,773
679,917;21251,803;   -1,446;    1,955
680,492;21207,156;    0,826;    3,227
681,066;21362,873;    3,372;    0,409
681,640;21425,680;    1,463;   -0,318
682,214;22139,761;    0,735;    0,500
682,788;21705,296;   -1,356;   -0,773
683,363;21589,285;   -1,810;    1,682
683,937;21365,820;   -1,719;   -0,318
684,511;22001,900;    0,463;   -0,591
685,085;21759,071;   -1,356;    0,318
685,659;21490,970;   -2,538;    0,864
686,232;21774,505;   -0,356;   -0,318
686,806;21486,494;   -0,901;    0,409
687,380;22026,211;   -0,174;    0,591
687,954;22246,746;   -1,174;    1,136
688,528;21911,644;   -0,719;    1,955
689,101;22653,088;   -3,992;    1,045
689,675;22290,805;   -0,356;   -0,136
690,249;21666,431;   -0,719;    0,409
690,822;22038,056;    0,280;    0,318
691,396;22126,682;   -0,265;    1,227
691,969;21658,672;    1,280;    0,136
692,543;22056,934;   -0,447;   -1,955
693,116;21722,469;   -0,265;   -1,409
693,690;21595,822;    0,099;    0,500
694,263;22126,720;   -1,083;    2,955
694,836;22181,891;    1,371;    3,591
695,410;20980,244;   -0,265;    1,773
695,983;21356,506;    0,189;    0,591
696,556;21321,769;   -0,447;   -1,045
697,129;21643,940;   -0,356;    1,409
697,703;21390,656;   -1,629;    1,955
698,276;21423,464;    1,462;   -0,773
698,849;21217,635;    1,280;    1,409
699,422;21581,897;   -1,083;    0,591
699,995;21358,523;    0,007;    0,136
700,568;21726,422;   -0,629;    3,045
701,140;21730,957;   -2,811;    1,682
701,713;21530,219;   -0,174;    2,409
702,286;21275,299;   -0,538;    0,864
702,859;21120,834;   -0,902;   -0,591
703,432;20452,641;    0,825;    0,682
704,004;20818,631;    0,462;    0,318
704,577;20745,711;   -0,629;    0,136
705,150;21238,337;    0,189;    2,500
705,722;21036,417;   -0,356;   -3,227
706,295;20882,588;   -0,175;   -0,591
706,867;20749,851;   -0,175;    1,955
707,440;20955,931;   -1,720;   -0,409
708,012;21242,102;    0,462;    0,591
708,584;21125,001;    2,462;    0,227
709,157;21348,717;    1,825;   -0,591
709,729;21058,343;    2,280;    2,045
710,301;21819,060;    0,734;    0,045
710,874;21820,686;   -1,447;   -0,227
711,446;20786,493;    0,371;    0,864
712,018;20660,573;    0,098;    0,500
712,590;20463,563;   -1,993;    1,682
713,162;20948,825;    0,825;    1,318
713,734;21141,814;    1,825;   -2,045
714,306;21087,895;   -1,902;   -0,409
714,878;19906,975;    0,825;    0,864
715,450;20705,419;    0,643;    0,864
716,022;20917,772;    1,552;    1,318
716,593;21085,943;    0,189;    0,591
717,165;21014,478;   -3,175;   -1,227
717,737;20752,558;    0,280;    0,409
718,309;20463,820;    0,280;   -0,045
718,880;20450,901;   -0,539;   -1,409
719,452;20615,163;   -0,175;   -1,591
720,024;20309,516;    0,734;   -0,591
720,595;20841,687;   -2,902;    0,955
721,167;20468,495;    0,370;   -2,045
721,738;20025,757;   -0,812;   -1,045
722,309;20032,201;   -0,993;   -1,227
722,881;19822,099;   -1,357;    0,773
723,452;20370,998;   -2,630;    2,864
724,023;20531,987;   -0,721;    2,682
724,595;20357,340;    0,007;    0,682
725,166;20104,784;    0,007;   -0,409
725,737;19780,137;    1,734;    0,227
726,308;19879,945;   -0,266;    0,318
726,879;20259,480;   -1,630;    1,227
727,450;20108,560;    0,552;   -0,045
728,021;20094,822;    3,097;    0,682
728,592;19880,812;    0,734;    0,500
729,163;20206,710;    0,643;   -0,136
729,734;20199,699;    0,188;   -0,227
730,305;20524,143;    1,734;    0,136
730,876;20823,133;    0,188;    2,955
731,447;20566,304;    2,188;    2,682
732,017;20660,839;    1,097;    1,864
732,588;20242,919;    0,734;    1,227
733,159;20388,363;    0,643;   -1,045
733,729;20173,807;    0,006;    0,409
734,300;19596,069;    0,915;    0,864
734,870;19966,150;    3,461;    0,591
735,441;20456,684;    0,370;   -0,591
736,011;20273,219;    0,643;   -1,591
736,582;20209,572;   -0,812;    0,045
737,152;19684,834;   -1,721;   -2,045
737,722;20134,278;   -0,267;   -0,682
738,293;19844,450;   -1,358;    1,318
738,863;19747,530;    2,461;    2,318
739,433;19589,337;    5,279;    0,318
740,003;20166,327;   -0,994;   -0,682
740,573;19666,953;    2,097;   -1,591
741,143;19644,760;   -1,085;    0,318
741,713;20334,295;    1,188;   -0,500
742,283;20054,012;    0,915;    1,591
742,853;19866,365;    1,915;    1,591
743,423;19384,900;    1,733;    0,045
743,993;19484,071;   -0,358;    1,500
744,563;18986,333;    0,097;   -0,864
745,133;18908,322;   -0,812;   -0,864
745,702;19507,312;   -0,267;    1,773
746,272;18854,029;   -0,176;    0,591
746,842;18705,109;   -1,358;   -0,591
747,411;19113,644;   -0,267;   -0,318
747,981;19217,997;    0,097;    0,500
748,551;19262,077;    2,278;   -1,045
749,120;19143,066;    0,642;   -0,227
749,690;19464,601;   -0,631;    2,409
750,259;19724,682;    1,369;    2,955
750,828;19646,035;    1,551;   -1,955
751,398;19899,479;    1,278;   -0,045
751,967;19473,559;    2,187;    0,409
752,536;19668,730;   -0,813;   -0,227
753,105;20058,901;    0,096;    0,227
753,675;19813,891;    0,096;    1,773
754,244;19758,426;   -0,904;    3,591
754,813;19771,688;    0,551;    1,227
755,382;19415,768;    0,460;    0,955
755,951;19890,848;    1,551;    3,682
756,520;19494,838;   -0,085;    1,864
757,089;19950,464;    0,278;    0,500
757,658;20042,726;    1,733;    1,227
758,227;20064,261;    1,096;    0,318
758,795;20306,886;    1,187;    1,136
759,364;20543,148;   -0,086;   -0,591
759,933;19664,047;   -1,176;   -0,045
760,501;19237,036;    0,733;   -1,318
761,070;19638,844;   -2,813;   -1,409
761,639;20314,197;   -1,904;    1,318
762,207;19720,641;    1,551;   -0,955
762,776;19649,721;    0,369;    0,864
763,344;19626,347;   -0,995;    0,591
763,913;18681,791;   -0,722;    1,409
764,481;19450,053;    1,005;   -0,136
765,049;19313,406;   -1,358;    1,409
765,618;19192,486;   -0,086;    0,318
766,186;19257,476;    0,278;    0,136
766,754;19486,102;    0,005;    1,864
767,322;18598,000;   -1,995;    0,409
767,890;18569,262;   -0,722;   -1,773
768,459;19048,524;   -2,177;   -0,318
769,027;19218,696;    1,641;    3,409
769,595;18267,140;    3,278;    2,591
770,163;18621,129;    3,823;    2,955
770,730;18422,482;    0,732;   -0,136
771,298;18316,108;    0,187;   -1,409
771,866;18383,915;   -1,541;    4,955
772,434;18719,632;   -0,631;   -1,864
773,002;18878,167;    0,005;    0,682
773,569;18569,702;    0,914;    1,682
774,137;18401,418;   -0,268;   -0,045
774,705;19093,408;    0,278;   -0,136
775,272;18678,579;    0,641;    0,682
775,840;18504,114;   -0,177;    2,682
776,407;18076,467;    0,277;    1,955
776,975;17687,365;   -0,632;    0,318
777,542;18618,537;   -1,086;   -0,045
778,110;18466,526;   -1,268;   -0,045
778,677;18116,606;   -2,359;   -0,864
779,244;17972,050;    2,186;    1,045
779,812;18063,585;    1,823;    0,864
780,379;17935,575;    0,005;    1,136
780,946;18136,473;    1,005;   -0,773
781,513;18391,644;   -1,450;    0,318
782,080;17909,725;   -0,086;    2,864
782,647;18531,896;   -0,268;    3,045
783,214;18210,794;   -0,177;    3,864
783,781;17860,420;   -0,723;   -0,682
784,348;17747,500;   -0,632;    1,500
784,915;18117,217;   -3,177;    0,318
785,482;17915,479;    1,368;    2,591
786,049;18376,923;    0,186;   -0,591
786,615;18499,003;    0,277;   -0,955
787,182;18223,175;    0,186;   -0,682
787,749;17949,164;   -2,814;    1,409
788,315;17336,335;   -1,632;   -0,409
788,882;17637,052;    1,550;   -1,227
789,448;18291,223;    1,732;   -0,955
790,015;18265,394;    1,095;    3,227
790,581;17887,384;    1,459;    0,227
791,148;17818,100;    0,641;    1,045
791,714;17947,817;   -0,541;    3,136
792,280;17695,079;    0,186;    1,591
792,847;17383,432;    0,550;    2,500
793,413;17758,513;   -0,269;   -0,318
793,979;17444,138;    3,459;   -1,318
794,545;17578,855;    4,459;    2,682
795,111;17091,299;    2,186;    1,318
795,678;17187,925;    0,731;   -1,682
796,244;16879,278;    3,368;    0,136
796,810;17367,995;    1,731;    0,773
797,375;17120,075;    0,549;   -2,136
797,941;17146,701;   -0,541;    0,591
798,507;17198,326;   -0,451;   -0,955
799,073;16846,134;   -0,360;    0,591
799,639;16912,851;   -2,632;    3,136
800,205;16990,840;    0,095;    2,682
800,770;16610,011;    0,640;    1,773
801,336;16636,092;    1,368;   -0,955
801,901;16428,717;    4,549;    3,136
802,467;16937,252;   -0,542;    2,045
803,033;16333,242;   -0,087;    0,864
803,598;16510,595;    1,913;   -1,045
804,163;16592,675;    1,095;   -0,318
804,729;16531,392;   -0,178;    1,136
805,294;16814,836;    0,822;    2,227
805,859;16652,825;    0,731;   -0,409
806,425;16270,087;    1,186;    2,682
806,990;15912,440;    2,186;    4,318
807,555;16293,884;   -1,451;    2,591
808,120;16295,783;    0,822;   -0,409
808,685;16336,772;    0,185;   -2,500
809,250;15891,852;    0,004;   -0,500
809,815;16113,114;    1,913;    0,682
810,380;16573,740;   -0,269;    1,591
810,945;17084,002;   -1,087;    2,045
811,510;16391,537;    2,094;    1,591
812,075;16089,799;   -0,633;   -1,409
812,640;16159,698;    2,003;    1,409
813,204;16229,233;    0,822;   -0,227
813,769;16674,313;    2,094;   -0,045
814,334;16140,757;    0,458;    0,864
814,898;16205,383;    0,367;    0,591
815,463;16031,918;    1,276;   -0,773
816,027;16026,452;   -0,724;   -2,318
816,592;16112,987;    0,640;   -2,045
817,156;15745,159;    2,094;    1,136
817,721;15631,693;    4,276;    2,318
818,285;15620,865;    2,912;    1,500
818,849;16158,490;   -1,451;    1,682
819,414;16081,116;   -0,269;    2,955
819,978;15699,378;   -1,269;    1,773
820,542;16258,186;    2,003;    0,500
821,106;16014,357;   -0,815;    0,682
821,670;16096,346;   -0,815;    2,591
822,234;15845,063;   -0,270;    1,409
822,798;15338,780;    0,003;    0,500
823,362;15353,315;   -0,633;    4,227
823,926;14788,395;    0,094;    1,136
824,490;14962,112;   -0,997;   -0,682
825,054;15339,556;   -0,088;   -1,136
825,618;15054,545;   -1,542;   -1,500
826,181;14987,534;    0,458;   -1,318
826,745;14954,887;    1,367;   -1,045
827,309;15249,513;    1,185;    1,318
827,872;14745,503;    1,367;    0,955
828,436;15667,947;    1,185;   -0,773
828,999;15745,391;   -0,997;    1,227
829,563;14726,289;   -0,179;    1,136
830,126;14537,369;   -0,179;   -0,591
830,690;14596,541;   -1,997;    2,864
831,253;14116,439;   -0,543;    2,227
831,816;14298,065;   -1,906;    0,500
832,380;14276,509;    0,185;    0,864
832,943;14487,225;   -1,361;   -0,500
833,506;13978,488;    2,639;   -1,227
834,069;14688,477;    3,912;   -0,955
834,632;14776,285;    1,730;    1,318
835,195;14676,547;    1,003;    0,955
835,758;13989,991;   -0,997;    1,955
836,321;13905,344;    0,730;   -1,045
836,884;13977,788;   -0,725;   -0,955
837,447;13978,868;   -2,816;    1,773
838,010;14236,585;    0,366;    3,227
838,573;14479,301;   -1,179;    0,773
839,135;14451,563;   -1,361;   -0,955
839,698;13984,735;    1,275;    0,409
840,261;13574,360;    1,003;   -0,227
840,823;13412,623;   -0,543;    0,864
841,386;13705,885;   -0,452;   -2,409
841,948;13664,238;   -1,361;    1,773
842,511;13409,227;    0,912;    1,682
843,073;13493,307;    1,912;    0,227
843,636;13304,933;   -0,361;   -0,227
844,198;13246,650;    0,911;    0,591
844,760;13401,457;    1,093;    1,955
845,322;13097,265;    0,548;    1,136
845,885;13496,527;    0,730;    0,591
846,447;13907,244;   -1,998;    0,227
847,009;13569,233;    1,911;   -0,682
847,571;13782,223;    0,820;   -2,045
848,133;13874,121;   -1,089;   -1,864
848,695;13675,656;   -0,543;    1,409
849,257;13312,464;   -1,089;   -1,682
849,819;13511,998;   -0,998;   -0,409
850,381;13504,715;   -0,725;   -0,864
850,942;13800,795;    1,093;   -0,591
851,504;13722,239;    1,184;    0,227
852,066;13757,411;    1,275;   -1,591
852,628;13411,582;   -0,180;    1,955
853,189;12963,117;    1,638;    2,682
853,751;13086,106;   -0,907;    1,409
854,312;12914,550;   -0,453;   -1,682
854,874;13378,812;   -2,089;   -0,773
855,435;13779,256;   -0,907;   -1,682
855,997;13936,882;   -1,816;   -0,136
856,558;13305,144;    0,366;    1,773
857,119;13404,952;    0,820;    2,864
857,681;13134,032;    0,002;    0,318
858,242;13195,567;    1,911;   -2,136
858,803;13585,920;    0,456;   -0,773
859,364;14083,000;    0,184;   -4,773
859,925;13550,171;   -2,453;   -0,955
860,486;13439,343;   -0,453;   -0,955
861,047;13190,787;   -0,544;   -1,227
861,608;13050,412;   -1,089;   -0,773
862,169;13177,856;    0,638;   -0,045
862,730;12946,755;    0,456;    1,409
863,291;13198,744;   -0,635;   -0,500
863,852;13502,006;   -0,635;    1,955
864,412;13043,087;   -0,271;   -0,864
864,973;11842,621;   -0,089;    0,500
865,534;11718,247;   -1,726;    0,227
866,094;12979,146;    1,820;    0,227
866,655;12705,771;    1,274;    3,318
867,215;12981,579;    0,274;    0,136
867,776;12823,205;    0,547;   -0,136
868,336;12904,467;   -1,453;    0,136
868,897;12533,275;    2,638;    1,682
869,457;12317,082;    1,365;    0,318
870,017;12543,253;    0,547;   -1,227
870,578;12986,334;   -0,817;    0,773
871,138;12617,232;   -2,089;   -0,955
871,698;12219,312;   -0,817;   -1,318
872,258;12156,393;   -0,453;   -2,864
872,818;12525,837;    2,729;    0,045
873,378;12508,372;    0,638;    1,045
873,938;12088,452;    0,547;    0,500
874,498;12354,169;    0,274;   -1,955
875,058;12296,613;    2,183;    1,773
875,618;12162,329;    1,910;   -2,682
876,177;12082,864;    1,274;    0,136
876,737;11757,853;   -0,090;    1,955
877,297;11843,297;    0,183;    1,955
877,856;11859,923;   -0,362;    0,318
878,416;11789,822;    1,183;   -0,136
878,976;11967,629;   -1,817;    0,409
879,535;12148,255;    0,092;    3,136
880,095;11963,699;   -0,544;    0,045
880,654;12026,507;   -1,090;    1,318
881,213;12182,496;    2,456;    1,500
881,773;11823,849;    2,637;    2,682
882,332;12191,566;    3,365;    5,136
882,891;12020,464;    3,092;    2,136
883,451;12366,726;   -1,272;    1,682
884,010;11846,443;   -2,908;   -0,409
884,569;11996,432;   -0,999;   -0,045
885,128;12110,240;    2,819;   -1,864
885,687;12203,411;    4,455;    0,682
886,246;11975,673;    1,455;    2,136
886,805;11716,572;    2,455;    2,045
887,364;11927,561;   -0,999;   -0,500
887,922;12229,460;   -1,181;    0,045
888,481;11748,813;   -1,545;    0,591
889,040;12072,711;    1,183;    2,136
889,599;12585,246;    2,455;    1,409
890,157;12646,872;    1,455;    2,409
890,716;12291,043;   -0,090;    0,227
891,274;12112,123;    0,092;   -1,136
891,833;12519,476;    1,546;    0,864
892,391;12394,193;   -0,454;    0,500
892,950;12466,364;    1,819;   -0,773
893,508;12811,445;    0,455;   -0,409
894,067;12183,343;    0,637;    0,136
894,625;12088,605;   -0,636;   -1,500
895,183;12312,413;   -0,363;   -0,682
895,741;12273,402;    1,728;   -1,773
896,299;12101,755;   -0,545;   -2,409
896,858;12254,563;    0,819;   -1,591
897,416;12427,461;    2,728;   -1,318
897,974;12167,178;    1,819;    0,318
898,532;12362,895;    6,091;    2,682
899,089;12276,430;    2,091;   -0,682
899,647;12315,146;   -1,454;    1,318
900,205;12112,317;    1,182;    1,045
900,763;12262,943;   -0,454;    0,227
901,321;12271,024;    2,364;   -1,409
901,878;11721,377;   -1,000;   -0,773
902,436;11663,639;   -1,363;    1,318
902,994;12110,537;    4,728;    3,682
903,551;11626,890;    0,728;    0,409
904,109;11936,152;    0,182;   -1,409
904,666;11611,233;    2,455;    1,045
905,224;11427,677;    0,182;   -0,409
905,781;11293,666;    0,727;   -0,318
906,338;11354,110;   -1,363;    1,045
906,895;11304,281;    0,637;    2,045
907,453;11245,725;    1,727;    1,136
908,010;11228,806;   -0,909;    0,409
908,567;10950,522;    1,273;    0,591
909,124;10524,602;    0,364;   -1,500
909,681;10583,228;   -2,909;    0,682
910,238;10774,309;    0,636;   -1,318
910,795;11103,480;   -0,273;   -1,136
911,352;10749,116;   -2,909;   -2,682
911,909;10254,116;   -1,364;   -0,864
912,466;10735,298;   -3,182;    1,500
913,022;10313,753;   -1,636;    0,500
913,579;10638,116;   -0,909;    2,045
914,136;10400,298;    1,636;    0,955
914,692;10689,389;    0,091;   -1,227
915,249;10320,389;    1,455;    0,409
915,806;10522,753;    0,182;    1,955
916,362;10375,662;    1,909;    1,864
916,918; 9978,843;    2,000;    1,045
917,475;10024,934;   -1,182;    0,955
918,031;10057,843;    3,364;   -0,045
918,587; 9607,571;   -0,909;   -0,318
919,144; 9880,843;   -2,273;    0,227
919,700;10105,934;    1,727;    0,773
920,256; 9718,207;    0,727;    0,045
920,812; 9425,753;   -0,727;   -1,045
921,368; 9496,571;   -1,727;   -1,045
921,924; 9180,753;    0,182;   -0,136
922,480; 8811,298;   -0,545;    1,227
923,036; 9377,753;    1,273;    1,955
923,592; 9358,389;    0,455;    0,318
924,148; 9300,662;    0,455;   -0,955
924,704; 8740,207;   -1,364;   -0,409
925,259; 9027,207;   -0,273;    0,591
925,815; 8798,753;    1,455;    0,500
926,371; 8371,480;    2,909;    1,409
926,926; 8367,207;    2,091;    0,591
927,482; 8073,571;   -1,364;    0,773
928,037; 7993,571;    0,909;    2,045
928,593; 8301,389;    1,636;    1,045
929,148; 8138,843;   -1,818;   -1,500
929,704; 7746,480;   -1,455;   -0,500
930,259; 7908,116;    0,091;   -0,136
930,814; 7193,571;   -0,818;    1,955
931,369; 6936,480;    1,091;   -0,773
931,925; 6856,662;   -0,091;    0,136
932,480; 6774,753;   -2,818;   -2,591
933,035; 6782,389;    0,545;   -0,318
933,590; 6621,843;    0,364;   -1,773
934,145; 6305,571;   -1,364;   -0,318
934,700; 6596,389;    0,455;   -0,591
935,255; 6472,662;   -0,091;    0,045
935,809; 5965,025;    3,182;    0,864
936,364; 5235,571;   -0,455;   -0,136
936,919; 5281,934;    0,455;   -1,773
937,474; 5192,480;    1,455;    0,136
938,028; 5005,934;   -1,636;    1,136
938,583; 4691,662;    1,818;    4,682
939,138; 4867,298;    2,091;    2,136
939,692; 4429,116;    1,636;   -1,136
940,247; 4219,662;   -0,727;   -1,045
940,801; 3948,207;   -0,636;    0,227
941,355; 3892,116;   -0,364;    2,591
941,910; 3588,753;   -0,273;   -2,136
942,464; 3696,389;   -0,818;   -0,318
943,018; 3613,571;    1,000;   -0,227
943,572; 3533,025;    2,545;   -0,682
944,126; 3126,116;    0,091;   -0,409
944,681; 3025,480;    3,091;    0,227
945,235; 2994,025;    1,000;   -0,591
945,789; 2938,207;    0,364;   -1,864
946,342; 3144,934;    0,455;   -0,591
946,896; 2882,843;   -2,273;    0,955
947,450; 2691,389;    1,545;   -0,227
948,004; 2958,116;    1,727;   -0,045
948,558; 2895,480;    0,273;   -0,864
949,111; 2819,207;   -0,273;   -0,318
949,665; 2956,662;    1,636;   -0,682
950,219; 2843,116;   -0,091;   -1,045
950,772; 2850,662;   -1,909;    1,864
951,326; 2789,025;    0,545;   -0,955
951,879; 2837,571;    0,727;   -2,318
952,433; 2898,389;    0,000;    2,227
952,986; 2726,116;    2,909;    0,682
953,539; 2655,116;   -0,273;    0,591
954,093; 2631,207;    0,545;   -1,318
954,646; 2769,571;    0,909;    1,318
955,199; 2588,934;    0,000;   -0,500
955,752; 2579,207;   -0,455;    1,773
956,305; 2494,298;   -0,091;    2,955
956,858; 2647,843;    0,818;   -0,318
957,411; 2792,843;   -0,545;    2,136
957,964; 2621,025;    1,364;    2,136
958,517; 2586,843;   -1,545;    3,136
959,070; 2459,116;   -0,455;    1,955
959,623; 2631,571;    1,091;    1,500
960,176; 2431,662;    1,727;    2,045
960,728; 2423,934;   -2,727;    0,773
961,281; 2451,298;    0,545;    0,500
961,834; 2458,298;   -0,909;    0,864
962,386; 2395,116;    1,727;    1,045
962,939; 2330,843;    0,364;   -0,318
963,491; 2442,207;    0,455;    1,136
964,043; 2338,843;    1,182;    2,409
964,596; 2474,662;   -1,000;    2,227
965,148; 2339,116;   -1,000;    1,773
965,700; 2254,843;    1,091;   -0,227
966,253; 2398,389;   -0,636;    0,318
966,805; 2287,025;   -2,273;    0,773
967,357; 2288,571;    1,091;   -1,500
967,909; 2298,116;    0,455;   -1,227
968,461; 2346,298;    0,545;    3,136
969,013; 2269,480;   -0,182;   -0,864
969,565; 2376,025;   -0,455;   -1,136
970,117; 2576,207;   -0,364;    1,045
970,669; 2312,298;    0,182;   -0,136
971,220; 2124,753;   -0,455;   -1,500
971,772; 2119,025;   -0,636;   -0,318
972,324; 2248,116;    0,091;   -0,500
972,876; 2154,934;    0,818;   -0,045
973,427; 2321,480;    1,909;   -1,045
973,979; 2319,843;   -0,727;   -2,500
974,530; 2259,207;    1,818;    1,318
975,082; 2260,934;   -0,545;    1,682
975,633; 2201,207;    1,091;    1,682
976,184; 2338,298;    0,909;    0,773
976,736; 2191,025;    0,091;    0,227
977,287; 2035,480;   -0,909;   -0,500
977,838; 2179,207;    0,909;   -0,318
978,389; 2219,480;   -1,000;   -0,500
978,940; 2064,207;    0,545;   -0,409
979,491; 2077,207;    0,091;   -0,500
980,042; 2094,298;    0,182;    3,045
980,593; 2115,753;   -2,545;    0,227
981,144; 2206,753;    2,545;   -0,500
981,695; 2233,116;    1,455;    1,500
982,246; 2162,753;   -0,273;    1,045
982,797; 2208,843;   -1,727;    0,682
983,347; 2337,480;    0,364;    0,591
983,898; 2544,207;    3,091;    0,409
984,449; 2408,571;    2,182;    0,773
984,999; 2241,298;    1,455;   -1,136
985,550; 2091,207;    0,182;   -0,318
986,100; 2046,843;   -0,455;   -0,318
986,651; 2064,389;   -0,818;    0,045
987,201; 2068,843;   -1,000;   -0,591
987,751; 2146,480;    0,818;    2,864
988,302; 2153,298;    2,636;    1,500
988,852; 2166,389;    0,455;   -1,136
989,402; 2251,298;    0,091;    0,682
989,952; 2195,025;   -2,182;    0,864
990,502; 2213,843;   -0,091;    0,682
991,052; 2136,662;   -0,727;    0,045
991,602; 2050,298;   -2,909;    1,318
992,152; 2064,753;    0,455;    0,682
992,702; 2059,934;    1,364;   -0,045
993,252; 2012,389;   -3,000;   -0,500
993,802; 2126,298;   -0,273;    1,318
994,352; 2259,753;   -1,545;    1,136
994,901; 2302,298;   -0,182;    3,227
995,451; 2226,571;   -0,182;    0,318
996,000; 2299,025;    1,636;    0,318
996,550; 2068,025;    2,273;    0,227
997,100; 2080,843;    1,273;   -0,045
997,649; 2341,207;    2,182;    0,955
998,198; 2020,116;    1,727;   -1,500
998,748; 2241,753;    1,091;   -2,318
999,297; 2093,571;   -0,818;   -0,409
999,846; 2224,207;    1,000;   -0,773
1000,395; 2213,116;   -0,818;    0,500
1000,945; 2238,480;    1,818;   -0,773
1001,494; 2302,662;    2,364;    0,682
1002,043; 2258,389;    4,636;    0,864
1002,592; 2083,207;   -1,091;    1,955
1003,141; 2199,934;   -0,455;   -0,682
1003,690; 2149,025;    1,727;    0,500
1004,238; 2143,389;    1,455;   -0,045
1004,787; 1842,753;    1,364;    1,227
1005,336; 2131,025;    0,364;    0,682
1005,885; 2190,116;    1,364;   -2,773
1006,433; 2268,207;    0,545;    0,955
1006,982; 2426,389;    0,455;    1,682
1007,531; 2257,116;   -1,818;   -0,227
1008,079; 2184,207;   -2,273;    0,500
1008,627; 2269,389;   -1,455;    0,409
1009,176; 2084,480;    0,000;   -1,955
1009,724; 2106,662;    1,091;    0,864
1010,273; 2232,571;    1,273;    0,500
1010,821; 2274,298;    0,091;    1,409
1011,369; 2051,934;   -1,364;    1,318
1011,917; 2044,116;   -1,364;   -0,591
1012,465; 2282,662;    1,273;   -1,591
1013,013; 2330,298;    2,091;   -1,682
1013,561; 2308,934;    0,455;   -0,773
1014,109; 2403,207;   -1,909;    1,682
1014,657; 2266,843;    0,364;    0,591
1015,205; 2293,753;    1,636;   -0,955
1015,753; 2274,116;   -0,545;   -1,409
1016,301; 2343,662;   -2,636;    3,045
1016,848; 2375,934;   -1,273;    0,409
1017,396; 2401,389;    2,545;    0,045
1017,944; 2485,480;    1,182;    1,864
1018,491; 2257,480;    0,273;    1,409
1019,039; 2540,843;    0,455;    0,591
1019,586; 2353,662;   -1,364;    1,682
1020,134; 2412,116;    0,455;    1,500
1020,681; 2466,480;    0,182;   -1,136
1021,228; 2417,207;    2,909;   -2,227
1021,776; 2284,843;    1,182;   -1,136
1022,323; 2532,116;    0,455;    0,773
1022,870; 2451,934;   -1,000;   -0,045
1023,417; 2407,025;    2,636;    1,864
1023,964; 2437,116;    2,636;    1,227
1024,511; 2355,389;    1,000;    0,773
1025,058; 2184,207;    3,182;   -0,045
1025,605; 2203,843;   -2,273;    3,136
1026,152; 2485,025;    1,727;   -0,591
1026,699; 2197,843;    1,818;    1,318
1027,245; 2296,571;   -0,091;    0,318
1027,792; 2435,934;   -1,000;    1,409
1028,339; 2438,934;    2,364;   -0,045
1028,885; 2272,025;    1,000;   -0,227
1029,432; 2220,934;   -0,091;    0,227
1029,978; 2311,753;   -1,000;   -1,591
1030,525; 2233,843;    1,000;    0,409
1031,071; 2348,116;   -1,364;    1,136
1031,618; 2563,025;    0,364;    1,682
1032,164; 2330,662;   -0,091;    3,045
1032,710; 2373,480;    1,636;   -1,500
1033,256; 2270,934;   -0,636;   -0,136
1033,803; 2209,753;   -0,545;    1,500
1034,349; 1992,116;   -1,364;    0,136
1034,895; 2126,207;    0,000;   -0,318
1035,441; 2106,934;   -0,818;    0,318
1035,987; 2140,480;   -2,364;   -0,682
1036,533; 2183,934;   -1,455;   -0,955
1037,078; 2419,934;    1,455;    1,682
1037,624; 2225,753;    2,455;   -0,955
1038,170; 2189,025;    0,455;   -0,318
1038,716; 2156,389;    1,636;   -0,409
1039,261; 2041,480;   -2,273;   -0,773
1039,807; 1999,298;   -0,091;    3,409
1040,352; 2088,934;   -1,909;   -0,318
1040,898; 2105,571;   -1,545;   -0,682
1041,443; 2008,025;   -1,455;   -2,591
1041,989; 2175,934;    1,091;    1,591
1042,534; 1982,298;   -0,364;    2,591
1043,079; 2003,571;    2,909;    0,955
1043,625; 1897,662;    1,818;    0,500
1044,170; 1973,389;   -1,364;    1,045
1044,715; 2234,298;    2,455;    0,955
1045,260; 2044,480;    2,182;   -0,955
1045,805; 2016,389;    1,182;   -0,591
1046,350; 1948,116;    1,364;   -0,409
1046,895; 2030,025;    2,909;    1,591
1047,440; 2010,662;    5,364;    0,409
1047,985; 1856,753;    2,818;   -0,955
1048,530; 1774,662;    1,545;    1,227
1049,074; 1869,025;    0,000;    0,318
1049,619; 1805,662;   -1,364;    1,955
1050,164; 1665,207;    0,455;    0,227
1050,708; 1727,843;   -0,455;    0,045
1051,253; 2135,298;    1,273;   -2,227
1051,797; 1823,934;    0,818;   -1,318
1052,342; 1740,480;   -1,182;    1,045
1052,886; 1787,116;    0,364;   -1,409
1053,430; 1646,753;   -1,364;    0,136
1053,975; 1689,662;   -0,818;   -0,318
1054,519; 1685,662;   -0,727;    3,227
1055,063; 1769,116;    0,909;    1,318
1055,607; 1669,207;   -0,182;    0,227
1056,151; 1677,571;    2,909;    1,682
1056,695; 1570,025;    2,273;   -1,136
1057,239; 1638,480;   -1,727;   -0,682
1057,783; 1651,389;    0,818;   -1,500
1058,327; 1646,207;    0,000;    1,409
1058,871; 1892,389;   -0,545;    1,318
1059,415; 1623,662;   -0,818;   -0,045
1059,958; 1898,571;    1,455;    2,591
1060,502; 1595,843;   -1,000;   -0,773
1061,046; 1463,207;    0,364;   -0,955
1061,589; 1439,207;   -3,000;   -1,136
1062,133; 1340,843;   -1,273;    1,864
1062,676; 1329,571;    1,182;    0,864
1063,220; 1363,843;    1,091;    0,500
1063,763; 1404,480;    0,909;    1,136
1064,306; 1472,025;   -0,909;    1,864
1064,849; 1379,025;   -0,909;    0,591
1065,393; 1376,298;    2,000;   -1,500
1065,936; 1451,480;    0,182;   -0,409
1066,479; 1315,480;   -1,455;    1,318
1067,022; 1345,298;   -0,273;   -0,227
1067,565; 1272,662;   -0,091;   -1,318
1068,108; 1269,025;    0,727;   -0,591
1068,651; 1240,843;   -0,636;    1,409
1069,194; 1193,207;   -0,455;   -1,682
1069,736; 1218,298;   -1,273;    0,955
1070,279; 1169,025;   -1,364;   -0,500
1070,822; 1272,025;   -2,000;   -0,318
1071,364; 1394,571;   -0,364;    1,318
1071,907; 1191,571;   -0,727;    3,227
1072,450; 1037,753;    0,000;   -0,045
1072,992; 1088,116;   -0,273;    3,136
1073,535; 1239,025;    2,091;    2,136
1074,077; 1044,298;   -0,727;    2,045
1074,619; 1020,843;   -1,364;    0,591
1075,161; 1067,662;   -1,091;    1,500
1075,704; 1257,480;    1,545;    1,227
1076,246; 1027,662;   -0,182;    0,682
1076,788;  943,298;   -0,364;    1,773
1077,330; 1004,116;    1,273;    2,136
1077,872; 1012,571;    0,909;    0,955
1078,414; 1262,298;    2,727;    0,773
1078,956;  993,843;    1,273;   -0,227
1079,498; 1269,662;    1,636;    0,318
1080,040;  976,753;    1,909;   -1,318
1080,581;  912,207;    1,636;   -0,318
1081,123;  824,116;    0,091;   -0,773
1081,665;  863,571;   -1,182;   -0,955
1082,206; 1188,480;    1,364;   -0,500
1082,748; 1062,571;    0,727;    2,045
1083,289;  905,571;   -2,000;    1,318
1083,831;  843,298;   -0,545;    0,227
1084,372;  910,298;    0,000;    0,591
1084,913;  908,753;    1,091;    0,864
1085,455;  844,934;   -1,909;   -2,045
1085,996;  847,116;   -2,273;    0,136
1086,537;  874,934;   -0,091;    0,864
1087,078;  888,843;   -0,909;   -2,136
1087,619;  943,025;   -1,273;    0,227
1088,160;  869,480;    0,000;    1,318
1088,701;  850,480;   -1,091;    0,682
1089,242;  796,843;    1,364;   -2,227
1089,783;  905,662;   -0,273;    1,409
1090,324;  870,207;    0,455;    0,682
1090,865;  747,116;    2,727;   -0,409
1091,405;  700,298;    0,727;    2,227
1091,946;  731,571;    0,182;   -0,955
1092,487;  656,207;    0,818;   -1,409
1093,027;  843,480;   -1,364;   -1,500
1093,568;  709,843;   -0,364;    1,227
1094,108;  814,207;    0,273;    1,773
1094,649;  746,662;   -1,182;    0,136
1095,189;  664,843;   -0,636;   -0,682
1095,729;  647,753;   -0,091;    0,955
1096,269;  640,662;    0,727;   -0,955
1096,810;  946,753;   -1,364;    0,500
1097,350;  805,753;    1,364;   -0,773
1097,890;  694,389;    0,364;    1,227
1098,430;  961,934;    2,364;    2,864
1098,970;  839,934;    2,182;    1,682
1099,510;  675,753;    0,545;   -2,318
1100,050;  621,298;    1,000;   -1,591
1100,589;  606,480;   -0,727;   -0,318
1101,129;  732,298;    0,818;   -0,955
1101,669;  882,298;    1,727;    2,136
1102,209;  713,025;   -0,091;    2,227
1102,748;  665,753;    0,000;    0,955
1103,288;  662,753;    1,273;   -1,227
1103,827;  676,389;    3,091;   -2,227
1104,367;  558,298;   -0,091;   -2,409
1104,906;  528,207;    1,364;   -1,136
1105,445;  606,753;    0,636;   -1,136
1105,985;  566,116;   -0,727;    1,500
1106,524;  606,571;   -1,727;   -0,682
1107,063;  581,934;   -2,727;    1,409
1107,602;  538,571;   -1,909;   -1,500
1108,141;  479,480;   -1,909;    1,500
1108,680;  602,025;   -3,455;   -0,591
1109,219;  528,207;   -0,909;   -0,500
1109,758;  522,571;    0,455;    0,682
1110,297;  512,389;    1,000;   -0,682
1110,836;  452,843;   -0,727;    0,955
1111,375;  604,480;   -2,545;    0,409
1111,913;  618,389;   -1,000;    0,773
1112,452;  558,025;   -0,273;    0,136
1112,991;  451,207;    1,091;    1,955
1113,529;  416,298;   -0,818;   -0,045
1114,068;  485,298;   -0,273;    2,955
1114,606;  399,843;   -0,364;   -0,955
1115,144;  564,298;   -1,273;    1,045
1115,683;  496,389;   -0,727;    0,318
1116,221;  541,934;   -0,455;   -0,864
1116,759;  451,753;    0,636;   -0,864
1117,297;  644,207;    0,000;    1,864
1117,836;  462,480;   -2,182;   -1,227
1118,374;  464,389;    0,182;   -0,682
1118,912;  420,753;    0,909;    2,682
1119,450;  417,843;    1,000;    0,864
1119,988;  459,662;    1,545;    2,136
1120,525;  894,843;    5,091;    3,318
1121,063;  606,207;    1,182;    1,864
1121,601;  427,389;   -0,909;   -1,227
1122,139;  381,934;   -0,727;   -2,045
1122,676;  575,207;   -0,727;    2,773
1123,214;  509,843;   -1,182;    4,409
1123,751;  335,116;    1,727;    2,227
1124,289;  456,025;   -0,091;   -0,409
1124,826;  343,571;    1,727;    0,227
1125,364;  271,571;    1,727;   -0,955
1125,901;  449,298;    1,182;    1,227
1126,438;  552,389;    0,818;    0,955
1126,975;  298,753;   -0,727;   -0,773
1127,513;  364,753;    0,273;    2,136
1128,050;  265,389;    1,636;   -0,682
1128,587;  362,207;    2,000;   -0,227
1129,124;  408,116;    0,091;    1,318
1129,661;  281,116;    0,273;    0,227
1130,198;  451,662;    1,636;    0,773
1130,734;  391,753;    0,182;    1,409
1131,271;  257,480;   -0,909;    0,864
1131,808;  423,389;    2,909;    3,045
1132,345;  307,571;    1,545;    0,318
1132,881;  179,389;   -1,545;   -1,864
1133,418;  314,389;    0,727;   -1,136
1133,954;  255,207;    2,455;   -2,682
1134,491;  327,480;    1,364;   -0,773
1135,027;  240,207;    2,364;    0,864
1135,564;  321,116;    0,273;    2,955
1136,100;  307,025;    0,364;    2,136
1136,636;  194,753;   -1,273;   -1,045
1137,172;  290,025;    0,000;   -1,045
1137,708;  222,843;   -1,364;   -1,045
1138,245;  228,116;    1,273;   -1,227
1138,781;  168,843;    1,091;   -3,318
1139,317;  239,480;    1,273;   -1,409
1139,852;  242,753;    3,091;    0,136
1140,388;  341,934;   -1,182;   -0,409
1140,924;  233,662;   -1,091;   -2,227
1141,460;  180,207;   -1,636;    0,136
1141,996;  112,480;   -1,364;    2,682
1142,531;  166,480;    1,364;    3,318
1143,067;  361,298;    1,182;    1,045
1143,602;  418,480;   -0,091;   -0,318
1144,138;  272,662;   -2,636;    1,045
1144,673;  148,389;   -1,455;    1,409
1145,209;  211,207;   -1,909;   -0,318
1145,744;  143,389;   -0,727;    0,864
1146,279;  273,662;    1,818;   -0,136
1146,815;  191,207;    1,545;   -2,682
1147,350;  231,480;   -1,364;    0,045
1147,885;  152,389;   -0,818;   -1,318
1148,420;  146,025;   -2,273;    0,773
1148,955;  137,571;   -1,727;    1,864
1149,490;  155,571;   -0,909;   -1,591
1150,025;  136,753;    0,455;   -1,773
1150,560;  246,934;    1,091;   -0,955
1151,094;  210,662;    1,455;   -0,591
1151,629;  215,480;    1,636;    0,864
1152,164;  151,116;    1,364;    1,318
1152,698;  119,753;   -0,182;   -0,136
1153,233;   82,753;    0,091;   -0,682
1153,767;  109,662;   -3,000;   -2,318
1154,302;  160,207;   -1,455;    1,773
1154,836;  163,753;   -0,455;   -2,136
1155,371;  221,843;   -1,364;    3,682
1155,905;  169,116;   -0,636;    1,682
1156,439;  137,934;   -0,636;   -0,500
1156,973;  176,480;    0,364;    0,318
1157,507;  108,116;   -0,364;    0,682
1158,042;  132,753;   -0,727;    1,045
1158,576;  178,116;    0,182;    1,773
1159,110;  175,298;   -0,818;    2,409
1159,643;  140,025;    0,636;   -0,045
1160,177;   84,934;   -1,545;    1,500

