
Integration time [ms]:   0,040
Averaging Nr. [scans]: 11
Smoothing Nr. [pixels]: 0
Data measured with spectrometer [name]: 7318044SP
Wave   ;Sample   ;Dark     ;Reference
[nm]   ;[counts] ;[counts] ;[counts] 

186,757;   14,092;   31,551;    1,318
187,357;   39,985;   22,551;    0,955
187,958;   22,146;   15,460;   -1,591
188,558;   58,227;    8,915;   -1,227
189,159;   21,282;    6,733;   -4,500
189,759;   -3,173;    7,278;   -3,591
190,360;    0,574;    2,824;   -2,136
190,960;   29,569;    2,915;   -4,136
191,560;   37,852;    3,189;   -6,591
192,161;  236,571;    4,372;   -3,500
192,761;  105,910;    4,010;   -3,227
193,361;   59,717;    1,556;   -3,773
193,962;  102,488;    2,010;   -2,682
194,562;   22,482;    1,189;   -3,955
195,162;   47,490;   -2,448;   -2,227
195,762;  158,390;   -3,176;   -0,045
196,362;  110,942;    1,370;   -2,500
196,963;   23,316;    2,006;   -0,864
197,563;   62,569;    1,551;   -0,955
198,163;   17,726;    0,096;   -0,682
198,763;   31,580;    1,733;   -0,500
199,363;   95,309;    3,096;   -0,500
199,963;   62,328;    0,369;    0,409
200,563;   39,881;    2,823;   -1,409
201,163;   28,914;    3,277;   -0,227
201,763;   73,206;    3,732;    0,318
202,363;   32,075;    1,459;    1,500
202,963;   78,040;    1,459;    1,045
203,563;  140,851;    0,277;    0,500
204,162;   65,672;    2,096;   -1,864
204,762;   60,266;    0,550;    0,591
205,362;   33,892;    3,004;    1,955
205,962;   89,845;    3,096;    1,955
206,562;   78,569;    1,823;    2,318
207,161;   53,545;   -0,087;    0,318
207,761;  171,228;    1,277;    2,409
208,361;   73,810;   -0,268;    1,409
208,960;  123,816;    0,459;    1,500
209,560;  131,200;    1,277;    1,591
210,160;  142,964;    0,550;    1,864
210,759;  116,299;    4,186;    1,227
211,359;  102,686;    1,459;    1,045
211,958;  274,807;    1,277;    2,045
212,558;  312,212;    1,732;    1,864
213,157;  204,379;    1,822;    1,500
213,757;  466,462;    3,822;   -0,227
214,356;  264,385;    1,277;   -0,409
214,956;  466,731;    3,095;    0,409
215,555;  223,624;    2,095;    2,136
216,154;  178,738;   -2,723;   -0,591
216,754;  179,510;    0,277;    0,773
217,353;  234,497;   -0,268;   -1,045
217,952;  123,682;   -0,178;    0,318
218,552;  295,478;    1,368;   -0,773
219,151;  206,145;    0,277;    0,955
219,750;  192,406;    0,004;   -0,227
220,349;  180,708;   -0,451;    1,045
220,948;  316,580;   -1,360;    1,136
221,548;  220,702;    0,913;    1,227
222,147;  287,290;   -0,087;   -0,409
222,746;  480,192;   -0,451;   -0,955
223,345;  342,172;    0,731;    0,500
223,944;  357,297;   -0,451;    0,773
224,543;  388,494;    1,004;   -1,409
225,142;  438,252;    0,094;    0,136
225,741;  391,665;   -0,814;    1,045
226,340;  364,395;   -0,451;   -0,955
226,939;  555,334;   -0,996;   -0,136
227,538;  354,754;   -0,360;   -0,773
228,137;  537,943;   -0,814;    0,864
228,735;  466,965;   -0,541;    1,227
229,334;  309,009;   -0,905;   -0,227
229,933;  568,465;    0,459;    0,591
230,532;  605,458;    1,186;   -0,409
231,131;  699,113;    1,732;    0,318
231,729;  552,031;   -2,450;   -2,318
232,328;  445,619;   -0,723;   -1,500
232,927;  437,677;    1,004;   -0,500
233,525;  431,043;    3,640;    0,045
234,124;  500,344;    2,368;   -1,591
234,723;  383,713;    0,913;   -1,045
235,321;  392,245;    2,277;    0,136
235,920;  459,645;    1,186;   -1,227
236,518;  679,268;    3,459;    0,318
237,117;  484,111;    0,004;   -0,227
237,715;  488,873;    0,640;   -0,500
238,314;  577,028;   -0,087;   -2,318
238,912;  789,415;   -0,723;   -1,409
239,510;  620,867;    0,459;   -1,227
240,109;  800,695;    0,004;    3,773
240,707;  753,743;   -0,996;    1,227
241,305;  589,339;    0,550;    0,136
241,904;  773,066;   -0,178;   -2,045
242,502;  910,818;   -0,632;   -0,227
243,100;  782,918;   -0,087;   -0,955
243,698;  786,589;    0,732;    1,682
244,297;  851,169;   -0,632;    0,682
244,895;  892,198;   -0,269;   -2,318
245,493; 1176,227;    2,186;   -0,591
246,091; 1166,656;    1,368;   -1,318
246,689; 1122,314;    1,004;    0,591
247,287; 1110,677;    0,822;   -1,136
247,885; 1151,962;   -1,451;    1,227
248,483; 1168,586;    1,822;   -0,500
249,081; 1283,519;    0,185;    1,591
249,679; 1419,721;   -0,178;    1,682
250,277; 1367,844;   -1,723;    0,864
250,875; 1505,986;   -1,087;   -1,045
251,473; 1466,839;   -1,178;    0,500
252,071; 1618,222;    1,459;    1,045
252,669; 1635,661;   -1,814;    0,318
253,267; 1655,727;   -0,087;    0,773
253,864; 1623,950;   -0,360;    0,682
254,462; 1840,938;    1,640;    1,591
255,060; 1664,503;   -0,269;    1,318
255,658; 1722,388;    0,822;   -0,136
256,255; 2001,154;    0,186;   -2,045
256,853; 2012,144;   -0,269;    1,409
257,451; 1981,180;    0,822;    1,864
258,048; 2519,563;    1,822;    1,864
258,646; 2104,414;    1,731;   -1,045
259,243; 2273,053;   -0,087;    2,227
259,841; 2229,798;   -0,814;    0,318
260,438; 2135,190;   -0,087;    0,864
261,036; 2423,533;   -1,905;    1,409
261,633; 2406,071;   -0,087;    2,227
262,231; 2320,841;    2,731;   -0,045
262,828; 2401,870;   -0,905;    1,136
263,425; 2447,244;    0,913;   -0,591
264,023; 2570,321;    0,186;    0,045
264,620; 2488,277;   -0,360;   -0,318
265,217; 2686,366;   -2,087;    3,136
265,815; 2582,836;   -1,905;    2,136
266,412; 2652,140;    0,731;    0,136
267,009; 2690,020;   -1,451;    0,773
267,606; 2801,323;    0,822;   -0,955
268,203; 2625,013;   -0,269;   -0,591
268,801; 2764,706;    1,731;    0,591
269,398; 2855,100;   -0,360;    2,500
269,995; 2933,870;    0,277;    1,591
270,592; 2764,396;   -0,632;   -0,500
271,189; 2830,123;    0,186;    0,409
271,786; 2926,972;   -0,632;    1,227
272,383; 3047,853;   -1,087;    0,227
272,980; 2974,862;    0,277;    0,318
273,577; 3147,389;    0,004;    1,227
274,174; 2875,414;    0,822;    2,591
274,771; 2888,024;   -0,814;   -0,773
275,367; 3246,047;    2,277;    1,409
275,964; 3144,282;    0,731;   -0,500
276,561; 3115,685;    1,549;   -1,045
277,158; 3126,812;    0,095;   -1,773
277,755; 3344,791;    2,185;    0,409
278,351; 2939,527;   -0,451;   -1,500
278,948; 3151,427;   -0,815;    0,045
279,545; 3080,170;   -1,360;    2,318
280,141; 3593,632;   -1,723;   -2,045
280,738; 3401,250;   -0,451;   -0,136
281,334; 3351,464;   -1,633;    0,591
281,931; 3093,802;   -0,087;   -1,318
282,528; 3243,208;    0,822;   -0,500
283,124; 3657,574;   -1,087;   -0,500
283,721; 3588,345;   -0,451;    1,409
284,317; 3449,644;    0,185;    2,500
284,913; 3863,096;   -1,360;    0,591
285,510; 4134,278;    0,640;   -0,318
286,106; 4108,724;   -2,269;   -0,955
286,703; 3695,652;   -0,360;    1,955
287,299; 3848,161;   -1,451;   -0,591
287,895; 4030,027;    0,822;   -1,045
288,491; 4383,373;    0,186;    2,136
289,088; 4340,878;   -2,360;    2,409
289,684; 4410,843;   -1,723;    1,500
290,280; 4488,517;    0,368;    0,682
290,876; 4614,912;    1,822;    5,500
291,472; 4586,926;    1,276;    2,227
292,068; 4703,316;    1,367;    0,227
292,665; 4500,252;    2,095;    0,773
293,261; 4413,170;    0,276;    2,136
293,857; 4701,743;    2,913;    2,136
294,453; 4719,215;    3,550;    0,955
295,049; 4736,569;   -0,268;    1,955
295,644; 4808,835;    0,095;    0,136
296,240; 4799,825;   -0,905;   -0,136
296,836; 4965,584;   -0,995;    0,318
297,432; 5225,551;    1,096;   -0,500
298,028; 5374,233;    0,732;    0,773
298,624; 5594,336;    1,459;    1,864
299,220; 5783,421;    2,368;    0,591
299,815; 5557,565;    1,005;   -0,409
300,411; 5550,114;    0,914;    1,773
301,007; 5616,209;    1,368;    0,227
301,602; 5556,426;   -0,541;   -2,318
302,198; 5753,885;    0,732;   -0,773
302,794; 6023,829;    1,187;   -0,500
303,389; 6099,217;   -1,177;    1,045
303,985; 6184,855;    0,550;    1,409
304,580; 6212,396;    1,459;    1,591
305,176; 6187,727;   -3,086;    0,136
305,771; 6110,915;   -1,268;   -1,227
306,367; 6180,283;    4,095;    0,136
306,962; 6321,244;    0,641;    1,500
307,558; 6049,017;   -0,450;    0,136
308,153; 6029,887;    1,095;   -1,136
308,748; 6135,361;   -0,814;    1,682
309,344; 6171,942;   -0,632;   -1,318
309,939; 6314,528;   -1,905;   -1,318
310,534; 6396,553;   -0,086;   -1,682
311,130; 6265,930;    0,459;   -2,500
311,725; 6000,116;    1,004;   -0,500
312,320; 6281,632;    2,459;    0,045
312,915; 6250,167;    1,459;   -1,045
313,510; 6308,299;    1,550;   -0,500
314,105; 6537,757;    1,096;    1,409
314,700; 5998,943;   -3,086;   -1,045
315,295; 5784,760;   -0,904;    0,045
315,890; 5450,198;    1,277;    0,864
316,485; 5635,527;   -0,359;   -0,318
317,080; 5664,291;   -3,086;    1,591
317,675; 6083,246;    2,005;   -0,682
318,270; 5767,228;    5,550;    3,318
318,865; 5745,251;    3,278;    3,045
319,460; 5539,312;   -0,904;    0,591
320,055; 5649,609;   -0,541;   -1,227
320,650; 5389,969;   -1,995;   -0,591
321,244; 5440,407;   -0,177;   -1,409
321,839; 6070,695;   -1,541;   -0,227
322,434; 5930,995;   -1,086;   -1,591
323,029; 5723,323;    1,732;    1,591
323,623; 5598,361;    1,550;    0,773
324,218; 5505,841;    2,368;    1,409
324,812; 5456,443;    1,096;    1,591
325,407; 5318,858;   -0,814;    2,045
326,002; 5327,700;    0,277;   -0,409
326,596; 5564,191;    0,914;    1,318
327,191; 5645,265;    0,823;   -1,045
327,785; 5414,010;   -0,813;   -0,227
328,379; 5657,288;    1,368;    0,136
328,974; 5445,129;    0,914;   -3,955
329,568; 5728,625;    0,186;   -2,409
330,163; 5690,938;    2,096;    1,045
330,757; 5924,074;    2,459;    1,591
331,351; 5508,976;    0,459;    0,682
331,945; 5812,760;    0,914;    1,409
332,540; 5634,863;   -1,723;   -0,591
333,134; 5767,370;   -1,086;    0,773
333,728; 5940,386;    0,005;    0,318
334,322; 6255,082;   -1,177;   -0,864
334,916; 5737,740;    0,277;    0,955
335,510; 6097,407;   -0,450;   -0,136
336,105; 6344,992;   -1,086;    1,591
336,699; 6121,524;   -1,086;    0,591
337,293; 6152,580;   -1,723;    0,318
337,887; 6256,655;   -2,723;    1,955
338,481; 6429,363;    0,459;    0,591
339,074; 6647,035;   -0,359;    2,682
339,668; 6583,850;   -1,632;    1,227
340,262; 6971,916;    1,732;    3,227
340,856; 6548,587;    1,822;   -0,682
341,450; 6056,001;    1,004;    1,864
342,044; 6771,125;    1,459;    0,136
342,637; 6693,877;    0,913;   -2,136
343,231; 6596,317;   -2,360;    0,682
343,825; 6578,001;   -1,086;   -0,591
344,419; 6652,445;   -1,995;    0,500
345,012; 6681,395;    2,459;    4,045
345,606; 6684,504;    4,641;    1,591
346,199; 6549,906;   -1,813;   -0,227
346,793; 6252,448;    1,914;    2,045
347,386; 6422,078;   -0,813;   -1,136
347,980; 6389,191;   -0,268;   -0,045
348,573; 6296,522;    2,278;    0,409
349,167; 6174,079;    5,278;    4,773
349,760; 6495,331;    2,914;    2,682
350,354; 6418,939;   -0,813;    1,136
350,947; 6255,225;    1,096;    1,682
351,540; 6017,656;   -0,358;   -1,409
352,134; 5974,990;    1,096;    1,136
352,727; 6039,211;   -0,086;    1,136
353,320; 5913,721;    0,005;    0,591
353,913; 5762,247;   -1,995;    1,864
354,507; 5975,773;    0,823;   -1,227
355,100; 5975,633;    0,460;    0,864
355,693; 5504,997;    2,005;    2,409
356,286; 5498,103;    0,823;    2,773
356,879; 5769,832;   -0,722;    1,227
357,472; 5405,061;   -0,904;    1,500
358,065; 5608,302;   -0,722;    2,500
358,658; 5535,400;   -0,540;    2,318
359,251; 5250,628;   -1,631;   -0,591
359,844; 4928,368;   -1,904;   -1,136
360,437; 5121,111;   -2,995;    0,045
361,030; 5285,332;    1,369;   -0,682
361,623; 4949,407;    2,824;    0,318
362,215; 5024,300;   -0,086;    2,045
362,808; 4862,076;   -2,358;   -1,682
363,401; 5026,925;   -2,449;    0,136
363,994; 4892,829;   -0,631;   -1,500
364,586; 4754,675;    0,824;   -1,500
365,179; 4895,551;   -0,449;   -1,136
365,772; 4476,932;   -1,995;    2,045
366,364; 4692,716;    1,915;   -3,227
366,957; 4902,734;    2,279;   -0,045
367,549; 4824,204;    2,188;   -0,864
368,142; 4581,394;    1,825;   -1,500
368,734; 4725,796;    0,734;   -2,136
369,327; 4704,398;    1,643;   -0,500
369,919; 4627,015;   -1,538;    0,409
370,512; 4551,100;   -1,083;   -0,500
371,104; 4387,980;   -0,901;    1,591
371,696; 4534,714;    1,191;   -0,955
372,289; 4555,358;    0,373;    1,136
372,881; 4623,290;   -2,080;    1,318
373,473; 4536,439;   -2,170;    1,136
374,066; 4421,380;   -0,169;    0,500
374,658; 4319,243;    0,378;    1,136
375,250; 4533,045;    0,653;   -1,409
375,842; 4442,943;    0,473;   -0,045
376,434; 4338,304;   -0,435;   -0,409
377,026; 4741,463;    0,204;   -2,500
377,618; 4664,946;   -0,158;   -0,682
378,210; 4536,334;   -0,338;   -1,955
378,802; 4370,284;    0,754;   -0,591
379,394; 4479,206;    1,846;    0,682
379,986; 4814,442;    1,393;   -0,955
380,578; 4863,857;   -0,153;    0,773
381,170; 4456,370;   -0,972;    0,045
381,762; 4391,243;    0,755;    1,409
382,354; 4480,943;   -0,065;   -1,318
382,945; 4521,235;   -2,976;    0,318
383,537; 4646,245;   -2,705;   -1,955
384,129; 4698,115;   -2,160;   -1,136
384,721; 4812,012;   -0,252;    0,955
385,312; 4706,718;   -0,161;   -0,955
385,904; 4827,086;   -2,706;    1,591
386,496; 4324,474;   -0,979;    1,045
387,087; 4484,188;    1,022;    2,500
387,679; 4461,557;   -1,160;    0,045
388,270; 4577,611;    2,840;    2,045
388,862; 4646,916;    1,295;   -0,318
389,453; 4511,592;   -0,887;    1,045
390,045; 4731,751;   -0,705;   -2,682
390,636; 4671,417;    0,204;   -0,591
391,227; 4547,210;   -0,523;   -0,045
391,819; 4666,106;    0,204;    0,773
392,410; 4735,461;    1,022;    0,045
393,001; 4696,004;   -0,979;   -1,591
393,593; 4870,786;    1,930;   -0,045
394,184; 4772,687;    1,385;   -0,409
394,775; 4620,324;    1,839;    2,136
395,366; 4829,371;    1,385;    0,773
395,957; 4788,804;    0,113;    0,136
396,548; 4984,047;   -0,342;    2,682
397,139; 5268,568;   -2,433;    0,591
397,730; 5009,301;   -1,888;    0,955
398,321; 5051,952;   -1,252;    0,955
398,912; 5037,707;   -0,615;    0,136
399,503; 5148,138;   -3,524;   -1,409
400,094; 4739,897;    0,294;    1,682
400,685; 4657,245;   -0,433;    0,045
401,276; 4645,240;    0,930;   -0,955
401,867; 4872,820;   -0,888;    0,773
402,458; 4932,625;   -2,251;   -2,318
403,048; 4946,483;    1,112;    0,591
403,639; 4614,715;    0,840;    0,864
404,230; 4896,098;    2,476;    0,318
404,821; 4829,865;   -0,615;    0,045
405,411; 4893,126;    1,203;   -2,591
406,002; 4549,826;   -1,252;   -1,136
406,592; 4539,181;    2,294;    0,045
407,183; 4679,201;    0,566;   -1,500
407,774; 4580,557;    3,475;   -0,136
408,364; 4803,733;    0,930;    0,409
408,954; 4547,376;    0,384;    1,227
409,545; 4545,988;    1,021;    1,045
410,135; 4134,277;    1,293;    0,500
410,726; 4229,558;    1,838;    0,318
411,316; 4525,877;    0,111;    0,773
411,906; 4223,867;   -0,253;   -0,409
412,497; 3884,436;   -1,070;   -0,045
413,087; 4272,256;   -1,980;   -0,227
413,677; 4479,490;   -0,707;    3,864
414,267; 4349,464;    0,656;    1,409
414,857; 4273,241;   -2,980;    4,227
415,448; 4426,259;    0,839;    0,500
416,038; 4194,990;    0,020;   -0,591
416,628; 4118,647;   -0,889;    0,409
417,218; 3861,405;    0,565;    3,318
417,808; 4014,181;    0,202;   -0,409
418,398; 4150,273;    0,020;    2,682
418,988; 4059,140;    2,020;    0,591
419,578; 4157,788;   -0,707;    1,409
420,168; 4375,459;   -1,343;   -0,955
420,757; 4108,282;   -1,343;   -1,500
421,347; 3754,380;    0,111;   -0,227
421,937; 3809,106;    2,292;    1,409
422,527; 3820,636;    0,838;   -0,773
423,116; 3706,136;   -0,253;   -0,045
423,706; 3776,644;   -1,889;    0,318
424,296; 3629,688;    1,384;    0,682
424,885; 3943,597;   -0,071;   -3,045
425,475; 4050,902;    1,474;   -2,864
426,065; 3880,969;   -0,980;   -0,318
426,654; 3640,653;   -0,435;   -0,318
427,244; 3823,563;    0,020;    1,409
427,833; 3462,991;    1,383;   -0,500
428,423; 3543,692;   -0,526;    1,136
429,012; 3917,821;   -0,344;   -1,136
429,601; 3607,898;   -1,344;    0,136
430,191; 3627,951;    1,292;    4,318
430,780; 3306,261;   -0,344;   -0,409
431,369; 3428,512;    0,746;   -0,045
431,959; 3677,788;   -1,254;    0,500
432,548; 3432,109;   -1,163;   -0,045
433,137; 3379,570;   -1,254;   -1,318
433,726; 3656,406;    0,292;    0,500
434,315; 3326,729;   -0,526;    2,409
434,905; 3350,776;   -1,254;    1,409
435,494; 3347,242;    0,746;    0,955
436,083; 3405,727;   -0,981;   -0,955
436,672; 3249,007;    0,110;    0,500
437,261; 3075,406;    0,292;   -1,955
437,850; 3288,786;    1,383;    0,682
438,439; 3195,763;    3,291;    1,955
439,027; 3151,222;    3,655;    1,773
439,616; 3207,166;    2,927;    1,227
440,205; 2874,200;    0,200;   -2,136
440,794; 2710,874;    2,109;   -0,045
441,383; 2711,752;   -1,346;   -0,591
441,971; 2543,750;   -2,436;    0,591
442,560; 2438,969;    0,563;   -1,773
443,149; 2210,115;    0,379;   -1,318
443,737; 2289,946;   -0,074;   -2,318
444,326; 2332,084;    0,018;    0,318
444,915; 2313,854;   -1,982;    0,864
445,503; 2372,643;   -2,891;   -0,318
446,092; 2408,921;    0,382;    2,136
446,680; 2444,407;    0,382;    0,318
447,269; 2351,185;   -0,346;   -0,318
447,857; 2152,469;    0,018;   -1,773
448,445; 2107,247;    0,563;    1,318
449,034; 2108,220;   -1,528;   -1,136
449,622; 2030,926;   -1,073;    3,500
450,210; 2289,156;    2,017;    2,227
450,799; 2233,728;    0,290;   -0,591
451,387; 2010,029;    1,381;   -0,591
451,975; 1932,181;    2,654;    0,864
452,563; 2069,920;    3,472;    2,318
453,151; 1753,369;   -0,528;   -1,227
453,739; 1746,712;   -1,347;    0,136
454,328; 1910,068;    2,381;   -2,136
454,916; 1708,555;    2,562;   -0,136
455,504; 1696,091;    1,017;    1,227
456,092; 1602,493;    0,017;   -1,591
456,679; 1463,767;    1,472;    0,682
457,267; 2125,961;    4,017;    1,045
457,855; 1594,582;    1,017;    1,409
458,443; 1251,596;   -0,165;    1,682
459,031; 1642,292;    0,108;    2,409
459,619; 1579,465;   -1,801;    2,864
460,206; 1364,925;    0,835;    2,045
460,794; 1395,548;   -2,983;   -0,227
461,382; 1487,816;   -0,529;   -0,864
461,970; 1351,225;    1,198;    1,864
462,557; 1291,928;   -0,711;   -0,682
463,145; 1507,785;   -3,165;   -1,682
463,732; 1800,622;    2,016;   -1,045
464,320; 1445,023;   -0,075;   -3,045
464,907; 1625,109;    2,743;   -0,773
465,495; 1446,569;    0,743;   -1,227
466,082; 1297,113;   -1,984;   -0,045
466,670; 1239,751;   -2,529;    1,227
467,257; 1162,166;   -1,711;    2,045
467,844; 1339,536;   -0,075;    0,045
468,432; 1301,379;    0,834;    3,500
469,019; 1146,282;    0,925;   -1,773
469,606; 1235,341;    0,470;    3,682
470,193; 1289,339;   -1,439;    0,227
470,780; 1239,503;   -2,075;    0,864
471,368; 1110,583;   -1,257;   -0,773
471,955; 1223,327;    1,379;   -0,682
472,542; 1105,138;    0,652;   -1,136
473,129;  893,717;   -0,166;    0,136
473,716;  858,485;    1,470;    0,591
474,303;  917,441;    0,652;   -0,864
474,890;  920,697;   -1,439;   -0,500
475,477; 1052,477;   -1,621;    0,409
476,064;  864,653;    1,106;   -1,591
476,650; 1027,683;    0,288;    0,318
477,237;  890,592;   -0,258;    0,955
477,824;  824,392;   -1,076;    0,864
478,411;  635,935;   -1,894;   -0,318
478,997;  612,062;    0,560;   -0,773
479,584;  497,466;    1,196;   -0,409
480,171;  869,277;   -0,440;   -0,773
480,757;  979,794;    2,651;    0,773
481,344;  743,301;    0,469;    0,409
481,931;  520,486;    1,105;    1,045
482,517;  810,602;   -1,258;    0,318
483,104;  942,262;    1,106;    2,864
483,690;  742,377;   -1,804;    0,045
484,276;  674,822;   -0,895;    0,227
484,863; 1053,837;    2,469;    1,136
485,449;  764,969;   -0,077;    0,318
486,035;  657,904;   -1,986;   -0,136
486,622;  853,187;   -0,895;    0,045
487,208;  685,672;    1,378;    1,500
487,794;  527,275;    0,741;    0,318
488,380;  523,279;    0,105;   -1,409
488,967;  553,144;   -1,168;   -0,409
489,553;  563,521;   -1,895;   -1,409
490,139;  726,999;    1,559;    0,773
490,725;  548,888;    0,741;   -0,227
491,311;  623,067;    3,287;    3,045
491,897;  520,546;   -0,986;    1,500
492,483;  533,392;    0,105;    1,227
493,069; 1316,889;    3,923;    0,864
493,655;  821,310;    1,650;    0,682
494,241;  631,579;    1,377;   -0,955
494,826;  713,179;    0,287;   -1,045
495,412;  842,748;    2,559;   -0,682
495,998;  704,619;   -0,805;   -0,318
496,584;  838,202;    0,377;    1,045
497,169;  826,663;    1,014;   -0,682
497,755;  725,116;    0,650;    1,227
498,341; 1137,322;    0,559;    0,318
498,926; 1368,399;    1,832;    1,955
499,512;  987,129;    1,286;    2,955
500,097;  978,608;    0,195;   -0,318
500,683; 1080,056;   -0,350;    2,136
501,268; 1102,489;   -0,169;   -0,955
501,854; 1223,746;   -0,169;    1,227
502,439; 1227,490;   -0,624;   -1,773
503,024; 1434,000;    0,195;    0,500
503,610; 1620,181;   -0,078;   -0,682
504,195; 1556,142;    0,558;    1,955
504,780; 1861,946;    2,922;    1,227
505,366; 2153,533;    3,013;    2,864
505,951; 2112,914;    0,740;    1,045
506,536; 2273,524;   -3,260;   -3,682
507,121; 2430,085;    0,285;   -0,318
507,706; 2796,201;    2,376;    1,045
508,291; 3026,710;    2,649;    1,136
508,876; 3022,970;   -0,988;    2,591
509,461; 3101,799;   -0,169;   -0,773
510,046; 3574,092;    0,194;    0,318
510,631; 3906,013;   -0,351;   -0,773
511,216; 3969,408;    2,467;   -0,500
511,801; 4519,253;   -0,442;    2,591
512,386; 4848,632;    0,740;    0,500
512,971; 5089,103;   -2,988;    0,955
513,555; 5147,501;   -0,897;   -1,500
514,140; 5869,187;   -0,442;   -3,136
514,725; 6067,365;   -0,715;   -1,136
515,309; 6371,225;   -0,533;    0,318
515,894; 6305,224;   -0,624;   -2,227
516,479; 6872,094;   -0,624;   -0,955
517,063; 6923,838;    0,376;    1,227
517,648; 7244,204;    1,012;   -1,136
518,232; 7073,870;   -0,261;   -1,409
518,817; 7603,439;   -0,079;    1,682
519,401; 7996,186;    2,194;    0,591
519,985; 7682,635;    1,103;    1,136
520,570; 7747,896;    0,830;   -1,955
521,154; 8137,291;    2,102;    0,591
521,738; 8459,490;   -2,352;    2,409
522,323; 9064,424;   -0,170;    1,682
522,907; 8894,260;    0,466;   -0,136
523,491; 8757,558;    0,557;    0,955
524,075; 8832,672;    2,284;    0,591
524,659; 9046,344;    1,466;    0,591
525,243; 8719,551;    1,739;    0,409
525,827; 8974,354;    0,648;   -0,045
526,411; 9739,071;   -1,989;   -0,136
526,995; 9944,827;   -0,352;    1,409
527,579; 9662,463;   -0,443;   -1,045
528,163;10007,404;    0,375;   -1,500
528,747;10008,242;    2,466;   -0,773
529,331;10270,376;   -0,080;   -1,409
529,915;10449,201;    1,738;    0,955
530,499;10463,633;   -0,807;    1,227
531,082;10201,689;   -0,534;    1,591
531,666; 9789,216;    1,374;    0,773
532,250;10360,902;    1,284;    2,682
532,833;10671,122;    0,920;    2,773
533,417;10591,555;   -1,807;    0,864
534,001;10552,885;    1,647;   -0,318
534,584;11147,261;    0,374;    0,500
535,168;11041,942;    0,465;    1,409
535,751;11103,944;    0,647;    0,045
536,334;10581,108;   -0,898;   -0,409
536,918;11150,470;    0,011;    1,591
537,501;11171,615;   -0,899;    1,318
538,085;11182,187;   -0,444;    1,045
538,668;11322,484;    0,829;    2,409
539,251;11648,780;    1,829;    3,773
539,834;11676,960;    0,101;    0,773
540,418;11649,090;   -1,990;    4,318
541,001;11728,881;   -0,990;    1,773
541,584;11657,636;    2,101;    2,227
542,167;11381,207;    1,374;    2,955
542,750;11471,121;    1,919;   -0,773
543,333;11107,732;    0,555;    2,136
543,916;11821,332;    0,192;    2,500
544,499;12271,997;   -1,354;    0,227
545,082;12303,363;    1,374;    3,591
545,665;12435,017;    1,919;    1,500
546,248;12686,368;    1,010;   -0,318
546,830;12375,456;   -0,445;    1,955
547,413;12770,469;    1,010;   -0,773
547,996;13213,886;    0,555;    0,500
548,579;12994,942;    0,919;    0,955
549,161;12818,034;    1,828;    2,682
549,744;12582,817;   -0,809;    0,409
550,326;13046,773;   -0,809;   -1,136
550,909;12888,531;    2,737;    0,591
551,492;13231,633;   -0,263;    0,227
552,074;13029,286;   -0,173;   -1,318
552,657;13525,604;    2,373;    0,045
553,239;13318,857;   -0,173;   -0,773
553,821;13242,754;   -1,082;    1,045
554,404;12783,876;    1,282;    1,136
554,986;13108,338;    0,464;    1,045
555,568;13614,318;    1,191;   -0,955
556,151;12952,887;    1,191;   -0,227
556,733;13118,812;   -0,264;   -0,864
557,315;13535,468;    0,100;    0,500
557,897;13303,533;    0,554;   -0,500
558,479;13424,058;   -1,991;    1,318
559,061;13561,666;   -0,719;   -0,864
559,643;13838,771;   -0,264;    0,045
560,225;14092,320;    1,645;    2,864
560,807;14147,317;    0,918;    0,318
561,389;13706,979;    0,554;    2,318
561,971;14281,229;    0,463;    2,136
562,553;14138,940;   -1,628;    1,591
563,135;14250,666;   -0,537;    1,136
563,717;13899,847;    3,372;    1,136
564,298;14453,557;    3,645;   -0,045
564,880;14236,310;    0,645;   -1,409
565,462;14349,947;    0,645;    1,318
566,043;15334,063;   -0,446;    2,318
566,625;14924,449;    1,918;    1,227
567,207;14710,505;    1,099;    1,682
567,788;15627,577;   -1,264;    1,500
568,370;16365,091;    1,917;   -0,500
568,951;16158,035;    0,190;    0,227
569,533;16837,145;   -0,628;   -0,500
570,114;17222,705;   -0,446;    0,682
570,695;17602,570;   -0,174;   -1,318
571,277;17927,395;   -0,265;   -1,682
571,858;18547,639;    2,008;   -1,136
572,439;19247,904;    1,554;   -1,045
573,021;19300,754;    2,099;   -2,773
573,602;19690,769;   -1,265;    0,318
574,183;20465,640;   -2,083;    2,227
574,764;20445,956;   -1,629;    0,409
575,345;20875,804;    0,917;   -0,136
575,926;21340,630;   -0,356;    0,136
576,507;21284,882;    1,099;   -0,227
577,088;22285,495;    3,099;    1,682
577,669;22269,688;    0,735;    1,955
578,250;22925,004;    0,644;   -1,045
578,831;23354,774;   -1,356;   -2,227
579,412;23518,076;   -0,810;    0,955
579,993;24312,077;    1,008;    0,227
580,573;24608,896;   -0,629;   -0,955
581,154;23603,417;    0,735;   -0,591
581,735;24405,233;    0,644;    0,773
582,315;23939,233;   -0,629;    2,136
582,896;24145,047;   -0,174;    1,227
583,477;23633,971;    0,189;    1,227
584,057;23912,509;    0,553;    0,955
584,638;24147,350;    2,553;    2,318
585,218;24183,826;   -0,538;    2,682
585,799;24305,117;    0,281;   -0,227
586,379;24298,950;    0,372;    1,591
586,959;23260,322;    0,735;    0,318
587,540;22718,681;   -0,629;    2,227
588,120;22369,175;    1,007;   -0,045
588,700;21556,525;    2,553;    2,136
589,281;21896,396;    0,462;   -0,955
589,861;21788,559;    0,099;   -1,682
590,441;21667,352;    2,371;   -2,682
591,021;20804,918;   -0,265;   -2,591
591,601;21026,128;   -0,537;    0,500
592,181;21087,694;   -0,719;   -0,773
592,761;20443,097;    0,007;    1,409
593,341;20432,413;   -0,901;    0,045
593,921;20425,382;   -0,265;    1,591
594,501;20343,436;   -0,538;    1,318
595,081;20172,631;    0,917;   -0,318
595,661;20509,910;   -1,447;    0,955
596,240;20956,969;   -0,537;    0,136
596,820;20586,867;    0,372;    1,955
597,400;20646,181;    2,008;    0,773
597,980;20852,351;    2,008;    1,045
598,559;20933,975;    2,735;   -0,227
599,139;20734,478;   -0,174;   -1,227
599,718;20607,296;   -0,174;   -0,409
600,298;20850,088;    0,735;    0,682
600,877;21137,921;    2,917;    1,409
601,457;21343,546;    2,281;    1,136
602,036;21239,150;    0,190;    2,045
602,616;21415,009;    0,644;    1,682
603,195;21727,841;   -0,355;    3,500
603,774;21208,503;   -0,901;    2,045
604,354;21080,527;    0,826;   -0,500
604,933;20727,922;    0,463;    1,864
605,512;20824,529;    3,554;    0,591
606,091;20857,973;   -0,537;    3,773
606,671;21597,319;    0,281;    0,773
607,250;20853,366;    1,644;    3,136
607,829;21085,784;    2,372;    3,227
608,408;20953,176;    1,190;    2,591
608,987;20096,589;    1,281;    3,409
609,566;20345,069;   -1,265;   -2,500
610,145;20462,387;   -1,082;    0,682
610,723;20844,685;    4,372;    6,864
611,302;20198,788;   -0,446;    1,682
611,881;19780,157;    5,008;   11,227
612,460;20492,340;    1,645;    3,955
613,039;20876,987;   -0,082;    2,045
613,617;19746,900;    1,736;    4,773
614,196;19856,727;    1,099;    1,227
614,775;20198,554;    1,009;    2,409
615,353;20148,866;    0,736;    0,864
615,932;19984,958;    0,100;    2,409
616,510;20500,031;    0,554;    0,591
617,089;20105,596;    7,100;   17,591
617,667;19883,663;    2,372;    6,136
618,246;19754,952;   -1,537;    1,318
618,824;19925,113;   -3,355;   -0,955
619,402;19495,273;   -2,900;   -1,773
619,981;19916,469;   -0,173;   -1,045
620,559;19778,555;    0,009;    1,682
621,137;19366,763;   -0,718;    1,864
621,715;19344,970;   -1,173;   -0,682
622,293;19314,035;   -0,537;   -0,773
622,871;19787,377;   -0,718;    0,500
623,450;19443,068;    0,373;   -0,864
624,028;19353,418;    0,191;   -0,955
624,606;18991,321;   -1,718;    1,682
625,183;19356,062;   -1,536;   -1,136
625,761;19036,084;    1,009;    1,136
626,339;19291,914;    1,373;    2,591
626,917;19606,640;   -0,172;   -0,045
627,495;19666,324;   -0,354;    1,318
628,073;19165,042;   -0,263;    2,864
628,650;18918,124;    0,100;    2,136
629,228;19295,997;    0,373;    4,409
629,806;18750,807;    2,282;    1,136
630,383;18957,706;    1,464;   -0,318
630,961;18867,376;    2,555;   -0,955
631,539;18644,091;    2,464;    0,227
632,116;18156,103;   11,373;   15,409
632,694;18603,662;    2,555;    6,500
633,271;18813,666;    0,828;    2,682
633,848;18830,901;    1,828;    2,045
634,426;18758,864;   -1,081;    1,773
635,003;17999,729;    1,101;   -0,409
635,580;18296,544;    1,192;    3,682
636,158;18759,266;    3,737;    1,227
636,735;18767,234;    0,555;   -0,500
637,312;18874,859;   -0,809;   -0,682
637,889;18937,497;   -4,354;   -0,682
638,466;18500,314;   -3,990;   -0,409
639,043;18521,069;    2,101;   -1,136
639,620;18778,341;   -2,262;   -0,955
640,197;19040,379;    1,100;    1,682
640,774;19184,642;   -0,172;    1,136
641,351;19487,359;    0,737;    1,136
641,928;19067,713;   -0,627;    1,409
642,505;18722,157;    0,828;   -0,500
643,082;18814,693;   -1,718;    1,227
643,658;17976,501;   -0,718;    1,500
644,235;18600,218;    1,191;    2,500
644,812;18857,935;    1,918;    0,773
645,388;18622,653;   -0,991;    1,409
645,965;18665,733;   -0,809;    1,682
646,542;18722,996;   -1,445;   -0,227
647,118;18805,441;    1,009;   -0,955
647,695;19035,158;   -0,263;    1,136
648,271;18965,966;   -0,536;    0,500
648,848;19195,956;    0,736;    2,227
649,424;19063,582;    0,827;    1,318
650,000;18798,027;   -0,354;   -1,045
650,577;18682,562;   -0,627;   -0,955
651,153;19053,734;   -1,809;    0,955
651,729;19895,542;    1,191;    0,864
652,305;20176,168;    0,645;    2,773
652,881;23765,522;   -0,082;    1,136
653,458;28991,512;    1,100;    0,227
654,034;31656,320;    0,282;    1,591
654,610;32599,492;    0,554;    0,773
655,186;33648,300;    0,645;    3,045
655,762;33274,654;   -0,991;    0,409
656,338;33260,916;    0,100;    0,136
656,913;34143,270;   -0,082;    0,409
657,489;33383,351;    0,827;   -0,318
658,065;33465,523;   -0,173;   -1,591
658,641;34139,422;   -0,900;   -0,864
659,217;33465,139;   -0,991;    0,409
659,792;32977,947;    0,645;   -0,409
660,368;33236,664;   -2,173;   -0,682
660,944;33049,563;   -2,082;    1,227
661,519;29239,917;   -0,628;    0,409
662,095;24650,998;   -1,719;    0,591
662,670;21284,897;    1,281;   -0,136
663,246;20607,705;    1,009;   -0,409
663,821;20126,422;    0,281;    1,682
664,396;19631,594;    0,009;    1,864
664,972;19813,766;    0,009;   -0,500
665,547;20113,119;    1,372;    0,136
666,122;20174,473;   -1,082;    0,318
666,698;20409,645;   -0,173;    0,318
667,273;19773,089;   -0,173;    0,136
667,848;20483,261;    2,372;    1,500
668,423;20306,069;    2,190;    2,318
668,998;20725,059;    2,827;   -0,682
669,573;21189,140;   -3,264;   -1,500
670,148;21033,130;   -1,446;   -0,682
670,723;20775,302;   -1,810;    0,318
671,298;21121,292;    2,372;    1,045
671,873;21202,645;   -0,082;   -0,136
672,448;21190,908;    0,645;    0,136
673,023;21505,989;   -1,992;   -0,227
673,597;21822,615;    0,827;    2,318
674,172;21653,151;   -0,355;    0,318
674,747;21099,231;    0,372;   -1,045
675,321;20831,767;   -0,628;    3,318
675,896;20520,939;    0,645;    1,045
676,471;21431,383;    2,645;    1,591
677,045;21128,373;   -1,264;    0,682
677,620;21214,363;    0,190;    1,136
678,194;21497,808;   -2,628;    1,136
678,769;21158,616;   -1,083;   -0,318
679,343;21430,333;   -0,628;    1,773
679,917;21284,323;   -1,446;    1,955
680,492;21288,404;    0,826;    3,227
681,066;21428,485;    3,372;    0,409
681,640;21501,384;    1,463;   -0,318
682,214;22221,192;    0,735;    0,500
682,788;21840,818;   -1,356;   -0,773
683,363;21716,172;   -1,810;    1,682
683,937;21408,889;   -1,719;   -0,318
684,511;22112,879;    0,463;   -0,591
685,085;21860,778;   -1,356;    0,318
685,659;21558,859;   -2,538;    0,864
686,232;21861,303;   -0,356;   -0,318
686,806;21575,566;   -0,901;    0,409
687,380;22167,556;   -0,174;    0,591
687,954;22334,273;   -1,174;    1,136
688,528;21981,718;   -0,719;    1,955
689,101;22702,981;   -3,992;    1,045
689,675;22326,970;   -0,356;   -0,136
690,249;21787,779;   -0,719;    0,409
690,822;22102,769;    0,280;    0,318
691,396;22216,395;   -0,265;    1,227
691,969;21763,294;    1,280;    0,136
692,543;22160,738;   -0,447;   -1,955
693,116;21837,092;   -0,265;   -1,409
693,690;21717,446;    0,099;    0,500
694,263;22207,163;   -1,083;    2,955
694,836;22235,971;    1,371;    3,591
695,410;21056,779;   -0,265;    1,773
695,983;21443,860;    0,189;    0,591
696,556;21424,214;   -0,447;   -1,045
697,129;21764,658;   -0,356;    1,409
697,703;21420,648;   -1,629;    1,955
698,276;21438,729;    1,462;   -0,773
698,849;21303,992;    1,280;    1,409
699,422;21619,345;   -1,083;    0,591
699,995;21392,699;    0,007;    0,136
700,568;21817,234;   -0,629;    3,045
701,140;21814,315;   -2,811;    1,682
701,713;21547,851;   -0,174;    2,409
702,286;21343,022;   -0,538;    0,864
702,859;21225,467;   -0,902;   -0,591
703,432;20577,366;    0,825;    0,682
704,004;20957,901;    0,462;    0,318
704,577;20812,982;   -0,629;    0,136
705,150;21347,063;    0,189;    2,500
705,722;21160,871;   -0,356;   -3,227
706,295;20976,316;   -0,175;   -0,591
706,867;20837,124;   -0,175;    1,955
707,440;21025,841;   -1,720;   -0,409
708,012;21299,558;    0,462;    0,591
708,584;21180,730;    2,462;    0,227
709,157;21457,084;    1,825;   -0,591
709,729;21186,256;    2,280;    2,045
710,301;21918,245;    0,734;    0,045
710,874;21906,145;   -1,447;   -0,227
711,446;20888,680;    0,371;    0,864
712,018;20772,670;    0,098;    0,500
712,590;20511,023;   -1,993;    1,682
713,162;20995,195;    0,825;    1,318
713,734;21226,276;    1,825;   -2,045
714,306;21156,539;   -1,902;   -0,409
714,878;19985,347;    0,825;    0,864
715,450;20779,337;    0,643;    0,864
716,022;20995,327;    1,552;    1,318
716,593;21158,408;    0,189;    0,591
717,165;21082,307;   -3,175;   -1,227
717,737;20835,842;    0,280;    0,409
718,309;20576,105;    0,280;   -0,045
718,880;20565,277;   -0,539;   -1,409
719,452;20730,448;   -0,175;   -1,591
720,024;20409,893;    0,734;   -0,591
720,595;20869,610;   -2,902;    0,955
721,167;20489,782;    0,370;   -2,045
721,738;20089,227;   -0,812;   -1,045
722,309;20098,580;   -0,993;   -1,227
722,881;19887,206;   -1,357;    0,773
723,452;20432,742;   -2,630;    2,864
724,023;20639,914;   -0,721;    2,682
724,595;20389,904;    0,007;    0,682
725,166;20152,530;    0,007;   -0,409
725,737;19886,429;    1,734;    0,227
726,308;19957,692;   -0,266;    0,318
726,879;20338,863;   -1,630;    1,227
727,450;20212,490;    0,552;   -0,045
728,021;20189,843;    3,097;    0,682
728,592;19996,924;    0,734;    0,500
729,163;20281,096;    0,643;   -0,136
729,734;20233,631;    0,188;   -0,227
730,305;20601,803;    1,734;    0,136
730,876;20901,520;    0,188;    2,955
731,447;20671,147;    2,188;    2,682
732,017;20726,682;    1,097;    1,864
732,588;20344,218;    0,734;    1,227
733,159;20492,662;    0,643;   -1,045
733,729;20267,107;    0,006;    0,409
734,300;19658,097;    0,915;    0,864
734,870;20042,814;    3,461;    0,591
735,441;20516,440;    0,370;   -0,591
736,011;20349,521;    0,643;   -1,591
736,582;20256,511;   -0,812;    0,045
737,152;19721,683;   -1,721;   -2,045
737,722;20174,945;   -0,267;   -0,682
738,293;19899,754;   -1,358;    1,318
738,863;19833,016;    2,461;    2,318
739,433;19714,188;    5,279;    0,318
740,003;20291,814;   -0,994;   -0,682
740,573;19754,532;    2,097;   -1,591
741,143;19743,885;   -1,085;    0,318
741,713;20426,512;    1,188;   -0,500
742,283;20208,501;    0,915;    1,591
742,853;19956,037;    1,915;    1,591
743,423;19448,391;    1,733;    0,045
743,993;19554,926;   -0,358;    1,500
744,563;19014,552;    0,097;   -0,864
745,133;19009,906;   -0,812;   -0,864
745,702;19630,078;   -0,267;    1,773
746,272;18966,340;   -0,176;    0,591
746,842;18822,694;   -1,358;   -0,591
747,411;19170,138;   -0,267;   -0,318
747,981;19269,674;    0,097;    0,500
748,551;19304,573;    2,278;   -1,045
749,120;19170,654;    0,642;   -0,227
749,690;19558,553;   -0,631;    2,409
750,259;19833,361;    1,369;    2,955
750,828;19748,078;    1,551;   -1,955
751,398;19957,159;    1,278;   -0,045
751,967;19566,967;    2,187;    0,409
752,536;19718,594;   -0,813;   -0,227
753,105;20119,856;    0,096;    0,227
753,675;19869,755;    0,096;    1,773
754,244;19764,654;   -0,904;    3,591
754,813;19851,462;    0,551;    1,227
755,382;19457,998;    0,460;    0,955
755,951;19919,988;    1,551;    3,682
756,520;19571,705;   -0,085;    1,864
757,089;20063,240;    0,278;    0,500
757,658;20121,594;    1,733;    1,227
758,227;20144,402;    1,096;    0,318
758,795;20393,119;    1,187;    1,136
759,364;20627,746;   -0,086;   -0,591
759,933;19724,827;   -1,176;   -0,045
760,501;19286,271;    0,733;   -1,318
761,070;19706,988;   -2,813;   -1,409
761,639;20396,978;   -1,904;    1,318
762,207;19803,150;    1,551;   -0,955
762,776;19713,867;    0,369;    0,864
763,344;19683,312;   -0,995;    0,591
763,913;18774,665;   -0,722;    1,409
764,481;19499,746;    1,005;   -0,136
765,049;19374,100;   -1,358;    1,409
765,618;19294,908;   -0,086;    0,318
766,186;19395,080;    0,278;    0,136
766,754;19557,979;    0,005;    1,864
767,322;18679,787;   -1,995;    0,409
767,890;18674,050;   -0,722;   -1,773
768,459;19119,585;   -2,177;   -0,318
769,027;19288,575;    1,641;    3,409
769,595;18319,292;    3,278;    2,591
770,163;18710,101;    3,823;    2,955
770,730;18551,272;    0,732;   -0,136
771,298;18406,262;    0,187;   -1,409
771,866;18500,434;   -1,541;    4,955
772,434;18772,333;   -0,631;   -1,864
773,002;18948,232;    0,005;    0,682
773,569;18615,858;    0,914;    1,682
774,137;18472,121;   -0,268;   -0,045
774,705;19180,747;    0,278;   -0,136
775,272;18757,647;    0,641;    0,682
775,840;18597,818;   -0,177;    2,682
776,407;18154,899;    0,277;    1,955
776,975;17748,889;   -0,632;    0,318
777,542;18611,152;   -1,086;   -0,045
778,110;18523,778;   -1,268;   -0,045
778,677;18244,768;   -2,359;   -0,864
779,244;17987,576;    2,186;    1,045
779,812;18087,566;    1,823;    0,864
780,379;17980,465;    0,005;    1,136
780,946;18203,637;    1,005;   -0,773
781,513;18459,718;   -1,450;    0,318
782,080;17927,799;   -0,086;    2,864
782,647;18591,880;   -0,268;    3,045
783,214;18260,051;   -0,177;    3,864
783,781;17916,769;   -0,723;   -0,682
784,348;17819,213;   -0,632;    1,500
784,915;18185,385;   -3,177;    0,318
785,482;18044,829;    1,368;    2,591
786,049;18439,001;    0,186;   -0,591
786,615;18539,809;    0,277;   -0,955
787,182;18283,618;    0,186;   -0,682
787,749;17965,335;   -2,814;    1,409
788,315;17377,143;   -1,632;   -0,409
788,882;17640,951;    1,550;   -1,227
789,448;18333,941;    1,732;   -0,955
790,015;18342,749;    1,095;    3,227
790,581;17968,194;    1,459;    0,227
791,148;17858,002;    0,641;    1,045
791,714;18006,265;   -0,541;    3,136
792,280;17756,891;    0,186;    1,591
792,847;17436,972;    0,550;    2,500
793,413;17876,053;   -0,269;   -0,318
793,979;17523,224;    3,459;   -1,318
794,545;17635,033;    4,459;    2,682
795,111;17108,113;    2,186;    1,318
795,678;17217,467;    0,731;   -1,682
796,244;16956,730;    3,368;    0,136
796,810;17433,356;    1,731;    0,773
797,375;17187,346;    0,549;   -2,136
797,941;17160,700;   -0,541;    0,591
798,507;17268,508;   -0,451;   -0,955
799,073;16871,589;   -0,360;    0,591
799,639;16950,669;   -2,632;    3,136
800,205;16942,205;    0,095;    2,682
800,770;16600,558;    0,640;    1,773
801,336;16645,367;    1,368;   -0,955
801,901;16469,175;    4,549;    3,136
802,467;17009,801;   -0,542;    2,045
803,033;16366,882;   -0,087;    0,864
803,598;16562,781;    1,913;   -1,045
804,163;16611,771;    1,095;   -0,318
804,729;16604,034;   -0,178;    1,136
805,294;16914,387;    0,822;    2,227
805,859;16758,468;    0,731;   -0,409
806,425;16341,276;    1,186;    2,682
806,990;16013,539;    2,186;    4,318
807,555;16370,983;   -1,451;    2,591
808,120;16357,792;    0,822;   -0,409
808,685;16388,509;    0,185;   -2,500
809,250;15963,317;    0,004;   -0,500
809,815;16215,852;    1,913;    0,682
810,380;16669,206;   -0,269;    1,591
810,945;17146,741;   -1,087;    2,045
811,510;16417,640;    2,094;    1,591
812,075;16174,267;   -0,633;   -1,409
812,640;16199,620;    2,003;    1,409
813,204;16251,974;    0,822;   -0,227
813,769;16761,691;    2,094;   -0,045
814,334;16236,954;    0,458;    0,864
814,898;16296,762;    0,367;    0,591
815,463;16080,570;    1,276;   -0,773
816,027;16095,378;   -0,724;   -2,318
816,592;16204,732;    0,640;   -2,045
817,156;15804,540;    2,094;    1,136
817,721;15733,803;    4,276;    2,318
818,285;15713,156;    2,912;    1,500
818,849;16219,783;   -1,451;    1,682
819,414;16116,227;   -0,269;    2,955
819,978;15724,035;   -1,269;    1,773
820,542;16256,753;    2,003;    0,500
821,106;16038,197;   -0,815;    0,682
821,670;16132,187;   -0,815;    2,591
822,234;15892,177;   -0,270;    1,409
822,798;15349,985;    0,003;    0,500
823,362;15382,521;   -0,633;    4,227
823,926;14843,874;    0,094;    1,136
824,490;15023,682;   -0,997;   -0,682
825,054;15403,945;   -0,088;   -1,136
825,618;15145,753;   -1,542;   -1,500
826,181;15063,561;    0,458;   -1,318
826,745;14996,824;    1,367;   -1,045
827,309;15340,541;    1,185;    1,318
827,872;14826,531;    1,367;    0,955
828,436;15664,612;    1,185;   -0,773
828,999;15809,602;   -0,997;    1,227
829,563;14791,046;   -0,179;    1,136
830,126;14610,764;   -0,179;   -0,591
830,690;14658,481;   -1,997;    2,864
831,253;14206,016;   -0,543;    2,227
831,816;14345,279;   -1,906;    0,500
832,380;14281,542;    0,185;    0,864
832,943;14499,168;   -1,361;   -0,500
833,506;14031,976;    2,639;   -1,227
834,069;14777,966;    3,912;   -0,955
834,632;14870,502;    1,730;    1,318
835,195;14753,764;    1,003;    0,955
835,758;14046,300;   -0,997;    1,955
836,321;13910,290;    0,730;   -1,045
836,884;14008,461;   -0,725;   -0,955
837,447;14010,088;   -2,816;    1,773
838,010;14272,714;    0,366;    3,227
838,573;14528,977;   -1,179;    0,773
839,135;14496,876;   -1,361;   -0,955
839,698;14025,048;    1,275;    0,409
840,261;13595,038;    1,003;   -0,227
840,823;13424,300;   -0,543;    0,864
841,386;13739,199;   -0,452;   -2,409
841,948;13677,371;   -1,361;    1,773
842,511;13413,179;    0,912;    1,682
843,073;13538,351;    1,912;    0,227
843,636;13341,250;   -0,361;   -0,227
844,198;13308,785;    0,911;    0,591
844,760;13450,685;    1,093;    1,955
845,322;13122,220;    0,548;    1,136
845,885;13508,210;    0,730;    0,591
846,447;13943,109;   -1,998;    0,227
847,009;13592,008;    1,911;   -0,682
847,571;13823,634;    0,820;   -2,045
848,133;13904,079;   -1,089;   -1,864
848,695;13739,432;   -0,543;    1,409
849,257;13350,877;   -1,089;   -1,682
849,819;13515,776;   -0,998;   -0,409
850,381;13552,221;   -0,725;   -0,864
850,942;13793,301;    1,093;   -0,591
851,504;13748,200;    1,184;    0,227
852,066;13806,009;    1,275;   -1,591
852,628;13451,362;   -0,180;    1,955
853,189;12974,443;    1,638;    2,682
853,751;13122,433;   -0,907;    1,409
854,312;12965,423;   -0,453;   -1,682
854,874;13420,140;   -2,089;   -0,773
855,435;13812,039;   -0,907;   -1,682
855,997;13977,575;   -1,816;   -0,136
856,558;13361,292;    0,366;    1,773
857,119;13453,736;    0,820;    2,864
857,681;13162,635;    0,002;    0,318
858,242;13229,716;    1,911;   -2,136
858,803;13657,070;    0,456;   -0,773
859,364;14162,514;    0,184;   -4,773
859,925;13593,686;   -2,453;   -0,955
860,486;13494,858;   -0,453;   -0,955
861,047;13234,030;   -0,544;   -1,227
861,608;13088,020;   -1,089;   -0,773
862,169;13251,192;    0,638;   -0,045
862,730;13005,818;    0,456;    1,409
863,291;13240,262;   -0,635;   -0,500
863,852;13555,980;   -0,635;    1,955
864,412;13092,424;   -0,271;   -0,864
864,973;11866,869;   -0,089;    0,500
865,534;11763,313;   -1,726;    0,227
866,094;13040,485;    1,820;    0,227
866,655;12794,293;    1,274;    3,318
867,215;13052,828;    0,274;    0,136
867,776;12867,182;    0,547;   -0,136
868,336;12960,536;   -1,453;    0,136
868,897;12606,889;    2,638;    1,682
869,457;12357,152;    1,365;    0,318
870,017;12557,960;    0,547;   -1,227
870,578;13006,495;   -0,817;    0,773
871,138;12661,576;   -2,089;   -0,955
871,698;12292,839;   -0,817;   -1,318
872,258;12198,738;   -0,453;   -2,864
872,818;12561,910;    2,729;    0,045
873,378;12560,809;    0,638;    1,045
873,938;12132,981;    0,547;    0,500
874,498;12414,698;    0,274;   -1,955
875,058;12329,688;    2,183;    1,773
875,618;12198,678;    1,910;   -2,682
876,177;12114,850;    1,274;    0,136
876,737;11805,385;   -0,090;    1,955
877,297;11893,557;    0,183;    1,955
877,856;11881,365;   -0,362;    0,318
878,416;11850,810;    1,183;   -0,136
878,976;12015,799;   -1,817;    0,409
879,535;12191,608;    0,092;    3,136
880,095;11998,325;   -0,544;    0,045
880,654;12086,860;   -1,090;    1,318
881,213;12202,850;    2,456;    1,500
881,773;11866,386;    2,637;    2,682
882,332;12235,285;    3,365;    5,136
882,891;12061,275;    3,092;    2,136
883,451;12442,446;   -1,272;    1,682
884,010;11912,800;   -2,908;   -0,409
884,569;12040,699;   -0,999;   -0,045
885,128;12160,325;    2,819;   -1,864
885,687;12231,952;    4,455;    0,682
886,246;11999,942;    1,455;    2,136
886,805;11729,204;    2,455;    2,045
887,364;11920,376;   -0,999;   -0,500
887,922;12256,457;   -1,181;    0,045
888,481;11804,538;   -1,545;    0,591
889,040;12089,528;    1,183;    2,136
889,599;12604,336;    2,455;    1,409
890,157;12699,690;    1,455;    2,409
890,716;12298,407;   -0,090;    0,227
891,274;12150,215;    0,092;   -1,136
891,833;12534,569;    1,546;    0,864
892,391;12430,468;   -0,454;    0,500
892,950;12507,821;    1,819;   -0,773
893,508;12839,266;    0,455;   -0,409
894,067;12237,347;    0,637;    0,136
894,625;12143,973;   -0,636;   -1,500
895,183;12333,599;   -0,363;   -0,682
895,741;12298,498;    1,728;   -1,773
896,299;12117,761;   -0,545;   -2,409
896,858;12281,478;    0,819;   -1,591
897,416;12447,832;    2,728;   -1,318
897,974;12212,367;    1,819;    0,318
898,532;12421,630;    6,091;    2,682
899,089;12320,074;    2,091;   -0,682
899,647;12374,519;   -1,454;    1,318
900,205;12180,963;    1,182;    1,045
900,763;12321,863;   -0,454;    0,227
901,321;12318,307;    2,364;   -1,409
901,878;11798,297;   -1,000;   -0,773
902,436;11723,469;   -1,363;    1,318
902,994;12134,913;    4,728;    3,682
903,551;11641,903;    0,728;    0,409
904,109;12004,075;    0,182;   -1,409
904,666;11660,701;    2,455;    1,045
905,224;11497,328;    0,182;   -0,409
905,781;11320,681;    0,727;   -0,318
906,338;11338,762;   -1,363;    1,045
906,895;11323,116;    0,637;    2,045
907,453;11295,197;    1,727;    1,136
908,010;11313,459;   -0,909;    0,409
908,567;11009,086;    1,273;    0,591
909,124;10554,166;    0,364;   -1,500
909,681;10642,975;   -2,909;    0,682
910,238;10823,055;    0,636;   -1,318
910,795;11102,500;   -0,273;   -1,136
911,352;10757,136;   -2,909;   -2,682
911,909;10295,227;   -1,364;   -0,864
912,466;10775,864;   -3,182;    1,500
913,022;10367,136;   -1,636;    0,500
913,579;10686,773;   -0,909;    2,045
914,136;10403,591;    1,636;    0,955
914,692;10732,864;    0,091;   -1,227
915,249;10364,136;    1,455;    0,409
915,806;10589,318;    0,182;    1,955
916,362;10433,682;    1,909;    1,864
916,918;10042,864;    2,000;    1,045
917,475;10059,500;   -1,182;    0,955
918,031;10088,864;    3,364;   -0,045
918,587; 9661,136;   -0,909;   -0,318
919,144; 9876,045;   -2,273;    0,227
919,700;10118,864;    1,727;    0,773
920,256; 9759,045;    0,727;    0,045
920,812; 9464,500;   -0,727;   -1,045
921,368; 9527,227;   -1,727;   -1,045
921,924; 9194,045;    0,182;   -0,136
922,480; 8817,864;   -0,545;    1,227
923,036; 9383,409;    1,273;    1,955
923,592; 9366,409;    0,455;    0,318
924,148; 9323,591;    0,455;   -0,955
924,704; 8782,955;   -1,364;   -0,409
925,259; 9066,591;   -0,273;    0,591
925,815; 8832,773;    1,455;    0,500
926,371; 8424,864;    2,909;    1,409
926,926; 8369,773;    2,091;    0,591
927,482; 8089,500;   -1,364;    0,773
928,037; 8012,500;    0,909;    2,045
928,593; 8307,682;    1,636;    1,045
929,148; 8151,227;   -1,818;   -1,500
929,704; 7742,227;   -1,455;   -0,500
930,259; 7931,409;    0,091;   -0,136
930,814; 7189,227;   -0,818;    1,955
931,369; 6957,136;    1,091;   -0,773
931,925; 6877,045;   -0,091;    0,136
932,480; 6835,136;   -2,818;   -2,591
933,035; 6807,500;    0,545;   -0,318
933,590; 6607,318;    0,364;   -1,773
934,145; 6333,318;   -1,364;   -0,318
934,700; 6603,773;    0,455;   -0,591
935,255; 6477,955;   -0,091;    0,045
935,809; 5992,682;    3,182;    0,864
936,364; 5276,591;   -0,455;   -0,136
936,919; 5289,318;    0,455;   -1,773
937,474; 5187,773;    1,455;    0,136
938,028; 5029,409;   -1,636;    1,136
938,583; 4717,500;    1,818;    4,682
939,138; 4896,591;    2,091;    2,136
939,692; 4430,227;    1,636;   -1,136
940,247; 4248,682;   -0,727;   -1,045
940,801; 3973,045;   -0,636;    0,227
941,355; 3879,045;   -0,364;    2,591
941,910; 3590,955;   -0,273;   -2,136
942,464; 3709,773;   -0,818;   -0,318
943,018; 3636,045;    1,000;   -0,227
943,572; 3564,500;    2,545;   -0,682
944,126; 3133,591;    0,091;   -0,409
944,681; 3047,500;    3,091;    0,227
945,235; 2998,045;    1,000;   -0,591
945,789; 2937,227;    0,364;   -1,864
946,342; 3160,227;    0,455;   -0,591
946,896; 2917,136;   -2,273;    0,955
947,450; 2690,136;    1,545;   -0,227
948,004; 2959,318;    1,727;   -0,045
948,558; 2891,045;    0,273;   -0,864
949,111; 2840,773;   -0,273;   -0,318
949,665; 2947,682;    1,636;   -0,682
950,219; 2850,136;   -0,091;   -1,045
950,772; 2873,955;   -1,909;    1,864
951,326; 2812,409;    0,545;   -0,955
951,879; 2828,864;    0,727;   -2,318
952,433; 2905,955;    0,000;    2,227
952,986; 2727,864;    2,909;    0,682
953,539; 2662,318;   -0,273;    0,591
954,093; 2639,955;    0,545;   -1,318
954,646; 2778,136;    0,909;    1,318
955,199; 2584,864;    0,000;   -0,500
955,752; 2581,591;   -0,455;    1,773
956,305; 2510,318;   -0,091;    2,955
956,858; 2637,318;    0,818;   -0,318
957,411; 2785,409;   -0,545;    2,136
957,964; 2631,045;    1,364;    2,136
958,517; 2579,864;   -1,545;    3,136
959,070; 2474,318;   -0,455;    1,955
959,623; 2636,864;    1,091;    1,500
960,176; 2449,227;    1,727;    2,045
960,728; 2414,318;   -2,727;    0,773
961,281; 2468,318;    0,545;    0,500
961,834; 2486,500;   -0,909;    0,864
962,386; 2382,864;    1,727;    1,045
962,939; 2326,500;    0,364;   -0,318
963,491; 2446,136;    0,455;    1,136
964,043; 2340,773;    1,182;    2,409
964,596; 2485,409;   -1,000;    2,227
965,148; 2333,682;   -1,000;    1,773
965,700; 2262,955;    1,091;   -0,227
966,253; 2395,773;   -0,636;    0,318
966,805; 2286,773;   -2,273;    0,773
967,357; 2305,227;    1,091;   -1,500
967,909; 2302,500;    0,455;   -1,227
968,461; 2334,318;    0,545;    3,136
969,013; 2287,773;   -0,182;   -0,864
969,565; 2377,136;   -0,455;   -1,136
970,117; 2567,591;   -0,364;    1,045
970,669; 2325,318;    0,182;   -0,136
971,220; 2149,955;   -0,455;   -1,500
971,772; 2112,864;   -0,636;   -0,318
972,324; 2237,682;    0,091;   -0,500
972,876; 2164,409;    0,818;   -0,045
973,427; 2337,500;    1,909;   -1,045
973,979; 2320,500;   -0,727;   -2,500
974,530; 2256,318;    1,818;    1,318
975,082; 2274,045;   -0,545;    1,682
975,633; 2210,318;    1,091;    1,682
976,184; 2330,409;    0,909;    0,773
976,736; 2176,864;    0,091;    0,227
977,287; 2031,318;   -0,909;   -0,500
977,838; 2171,500;    0,909;   -0,318
978,389; 2211,864;   -1,000;   -0,500
978,940; 2061,955;    0,545;   -0,409
979,491; 2093,136;    0,091;   -0,500
980,042; 2106,864;    0,182;    3,045
980,593; 2111,682;   -2,545;    0,227
981,144; 2226,227;    2,545;   -0,500
981,695; 2221,227;    1,455;    1,500
982,246; 2160,773;   -0,273;    1,045
982,797; 2200,136;   -1,727;    0,682
983,347; 2349,864;    0,364;    0,591
983,898; 2545,318;    3,091;    0,409
984,449; 2413,591;    2,182;    0,773
984,999; 2250,136;    1,455;   -1,136
985,550; 2086,591;    0,182;   -0,318
986,100; 2062,864;   -0,455;   -0,318
986,651; 2073,591;   -0,818;    0,045
987,201; 2088,227;   -1,000;   -0,591
987,751; 2149,591;    0,818;    2,864
988,302; 2162,955;    2,636;    1,500
988,852; 2174,500;    0,455;   -1,136
989,402; 2256,773;    0,091;    0,682
989,952; 2194,955;   -2,182;    0,864
990,502; 2209,136;   -0,091;    0,682
991,052; 2132,864;   -0,727;    0,045
991,602; 2045,500;   -2,909;    1,318
992,152; 2077,409;    0,455;    0,682
992,702; 2065,318;    1,364;   -0,045
993,252; 2008,227;   -3,000;   -0,500
993,802; 2120,045;   -0,273;    1,318
994,352; 2262,227;   -1,545;    1,136
994,901; 2290,773;   -0,182;    3,227
995,451; 2225,955;   -0,182;    0,318
996,000; 2299,318;    1,636;    0,318
996,550; 2089,227;    2,273;    0,227
997,100; 2089,682;    1,273;   -0,045
997,649; 2364,318;    2,182;    0,955
998,198; 2052,045;    1,727;   -1,500
998,748; 2252,773;    1,091;   -2,318
999,297; 2103,409;   -0,818;   -0,409
999,846; 2221,864;    1,000;   -0,773
1000,395; 2216,409;   -0,818;    0,500
1000,945; 2265,318;    1,818;   -0,773
1001,494; 2318,045;    2,364;    0,682
1002,043; 2274,318;    4,636;    0,864
1002,592; 2088,591;   -1,091;    1,955
1003,141; 2228,045;   -0,455;   -0,682
1003,690; 2156,500;    1,727;    0,500
1004,238; 2148,955;    1,455;   -0,045
1004,787; 1849,682;    1,364;    1,227
1005,336; 2150,318;    0,364;    0,682
1005,885; 2207,682;    1,364;   -2,773
1006,433; 2262,500;    0,545;    0,955
1006,982; 2421,591;    0,455;    1,682
1007,531; 2283,864;   -1,818;   -0,227
1008,079; 2191,955;   -2,273;    0,500
1008,627; 2283,864;   -1,455;    0,409
1009,176; 2103,773;    0,000;   -1,955
1009,724; 2126,591;    1,091;    0,864
1010,273; 2237,955;    1,273;    0,500
1010,821; 2265,045;    0,091;    1,409
1011,369; 2057,227;   -1,364;    1,318
1011,917; 2035,500;   -1,364;   -0,591
1012,465; 2273,500;    1,273;   -1,591
1013,013; 2351,864;    2,091;   -1,682
1013,561; 2310,773;    0,455;   -0,773
1014,109; 2407,045;   -1,909;    1,682
1014,657; 2257,136;    0,364;    0,591
1015,205; 2294,318;    1,636;   -0,955
1015,753; 2289,227;   -0,545;   -1,409
1016,301; 2358,500;   -2,636;    3,045
1016,848; 2363,864;   -1,273;    0,409
1017,396; 2414,682;    2,545;    0,045
1017,944; 2504,591;    1,182;    1,864
1018,491; 2258,045;    0,273;    1,409
1019,039; 2543,955;    0,455;    0,591
1019,586; 2351,318;   -1,364;    1,682
1020,134; 2410,500;    0,455;    1,500
1020,681; 2466,409;    0,182;   -1,136
1021,228; 2406,591;    2,909;   -2,227
1021,776; 2278,500;    1,182;   -1,136
1022,323; 2549,864;    0,455;    0,773
1022,870; 2473,591;   -1,000;   -0,045
1023,417; 2411,591;    2,636;    1,864
1023,964; 2446,045;    2,636;    1,227
1024,511; 2345,227;    1,000;    0,773
1025,058; 2179,136;    3,182;   -0,045
1025,605; 2213,773;   -2,273;    3,136
1026,152; 2478,409;    1,727;   -0,591
1026,699; 2204,955;    1,818;    1,318
1027,245; 2314,500;   -0,091;    0,318
1027,792; 2430,136;   -1,000;    1,409
1028,339; 2440,045;    2,364;   -0,045
1028,885; 2290,045;    1,000;   -0,227
1029,432; 2220,045;   -0,091;    0,227
1029,978; 2330,500;   -1,000;   -1,591
1030,525; 2229,682;    1,000;    0,409
1031,071; 2364,864;   -1,364;    1,136
1031,618; 2590,773;    0,364;    1,682
1032,164; 2334,864;   -0,091;    3,045
1032,710; 2385,500;    1,636;   -1,500
1033,256; 2269,318;   -0,636;   -0,136
1033,803; 2212,682;   -0,545;    1,500
1034,349; 1980,955;   -1,364;    0,136
1034,895; 2133,500;    0,000;   -0,318
1035,441; 2123,682;   -0,818;    0,318
1035,987; 2164,409;   -2,364;   -0,682
1036,533; 2199,864;   -1,455;   -0,955
1037,078; 2419,136;    1,455;    1,682
1037,624; 2216,864;    2,455;   -0,955
1038,170; 2185,591;    0,455;   -0,318
1038,716; 2158,136;    1,636;   -0,409
1039,261; 2031,136;   -2,273;   -0,773
1039,807; 1997,136;   -0,091;    3,409
1040,352; 2087,773;   -1,909;   -0,318
1040,898; 2110,500;   -1,545;   -0,682
1041,443; 1996,773;   -1,455;   -2,591
1041,989; 2165,682;    1,091;    1,591
1042,534; 1976,591;   -0,364;    2,591
1043,079; 1994,227;    2,909;    0,955
1043,625; 1899,864;    1,818;    0,500
1044,170; 1976,955;   -1,364;    1,045
1044,715; 2233,773;    2,455;    0,955
1045,260; 2045,773;    2,182;   -0,955
1045,805; 2011,955;    1,182;   -0,591
1046,350; 1946,955;    1,364;   -0,409
1046,895; 2019,500;    2,909;    1,591
1047,440; 1996,318;    5,364;    0,409
1047,985; 1853,045;    2,818;   -0,955
1048,530; 1774,773;    1,545;    1,227
1049,074; 1859,045;    0,000;    0,318
1049,619; 1803,864;   -1,364;    1,955
1050,164; 1657,864;    0,455;    0,227
1050,708; 1721,227;   -0,455;    0,045
1051,253; 2127,591;    1,273;   -2,227
1051,797; 1826,773;    0,818;   -1,318
1052,342; 1748,318;   -1,182;    1,045
1052,886; 1784,500;    0,364;   -1,409
1053,430; 1648,955;   -1,364;    0,136
1053,975; 1684,136;   -0,818;   -0,318
1054,519; 1691,136;   -0,727;    3,227
1055,063; 1769,955;    0,909;    1,318
1055,607; 1676,591;   -0,182;    0,227
1056,151; 1692,591;    2,909;    1,682
1056,695; 1571,591;    2,273;   -1,136
1057,239; 1628,591;   -1,727;   -0,682
1057,783; 1653,045;    0,818;   -1,500
1058,327; 1657,773;    0,000;    1,409
1058,871; 1898,136;   -0,545;    1,318
1059,415; 1626,591;   -0,818;   -0,045
1059,958; 1904,773;    1,455;    2,591
1060,502; 1620,045;   -1,000;   -0,773
1061,046; 1478,227;    0,364;   -0,955
1061,589; 1444,318;   -3,000;   -1,136
1062,133; 1346,773;   -1,273;    1,864
1062,676; 1334,955;    1,182;    0,864
1063,220; 1368,045;    1,091;    0,500
1063,763; 1394,227;    0,909;    1,136
1064,306; 1464,318;   -0,909;    1,864
1064,849; 1366,682;   -0,909;    0,591
1065,393; 1368,591;    2,000;   -1,500
1065,936; 1448,136;    0,182;   -0,409
1066,479; 1316,864;   -1,455;    1,318
1067,022; 1345,682;   -0,273;   -0,227
1067,565; 1253,773;   -0,091;   -1,318
1068,108; 1271,591;    0,727;   -0,591
1068,651; 1243,227;   -0,636;    1,409
1069,194; 1194,682;   -0,455;   -1,682
1069,736; 1209,136;   -1,273;    0,955
1070,279; 1181,045;   -1,364;   -0,500
1070,822; 1273,864;   -2,000;   -0,318
1071,364; 1400,500;   -0,364;    1,318
1071,907; 1186,682;   -0,727;    3,227
1072,450; 1047,409;    0,000;   -0,045
1072,992; 1087,045;   -0,273;    3,136
1073,535; 1250,773;    2,091;    2,136
1074,077; 1035,500;   -0,727;    2,045
1074,619; 1025,045;   -1,364;    0,591
1075,161; 1063,227;   -1,091;    1,500
1075,704; 1254,045;    1,545;    1,227
1076,246; 1017,773;   -0,182;    0,682
1076,788;  943,591;   -0,364;    1,773
1077,330; 1008,045;    1,273;    2,136
1077,872;  999,136;    0,909;    0,955
1078,414; 1258,955;    2,727;    0,773
1078,956;  999,773;    1,273;   -0,227
1079,498; 1262,591;    1,636;    0,318
1080,040;  992,955;    1,909;   -1,318
1080,581;  927,955;    1,636;   -0,318
1081,123;  833,682;    0,091;   -0,773
1081,665;  860,409;   -1,182;   -0,955
1082,206; 1185,409;    1,364;   -0,500
1082,748; 1040,318;    0,727;    2,045
1083,289;  906,136;   -2,000;    1,318
1083,831;  842,500;   -0,545;    0,227
1084,372;  907,591;    0,000;    0,591
1084,913;  903,773;    1,091;    0,864
1085,455;  835,773;   -1,909;   -2,045
1085,996;  839,409;   -2,273;    0,136
1086,537;  880,955;   -0,091;    0,864
1087,078;  904,045;   -0,909;   -2,136
1087,619;  950,682;   -1,273;    0,227
1088,160;  858,318;    0,000;    1,318
1088,701;  847,864;   -1,091;    0,682
1089,242;  798,864;    1,364;   -2,227
1089,783;  896,773;   -0,273;    1,409
1090,324;  862,409;    0,455;    0,682
1090,865;  748,318;    2,727;   -0,409
1091,405;  692,409;    0,727;    2,227
1091,946;  734,955;    0,182;   -0,955
1092,487;  660,682;    0,818;   -1,409
1093,027;  852,136;   -1,364;   -1,500
1093,568;  710,409;   -0,364;    1,227
1094,108;  809,318;    0,273;    1,773
1094,649;  733,409;   -1,182;    0,136
1095,189;  672,955;   -0,636;   -0,682
1095,729;  643,773;   -0,091;    0,955
1096,269;  638,227;    0,727;   -0,955
1096,810;  951,591;   -1,364;    0,500
1097,350;  796,864;    1,364;   -0,773
1097,890;  695,864;    0,364;    1,227
1098,430;  965,500;    2,364;    2,864
1098,970;  848,682;    2,182;    1,682
1099,510;  686,136;    0,545;   -2,318
1100,050;  616,682;    1,000;   -1,591
1100,589;  602,318;   -0,727;   -0,318
1101,129;  720,409;    0,818;   -0,955
1101,669;  873,500;    1,727;    2,136
1102,209;  701,136;   -0,091;    2,227
1102,748;  658,409;    0,000;    0,955
1103,288;  650,955;    1,273;   -1,227
1103,827;  678,682;    3,091;   -2,227
1104,367;  553,227;   -0,091;   -2,409
1104,906;  525,591;    1,364;   -1,136
1105,445;  609,773;    0,636;   -1,136
1105,985;  562,136;   -0,727;    1,500
1106,524;  605,136;   -1,727;   -0,682
1107,063;  580,227;   -2,727;    1,409
1107,602;  537,682;   -1,909;   -1,500
1108,141;  466,591;   -1,909;    1,500
1108,680;  590,591;   -3,455;   -0,591
1109,219;  531,591;   -0,909;   -0,500
1109,758;  528,682;    0,455;    0,682
1110,297;  503,773;    1,000;   -0,682
1110,836;  453,591;   -0,727;    0,955
1111,375;  601,318;   -2,545;    0,409
1111,913;  622,773;   -1,000;    0,773
1112,452;  553,227;   -0,273;    0,136
1112,991;  436,136;    1,091;    1,955
1113,529;  411,864;   -0,818;   -0,045
1114,068;  482,318;   -0,273;    2,955
1114,606;  382,773;   -0,364;   -0,955
1115,144;  553,864;   -1,273;    1,045
1115,683;  483,227;   -0,727;    0,318
1116,221;  535,773;   -0,455;   -0,864
1116,759;  445,682;    0,636;   -0,864
1117,297;  638,773;    0,000;    1,864
1117,836;  451,500;   -2,182;   -1,227
1118,374;  473,045;    0,182;   -0,682
1118,912;  417,409;    0,909;    2,682
1119,450;  405,136;    1,000;    0,864
1119,988;  446,500;    1,545;    2,136
1120,525;  891,045;    5,091;    3,318
1121,063;  601,500;    1,182;    1,864
1121,601;  423,409;   -0,909;   -1,227
1122,139;  384,045;   -0,727;   -2,045
1122,676;  576,864;   -0,727;    2,773
1123,214;  514,591;   -1,182;    4,409
1123,751;  332,500;    1,727;    2,227
1124,289;  451,773;   -0,091;   -0,409
1124,826;  338,045;    1,727;    0,227
1125,364;  257,045;    1,727;   -0,955
1125,901;  448,773;    1,182;    1,227
1126,438;  549,955;    0,818;    0,955
1126,975;  282,227;   -0,727;   -0,773
1127,513;  351,318;    0,273;    2,136
1128,050;  269,409;    1,636;   -0,682
1128,587;  364,773;    2,000;   -0,227
1129,124;  417,409;    0,091;    1,318
1129,661;  281,227;    0,273;    0,227
1130,198;  443,227;    1,636;    0,773
1130,734;  379,864;    0,182;    1,409
1131,271;  247,955;   -0,909;    0,864
1131,808;  418,136;    2,909;    3,045
1132,345;  305,045;    1,545;    0,318
1132,881;  171,773;   -1,545;   -1,864
1133,418;  321,864;    0,727;   -1,136
1133,954;  248,682;    2,455;   -2,682
1134,491;  331,045;    1,364;   -0,773
1135,027;  237,591;    2,364;    0,864
1135,564;  325,500;    0,273;    2,955
1136,100;  303,136;    0,364;    2,136
1136,636;  201,045;   -1,273;   -1,045
1137,172;  291,045;    0,000;   -1,045
1137,708;  218,682;   -1,364;   -1,045
1138,245;  214,864;    1,273;   -1,227
1138,781;  179,864;    1,091;   -3,318
1139,317;  244,500;    1,273;   -1,409
1139,852;  237,045;    3,091;    0,136
1140,388;  337,955;   -1,182;   -0,409
1140,924;  230,773;   -1,091;   -2,227
1141,460;  174,318;   -1,636;    0,136
1141,996;  115,045;   -1,364;    2,682
1142,531;  168,773;    1,364;    3,318
1143,067;  366,773;    1,182;    1,045
1143,602;  419,864;   -0,091;   -0,318
1144,138;  274,500;   -2,636;    1,045
1144,673;  146,045;   -1,455;    1,409
1145,209;  211,682;   -1,909;   -0,318
1145,744;  137,318;   -0,727;    0,864
1146,279;  270,682;    1,818;   -0,136
1146,815;  189,045;    1,545;   -2,682
1147,350;  226,227;   -1,364;    0,045
1147,885;  147,136;   -0,818;   -1,318
1148,420;  146,864;   -2,273;    0,773
1148,955;  130,409;   -1,727;    1,864
1149,490;  153,409;   -0,909;   -1,591
1150,025;  134,864;    0,455;   -1,773
1150,560;  241,318;    1,091;   -0,955
1151,094;  209,864;    1,455;   -0,591
1151,629;  212,773;    1,636;    0,864
1152,164;  153,318;    1,364;    1,318
1152,698;  111,318;   -0,182;   -0,136
1153,233;   75,227;    0,091;   -0,682
1153,767;  122,136;   -3,000;   -2,318
1154,302;  159,409;   -1,455;    1,773
1154,836;  164,955;   -0,455;   -2,136
1155,371;  218,500;   -1,364;    3,682
1155,905;  171,955;   -0,636;    1,682
1156,439;  138,318;   -0,636;   -0,500
1156,973;  168,409;    0,364;    0,318
1157,507;  107,227;   -0,364;    0,682
1158,042;  136,955;   -0,727;    1,045
1158,576;  178,409;    0,182;    1,773
1159,110;  172,227;   -0,818;    2,409
1159,643;  145,500;    0,636;   -0,045
1160,177;   85,136;   -1,545;    1,500

