
Integration time [ms]:   0,040
Averaging Nr. [scans]: 11
Smoothing Nr. [pixels]: 0
Data measured with spectrometer [name]: 7318044SP
Wave   ;Sample   ;Dark     ;Reference
[nm]   ;[counts] ;[counts] ;[counts] 

186,757;   16,907;   31,551;    1,318
187,357;   44,531;   22,551;    0,955
187,958;   26,419;   15,460;   -1,591
188,558;   53,497;    8,915;   -1,227
189,159;   28,192;    6,733;   -4,500
189,759;    2,737;    7,278;   -3,591
190,360;   -2,601;    2,824;   -2,136
190,960;   27,947;    2,915;   -4,136
191,560;   39,972;    3,189;   -6,591
192,161;  229,721;    4,372;   -3,500
192,761;   98,363;    4,010;   -3,227
193,361;   50,172;    1,556;   -3,773
193,962;   83,654;    2,010;   -2,682
194,562;   23,337;    1,189;   -3,955
195,162;   43,416;   -2,448;   -2,227
195,762;  151,761;   -3,176;   -0,045
196,362;  100,675;    1,370;   -2,500
196,963;   19,774;    2,006;   -0,864
197,563;   60,838;    1,551;   -0,955
198,163;   15,081;    0,096;   -0,682
198,763;   27,210;    1,733;   -0,500
199,363;   69,666;    3,096;   -0,500
199,963;   42,226;    0,369;    0,409
200,563;   29,595;    2,823;   -1,409
201,163;   13,171;    3,277;   -0,227
201,763;   56,191;    3,732;    0,318
202,363;   24,059;    1,459;    1,500
202,963;   53,203;    1,459;    1,045
203,563;  106,562;    0,277;    0,500
204,162;   34,836;    2,096;   -1,864
204,762;   32,878;    0,550;    0,591
205,362;   15,961;    3,004;    1,955
205,962;   40,193;    3,096;    1,955
206,562;   37,094;    1,823;    2,318
207,161;   21,337;   -0,087;    0,318
207,761;  112,753;    1,277;    2,409
208,361;   38,973;   -0,268;    1,409
208,960;   68,796;    0,459;    1,500
209,560;   65,993;    1,277;    1,591
210,160;   86,123;    0,550;    1,864
210,759;   62,914;    4,186;    1,227
211,359;   49,932;    1,459;    1,045
211,958;  181,238;    1,277;    2,045
212,558;  195,281;    1,732;    1,864
213,157;  111,173;    1,822;    1,500
213,757;  305,434;    3,822;   -0,227
214,356;  155,541;    1,277;   -0,409
214,956;  299,073;    3,095;    0,409
215,555;  125,414;    2,095;    2,136
216,154;   84,891;   -2,723;   -0,591
216,754;   88,027;    0,277;    0,773
217,353;  113,472;   -0,268;   -1,045
217,952;   29,741;   -0,178;    0,318
218,552;  163,628;    1,368;   -0,773
219,151;   97,656;    0,277;    0,955
219,750;   88,824;    0,004;   -0,227
220,349;   73,039;   -0,451;    1,045
220,948;  183,273;   -1,360;    1,136
221,548;   95,489;    0,913;    1,227
222,147;  136,260;   -0,087;   -0,409
222,746;  285,703;   -0,451;   -0,955
223,345;  182,137;    0,731;    0,500
223,944;  181,447;   -0,451;    0,773
224,543;  194,464;    1,004;   -1,409
225,142;  213,851;    0,094;    0,136
225,741;  188,814;   -0,814;    1,045
226,340;  166,816;   -0,451;   -0,955
226,939;  294,759;   -0,996;   -0,136
227,538;  151,812;   -0,360;   -0,773
228,137;  291,914;   -0,814;    0,864
228,735;  242,118;   -0,541;    1,227
229,334;  114,708;   -0,905;   -0,227
229,933;  302,982;    0,459;    0,591
230,532;  316,340;    1,186;   -0,409
231,131;  380,905;    1,732;    0,318
231,729;  255,821;   -2,450;   -2,318
232,328;  182,683;   -0,723;   -1,500
232,927;  189,198;    1,004;   -0,500
233,525;  166,376;    3,640;    0,045
234,124;  207,136;    2,368;   -1,591
234,723;  139,867;    0,913;   -1,045
235,321;  124,124;    2,277;    0,136
235,920;  164,162;    1,186;   -1,227
236,518;  315,874;    3,459;    0,318
237,117;  167,898;    0,004;   -0,227
237,715;  181,027;    0,640;   -0,500
238,314;  237,637;   -0,087;   -2,318
238,912;  367,478;   -0,723;   -1,409
239,510;  254,567;    0,459;   -1,227
240,109;  385,399;    0,004;    3,773
240,707;  345,174;   -0,996;    1,227
241,305;  198,950;    0,550;    0,136
241,904;  320,586;   -0,178;   -2,045
242,502;  434,701;   -0,632;   -0,227
243,100;  353,980;   -0,087;   -0,955
243,698;  299,291;    0,732;    1,682
244,297;  347,504;   -0,632;    0,682
244,895;  364,895;   -0,269;   -2,318
245,493;  596,286;    2,186;   -0,591
246,091;  601,352;    1,368;   -1,318
246,689;  564,920;    1,004;    0,591
247,287;  531,647;    0,822;   -1,136
247,885;  518,747;   -1,451;    1,227
248,483;  504,283;    1,822;   -0,500
249,081;  634,482;    0,185;    1,591
249,679;  730,231;   -0,178;    1,682
250,277;  594,084;   -1,723;    0,864
250,875;  772,504;   -1,087;   -1,045
251,473;  672,990;   -1,178;    0,500
252,071;  824,373;    1,459;    1,045
252,669;  780,992;   -1,814;    0,318
253,267;  734,598;   -0,087;    0,773
253,864;  774,556;   -0,360;    0,682
254,462; 1016,177;    1,640;    1,591
255,060;  764,834;   -0,269;    1,318
255,658;  772,720;    0,822;   -0,136
256,255;  961,305;    0,186;   -2,045
256,853; 1007,019;   -0,269;    1,409
257,451;  990,240;    0,822;    1,864
258,048; 1563,624;    1,822;    1,864
258,646; 1150,836;    1,731;   -1,045
259,243; 1302,565;   -0,087;    2,227
259,841; 1196,129;   -0,814;    0,318
260,438; 1043,702;   -0,087;    0,864
261,036; 1248,414;   -1,905;    1,409
261,633; 1195,221;   -0,087;    2,227
262,231; 1151,264;    2,731;   -0,045
262,828; 1218,570;   -0,905;    1,136
263,425; 1284,578;    0,913;   -0,591
264,023; 1333,107;    0,186;    0,045
264,620; 1452,789;   -0,360;   -0,318
265,217; 1613,243;   -2,087;    3,136
265,815; 1361,527;   -1,905;    2,136
266,412; 1510,198;    0,731;    0,136
267,009; 1575,262;   -1,451;    0,773
267,606; 1719,290;    0,822;   -0,955
268,203; 1476,257;   -0,269;   -0,591
268,801; 1580,310;    1,731;    0,591
269,398; 1567,248;   -0,360;    2,500
269,995; 1698,206;    0,277;    1,591
270,592; 1550,095;   -0,632;   -0,500
271,189; 1555,089;    0,186;    0,409
271,786; 1599,851;   -0,632;    1,227
272,383; 1854,460;   -1,087;    0,227
272,980; 1686,195;    0,277;    0,318
273,577; 1729,271;    0,004;    1,227
274,174; 1566,023;    0,822;    2,591
274,771; 1645,720;   -0,814;   -0,773
275,367; 2111,839;    2,277;    1,409
275,964; 1951,163;    0,731;   -0,500
276,561; 1781,653;    1,549;   -1,045
277,158; 1728,140;    0,095;   -1,773
277,755; 1987,755;    2,185;    0,409
278,351; 1698,222;   -0,451;   -1,500
278,948; 1843,391;   -0,815;    0,045
279,545; 1719,863;   -1,360;    2,318
280,141; 2166,511;   -1,723;   -2,045
280,738; 1961,491;   -0,451;   -0,136
281,334; 1836,521;   -1,633;    0,591
281,931; 1750,217;   -0,087;   -1,318
282,528; 1856,988;    0,822;   -0,500
283,124; 2138,359;   -1,087;   -0,500
283,721; 2090,216;   -0,451;    1,409
284,317; 1918,332;    0,185;    2,500
284,913; 2262,875;   -1,360;    0,591
285,510; 2613,875;    0,640;   -0,318
286,106; 2473,051;   -2,269;   -0,955
286,703; 2037,435;   -0,360;    1,955
287,299; 2132,765;   -1,451;   -0,591
287,895; 2266,358;    0,822;   -1,045
288,491; 2475,794;    0,186;    2,136
289,088; 2512,661;   -2,360;    2,409
289,684; 2581,356;   -1,723;    1,500
290,280; 2742,305;    0,368;    0,682
290,876; 2839,607;    1,822;    5,500
291,472; 2784,526;    1,276;    2,227
292,068; 2890,370;    1,367;    0,227
292,665; 2735,402;    2,095;    0,773
293,261; 2684,317;    0,276;    2,136
293,857; 2913,986;    2,913;    2,136
294,453; 2948,095;    3,550;    0,955
295,049; 3071,548;   -0,268;    1,955
295,644; 3095,811;    0,095;    0,136
296,240; 3095,985;   -0,905;   -0,136
296,836; 3285,020;   -0,995;    0,318
297,432; 3551,717;    1,096;   -0,500
298,028; 3718,581;    0,732;    0,773
298,624; 3832,044;    1,459;    1,864
299,220; 3982,313;    2,368;    0,591
299,815; 3853,455;    1,005;   -0,409
300,411; 3891,912;    0,914;    1,773
301,007; 3989,921;    1,368;    0,227
301,602; 3929,226;   -0,541;   -2,318
302,198; 4137,871;    0,732;   -0,773
302,794; 4341,630;    1,187;   -0,500
303,389; 4418,381;   -1,177;    1,045
303,985; 4532,837;    0,550;    1,409
304,580; 4559,743;    1,459;    1,591
305,176; 4514,798;   -3,086;    0,136
305,771; 4435,439;   -1,268;   -1,227
306,367; 4617,260;    4,095;    0,136
306,962; 4695,044;    0,641;    1,500
307,558; 4452,998;   -0,450;    0,136
308,153; 4431,412;    1,095;   -1,136
308,748; 4494,159;   -0,814;    1,682
309,344; 4584,465;   -0,632;   -1,318
309,939; 4730,143;   -1,905;   -1,318
310,534; 4729,531;   -0,086;   -1,682
311,130; 4573,456;    0,459;   -2,500
311,725; 4341,005;    1,004;   -0,500
312,320; 4537,976;    2,459;    0,045
312,915; 4533,054;    1,459;   -1,045
313,510; 4618,733;    1,550;   -0,500
314,105; 4739,559;    1,096;    1,409
314,700; 4267,108;   -3,086;   -1,045
315,295; 4104,470;   -0,904;    0,045
315,890; 3818,270;    1,277;    0,864
316,485; 3959,596;   -0,359;   -0,318
317,080; 3971,817;   -3,086;    1,591
317,675; 4285,681;    2,005;   -0,682
318,270; 4127,577;    5,550;    3,318
318,865; 4037,691;    3,278;    3,045
319,460; 3802,748;   -0,904;    0,591
320,055; 3868,868;   -0,541;   -1,227
320,650; 3657,957;   -1,995;   -0,591
321,244; 3690,575;   -0,177;   -1,409
321,839; 4155,405;   -1,541;   -0,227
322,434; 4060,522;   -1,086;   -1,591
323,029; 3868,580;    1,732;    1,591
323,623; 3779,432;    1,550;    0,773
324,218; 3775,099;    2,368;    1,409
324,812; 3669,880;    1,096;    1,591
325,407; 3603,476;   -0,814;    2,045
326,002; 3638,408;    0,277;   -0,409
326,596; 3797,811;    0,914;    1,318
327,191; 3848,974;    0,823;   -1,045
327,785; 3669,629;   -0,813;   -0,227
328,379; 3897,542;    1,368;    0,136
328,974; 3726,111;    0,914;   -3,955
329,568; 3996,244;    0,186;   -2,409
330,163; 3999,285;    2,096;    1,045
330,757; 4171,598;    2,459;    1,591
331,351; 3897,229;    0,459;    0,682
331,945; 4147,925;    0,914;    1,409
332,540; 4068,025;   -1,723;   -0,591
333,134; 4197,803;   -1,086;    0,773
333,728; 4326,002;    0,005;    0,318
334,322; 4598,064;   -1,177;   -0,864
334,916; 4216,626;    0,277;    0,955
335,510; 4556,024;   -0,450;   -0,136
336,105; 4797,974;   -1,086;    1,591
336,699; 4637,867;   -1,086;    0,591
337,293; 4679,920;   -1,723;    0,318
337,887; 4786,999;   -2,723;    1,955
338,481; 4983,525;    0,459;    0,591
339,074; 5284,830;   -0,359;    2,682
339,668; 5229,464;   -1,632;    1,227
340,262; 5688,258;    1,732;    3,227
340,856; 5278,471;    1,822;   -0,682
341,450; 4868,248;    1,004;    1,864
342,044; 5507,466;    1,459;    0,136
342,637; 5484,217;    0,913;   -2,136
343,231; 5480,104;   -2,360;    0,682
343,825; 5457,072;   -1,086;   -0,591
344,419; 5524,791;   -1,995;    0,500
345,012; 5638,287;    2,459;    4,045
345,606; 5669,671;    4,641;    1,591
346,199; 5531,438;   -1,813;   -0,227
346,793; 5325,890;    1,914;    2,045
347,386; 5514,152;   -0,813;   -1,136
347,980; 5486,180;   -0,268;   -0,045
348,573; 5449,877;    2,278;    0,409
349,167; 5374,801;    5,278;    4,773
349,760; 5678,416;    2,914;    2,682
350,354; 5600,667;   -0,813;    1,136
350,947; 5489,222;    1,096;    1,682
351,540; 5287,017;   -0,358;   -1,409
352,134; 5219,075;    1,096;    1,136
352,727; 5310,655;   -0,086;    1,136
353,320; 5206,077;    0,005;    0,591
353,913; 5049,512;   -1,995;    1,864
354,507; 5286,037;    0,823;   -1,227
355,100; 5311,807;    0,460;    0,864
355,693; 4885,177;    2,005;    2,409
356,286; 4858,552;    0,823;    2,773
356,879; 5085,371;   -0,722;    1,227
357,472; 4778,054;   -0,904;    1,500
358,065; 4968,570;   -0,722;    2,500
358,658; 4904,212;   -0,540;    2,318
359,251; 4644,440;   -1,631;   -0,591
359,844; 4350,091;   -1,904;   -1,136
360,437; 4536,467;   -2,995;    0,045
361,030; 4697,235;    1,369;   -0,682
361,623; 4375,405;    2,824;    0,318
362,215; 4425,296;   -0,086;    2,045
362,808; 4277,071;   -2,358;   -1,682
363,401; 4444,469;   -2,449;    0,136
363,994; 4324,283;   -0,631;   -1,500
364,586; 4180,861;    0,824;   -1,500
365,179; 4293,194;   -0,449;   -1,136
365,772; 3886,020;   -1,995;    2,045
366,364; 4104,267;    1,915;   -3,227
366,957; 4308,565;    2,279;   -0,045
367,549; 4224,673;    2,188;   -0,864
368,142; 4017,139;    1,825;   -1,500
368,734; 4140,003;    0,734;   -2,136
369,327; 4088,336;    1,643;   -0,500
369,919; 4026,685;   -1,538;    0,409
370,512; 3964,595;   -1,083;   -0,500
371,104; 3823,306;   -0,901;    1,591
371,696; 3967,238;    1,191;   -0,955
372,289; 3952,982;    0,373;    1,136
372,881; 4013,932;   -2,080;    1,318
373,473; 3914,276;   -2,170;    1,136
374,066; 3832,244;   -0,169;    0,500
374,658; 3762,687;    0,378;    1,136
375,250; 3933,249;    0,653;   -1,409
375,842; 3855,912;    0,473;   -0,045
376,434; 3728,666;   -0,435;   -0,409
377,026; 4105,774;    0,204;   -2,500
377,618; 4012,751;   -0,158;   -0,682
378,210; 3906,082;   -0,338;   -1,955
378,802; 3734,783;    0,754;   -0,591
379,394; 3894,997;    1,846;    0,682
379,986; 4156,067;    1,393;   -0,955
380,578; 4198,122;   -0,153;    0,773
381,170; 3853,075;   -0,972;    0,045
381,762; 3763,019;    0,755;    1,409
382,354; 3826,328;   -0,065;   -1,318
382,945; 3862,502;   -2,976;    0,318
383,537; 3982,389;   -2,705;   -1,955
384,129; 4027,962;   -2,160;   -1,136
384,721; 4130,760;   -0,252;    0,955
385,312; 4035,095;   -0,161;   -0,955
385,904; 4169,650;   -2,706;    1,591
386,496; 3706,226;   -0,979;    1,045
387,087; 3850,312;    1,022;    2,500
387,679; 3811,413;   -1,160;    0,045
388,270; 3922,471;    2,840;    2,045
388,862; 3980,864;    1,295;   -0,318
389,453; 3821,087;   -0,887;    1,045
390,045; 4051,519;   -0,705;   -2,682
390,636; 4011,461;    0,204;   -0,591
391,227; 3878,704;   -0,523;   -0,045
391,819; 3986,688;    0,204;    0,773
392,410; 4068,131;    1,022;    0,045
393,001; 4000,117;   -0,979;   -1,591
393,593; 4165,533;    1,930;   -0,045
394,184; 4089,709;    1,385;   -0,409
394,775; 3922,255;    1,839;    2,136
395,366; 4127,671;    1,385;    0,773
395,957; 4087,473;    0,113;    0,136
396,548; 4252,439;   -0,342;    2,682
397,139; 4502,148;   -2,433;    0,591
397,730; 4250,965;   -1,888;    0,955
398,321; 4313,249;   -1,252;    0,955
398,912; 4286,002;   -0,615;    0,136
399,503; 4405,161;   -3,524;   -1,409
400,094; 4053,463;    0,294;    1,682
400,685; 3960,997;   -0,433;    0,045
401,276; 3932,175;    0,930;   -0,955
401,867; 4129,752;   -0,888;    0,773
402,458; 4173,833;   -2,251;   -2,318
403,048; 4217,960;    1,112;    0,591
403,639; 3915,559;    0,840;    0,864
404,230; 4200,938;    2,476;    0,318
404,821; 4136,070;   -0,615;    0,045
405,411; 4176,873;    1,203;   -2,591
406,002; 3871,665;   -1,252;   -1,136
406,592; 3882,199;    2,294;    0,045
407,183; 3970,396;    0,566;   -1,500
407,774; 3842,663;    3,475;   -0,136
408,364; 4025,386;    0,930;    0,409
408,954; 3824,845;    0,384;    1,227
409,545; 3798,366;    1,021;    1,045
410,135; 3434,743;    1,293;    0,500
410,726; 3521,651;    1,838;    0,318
411,316; 3774,340;    0,111;    0,773
411,906; 3504,327;   -0,253;   -0,409
412,497; 3196,811;   -1,070;   -0,045
413,087; 3486,539;   -1,980;   -0,227
413,677; 3682,583;   -0,707;    3,864
414,267; 3538,286;    0,656;    1,409
414,857; 3443,516;   -2,980;    4,227
415,448; 3578,451;    0,839;    0,500
416,038; 3366,726;    0,020;   -0,591
416,628; 3278,105;   -0,889;    0,409
417,218; 3090,679;    0,565;    3,318
417,808; 3220,909;    0,202;   -0,409
418,398; 3271,910;    0,020;    2,682
418,988; 3137,048;    2,020;    0,591
419,578; 3225,154;   -0,707;    1,409
420,168; 3388,555;   -1,343;   -0,955
420,757; 3201,473;   -1,343;   -1,500
421,347; 2871,740;    0,111;   -0,227
421,937; 2892,920;    2,292;    1,409
422,527; 2922,904;    0,838;   -0,773
423,116; 2835,682;   -0,253;   -0,045
423,706; 2783,551;   -1,889;    0,318
424,296; 2640,414;    1,384;    0,682
424,885; 2918,960;   -0,071;   -3,045
425,475; 2949,716;    1,474;   -2,864
426,065; 2750,420;   -0,980;   -0,318
426,654; 2576,098;   -0,435;   -0,318
427,244; 2788,650;    0,020;    1,409
427,833; 2520,533;    1,383;   -0,500
428,423; 2480,411;   -0,526;    1,136
429,012; 2735,628;   -0,344;   -1,136
429,601; 2553,430;   -1,344;    0,136
430,191; 2475,668;    1,292;    4,318
430,780; 2190,798;   -0,344;   -0,409
431,369; 2398,225;    0,746;   -0,045
431,959; 2481,955;   -1,254;    0,500
432,548; 2255,911;   -1,163;   -0,045
433,137; 2133,916;   -1,254;   -1,318
433,726; 2367,117;    0,292;    0,500
434,315; 2137,166;   -0,526;    2,409
434,905; 2194,116;   -1,254;    1,409
435,494; 2218,403;    0,746;    0,955
436,083; 2110,437;   -0,981;   -0,955
436,672; 2013,170;    0,110;    0,500
437,261; 1896,657;    0,292;   -1,955
437,850; 2208,766;    1,383;    0,682
438,439; 2164,919;    3,291;    1,955
439,027; 2202,377;    3,655;    1,773
439,616; 2155,136;    2,927;    1,227
440,205; 1787,718;    0,200;   -2,136
440,794; 1599,570;    2,109;   -0,045
441,383; 1515,990;   -1,346;   -0,591
441,971; 1340,534;   -2,436;    0,591
442,560; 1294,022;    0,563;   -1,773
443,149; 1126,126;    0,379;   -1,318
443,737; 1207,624;   -0,074;   -2,318
444,326; 1187,501;    0,018;    0,318
444,915; 1215,180;   -1,982;    0,864
445,503; 1221,971;   -2,891;   -0,318
446,092; 1492,883;    0,382;    2,136
446,680; 1416,186;    0,382;    0,318
447,269; 1287,780;   -0,346;   -0,318
447,857; 1164,426;    0,018;   -1,773
448,445; 1062,656;    0,563;    1,318
449,034;  988,267;   -1,528;   -1,136
449,622;  935,881;   -1,073;    3,500
450,210; 1374,287;    2,017;    2,227
450,799; 1244,677;    0,290;   -0,591
451,387; 1064,976;    1,381;   -0,591
451,975; 1027,403;    2,654;    0,864
452,563; 1153,326;    3,472;    2,318
453,151;  791,589;   -0,528;   -1,227
453,739;  867,017;   -1,347;    0,136
454,328; 1057,647;    2,381;   -2,136
454,916;  879,586;    2,562;   -0,136
455,504;  858,398;    1,017;    1,227
456,092;  685,801;    0,017;   -1,591
456,679;  576,893;    1,472;    0,682
457,267; 1243,993;    4,017;    1,045
457,855;  707,794;    1,017;    1,409
458,443;  436,441;   -0,165;    1,682
459,031;  790,048;    0,108;    2,409
459,619;  687,315;   -1,801;    2,864
460,206;  484,319;    0,835;    2,045
460,794;  481,212;   -2,983;   -0,227
461,382;  569,839;   -0,529;   -0,864
461,970;  525,793;    1,198;    1,864
462,557;  400,770;   -0,711;   -0,682
463,145;  624,446;   -3,165;   -1,682
463,732;  965,552;    2,016;   -1,045
464,320;  585,494;   -0,075;   -3,045
464,907;  814,945;    2,743;   -0,773
465,495;  670,125;    0,743;   -1,227
466,082;  531,129;   -1,984;   -0,045
466,670;  540,586;   -2,529;    1,227
467,257;  358,727;   -1,711;    2,045
467,844;  533,640;   -0,075;    0,045
468,432;  501,119;    0,834;    3,500
469,019;  402,654;    0,925;   -1,773
469,606;  505,988;    0,470;    3,682
470,193;  567,617;   -1,439;    0,227
470,780;  497,786;   -2,075;    0,864
471,368;  369,135;   -1,257;   -0,773
471,955;  524,699;    1,379;   -0,682
472,542;  442,688;    0,652;   -1,136
473,129;  247,179;   -0,166;    0,136
473,716;  248,494;    1,470;    0,591
474,303;  290,449;    0,652;   -0,864
474,890;  294,152;   -1,439;   -0,500
475,477;  426,113;   -1,621;    0,409
476,064;  274,739;    1,106;   -1,591
476,650;  430,319;    0,288;    0,318
477,237;  310,955;   -0,258;    0,955
477,824;  261,390;   -1,076;    0,864
478,411;  116,933;   -1,894;   -0,318
478,997;  104,512;    0,560;   -0,773
479,584;   33,639;    1,196;   -0,409
480,171;  298,815;   -0,440;   -0,773
480,757;  370,782;    2,651;    0,773
481,344;  203,657;    0,469;    0,409
481,931;   69,829;    1,105;    1,045
482,517;  249,223;   -1,258;    0,318
483,104;  350,252;    1,106;    2,864
483,690;  178,367;   -1,804;    0,045
484,276;  138,718;   -0,895;    0,227
484,863;  418,553;    2,469;    1,136
485,449;  214,135;   -0,077;    0,318
486,035;  152,069;   -1,986;   -0,136
486,622;  266,900;   -0,895;    0,045
487,208;  163,020;    1,378;    1,500
487,794;   54,438;    0,741;    0,318
488,380;   51,623;    0,105;   -1,409
488,967;   63,482;   -1,168;   -0,409
489,553;   88,679;   -1,895;   -1,409
490,139;  183,521;    1,559;    0,773
490,725;   77,864;    0,741;   -0,227
491,311;  137,680;    3,287;    3,045
491,897;  109,522;   -0,986;    1,500
492,483;  109,639;    0,105;    1,227
493,069;  654,683;    3,923;    0,864
493,655;  313,555;    1,650;    0,682
494,241;  153,280;    1,377;   -0,955
494,826;  187,065;    0,287;   -1,045
495,412;  289,906;    2,559;   -0,682
495,998;  161,679;   -0,805;   -0,318
496,584;  266,628;    0,377;    1,045
497,169;  275,633;    1,014;   -0,682
497,755;  198,535;    0,650;    1,227
498,341;  424,746;    0,559;    0,318
498,926;  613,639;    1,832;    1,955
499,512;  264,084;    1,286;    2,955
500,097;  288,569;    0,195;   -0,318
500,683;  345,836;   -0,350;    2,136
501,268;  268,360;   -0,169;   -0,955
501,854;  337,251;   -0,169;    1,227
502,439;  336,264;   -0,624;   -1,773
503,024;  498,141;    0,195;    0,500
503,610;  591,685;   -0,078;   -0,682
504,195;  484,918;    0,558;    1,955
504,780;  708,998;    2,922;    1,227
505,366;  951,313;    3,013;    2,864
505,951;  873,684;    0,740;    1,045
506,536;  838,841;   -3,260;   -3,682
507,121; 1012,313;    0,285;   -0,318
507,706; 1105,791;    2,376;    1,045
508,291; 1158,935;    2,649;    1,136
508,876; 1247,277;   -0,988;    2,591
509,461; 1434,745;   -0,169;   -0,773
510,046; 1733,312;    0,194;    0,318
510,631; 1918,054;   -0,351;   -0,773
511,216; 2003,265;    2,467;   -0,500
511,801; 2469,842;   -0,442;    2,591
512,386; 2735,035;    0,740;    0,500
512,971; 3004,593;   -2,988;    0,955
513,555; 3185,448;   -0,897;   -1,500
514,140; 3755,678;   -0,442;   -3,136
514,725; 3984,034;   -0,715;   -1,136
515,309; 4341,076;   -0,533;    0,318
515,894; 4409,621;   -0,624;   -2,227
516,479; 4951,307;   -0,624;   -0,955
517,063; 5087,235;    0,376;    1,227
517,648; 5482,510;    1,012;   -1,136
518,232; 5441,714;   -0,261;   -1,409
518,817; 6029,010;   -0,079;    1,682
519,401; 6517,212;    2,194;    0,591
519,985; 6295,663;    1,103;    1,136
520,570; 6442,648;    0,830;   -1,955
521,154; 6900,404;    2,102;    0,591
521,738; 7260,417;   -2,352;    2,409
522,323; 7934,174;   -0,170;    1,682
522,907; 7869,552;    0,466;   -0,136
523,491; 7844,485;    0,557;    0,955
524,075; 8000,235;    2,284;    0,591
524,659; 8224,819;    1,466;    0,591
525,243; 7995,389;    1,739;    0,409
525,827; 8309,009;    0,648;   -0,045
526,411; 9098,274;   -1,989;   -0,136
526,995; 9393,391;   -0,352;    1,409
527,579; 9141,749;   -0,443;   -1,045
528,163; 9482,870;    0,375;   -1,500
528,747; 9533,527;    2,466;   -0,773
529,331; 9841,479;   -0,080;   -1,409
529,915;10043,303;    1,738;    0,955
530,499;10079,553;   -0,807;    1,227
531,082; 9920,248;   -0,534;    1,591
531,666; 9520,495;    1,374;    0,773
532,250;10096,459;    1,284;    2,682
532,833;10400,493;    0,920;    2,773
533,417;10342,380;   -1,807;    0,864
534,001;10302,344;    1,647;   -0,318
534,584;10923,717;    0,374;    0,500
535,168;10808,398;    0,465;    1,409
535,751;10872,041;    0,647;    0,045
536,334;10376,114;   -0,898;   -0,409
536,918;10934,203;    0,011;    1,591
537,501;11019,800;   -0,899;    1,318
538,085;11048,372;   -0,444;    1,045
538,668;11191,941;    0,829;    2,409
539,251;11502,419;    1,829;    3,773
539,834;11536,326;    0,101;    0,773
540,418;11499,998;   -1,990;    4,318
541,001;11553,971;   -0,990;    1,773
541,584;11536,720;    2,101;    2,227
542,167;11257,659;    1,374;    2,955
542,750;11349,936;    1,919;   -0,773
543,333;10977,359;    0,555;    2,136
543,916;11698,963;    0,192;    2,500
544,499;12200,263;   -1,354;    0,227
545,082;12221,901;    1,374;    3,591
545,665;12341,102;    1,919;    1,500
546,248;12586,905;    1,010;   -0,318
546,830;12262,266;   -0,445;    1,955
547,413;12631,913;    1,010;   -0,773
547,996;13148,146;    0,555;    0,500
548,579;12908,108;    0,919;    0,955
549,161;12712,382;    1,828;    2,682
549,744;12502,798;   -0,809;    0,409
550,326;12952,572;   -0,809;   -1,136
550,909;12852,873;    2,737;    0,591
551,492;13147,887;   -0,263;    0,227
552,074;12947,991;   -0,173;   -1,318
552,657;13458,491;    2,373;    0,045
553,239;13285,107;   -0,173;   -0,773
553,821;13152,371;   -1,082;    1,045
554,404;12707,309;    1,282;    1,136
554,986;13032,041;    0,464;    1,045
555,568;13550,475;    1,191;   -0,955
556,151;12907,317;    1,191;   -0,227
556,733;13085,062;   -0,264;   -0,864
557,315;13445,076;    0,100;    0,500
557,897;13239,324;    0,554;   -0,500
558,479;13340,121;   -1,991;    1,318
559,061;13503,998;   -0,719;   -0,864
559,643;13799,287;   -0,264;    0,045
560,225;14045,113;    1,645;    2,864
560,807;14095,741;    0,918;    0,318
561,389;13632,676;    0,554;    2,318
561,971;14219,011;    0,463;    2,136
562,553;14063,271;   -1,628;    1,591
563,135;14203,906;   -0,537;    1,136
563,717;13831,360;    3,372;    1,136
564,298;14411,160;    3,645;   -0,045
564,880;14160,361;    0,645;   -1,409
565,462;14293,997;    0,645;    1,318
566,043;15269,756;   -0,446;    2,318
566,625;14864,869;    1,918;    1,227
567,207;14665,286;    1,099;    1,682
567,788;15578,356;   -1,264;    1,500
568,370;16246,049;    1,917;   -0,500
568,951;16033,996;    0,190;    0,227
569,533;16760,465;   -0,628;   -0,500
570,114;17160,942;   -0,446;    0,682
570,695;17534,618;   -0,174;   -1,318
571,277;17810,351;   -0,265;   -1,682
571,858;18447,687;    2,008;   -1,136
572,439;19142,681;    1,554;   -1,045
573,021;19220,251;    2,099;   -2,773
573,602;19624,904;   -1,265;    0,318
574,183;20370,591;   -2,083;    2,227
574,764;20368,635;   -1,629;    0,409
575,345;20825,209;    0,917;   -0,136
575,926;21286,220;   -0,356;    0,136
576,507;21270,744;    1,099;   -0,227
577,088;22211,449;    3,099;    1,682
577,669;22168,639;    0,735;    1,955
578,250;22849,591;    0,644;   -1,045
578,831;23320,266;   -1,356;   -2,227
579,412;23417,390;   -0,810;    0,955
579,993;24197,845;    1,008;    0,227
580,573;24456,664;   -0,629;   -0,955
581,154;23503,640;    0,735;   -0,591
581,735;24351,093;    0,644;    0,773
582,315;23859,002;   -0,629;    2,136
582,896;24079,908;   -0,174;    1,227
583,477;23571,283;    0,189;    1,227
584,057;23797,823;    0,553;    0,955
584,638;24079,573;    2,553;    2,318
585,218;24045,231;   -0,538;    2,682
585,799;24231,341;    0,281;   -0,227
586,379;24245,449;    0,372;    1,591
586,959;23201,364;    0,735;    0,318
587,540;22671,355;   -0,629;    2,227
588,120;22276,754;    1,007;   -0,045
588,700;21520,653;    2,553;    2,136
589,281;21875,800;    0,462;   -0,955
589,861;21723,508;    0,099;   -1,682
590,441;21570,301;    2,371;   -2,682
591,021;20710,231;   -0,265;   -2,591
591,601;20934,809;   -0,537;    0,500
592,181;20995,831;   -0,719;   -0,773
592,761;20394,679;    0,007;    1,409
593,341;20369,818;   -0,901;    0,045
593,921;20327,517;   -0,265;    1,591
594,501;20263,569;   -0,538;    1,318
595,081;20098,766;    0,917;   -0,318
595,661;20460,135;   -1,447;    0,955
596,240;20918,378;   -0,537;    0,136
596,820;20566,551;    0,372;    1,955
597,400;20632,133;    2,008;    0,773
597,980;20829,579;    2,008;    1,045
598,559;20883,927;    2,735;   -0,227
599,139;20656,248;   -0,174;   -1,227
599,718;20526,157;   -0,174;   -0,409
600,298;20784,496;    0,735;    0,682
600,877;21057,694;    2,917;    1,409
601,457;21247,231;    2,281;    1,136
602,036;21137,468;    0,190;    2,045
602,616;21309,238;    0,644;    1,682
603,195;21628,799;   -0,355;    3,500
603,774;21192,551;   -0,901;    2,045
604,354;21049,484;    0,826;   -0,500
604,933;20720,058;    0,463;    1,864
605,512;20792,849;    3,554;    0,591
606,091;20796,659;   -0,537;    3,773
606,671;21554,822;    0,281;    0,773
607,250;20806,778;    1,644;    3,136
607,829;21008,108;    2,372;    3,227
608,408;20874,317;    1,190;    2,591
608,987;20022,462;    1,281;    3,409
609,566;20287,294;   -1,265;   -2,500
610,145;20427,532;   -1,082;    0,682
610,723;20833,284;    4,372;    6,864
611,302;20124,117;   -0,446;    1,682
611,881;19698,394;    5,008;   11,227
612,460;20408,940;    1,645;    3,955
613,039;20791,591;   -0,082;    2,045
613,617;19654,497;    1,736;    4,773
614,196;19831,418;    1,099;    1,227
614,775;20147,249;    1,009;    2,409
615,353;20056,471;    0,736;    0,864
615,932;19867,836;    0,100;    2,409
616,510;20459,816;    0,554;    0,591
617,089;20052,382;    7,100;   17,591
617,667;19845,723;    2,372;    6,136
618,246;19697,922;   -1,537;    1,318
618,824;19864,992;   -3,355;   -0,955
619,402;19445,788;   -2,900;   -1,773
619,981;19866,168;   -0,173;   -1,045
620,559;19718,800;    0,009;    1,682
621,137;19350,644;   -0,718;    1,864
621,715;19333,032;   -1,173;   -0,682
622,293;19284,007;   -0,537;   -0,773
622,871;19738,621;   -0,718;    0,500
623,450;19362,134;    0,373;   -0,864
624,028;19301,664;    0,191;   -0,955
624,606;18958,659;   -1,718;    1,682
625,183;19280,039;   -1,536;   -1,136
625,761;18962,879;    1,009;    1,136
626,339;19259,797;    1,373;    2,591
626,917;19607,256;   -0,172;   -0,045
627,495;19623,940;   -0,354;    1,318
628,073;19106,115;   -0,263;    2,864
628,650;18826,103;    0,100;    2,136
629,228;19249,973;    0,373;    4,409
629,806;18707,785;    2,282;    1,136
630,383;18923,141;    1,464;   -0,318
630,961;18785,717;    2,555;   -0,955
631,539;18559,072;    2,464;    0,227
632,116;18087,990;   11,373;   15,409
632,694;18559,279;    2,555;    6,500
633,271;18735,287;    0,828;    2,682
633,848;18757,702;    1,828;    2,045
634,426;18712,760;   -1,081;    1,773
635,003;17947,812;    1,101;   -0,409
635,580;18229,083;    1,192;    3,682
636,158;18727,618;    3,737;    1,227
636,735;18732,946;    0,555;   -0,500
637,312;18786,932;   -0,809;   -0,682
637,889;18884,575;   -4,354;   -0,682
638,466;18445,398;   -3,990;   -0,409
639,043;18431,067;    2,101;   -1,136
639,620;18703,976;   -2,262;   -0,955
640,197;18996,272;    1,100;    1,682
640,774;19181,352;   -0,172;    1,136
641,351;19488,978;    0,737;    1,136
641,928;19034,695;   -0,627;    1,409
642,505;18686,139;    0,828;   -0,500
643,082;18785,038;   -1,718;    1,227
643,658;17944,755;   -0,718;    1,500
644,235;18549,472;    1,191;    2,500
644,812;18809,098;    1,918;    0,773
645,388;18562,815;   -0,991;    1,409
645,965;18664,350;   -0,809;    1,682
646,542;18708,339;   -1,445;   -0,227
647,118;18759,965;    1,009;   -0,955
647,695;18979,591;   -0,263;    1,136
648,271;18972,490;   -0,536;    0,500
648,848;19173,843;    0,736;    2,227
649,424;19060,742;    0,827;    1,318
650,000;18767,459;   -0,354;   -1,045
650,577;18594,630;   -0,627;   -0,955
651,153;18981,529;   -1,809;    0,955
651,729;19832,155;    1,191;    0,864
652,305;20095,235;    0,645;    2,773
652,881;23728,588;   -0,082;    1,136
653,458;28931,487;    1,100;    0,227
654,034;31569,204;    0,282;    1,591
654,610;32504,193;    0,554;    0,773
655,186;33560,365;    0,645;    3,045
655,762;33249,809;   -0,991;    0,409
656,338;33206,708;    0,100;    0,136
656,913;34070,334;   -0,082;    0,409
657,489;33353,687;    0,827;   -0,318
658,065;33359,222;   -0,173;   -1,591
658,641;34075,393;   -0,900;   -0,864
659,217;33463,746;   -0,991;    0,409
659,792;32890,645;    0,645;   -0,409
660,368;33145,998;   -2,173;   -0,682
660,944;32976,352;   -2,082;    1,227
661,519;29169,614;   -0,628;    0,409
662,095;24564,331;   -1,719;    0,591
662,670;21209,320;    1,281;   -0,136
663,246;20540,946;    1,009;   -0,409
663,821;20068,663;    0,281;    1,682
664,396;19616,562;    0,009;    1,864
664,972;19804,551;    0,009;   -0,500
665,547;20064,450;    1,372;    0,136
666,122;20112,258;   -1,082;    0,318
666,698;20310,156;   -0,173;    0,318
667,273;19705,419;   -0,173;    0,136
667,848;20425,227;    2,372;    1,500
668,423;20273,216;    2,190;    2,318
668,998;20650,478;    2,827;   -0,682
669,573;21128,832;   -3,264;   -1,500
670,148;20986,548;   -1,446;   -0,682
670,723;20746,356;   -1,810;    0,318
671,298;21130,619;    2,372;    1,045
671,873;21167,335;   -0,082;   -0,136
672,448;21136,325;    0,645;    0,136
673,023;21439,315;   -1,992;   -0,227
673,597;21776,031;    0,827;    2,318
674,172;21591,021;   -0,355;    0,318
674,747;21036,829;    0,372;   -1,045
675,321;20825,091;   -0,628;    3,318
675,896;20501,353;    0,645;    1,045
676,471;21347,707;    2,645;    1,591
677,045;21124,878;   -1,264;    0,682
677,620;21142,959;    0,190;    1,136
678,194;21440,584;   -2,628;    1,136
678,769;21119,029;   -1,083;   -0,318
679,343;21356,564;   -0,628;    1,773
679,917;21270,280;   -1,446;    1,955
680,492;21258,725;    0,826;    3,227
681,066;21389,169;    3,372;    0,409
681,640;21438,704;    1,463;   -0,318
682,214;22133,875;    0,735;    0,500
682,788;21717,047;   -1,356;   -0,773
683,363;21623,036;   -1,810;    1,682
683,937;21376,935;   -1,719;   -0,318
684,511;22007,015;    0,463;   -0,591
685,085;21756,732;   -1,356;    0,318
685,659;21495,995;   -2,538;    0,864
686,232;21807,893;   -0,356;   -0,318
686,806;21513,701;   -0,901;    0,409
687,380;22078,327;   -0,174;    0,591
687,954;22241,862;   -1,174;    1,136
688,528;21948,488;   -0,719;    1,955
689,101;22690,659;   -3,992;    1,045
689,675;22243,922;   -0,356;   -0,136
690,249;21679,366;   -0,719;    0,409
690,822;22025,173;    0,280;    0,318
691,396;22142,436;   -0,265;    1,227
691,969;21680,971;    1,280;    0,136
692,543;22108,960;   -0,447;   -1,955
693,116;21756,586;   -0,265;   -1,409
693,690;21660,485;    0,099;    0,500
694,263;22137,656;   -1,083;    2,955
694,836;22171,555;    1,371;    3,591
695,410;20977,999;   -0,265;    1,773
695,983;21387,989;    0,189;    0,591
696,556;21360,069;   -0,447;   -1,045
697,129;21707,513;   -0,356;    1,409
697,703;21411,139;   -1,629;    1,955
698,276;21413,674;    1,462;   -0,773
698,849;21230,391;    1,280;    1,409
699,422;21582,472;   -1,083;    0,591
699,995;21319,461;    0,007;    0,136
700,568;21722,905;   -0,629;    3,045
701,140;21712,713;   -2,811;    1,682
701,713;21501,248;   -0,174;    2,409
702,286;21304,601;   -0,538;    0,864
702,859;21170,137;   -0,902;   -0,591
703,432;20464,853;    0,825;    0,682
704,004;20879,661;    0,462;    0,318
704,577;20755,105;   -0,629;    0,136
705,150;21296,095;    0,189;    2,500
705,722;21072,175;   -0,356;   -3,227
706,295;20908,347;   -0,175;   -0,591
706,867;20815,791;   -0,175;    1,955
707,440;21002,690;   -1,720;   -0,409
708,012;21252,588;    0,462;    0,591
708,584;21132,305;    2,462;    0,227
709,157;21366,113;    1,825;   -0,591
709,729;21087,466;    2,280;    2,045
710,301;21855,092;    0,734;    0,045
710,874;21848,173;   -1,447;   -0,227
711,446;20795,162;    0,371;    0,864
712,018;20695,243;    0,098;    0,500
712,590;20477,959;   -1,993;    1,682
713,162;20963,313;    0,825;    1,318
713,734;21206,393;    1,825;   -2,045
714,306;21127,837;   -1,902;   -0,409
714,878;19921,463;    0,825;    0,864
715,450;20691,453;    0,643;    0,864
716,022;20941,261;    1,552;    1,318
716,593;21114,250;    0,189;    0,591
717,165;21035,603;   -3,175;   -1,227
717,737;20824,320;    0,280;    0,409
718,309;20518,673;    0,280;   -0,045
718,880;20428,027;   -0,539;   -1,409
719,452;20678,198;   -0,175;   -1,591
720,024;20357,915;    0,734;   -0,591
720,595;20842,905;   -2,902;    0,955
721,167;20429,167;    0,370;   -2,045
721,738;19987,611;   -0,812;   -1,045
722,309;20077,873;   -0,993;   -1,227
722,881;19826,863;   -1,357;    0,773
723,452;20371,762;   -2,630;    2,864
724,023;20570,297;   -0,721;    2,682
724,595;20360,286;    0,007;    0,682
725,166;20091,185;    0,007;   -0,409
725,737;19823,265;    1,734;    0,227
726,308;19918,982;   -0,266;    0,318
726,879;20275,972;   -1,630;    1,227
727,450;20103,416;    0,552;   -0,045
728,021;20092,224;    3,097;    0,682
728,592;19903,940;    0,734;    0,500
729,163;20258,476;    0,643;   -0,136
729,734;20258,465;    0,188;   -0,227
730,305;20537,182;    1,734;    0,136
730,876;20852,353;    0,188;    2,955
731,447;20616,707;    2,188;    2,682
732,017;20707,696;    1,097;    1,864
732,588;20238,868;    0,734;    1,227
733,159;20399,039;    0,643;   -1,045
733,729;20242,665;    0,006;    0,409
734,300;19609,200;    0,915;    0,864
734,870;19967,826;    3,461;    0,591
735,441;20449,361;    0,370;   -0,591
736,011;20287,896;    0,643;   -1,591
736,582;20216,340;   -0,812;    0,045
737,152;19682,148;   -1,721;   -2,045
737,722;20120,501;   -0,267;   -0,682
738,293;19879,582;   -1,358;    1,318
738,863;19773,480;    2,461;    2,318
739,433;19633,652;    5,279;    0,318
740,003;20216,278;   -0,994;   -0,682
740,573;19715,722;    2,097;   -1,591
741,143;19702,075;   -1,085;    0,318
741,713;20351,883;    1,188;   -0,500
742,283;20139,872;    0,915;    1,591
742,853;19938,862;    1,915;    1,591
743,423;19447,488;    1,733;    0,045
743,993;19522,114;   -0,358;    1,500
744,563;19002,012;    0,097;   -0,864
745,133;18972,547;   -0,812;   -0,864
745,702;19573,264;   -0,267;    1,773
746,272;18890,981;   -0,176;    0,591
746,842;18709,971;   -1,358;   -0,591
747,411;19115,324;   -0,267;   -0,318
747,981;19251,950;    0,097;    0,500
748,551;19305,940;    2,278;   -1,045
749,120;19168,202;    0,642;   -0,227
749,690;19480,191;   -0,631;    2,409
750,259;19731,181;    1,369;    2,955
750,828;19645,352;    1,551;   -1,955
751,398;19917,251;    1,278;   -0,045
751,967;19459,150;    2,187;    0,409
752,536;19633,321;   -0,813;   -0,227
753,105;20057,674;    0,096;    0,227
753,675;19845,300;    0,096;    1,773
754,244;19806,563;   -0,904;    3,591
754,813;19797,007;    0,551;    1,227
755,382;19377,724;    0,460;    0,955
755,951;19868,895;    1,551;    3,682
756,520;19494,248;   -0,085;    1,864
757,089;20016,874;    0,278;    0,500
757,658;20108,864;    1,733;    1,227
758,227;20078,853;    1,096;    0,318
758,795;20315,752;    1,187;    1,136
759,364;20595,196;   -0,086;   -0,591
759,933;19743,095;   -1,176;   -0,045
760,501;19296,266;    0,733;   -1,318
761,070;19680,256;   -2,813;   -1,409
761,639;20322,973;   -1,904;    1,318
762,207;19728,871;    1,551;   -0,955
762,776;19654,679;    0,369;    0,864
763,344;19631,214;   -0,995;    0,591
763,913;18730,386;   -0,722;    1,409
764,481;19459,830;    1,005;   -0,136
765,049;19349,001;   -1,358;    1,409
765,618;19247,354;   -0,086;    0,318
766,186;19324,617;    0,278;    0,136
766,754;19500,243;    0,005;    1,864
767,322;18650,778;   -1,995;    0,409
767,890;18642,494;   -0,722;   -1,773
768,459;19063,029;   -2,177;   -0,318
769,027;19184,746;    1,641;    3,409
769,595;18253,736;    3,278;    2,591
770,163;18670,635;    3,823;    2,955
770,730;18499,533;    0,732;   -0,136
771,298;18364,886;    0,187;   -1,409
771,866;18412,967;   -1,541;    4,955
772,434;18723,138;   -0,631;   -1,864
773,002;18883,673;    0,005;    0,682
773,569;18588,118;    0,914;    1,682
774,137;18456,834;   -0,268;   -0,045
774,705;19161,369;    0,278;   -0,136
775,272;18726,359;    0,641;    0,682
775,840;18551,985;   -0,177;    2,682
776,407;18115,520;    0,277;    1,955
776,975;17741,237;   -0,632;    0,318
777,542;18600,863;   -1,086;   -0,045
778,110;18483,761;   -1,268;   -0,045
778,677;18160,660;   -2,359;   -0,864
779,244;17981,650;    2,186;    1,045
779,812;18108,003;    1,823;    0,864
780,379;17953,265;    0,005;    1,136
780,946;18161,709;    1,005;   -0,773
781,513;18450,608;   -1,450;    0,318
782,080;17947,416;   -0,086;    2,864
782,647;18548,496;   -0,268;    3,045
783,214;18193,213;   -0,177;    3,864
783,781;17848,112;   -0,723;   -0,682
784,348;17769,011;   -0,632;    1,500
784,915;18155,182;   -3,177;    0,318
785,482;17960,626;    1,368;    2,591
786,049;18406,070;    0,186;   -0,591
786,615;18502,878;    0,277;   -0,955
787,182;18269,958;    0,186;   -0,682
787,749;17929,766;   -2,814;    1,409
788,315;17343,665;   -1,632;   -0,409
788,882;17653,109;    1,550;   -1,227
789,448;18305,189;    1,732;   -0,955
790,015;18322,088;    1,095;    3,227
790,581;17928,260;    1,459;    0,227
791,148;17817,886;    0,641;    1,045
791,714;17991,693;   -0,541;    3,136
792,280;17734,319;    0,186;    1,591
792,847;17387,945;    0,550;    2,500
793,413;17796,844;   -0,269;   -0,318
793,979;17456,561;    3,459;   -1,318
794,545;17539,278;    4,459;    2,682
795,111;17068,631;    2,186;    1,318
795,678;17221,439;    0,731;   -1,682
796,244;16921,246;    3,368;    0,136
796,810;17394,963;    1,731;    0,773
797,375;17123,771;    0,549;   -2,136
797,941;17113,033;   -0,541;    0,591
798,507;17227,205;   -0,451;   -0,955
799,073;16850,558;   -0,360;    0,591
799,639;16951,184;   -2,632;    3,136
800,205;16948,719;    0,095;    2,682
800,770;16586,708;    0,640;    1,773
801,336;16667,971;    1,368;   -0,955
801,901;16475,324;    4,549;    3,136
802,467;16961,314;   -0,542;    2,045
803,033;16317,939;   -0,087;    0,864
803,598;16498,202;    1,913;   -1,045
804,163;16568,100;    1,095;   -0,318
804,729;16525,090;   -0,178;    1,136
805,294;16853,898;    0,822;    2,227
805,859;16664,342;    0,731;   -0,409
806,425;16259,968;    1,186;    2,682
806,990;15953,048;    2,186;    4,318
807,555;16338,311;   -1,451;    2,591
808,120;16320,846;    0,822;   -0,409
808,685;16349,017;    0,185;   -2,500
809,250;15965,098;    0,004;   -0,500
809,815;16160,178;    1,913;    0,682
810,380;16614,440;   -0,269;    1,591
810,945;17086,794;   -1,087;    2,045
811,510;16396,510;    2,094;    1,591
812,075;16108,046;   -0,633;   -1,409
812,640;16114,035;    2,003;    1,409
813,204;16205,207;    0,822;   -0,227
813,769;16650,923;    2,094;   -0,045
814,334;16163,368;    0,458;    0,864
814,898;16206,266;    0,367;    0,591
815,463;16023,892;    1,276;   -0,773
816,027;16057,064;   -0,724;   -2,318
816,592;16157,235;    0,640;   -2,045
817,156;15730,588;    2,094;    1,136
817,721;15668,396;    4,276;    2,318
818,285;15660,840;    2,912;    1,500
818,849;16167,830;   -1,451;    1,682
819,414;16094,910;   -0,269;    2,955
819,978;15673,263;   -1,269;    1,773
820,542;16217,889;    2,003;    0,500
821,106;16009,879;   -0,815;    0,682
821,670;16089,959;   -0,815;    2,591
822,234;15858,222;   -0,270;    1,409
822,798;15373,757;    0,003;    0,500
823,362;15360,564;   -0,633;    4,227
823,926;14826,645;    0,094;    1,136
824,490;14978,816;   -0,997;   -0,682
825,054;15359,351;   -0,088;   -1,136
825,618;15126,977;   -1,542;   -1,500
826,181;15070,331;    0,458;   -1,318
826,745;14957,047;    1,367;   -1,045
827,309;15310,401;    1,185;    1,318
827,872;14788,754;    1,367;    0,955
828,436;15635,471;    1,185;   -0,773
828,999;15756,188;   -0,997;    1,227
829,563;14711,541;   -0,179;    1,136
830,126;14545,349;   -0,179;   -0,591
830,690;14635,793;   -1,997;    2,864
831,253;14161,419;   -0,543;    2,227
831,816;14278,045;   -1,906;    0,500
832,380;14247,216;    0,185;    0,864
832,943;14484,296;   -1,361;   -0,500
833,506;13979,104;    2,639;   -1,227
834,069;14722,821;    3,912;   -0,955
834,632;14785,811;    1,730;    1,318
835,195;14705,346;    1,003;    0,955
835,758;14027,699;   -0,997;    1,955
836,321;13843,598;    0,730;   -1,045
836,884;13960,769;   -0,725;   -0,955
837,447;14019,849;   -2,816;    1,773
838,010;14263,475;    0,366;    3,227
838,573;14502,829;   -1,179;    0,773
839,135;14506,000;   -1,361;   -0,955
839,698;14028,990;    1,275;    0,409
840,261;13589,525;    1,003;   -0,227
840,823;13433,696;   -0,543;    0,864
841,386;13710,958;   -0,452;   -2,409
841,948;13653,403;   -1,361;    1,773
842,511;13378,483;    0,912;    1,682
843,073;13506,109;    1,912;    0,227
843,636;13323,280;   -0,361;   -0,227
844,198;13287,815;    0,911;    0,591
844,760;13442,714;    1,093;    1,955
845,322;13102,976;    0,548;    1,136
845,885;13463,421;    0,730;    0,591
846,447;13866,592;   -1,998;    0,227
847,009;13566,036;    1,911;   -0,682
847,571;13778,844;    0,820;   -2,045
848,133;13853,015;   -1,089;   -1,864
848,695;13715,096;   -0,543;    1,409
849,257;13366,267;   -1,089;   -1,682
849,819;13519,802;   -0,998;   -0,409
850,381;13501,064;   -0,725;   -0,864
850,942;13816,145;    1,093;   -0,591
851,504;13753,407;    1,184;    0,227
852,066;13777,579;    1,275;   -1,591
852,628;13426,386;   -0,180;    1,955
853,189;12975,012;    1,638;    2,682
853,751;13086,002;   -0,907;    1,409
854,312;12941,446;   -0,453;   -1,682
854,874;13364,527;   -2,089;   -0,773
855,435;13789,789;   -0,907;   -1,682
855,997;13991,597;   -1,816;   -0,136
856,558;13324,677;    0,366;    1,773
857,119;13391,212;    0,820;    2,864
857,681;13162,929;    0,002;    0,318
858,242;13219,555;    1,911;   -2,136
858,803;13588,363;    0,456;   -0,773
859,364;14127,534;    0,184;   -4,773
859,925;13557,069;   -2,453;   -0,955
860,486;13433,059;   -0,453;   -0,955
861,047;13165,412;   -0,544;   -1,227
861,608;13013,402;   -1,089;   -0,773
862,169;13184,118;    0,638;   -0,045
862,730;12927,108;    0,456;    1,409
863,291;13222,552;   -0,635;   -0,500
863,852;13510,724;   -0,635;    1,955
864,412;13057,895;   -0,271;   -0,864
864,973;11863,339;   -0,089;    0,500
865,534;11753,147;   -1,726;    0,227
866,094;13009,955;    1,820;    0,227
866,655;12728,762;    1,274;    3,318
867,215;13002,116;    0,274;    0,136
867,776;12850,560;    0,547;   -0,136
868,336;12916,640;   -1,453;    0,136
868,897;12546,539;    2,638;    1,682
869,457;12319,528;    1,365;    0,318
870,017;12543,063;    0,547;   -1,227
870,578;12992,962;   -0,817;    0,773
871,138;12643,861;   -2,089;   -0,955
871,698;12244,578;   -0,817;   -1,318
872,258;12130,931;   -0,453;   -2,864
872,818;12502,557;    2,729;    0,045
873,378;12536,092;    0,638;    1,045
873,938;12111,900;    0,547;    0,500
874,498;12383,071;    0,274;   -1,955
875,058;12314,515;    2,183;    1,773
875,618;12162,687;    1,910;   -2,682
876,177;12099,858;    1,274;    0,136
876,737;11802,938;   -0,090;    1,955
877,297;11851,110;    0,183;    1,955
877,856;11892,099;   -0,362;    0,318
878,416;11811,180;    1,183;   -0,136
878,976;12004,806;   -1,817;    0,409
879,535;12164,795;    0,092;    3,136
880,095;11949,967;   -0,544;    0,045
880,654;12024,502;   -1,090;    1,318
881,213;12157,946;    2,456;    1,500
881,773;11848,936;    2,637;    2,682
882,332;12209,107;    3,365;    5,136
882,891;12070,642;    3,092;    2,136
883,451;12424,541;   -1,272;    1,682
884,010;11892,530;   -2,908;   -0,409
884,569;12014,247;   -0,999;   -0,045
885,128;12127,691;    2,819;   -1,864
885,687;12187,317;    4,455;    0,682
886,246;11953,489;    1,455;    2,136
886,805;11713,842;    2,455;    2,045
887,364;11915,559;   -0,999;   -0,500
887,922;12273,821;   -1,181;    0,045
888,481;11784,083;   -1,545;    0,591
889,040;12061,618;    1,183;    2,136
889,599;12595,244;    2,455;    1,409
890,157;12634,325;    1,455;    2,409
890,716;12292,769;   -0,090;    0,227
891,274;12149,031;    0,092;   -1,136
891,833;12532,203;    1,546;    0,864
892,391;12401,738;   -0,454;    0,500
892,950;12482,818;    1,819;   -0,773
893,508;12808,535;    0,455;   -0,409
894,067;12208,525;    0,637;    0,136
894,625;12117,787;   -0,636;   -1,500
895,183;12321,504;   -0,363;   -0,682
895,741;12263,584;    1,728;   -1,773
896,299;12094,392;   -0,545;   -2,409
896,858;12263,018;    0,819;   -1,591
897,416;12414,008;    2,728;   -1,318
897,974;12213,179;    1,819;    0,318
898,532;12395,350;    6,091;    2,682
899,089;12240,431;    2,091;   -0,682
899,647;12337,148;   -1,454;    1,318
900,205;12138,137;    1,182;    1,045
900,763;12274,491;   -0,454;    0,227
901,321;12329,662;    2,364;   -1,409
901,878;11785,742;   -1,000;   -0,773
902,436;11686,096;   -1,363;    1,318
902,994;12146,631;    4,728;    3,682
903,551;11632,620;    0,728;    0,409
904,109;11970,792;    0,182;   -1,409
904,666;11603,054;    2,455;    1,045
905,224;11439,225;    0,182;   -0,409
905,781;11295,124;    0,727;   -0,318
906,338;11322,750;   -1,363;    1,045
906,895;11307,376;    0,637;    2,045
907,453;11247,729;    1,727;    1,136
908,010;11265,173;   -0,909;    0,409
908,567;10969,163;    1,273;    0,591
909,124;10524,334;    0,364;   -1,500
909,681;10604,869;   -2,909;    0,682
910,238;10789,950;    0,636;   -1,318
910,795;11102,576;   -0,273;   -1,136
911,352;10744,939;   -2,909;   -2,682
911,909;10271,030;   -1,364;   -0,864
912,466;10727,303;   -3,182;    1,500
913,022;10318,394;   -1,636;    0,500
913,579;10646,848;   -0,909;    2,045
914,136;10397,303;    1,636;    0,955
914,692;10736,758;    0,091;   -1,227
915,249;10363,667;    1,455;    0,409
915,806;10565,030;    0,182;    1,955
916,362;10436,030;    1,909;    1,864
916,918;10012,121;    2,000;    1,045
917,475;10016,758;   -1,182;    0,955
918,031;10085,485;    3,364;   -0,045
918,587; 9639,758;   -0,909;   -0,318
919,144; 9850,394;   -2,273;    0,227
919,700;10094,848;    1,727;    0,773
920,256; 9726,848;    0,727;    0,045
920,812; 9411,212;   -0,727;   -1,045
921,368; 9481,121;   -1,727;   -1,045
921,924; 9164,121;    0,182;   -0,136
922,480; 8840,485;   -0,545;    1,227
923,036; 9401,394;    1,273;    1,955
923,592; 9340,758;    0,455;    0,318
924,148; 9301,303;    0,455;   -0,955
924,704; 8738,667;   -1,364;   -0,409
925,259; 9004,121;   -0,273;    0,591
925,815; 8804,939;    1,455;    0,500
926,371; 8400,758;    2,909;    1,409
926,926; 8342,212;    2,091;    0,591
927,482; 8072,121;   -1,364;    0,773
928,037; 7971,667;    0,909;    2,045
928,593; 8282,667;    1,636;    1,045
929,148; 8131,667;   -1,818;   -1,500
929,704; 7721,121;   -1,455;   -0,500
930,259; 7905,303;    0,091;   -0,136
930,814; 7192,121;   -0,818;    1,955
931,369; 6931,939;    1,091;   -0,773
931,925; 6878,576;   -0,091;    0,136
932,480; 6832,303;   -2,818;   -2,591
933,035; 6800,848;    0,545;   -0,318
933,590; 6600,303;    0,364;   -1,773
934,145; 6289,394;   -1,364;   -0,318
934,700; 6583,758;    0,455;   -0,591
935,255; 6475,030;   -0,091;    0,045
935,809; 5974,576;    3,182;    0,864
936,364; 5256,576;   -0,455;   -0,136
936,919; 5290,939;    0,455;   -1,773
937,474; 5208,667;    1,455;    0,136
938,028; 5008,939;   -1,636;    1,136
938,583; 4721,758;    1,818;    4,682
939,138; 4899,030;    2,091;    2,136
939,692; 4429,939;    1,636;   -1,136
940,247; 4225,212;   -0,727;   -1,045
940,801; 3946,576;   -0,636;    0,227
941,355; 3874,939;   -0,364;    2,591
941,910; 3588,576;   -0,273;   -2,136
942,464; 3692,667;   -0,818;   -0,318
943,018; 3629,485;    1,000;   -0,227
943,572; 3547,758;    2,545;   -0,682
944,126; 3126,485;    0,091;   -0,409
944,681; 3027,939;    3,091;    0,227
945,235; 3005,030;    1,000;   -0,591
945,789; 2936,939;    0,364;   -1,864
946,342; 3142,394;    0,455;   -0,591
946,896; 2897,667;   -2,273;    0,955
947,450; 2676,848;    1,545;   -0,227
948,004; 2938,758;    1,727;   -0,045
948,558; 2881,758;    0,273;   -0,864
949,111; 2825,030;   -0,273;   -0,318
949,665; 2959,576;    1,636;   -0,682
950,219; 2848,212;   -0,091;   -1,045
950,772; 2877,576;   -1,909;    1,864
951,326; 2810,394;    0,545;   -0,955
951,879; 2844,758;    0,727;   -2,318
952,433; 2896,121;    0,000;    2,227
952,986; 2727,030;    2,909;    0,682
953,539; 2670,576;   -0,273;    0,591
954,093; 2621,030;    0,545;   -1,318
954,646; 2764,030;    0,909;    1,318
955,199; 2580,212;    0,000;   -0,500
955,752; 2576,030;   -0,455;    1,773
956,305; 2501,303;   -0,091;    2,955
956,858; 2647,485;    0,818;   -0,318
957,411; 2792,667;   -0,545;    2,136
957,964; 2640,303;    1,364;    2,136
958,517; 2598,576;   -1,545;    3,136
959,070; 2467,303;   -0,455;    1,955
959,623; 2634,667;    1,091;    1,500
960,176; 2432,848;    1,727;    2,045
960,728; 2430,030;   -2,727;    0,773
961,281; 2471,303;    0,545;    0,500
961,834; 2459,394;   -0,909;    0,864
962,386; 2397,667;    1,727;    1,045
962,939; 2339,667;    0,364;   -0,318
963,491; 2445,939;    0,455;    1,136
964,043; 2341,576;    1,182;    2,409
964,596; 2489,394;   -1,000;    2,227
965,148; 2326,848;   -1,000;    1,773
965,700; 2245,394;    1,091;   -0,227
966,253; 2388,121;   -0,636;    0,318
966,805; 2297,667;   -2,273;    0,773
967,357; 2286,485;    1,091;   -1,500
967,909; 2307,848;    0,455;   -1,227
968,461; 2336,394;    0,545;    3,136
969,013; 2287,121;   -0,182;   -0,864
969,565; 2359,758;   -0,455;   -1,136
970,117; 2569,758;   -0,364;    1,045
970,669; 2322,212;    0,182;   -0,136
971,220; 2138,212;   -0,455;   -1,500
971,772; 2115,303;   -0,636;   -0,318
972,324; 2242,121;    0,091;   -0,500
972,876; 2165,121;    0,818;   -0,045
973,427; 2332,939;    1,909;   -1,045
973,979; 2307,848;   -0,727;   -2,500
974,530; 2253,848;    1,818;    1,318
975,082; 2269,667;   -0,545;    1,682
975,633; 2198,030;    1,091;    1,682
976,184; 2350,121;    0,909;    0,773
976,736; 2190,576;    0,091;    0,227
977,287; 2042,394;   -0,909;   -0,500
977,838; 2170,303;    0,909;   -0,318
978,389; 2215,758;   -1,000;   -0,500
978,940; 2074,121;    0,545;   -0,409
979,491; 2085,030;    0,091;   -0,500
980,042; 2103,212;    0,182;    3,045
980,593; 2115,303;   -2,545;    0,227
981,144; 2204,576;    2,545;   -0,500
981,695; 2233,121;    1,455;    1,500
982,246; 2164,303;   -0,273;    1,045
982,797; 2208,030;   -1,727;    0,682
983,347; 2354,303;    0,364;    0,591
983,898; 2552,667;    3,091;    0,409
984,449; 2389,394;    2,182;    0,773
984,999; 2240,212;    1,455;   -1,136
985,550; 2086,394;    0,182;   -0,318
986,100; 2060,667;   -0,455;   -0,318
986,651; 2072,030;   -0,818;    0,045
987,201; 2070,394;   -1,000;   -0,591
987,751; 2143,848;    0,818;    2,864
988,302; 2147,303;    2,636;    1,500
988,852; 2170,030;    0,455;   -1,136
989,402; 2243,939;    0,091;    0,682
989,952; 2194,030;   -2,182;    0,864
990,502; 2207,485;   -0,091;    0,682
991,052; 2129,485;   -0,727;    0,045
991,602; 2049,394;   -2,909;    1,318
992,152; 2078,758;    0,455;    0,682
992,702; 2072,394;    1,364;   -0,045
993,252; 2015,030;   -3,000;   -0,500
993,802; 2102,121;   -0,273;    1,318
994,352; 2249,212;   -1,545;    1,136
994,901; 2282,303;   -0,182;    3,227
995,451; 2234,939;   -0,182;    0,318
996,000; 2308,212;    1,636;    0,318
996,550; 2090,758;    2,273;    0,227
997,100; 2083,303;    1,273;   -0,045
997,649; 2358,939;    2,182;    0,955
998,198; 2037,030;    1,727;   -1,500
998,748; 2229,758;    1,091;   -2,318
999,297; 2112,485;   -0,818;   -0,409
999,846; 2230,939;    1,000;   -0,773
1000,395; 2217,667;   -0,818;    0,500
1000,945; 2250,394;    1,818;   -0,773
1001,494; 2323,212;    2,364;    0,682
1002,043; 2274,212;    4,636;    0,864
1002,592; 2070,394;   -1,091;    1,955
1003,141; 2212,667;   -0,455;   -0,682
1003,690; 2156,485;    1,727;    0,500
1004,238; 2155,848;    1,455;   -0,045
1004,787; 1856,121;    1,364;    1,227
1005,336; 2129,212;    0,364;    0,682
1005,885; 2193,758;    1,364;   -2,773
1006,433; 2273,303;    0,545;    0,955
1006,982; 2435,758;    0,455;    1,682
1007,531; 2289,485;   -1,818;   -0,227
1008,079; 2192,121;   -2,273;    0,500
1008,627; 2290,758;   -1,455;    0,409
1009,176; 2106,848;    0,000;   -1,955
1009,724; 2141,667;    1,091;    0,864
1010,273; 2254,212;    1,273;    0,500
1010,821; 2276,485;    0,091;    1,409
1011,369; 2062,576;   -1,364;    1,318
1011,917; 2057,758;   -1,364;   -0,591
1012,465; 2281,758;    1,273;   -1,591
1013,013; 2359,485;    2,091;   -1,682
1013,561; 2321,485;    0,455;   -0,773
1014,109; 2394,576;   -1,909;    1,682
1014,657; 2251,030;    0,364;    0,591
1015,205; 2311,121;    1,636;   -0,955
1015,753; 2298,758;   -0,545;   -1,409
1016,301; 2342,394;   -2,636;    3,045
1016,848; 2355,576;   -1,273;    0,409
1017,396; 2401,121;    2,545;    0,045
1017,944; 2494,303;    1,182;    1,864
1018,491; 2269,758;    0,273;    1,409
1019,039; 2548,303;    0,455;    0,591
1019,586; 2339,667;   -1,364;    1,682
1020,134; 2394,758;    0,455;    1,500
1020,681; 2462,121;    0,182;   -1,136
1021,228; 2404,848;    2,909;   -2,227
1021,776; 2272,030;    1,182;   -1,136
1022,323; 2527,212;    0,455;    0,773
1022,870; 2453,121;   -1,000;   -0,045
1023,417; 2412,303;    2,636;    1,864
1023,964; 2441,576;    2,636;    1,227
1024,511; 2346,394;    1,000;    0,773
1025,058; 2196,030;    3,182;   -0,045
1025,605; 2215,485;   -2,273;    3,136
1026,152; 2479,030;    1,727;   -0,591
1026,699; 2206,394;    1,818;    1,318
1027,245; 2310,485;   -0,091;    0,318
1027,792; 2459,212;   -1,000;    1,409
1028,339; 2458,667;    2,364;   -0,045
1028,885; 2299,485;    1,000;   -0,227
1029,432; 2232,212;   -0,091;    0,227
1029,978; 2310,758;   -1,000;   -1,591
1030,525; 2220,667;    1,000;    0,409
1031,071; 2368,303;   -1,364;    1,136
1031,618; 2596,212;    0,364;    1,682
1032,164; 2340,939;   -0,091;    3,045
1032,710; 2377,303;    1,636;   -1,500
1033,256; 2283,303;   -0,636;   -0,136
1033,803; 2212,485;   -0,545;    1,500
1034,349; 1986,212;   -1,364;    0,136
1034,895; 2113,121;    0,000;   -0,318
1035,441; 2130,576;   -0,818;    0,318
1035,987; 2159,576;   -2,364;   -0,682
1036,533; 2200,939;   -1,455;   -0,955
1037,078; 2424,576;    1,455;    1,682
1037,624; 2219,030;    2,455;   -0,955
1038,170; 2185,485;    0,455;   -0,318
1038,716; 2163,758;    1,636;   -0,409
1039,261; 2025,485;   -2,273;   -0,773
1039,807; 2001,667;   -0,091;    3,409
1040,352; 2072,667;   -1,909;   -0,318
1040,898; 2098,303;   -1,545;   -0,682
1041,443; 2003,848;   -1,455;   -2,591
1041,989; 2167,848;    1,091;    1,591
1042,534; 1967,848;   -0,364;    2,591
1043,079; 2005,667;    2,909;    0,955
1043,625; 1892,667;    1,818;    0,500
1044,170; 1962,667;   -1,364;    1,045
1044,715; 2229,212;    2,455;    0,955
1045,260; 2052,667;    2,182;   -0,955
1045,805; 2023,939;    1,182;   -0,591
1046,350; 1945,576;    1,364;   -0,409
1046,895; 2021,121;    2,909;    1,591
1047,440; 2010,848;    5,364;    0,409
1047,985; 1844,303;    2,818;   -0,955
1048,530; 1775,212;    1,545;    1,227
1049,074; 1851,667;    0,000;    0,318
1049,619; 1802,394;   -1,364;    1,955
1050,164; 1643,212;    0,455;    0,227
1050,708; 1717,667;   -0,455;    0,045
1051,253; 2134,212;    1,273;   -2,227
1051,797; 1829,212;    0,818;   -1,318
1052,342; 1749,485;   -1,182;    1,045
1052,886; 1800,121;    0,364;   -1,409
1053,430; 1637,576;   -1,364;    0,136
1053,975; 1681,303;   -0,818;   -0,318
1054,519; 1683,848;   -0,727;    3,227
1055,063; 1762,485;    0,909;    1,318
1055,607; 1674,030;   -0,182;    0,227
1056,151; 1667,303;    2,909;    1,682
1056,695; 1553,030;    2,273;   -1,136
1057,239; 1621,394;   -1,727;   -0,682
1057,783; 1652,212;    0,818;   -1,500
1058,327; 1656,212;    0,000;    1,409
1058,871; 1886,394;   -0,545;    1,318
1059,415; 1626,939;   -0,818;   -0,045
1059,958; 1910,576;    1,455;    2,591
1060,502; 1609,212;   -1,000;   -0,773
1061,046; 1467,121;    0,364;   -0,955
1061,589; 1432,576;   -3,000;   -1,136
1062,133; 1344,394;   -1,273;    1,864
1062,676; 1343,303;    1,182;    0,864
1063,220; 1356,303;    1,091;    0,500
1063,763; 1389,485;    0,909;    1,136
1064,306; 1469,576;   -0,909;    1,864
1064,849; 1381,667;   -0,909;    0,591
1065,393; 1368,121;    2,000;   -1,500
1065,936; 1447,485;    0,182;   -0,409
1066,479; 1319,121;   -1,455;    1,318
1067,022; 1346,394;   -0,273;   -0,227
1067,565; 1265,667;   -0,091;   -1,318
1068,108; 1267,576;    0,727;   -0,591
1068,651; 1233,394;   -0,636;    1,409
1069,194; 1195,303;   -0,455;   -1,682
1069,736; 1219,576;   -1,273;    0,955
1070,279; 1172,121;   -1,364;   -0,500
1070,822; 1264,485;   -2,000;   -0,318
1071,364; 1401,939;   -0,364;    1,318
1071,907; 1194,030;   -0,727;    3,227
1072,450; 1042,030;    0,000;   -0,045
1072,992; 1087,212;   -0,273;    3,136
1073,535; 1244,848;    2,091;    2,136
1074,077; 1029,212;   -0,727;    2,045
1074,619; 1033,848;   -1,364;    0,591
1075,161; 1075,212;   -1,091;    1,500
1075,704; 1255,939;    1,545;    1,227
1076,246; 1024,939;   -0,182;    0,682
1076,788;  949,848;   -0,364;    1,773
1077,330;  999,576;    1,273;    2,136
1077,872; 1018,121;    0,909;    0,955
1078,414; 1262,303;    2,727;    0,773
1078,956;  992,030;    1,273;   -0,227
1079,498; 1269,758;    1,636;    0,318
1080,040;  987,667;    1,909;   -1,318
1080,581;  932,121;    1,636;   -0,318
1081,123;  825,848;    0,091;   -0,773
1081,665;  873,121;   -1,182;   -0,955
1082,206; 1188,939;    1,364;   -0,500
1082,748; 1066,212;    0,727;    2,045
1083,289;  927,394;   -2,000;    1,318
1083,831;  850,394;   -0,545;    0,227
1084,372;  911,939;    0,000;    0,591
1084,913;  903,758;    1,091;    0,864
1085,455;  836,848;   -1,909;   -2,045
1085,996;  840,030;   -2,273;    0,136
1086,537;  886,939;   -0,091;    0,864
1087,078;  904,667;   -0,909;   -2,136
1087,619;  947,121;   -1,273;    0,227
1088,160;  868,212;    0,000;    1,318
1088,701;  837,485;   -1,091;    0,682
1089,242;  792,121;    1,364;   -2,227
1089,783;  895,667;   -0,273;    1,409
1090,324;  862,939;    0,455;    0,682
1090,865;  744,576;    2,727;   -0,409
1091,405;  697,030;    0,727;    2,227
1091,946;  738,758;    0,182;   -0,955
1092,487;  657,939;    0,818;   -1,409
1093,027;  858,030;   -1,364;   -1,500
1093,568;  716,667;   -0,364;    1,227
1094,108;  807,485;    0,273;    1,773
1094,649;  740,121;   -1,182;    0,136
1095,189;  680,303;   -0,636;   -0,682
1095,729;  642,758;   -0,091;    0,955
1096,269;  630,848;    0,727;   -0,955
1096,810;  946,485;   -1,364;    0,500
1097,350;  800,121;    1,364;   -0,773
1097,890;  696,394;    0,364;    1,227
1098,430;  959,212;    2,364;    2,864
1098,970;  838,303;    2,182;    1,682
1099,510;  682,485;    0,545;   -2,318
1100,050;  616,758;    1,000;   -1,591
1100,589;  602,212;   -0,727;   -0,318
1101,129;  723,121;    0,818;   -0,955
1101,669;  876,212;    1,727;    2,136
1102,209;  704,485;   -0,091;    2,227
1102,748;  663,848;    0,000;    0,955
1103,288;  652,485;    1,273;   -1,227
1103,827;  672,485;    3,091;   -2,227
1104,367;  563,394;   -0,091;   -2,409
1104,906;  535,303;    1,364;   -1,136
1105,445;  619,121;    0,636;   -1,136
1105,985;  571,758;   -0,727;    1,500
1106,524;  606,212;   -1,727;   -0,682
1107,063;  587,030;   -2,727;    1,409
1107,602;  550,485;   -1,909;   -1,500
1108,141;  487,303;   -1,909;    1,500
1108,680;  604,485;   -3,455;   -0,591
1109,219;  533,939;   -0,909;   -0,500
1109,758;  535,212;    0,455;    0,682
1110,297;  505,576;    1,000;   -0,682
1110,836;  451,303;   -0,727;    0,955
1111,375;  607,758;   -2,545;    0,409
1111,913;  627,394;   -1,000;    0,773
1112,452;  560,030;   -0,273;    0,136
1112,991;  442,848;    1,091;    1,955
1113,529;  423,030;   -0,818;   -0,045
1114,068;  487,848;   -0,273;    2,955
1114,606;  398,485;   -0,364;   -0,955
1115,144;  549,939;   -1,273;    1,045
1115,683;  496,394;   -0,727;    0,318
1116,221;  539,030;   -0,455;   -0,864
1116,759;  450,394;    0,636;   -0,864
1117,297;  639,848;    0,000;    1,864
1117,836;  450,212;   -2,182;   -1,227
1118,374;  469,485;    0,182;   -0,682
1118,912;  420,303;    0,909;    2,682
1119,450;  413,758;    1,000;    0,864
1119,988;  459,576;    1,545;    2,136
1120,525;  897,030;    5,091;    3,318
1121,063;  606,939;    1,182;    1,864
1121,601;  430,848;   -0,909;   -1,227
1122,139;  385,848;   -0,727;   -2,045
1122,676;  580,758;   -0,727;    2,773
1123,214;  526,212;   -1,182;    4,409
1123,751;  339,758;    1,727;    2,227
1124,289;  455,121;   -0,091;   -0,409
1124,826;  348,485;    1,727;    0,227
1125,364;  265,576;    1,727;   -0,955
1125,901;  449,667;    1,182;    1,227
1126,438;  551,485;    0,818;    0,955
1126,975;  288,121;   -0,727;   -0,773
1127,513;  355,667;    0,273;    2,136
1128,050;  269,939;    1,636;   -0,682
1128,587;  364,939;    2,000;   -0,227
1129,124;  406,121;    0,091;    1,318
1129,661;  278,667;    0,273;    0,227
1130,198;  449,212;    1,636;    0,773
1130,734;  394,121;    0,182;    1,409
1131,271;  259,303;   -0,909;    0,864
1131,808;  419,303;    2,909;    3,045
1132,345;  299,939;    1,545;    0,318
1132,881;  180,667;   -1,545;   -1,864
1133,418;  321,939;    0,727;   -1,136
1133,954;  255,939;    2,455;   -2,682
1134,491;  334,121;    1,364;   -0,773
1135,027;  244,939;    2,364;    0,864
1135,564;  329,212;    0,273;    2,955
1136,100;  311,030;    0,364;    2,136
1136,636;  202,667;   -1,273;   -1,045
1137,172;  286,394;    0,000;   -1,045
1137,708;  224,030;   -1,364;   -1,045
1138,245;  220,030;    1,273;   -1,227
1138,781;  178,303;    1,091;   -3,318
1139,317;  240,758;    1,273;   -1,409
1139,852;  241,758;    3,091;    0,136
1140,388;  334,394;   -1,182;   -0,409
1140,924;  234,939;   -1,091;   -2,227
1141,460;  175,848;   -1,636;    0,136
1141,996;  120,667;   -1,364;    2,682
1142,531;  164,939;    1,364;    3,318
1143,067;  367,848;    1,182;    1,045
1143,602;  426,485;   -0,091;   -0,318
1144,138;  277,212;   -2,636;    1,045
1144,673;  152,485;   -1,455;    1,409
1145,209;  214,758;   -1,909;   -0,318
1145,744;  148,212;   -0,727;    0,864
1146,279;  268,485;    1,818;   -0,136
1146,815;  193,758;    1,545;   -2,682
1147,350;  229,576;   -1,364;    0,045
1147,885;  155,576;   -0,818;   -1,318
1148,420;  156,121;   -2,273;    0,773
1148,955;  133,758;   -1,727;    1,864
1149,490;  153,848;   -0,909;   -1,591
1150,025;  143,212;    0,455;   -1,773
1150,560;  246,667;    1,091;   -0,955
1151,094;  219,758;    1,455;   -0,591
1151,629;  212,212;    1,636;    0,864
1152,164;  144,212;    1,364;    1,318
1152,698;  111,212;   -0,182;   -0,136
1153,233;   78,121;    0,091;   -0,682
1153,767;  115,667;   -3,000;   -2,318
1154,302;  164,848;   -1,455;    1,773
1154,836;  164,121;   -0,455;   -2,136
1155,371;  216,030;   -1,364;    3,682
1155,905;  169,394;   -0,636;    1,682
1156,439;  145,030;   -0,636;   -0,500
1156,973;  181,758;    0,364;    0,318
1157,507;  110,303;   -0,364;    0,682
1158,042;  139,848;   -0,727;    1,045
1158,576;  180,758;    0,182;    1,773
1159,110;  180,758;   -0,818;    2,409
1159,643;  145,303;    0,636;   -0,045
1160,177;   92,303;   -1,545;    1,500

