
Integration time [ms]:   0,040
Averaging Nr. [scans]: 11
Smoothing Nr. [pixels]: 0
Data measured with spectrometer [name]: 7318044SP
Wave   ;Sample   ;Dark     ;Reference
[nm]   ;[counts] ;[counts] ;[counts] 

186,757;    2,500;   31,551;    1,318
187,357;   27,592;   22,551;    0,955
187,958;    2,578;   15,460;   -1,591
188,558;   40,309;    8,915;   -1,227
189,159;    7,060;    6,733;   -4,500
189,759;  -14,067;    7,278;   -3,591
190,360;  -15,200;    2,824;   -2,136
190,960;   12,689;    2,915;   -4,136
191,560;   17,918;    3,189;   -6,591
192,161;  228,946;    4,372;   -3,500
192,761;   99,722;    4,010;   -3,227
193,361;   34,578;    1,556;   -3,773
193,962;   75,466;    2,010;   -2,682
194,562;    8,826;    1,189;   -3,955
195,162;   17,031;   -2,448;   -2,227
195,762;  127,691;   -3,176;   -0,045
196,362;   88,199;    1,370;   -2,500
196,963;   -2,420;    2,006;   -0,864
197,563;   44,950;    1,551;   -0,955
198,163;   -1,680;    0,096;   -0,682
198,763;   -0,361;    1,733;   -0,500
199,363;   48,075;    3,096;   -0,500
199,963;   21,582;    0,369;    0,409
200,563;   12,581;    2,823;   -1,409
201,163;   -4,770;    3,277;   -0,227
201,763;   27,935;    3,732;    0,318
202,363;   -3,329;    1,459;    1,500
202,963;   35,079;    1,459;    1,045
203,563;   79,971;    0,277;    0,500
204,162;   11,625;    2,096;   -1,864
204,762;   13,817;    0,550;    0,591
205,362;   -7,927;    3,004;    1,955
205,962;   16,953;    3,096;    1,955
206,562;    9,247;    1,823;    2,318
207,161;   -5,801;   -0,087;    0,318
207,761;   67,187;    1,277;    2,409
208,361;   11,907;   -0,268;    1,409
208,960;   32,560;    0,459;    1,500
209,560;   18,740;    1,277;    1,591
210,160;   33,041;    0,550;    1,864
210,759;   14,573;    4,186;    1,227
211,359;    2,989;    1,459;    1,045
211,958;   98,782;    1,277;    2,045
212,558;  105,391;    1,732;    1,864
213,157;   38,540;    1,822;    1,500
213,757;  172,652;    3,822;   -0,227
214,356;   64,521;    1,277;   -0,409
214,956;  153,360;    3,095;    0,409
215,555;   34,402;    2,095;    2,136
216,154;    5,706;   -2,723;   -0,591
216,754;    4,334;    0,277;    0,773
217,353;   19,935;   -0,268;   -1,045
217,952;  -20,990;   -0,178;    0,318
218,552;   40,741;    1,368;   -0,773
219,151;    8,554;    0,277;    0,955
219,750;   -6,024;    0,004;   -0,227
220,349;  -16,450;   -0,451;    1,045
220,948;   44,976;   -1,360;    1,136
221,548;    0,351;    0,913;    1,227
222,147;   10,997;   -0,087;   -0,409
222,746;   87,599;   -0,451;   -0,955
223,345;   24,985;    0,731;    0,500
223,944;   26,232;   -0,451;    0,773
224,543;   31,538;    1,004;   -1,409
225,142;   20,952;    0,094;    0,136
225,741;   24,232;   -0,814;    1,045
226,340;   15,831;   -0,451;   -0,955
226,939;   62,624;   -0,996;   -0,136
227,538;   -0,023;   -0,360;   -0,773
228,137;   68,193;   -0,814;    0,864
228,735;   44,188;   -0,541;    1,227
229,334;  -11,457;   -0,905;   -0,227
229,933;   67,979;    0,459;    0,591
230,532;   64,016;    1,186;   -0,409
231,131;  112,376;    1,732;    0,318
231,729;   50,048;   -2,450;   -2,318
232,328;   11,639;   -0,723;   -1,500
232,927;   15,681;    1,004;   -0,500
233,525;   14,173;    3,640;    0,045
234,124;   22,166;    2,368;   -1,591
234,723;   -1,071;    0,913;   -1,045
235,321;  -13,031;    2,277;    0,136
235,920;   -4,857;    1,186;   -1,227
236,518;   68,274;    3,459;    0,318
237,117;    3,142;    0,004;   -0,227
237,715;   21,516;    0,640;   -0,500
238,314;   20,666;   -0,087;   -2,318
238,912;   70,880;   -0,723;   -1,409
239,510;   42,680;    0,459;   -1,227
240,109;   90,859;    0,004;    3,773
240,707;   59,667;   -0,996;    1,227
241,305;   -1,633;    0,550;    0,136
241,904;   34,276;   -0,178;   -2,045
242,502;  102,835;   -0,632;   -0,227
243,100;   46,507;   -0,087;   -0,955
243,698;    1,335;    0,732;    1,682
244,297;   20,638;   -0,632;    0,682
244,895;   17,779;   -0,269;   -2,318
245,493;   94,428;    2,186;   -0,591
246,091;   93,833;    1,368;   -1,318
246,689;   47,101;    1,004;    0,591
247,287;   42,337;    0,822;   -1,136
247,885;   20,336;   -1,451;    1,227
248,483;    6,119;    1,822;   -0,500
249,081;   48,571;    0,185;    1,591
249,679;   54,221;   -0,178;    1,682
250,277;    5,487;   -1,723;    0,864
250,875;   47,148;   -1,087;   -1,045
251,473;   11,633;   -1,178;    0,500
252,071;   59,847;    1,459;    1,045
252,669;   17,141;   -1,814;    0,318
253,267;   -0,888;   -0,087;    0,773
253,864;   19,883;   -0,360;    0,682
254,462;   63,414;    1,640;    1,591
255,060;   -1,154;   -0,269;    1,318
255,658;   -5,859;    0,822;   -0,136
256,255;   15,878;    0,186;   -2,045
256,853;   29,609;   -0,269;    1,409
257,451;    7,601;    0,822;    1,864
258,048;  166,669;    1,822;    1,864
258,646;   70,136;    1,731;   -1,045
259,243;  106,336;   -0,087;    2,227
259,841;   53,023;   -0,814;    0,318
260,438;    2,854;   -0,087;    0,864
261,036;   40,493;   -1,905;    1,409
261,633;    8,514;   -0,087;    2,227
262,231;  -16,022;    2,731;   -0,045
262,828;  -21,084;   -0,905;    1,136
263,425;  -10,703;    0,913;   -0,591
264,023;    4,482;    0,186;    0,045
264,620;   52,491;   -0,360;   -0,318
265,217;   89,964;   -2,087;    3,136
265,815;   12,380;   -1,905;    2,136
266,412;   39,155;    0,731;    0,136
267,009;   35,324;   -1,451;    0,773
267,606;   72,773;    0,822;   -0,955
268,203;   11,179;   -0,269;   -0,591
268,801;   14,441;    1,731;    0,591
269,398;   -2,982;   -0,360;    2,500
269,995;   42,280;    0,277;    1,591
270,592;   24,847;   -0,632;   -0,500
271,189;   -1,496;    0,186;    0,409
271,786;  -13,849;   -0,632;    1,227
272,383;   52,593;   -1,087;    0,227
272,980;    9,482;    0,277;    0,318
273,577;   -3,570;    0,004;    1,227
274,174;   -9,975;    0,822;    2,591
274,771;   37,232;   -0,814;   -0,773
275,367;  184,517;    2,277;    1,409
275,964;   92,088;    0,731;   -0,500
276,561;   23,337;    1,549;   -1,045
277,158;  -15,688;    0,095;   -1,773
277,755;   67,389;    2,185;    0,409
278,351;   38,586;   -0,451;   -1,500
278,948;   59,353;   -0,815;    0,045
279,545;   35,149;   -1,360;    2,318
280,141;   79,037;   -1,723;   -2,045
280,738;   86,587;   -0,451;   -0,136
281,334;   18,018;   -1,633;    0,591
281,931;    2,861;   -0,087;   -1,318
282,528;   56,870;    0,822;   -0,500
283,124;   80,141;   -1,087;   -0,500
283,721;   69,025;   -0,451;    1,409
284,317;   25,838;    0,185;    2,500
284,913;   85,002;   -1,360;    0,591
285,510;  140,638;    0,640;   -0,318
286,106;   91,094;   -2,269;   -0,955
286,703;   45,399;   -0,360;    1,955
287,299;   15,659;   -1,451;   -0,591
287,895;    9,614;    0,822;   -1,045
288,491;    3,018;    0,186;    2,136
289,088;   36,572;   -2,360;    2,409
289,684;   44,778;   -1,723;    1,500
290,280;   98,115;    0,368;    0,682
290,876;   81,091;    1,822;    5,500
291,472;   57,253;    1,276;    2,227
292,068;   62,648;    1,367;    0,227
292,665;   21,296;    2,095;    0,773
293,261;    0,149;    0,276;    2,136
293,857;   57,742;    2,913;    2,136
294,453;   27,793;    3,550;    0,955
295,049;  102,337;   -0,268;    1,955
295,644;   45,340;    0,095;    0,136
296,240;    5,505;   -0,905;   -0,136
296,836;   27,679;   -0,995;    0,318
297,432;   70,358;    1,096;   -0,500
298,028;   74,148;    0,732;    0,773
298,624;   29,783;    1,459;    1,864
299,220;   21,166;    2,368;    0,591
299,815;   17,465;    1,005;   -0,409
300,411;   58,065;    0,914;    1,773
301,007;   83,499;    1,368;    0,227
301,602;   25,565;   -0,541;   -2,318
302,198;   73,727;    0,732;   -0,773
302,794;   29,575;    1,187;   -0,500
303,389;   -8,048;   -1,177;    1,045
303,985;    6,116;    0,550;    1,409
304,580;   67,207;    1,459;    1,591
305,176;   28,306;   -3,086;    0,136
305,771;  -16,259;   -1,268;   -1,227
306,367;  146,105;    4,095;    0,136
306,962;   50,838;    0,641;    1,500
307,558;   68,320;   -0,450;    0,136
308,153;   51,492;    1,095;   -1,136
308,748;   -0,021;   -0,814;    1,682
309,344;  133,682;   -0,632;   -1,318
309,939;  124,219;   -1,905;   -1,318
310,534;   29,905;   -0,086;   -1,682
311,130;   12,956;    0,459;   -2,500
311,725;    4,992;    1,004;   -0,500
312,320;   20,361;    2,459;    0,045
312,915;   48,637;    1,459;   -1,045
313,510;  131,755;    1,550;   -0,500
314,105;   25,153;    1,096;    1,409
314,700;  -11,175;   -3,086;   -1,045
315,295;    9,389;   -0,904;    0,045
315,890;    2,102;    1,277;    0,864
316,485;   41,001;   -0,359;   -0,318
317,080;    2,029;   -3,086;    1,591
317,675;  131,547;    2,005;   -0,682
318,270;  225,476;    5,550;    3,318
318,865;  143,654;    3,278;    3,045
319,460;   90,079;   -0,904;    0,591
320,055;   20,672;   -0,541;   -1,227
320,650;   23,255;   -1,995;   -0,591
321,244;   22,058;   -0,177;   -1,409
321,839;   21,839;   -1,541;   -0,227
322,434;   39,997;   -1,086;   -1,591
323,029;   16,076;    1,732;    1,591
323,623;   11,070;    1,550;    0,773
324,218;   94,226;    2,368;    1,409
324,812;   61,671;    1,096;    1,591
325,407;   49,079;   -0,814;    2,045
326,002;  107,874;    0,277;   -0,409
326,596;   74,357;    0,914;    1,318
327,191;   17,397;    0,823;   -1,045
327,785;   30,721;   -0,813;   -0,227
328,379;    9,156;    1,368;    0,136
328,974;   20,461;    0,914;   -3,955
329,568;   41,525;    0,186;   -2,409
330,163;   86,298;    2,096;    1,045
330,757;   14,982;    2,459;    1,591
331,351;   -4,308;    0,459;    0,682
331,945;   -7,975;    0,914;    1,409
332,540;   35,697;   -1,723;   -0,591
333,134;   28,323;   -1,086;    0,773
333,728;   45,938;    0,005;    0,318
334,322;    6,816;   -1,177;   -0,864
334,916;    3,704;    0,277;    0,955
335,510;   65,442;   -0,450;   -0,136
336,105;   43,034;   -1,086;    1,591
336,699;    4,801;   -1,086;    0,591
337,293;   22,209;   -1,723;    0,318
337,887;   -0,426;   -2,723;    1,955
338,481;   39,178;    0,459;    0,591
339,074;   89,336;   -0,359;    2,682
339,668;   70,282;   -1,632;    1,227
340,262;  337,268;    1,732;    3,227
340,856;  139,172;    1,822;   -0,682
341,450;   27,180;    1,004;    1,864
342,044;   44,027;    1,459;    0,136
342,637;   81,404;    0,913;   -2,136
343,231;   36,210;   -2,360;    0,682
343,825;   30,433;   -1,086;   -0,591
344,419;   29,052;   -1,995;    0,500
345,012;  273,316;    2,459;    4,045
345,606;  168,167;    4,641;    1,591
346,199;   32,504;   -1,813;   -0,227
346,793;   81,813;    1,914;    2,045
347,386;   15,089;   -0,813;   -1,136
347,980;   -7,027;   -0,268;   -0,045
348,573;   27,779;    2,278;    0,409
349,167;  190,667;    5,278;    4,773
349,760;  104,071;    2,914;    2,682
350,354;   72,074;   -0,813;    1,136
350,947;   95,655;    1,096;    1,682
351,540;   52,586;   -0,358;   -1,409
352,134;    2,557;    1,096;    1,136
352,727;    6,042;   -0,086;    1,136
353,320;   14,884;    0,005;    0,591
353,913;  -15,966;   -1,995;    1,864
354,507;   85,511;    0,823;   -1,227
355,100;   30,848;    0,460;    0,864
355,693;  253,136;    2,005;    2,409
356,286;  116,735;    0,823;    2,773
356,879;   39,898;   -0,722;    1,227
357,472;   48,762;   -0,904;    1,500
358,065;   58,840;   -0,722;    2,500
358,658;   -4,106;   -0,540;    2,318
359,251;   -7,006;   -1,631;   -0,591
359,844;   79,554;   -1,904;   -1,136
360,437;  113,552;   -2,995;    0,045
361,030;   26,507;    1,369;   -0,682
361,623;   25,691;    2,824;    0,318
362,215;  155,404;   -0,086;    2,045
362,808;   55,067;   -2,358;   -1,682
363,401;   29,805;   -2,449;    0,136
363,994;  143,733;   -0,631;   -1,500
364,586;   43,998;    0,824;   -1,500
365,179;   16,222;   -0,449;   -1,136
365,772;  -28,414;   -1,995;    2,045
366,364;   33,390;    1,915;   -3,227
366,957;   49,275;    2,279;   -0,045
367,549;   16,526;    2,188;   -0,864
368,142;   36,050;    1,825;   -1,500
368,734;   14,585;    0,734;   -2,136
369,327;  -19,864;    1,643;   -0,500
369,919;    9,230;   -1,538;    0,409
370,512;   14,956;   -1,083;   -0,500
371,104;  204,993;   -0,901;    1,591
371,696;  209,568;    1,191;   -0,955
372,289;  116,800;    0,373;    1,136
372,881;   81,807;   -2,080;    1,318
373,473;    8,209;   -2,170;    1,136
374,066;   74,248;   -0,169;    0,500
374,658;   51,136;    0,378;    1,136
375,250;   -3,017;    0,653;   -1,409
375,842;   33,699;    0,473;   -0,045
376,434;   -2,383;   -0,435;   -0,409
377,026;  -22,938;    0,204;   -2,500
377,618;   22,770;   -0,158;   -0,682
378,210;  -43,392;   -0,338;   -1,955
378,802;  -55,681;    0,754;   -0,591
379,394;  318,219;    1,846;    0,682
379,986;   82,839;    1,393;   -0,955
380,578;  -10,318;   -0,153;    0,773
381,170;  242,330;   -0,972;    0,045
381,762;  147,089;    0,755;    1,409
382,354;  115,359;   -0,065;   -1,318
382,945;   37,037;   -2,976;    0,318
383,537;  -13,227;   -2,705;   -1,955
384,129;   -2,047;   -2,160;   -1,136
384,721;  108,449;   -0,252;    0,955
385,312;   42,747;   -0,161;   -0,955
385,904;  107,490;   -2,706;    1,591
386,496;   47,156;   -0,979;    1,045
387,087;  161,610;    1,022;    2,500
387,679;  101,935;   -1,160;    0,045
388,270;   83,468;    2,840;    2,045
388,862;   46,935;    1,295;   -0,318
389,453;   31,345;   -0,887;    1,045
390,045;   29,131;   -0,705;   -2,682
390,636;  -57,840;    0,204;   -0,591
391,227;    3,131;   -0,523;   -0,045
391,819;  -21,611;    0,204;    0,773
392,410;  215,555;    1,022;    0,045
393,001;   32,450;   -0,979;   -1,591
393,593;   96,186;    1,930;   -0,045
394,184;  134,368;    1,385;   -0,409
394,775;   23,405;    1,839;    2,136
395,366;  -47,970;    1,385;    0,773
395,957;  116,596;    0,113;    0,136
396,548;    1,985;   -0,342;    2,682
397,139;  107,806;   -2,433;    0,591
397,730;   45,444;   -1,888;    0,955
398,321;   51,006;   -1,252;    0,955
398,912;   -2,745;   -0,615;    0,136
399,503;   -5,540;   -3,524;   -1,409
400,094;   42,381;    0,294;    1,682
400,685;   24,929;   -0,433;    0,045
401,276;  -20,016;    0,930;   -0,955
401,867;  -43,113;   -0,888;    0,773
402,458;  -73,239;   -2,251;   -2,318
403,048;   50,737;    1,112;    0,591
403,639;   12,234;    0,840;    0,864
404,230;  107,868;    2,476;    0,318
404,821;  170,733;   -0,615;    0,045
405,411;   79,754;    1,203;   -2,591
406,002;   -4,314;   -1,252;   -1,136
406,592;  213,344;    2,294;    0,045
407,183;   80,705;    0,566;   -1,500
407,774;   56,070;    3,475;   -0,136
408,364;   11,543;    0,930;    0,409
408,954;  117,651;    0,384;    1,227
409,545;  130,911;    1,021;    1,045
410,135;   87,218;    1,293;    0,500
410,726;   32,928;    1,838;    0,318
411,316;  205,917;    0,111;    0,773
411,906;   63,047;   -0,253;   -0,409
412,497;   66,277;   -1,070;   -0,045
413,087;   15,895;   -1,980;   -0,227
413,677;  -48,131;   -0,707;    3,864
414,267;  -50,635;    0,656;    1,409
414,857;  -72,699;   -2,980;    4,227
415,448;  -77,233;    0,839;    0,500
416,038;  -38,815;    0,020;   -0,591
416,628;    7,856;   -0,889;    0,409
417,218;   61,977;    0,565;    3,318
417,808;  205,368;    0,202;   -0,409
418,398;   84,677;    0,020;    2,682
418,988;  -23,969;    2,020;    0,591
419,578;   66,137;   -0,707;    1,409
420,168;   -0,489;   -1,343;   -0,955
420,757;  132,163;   -1,343;   -1,500
421,347;   26,584;    0,111;   -0,227
421,937;    5,512;    2,292;    1,409
422,527;  132,206;    0,838;   -0,773
423,116;  273,250;   -0,253;   -0,045
423,706;    0,276;   -1,889;    0,318
424,296;  -37,460;    1,384;    0,682
424,885;   76,176;   -0,071;   -3,045
425,475;   51,698;    1,474;   -2,864
426,065;  -41,916;   -0,980;   -0,318
426,654;  -64,668;   -0,435;   -0,318
427,244;  186,657;    0,020;    1,409
427,833;  153,898;    1,383;   -0,500
428,423;   40,342;   -0,526;    1,136
429,012;   29,553;   -0,344;   -1,136
429,601;  160,921;   -1,344;    0,136
430,191;   52,927;    1,292;    4,318
430,780;  -40,863;   -0,344;   -0,409
431,369;  151,925;    0,746;   -0,045
431,959;   32,525;   -1,254;    0,500
432,548;  -34,521;   -1,163;   -0,045
433,137;  -82,285;   -1,254;   -1,318
433,726;  -15,689;    0,292;    0,500
434,315;   11,683;   -0,526;    2,409
434,905;  110,803;   -1,254;    1,409
435,494;  112,563;    0,746;    0,955
436,083;  -15,699;   -0,981;   -0,955
436,672;   69,446;    0,110;    0,500
437,261;   28,967;    0,292;   -1,955
437,850;  242,072;    1,383;    0,682
438,439;  297,661;    3,291;    1,955
439,027;  393,878;    3,655;    1,773
439,616;  318,818;    2,927;    1,227
440,205;  103,337;    0,200;   -2,136
440,794;   58,477;    2,109;   -0,045
441,383;   -5,079;   -1,346;   -0,591
441,971;  -36,643;   -2,436;    0,591
442,560;  -27,958;    0,563;   -1,773
443,149; -108,754;    0,379;   -1,318
443,737;  -63,495;   -0,074;   -2,318
444,326;  -40,672;    0,018;    0,318
444,915;    7,065;   -1,982;    0,864
445,503;    9,015;   -2,891;   -0,318
446,092;  267,506;    0,382;    2,136
446,680;  201,573;    0,382;    0,318
447,269;  102,763;   -0,346;   -0,318
447,857;   88,398;    0,018;   -1,773
448,445;   43,461;    0,563;    1,318
449,034;    0,921;   -1,528;   -1,136
449,622;   -5,075;   -1,073;    3,500
450,210;  276,391;    2,017;    2,227
450,799;  184,513;    0,290;   -0,591
451,387;  145,853;    1,381;   -0,591
451,975;  138,440;    2,654;    0,864
452,563;  208,601;    3,472;    2,318
453,151;   45,094;   -0,528;   -1,227
453,739;   82,155;   -1,347;    0,136
454,328;  178,701;    2,381;   -2,136
454,916;  124,532;    2,562;   -0,136
455,504;  134,860;    1,017;    1,227
456,092;   23,925;    0,017;   -1,591
456,679;  -17,002;    1,472;    0,682
457,267;  386,633;    4,017;    1,045
457,855;   82,018;    1,017;    1,409
458,443;  -53,329;   -0,165;    1,682
459,031;   95,240;    0,108;    2,409
459,619;   60,241;   -1,801;    2,864
460,206;  -38,869;    0,835;    2,045
460,794;  -44,047;   -2,983;   -0,227
461,382;    9,665;   -0,529;   -0,864
461,970;   19,783;    1,198;    1,864
462,557;  -57,376;   -0,711;   -0,682
463,145;   61,543;   -3,165;   -1,682
463,732;  297,959;    2,016;   -1,045
464,320;   79,007;   -0,075;   -3,045
464,907;  211,844;    2,743;   -0,773
465,495;  124,846;    0,743;   -1,227
466,082;   38,026;   -1,984;   -0,045
466,670;   75,135;   -2,529;    1,227
467,257;  -19,639;   -1,711;    2,045
467,844;   77,524;   -0,075;    0,045
468,432;   41,756;    0,834;    3,500
469,019;    9,940;    0,925;   -1,773
469,606;   87,564;    0,470;    3,682
470,193;  122,057;   -1,439;    0,227
470,780;   66,441;   -2,075;    0,864
471,368;   -3,629;   -1,257;   -0,773
471,955;  109,604;    1,379;   -0,682
472,542;   64,479;    0,652;   -1,136
473,129;  -37,128;   -0,166;    0,136
473,716;  -35,192;    1,470;    0,591
474,303;   -1,819;    0,652;   -0,864
474,890;    8,241;   -1,439;   -0,500
475,477;  105,722;   -1,621;    0,409
476,064;   13,761;    1,106;   -1,591
476,650;  140,554;    0,288;    0,318
477,237;   41,100;   -0,258;    0,955
477,824;   24,704;   -1,076;    0,864
478,411;  -63,223;   -1,894;   -0,318
478,997;  -73,211;    0,560;   -0,773
479,584; -113,018;    1,196;   -0,409
480,171;   64,110;   -0,440;   -0,773
480,757;  119,445;    2,651;    0,773
481,344;   11,269;    0,469;    0,409
481,931;  -78,491;    1,105;    1,045
482,517;   49,630;   -1,258;    0,318
483,104;  133,587;    1,106;    2,864
483,690;    3,237;   -1,804;    0,045
484,276;  -15,451;   -0,895;    0,227
484,863;  196,309;    2,469;    1,136
485,449;   34,084;   -0,077;    0,318
486,035;  -10,776;   -1,986;   -0,136
486,622;   83,585;   -0,895;    0,045
487,208;    8,525;    1,378;    1,500
487,794;  -82,813;    0,741;    0,318
488,380;  -77,777;    0,105;   -1,409
488,967;  -77,057;   -1,168;   -0,409
489,553;  -51,551;   -1,895;   -1,409
490,139;   28,244;    1,559;    0,773
490,725;  -52,370;    0,741;   -0,227
491,311;    0,212;    3,287;    3,045
491,897;  -14,411;   -0,986;    1,500
492,483;   -7,434;    0,105;    1,227
493,069;  409,485;    3,923;    0,864
493,655;  128,056;    1,650;    0,682
494,241;   14,820;    1,377;   -0,955
494,826;   20,626;    0,287;   -1,045
495,412;   79,749;    2,559;   -0,682
495,998;   -6,114;   -0,805;   -0,318
496,584;   50,769;    0,377;    1,045
497,169;   65,968;    1,014;   -0,682
497,755;    0,643;    0,650;    1,227
498,341;  130,146;    0,559;    0,318
498,926;  249,276;    1,832;    1,955
499,512;   -2,520;    1,286;    2,955
500,097;    3,328;    0,195;   -0,318
500,683;   23,274;   -0,350;    2,136
501,268;  -32,049;   -0,169;   -0,955
501,854;   -9,936;   -0,169;    1,227
502,439;  -11,265;   -0,624;   -1,773
503,024;    6,704;    0,195;    0,500
503,610;   30,359;   -0,078;   -0,682
504,195;  -16,287;    0,558;    1,955
504,780;   73,242;    2,922;    1,227
505,366;  145,306;    3,013;    2,864
505,951;   76,270;    0,740;    1,045
506,536;    2,093;   -3,260;   -3,682
507,121;   56,980;    0,285;   -0,318
507,706;   19,266;    2,376;    1,045
508,291;  -36,999;    2,649;    1,136
508,876;  -42,084;   -0,988;    2,591
509,461;    5,913;   -0,169;   -0,773
510,046;   45,836;    0,194;    0,318
510,631;   49,760;   -0,351;   -0,773
511,216;  -25,937;    2,467;   -0,500
511,801;   34,711;   -0,442;    2,591
512,386;   43,764;    0,740;    0,500
512,971;   52,980;   -2,988;    0,955
513,555;   88,408;   -0,897;   -1,500
514,140;   44,017;   -0,442;   -3,136
514,725;  148,947;   -0,715;   -1,136
515,309;   65,738;   -0,533;    0,318
515,894;  -11,389;   -0,624;   -2,227
516,479;   19,474;   -0,624;   -0,955
517,063;   21,706;    0,376;    1,227
517,648;   -7,367;    1,012;   -1,136
518,232;  -33,752;   -0,261;   -1,409
518,817;   41,771;   -0,079;    1,682
519,401;  137,439;    2,194;    0,591
519,985;  116,949;    1,103;    1,136
520,570;   11,152;    0,830;   -1,955
521,154;  101,456;    2,102;    0,591
521,738;  260,309;   -2,352;    2,409
522,323;  121,974;   -0,170;    1,682
522,907;  156,900;    0,466;   -0,136
523,491;   99,822;    0,557;    0,955
524,075;  116,799;    2,284;    0,591
524,659;  361,755;    1,466;    0,591
525,243;  354,896;    1,739;    0,409
525,827;  360,499;    0,648;   -0,045
526,411;  444,846;   -1,989;   -0,136
526,995;  694,768;   -0,352;    1,409
527,579;  884,025;   -0,443;   -1,045
528,163;  933,492;    0,375;   -1,500
528,747; 1283,924;    2,466;   -0,773
529,331; 1387,933;   -0,080;   -1,409
529,915; 1342,169;    1,738;    0,955
530,499; 1692,682;   -0,807;    1,227
531,082; 2031,016;   -0,534;    1,591
531,666; 2268,276;    1,374;    0,773
532,250; 2637,719;    1,284;    2,682
532,833; 3124,222;    0,920;    2,773
533,417; 3332,899;   -1,807;    0,864
534,001; 3647,107;    1,647;   -0,318
534,584; 4371,415;    0,374;    0,500
535,168; 4634,042;    0,465;    1,409
535,751; 5156,403;    0,647;    0,045
536,334; 5138,080;   -0,898;   -0,409
536,918; 5946,553;    0,011;    1,591
537,501; 6348,252;   -0,899;    1,318
538,085; 6768,829;   -0,444;    1,045
538,668; 7225,261;    0,829;    2,409
539,251; 7902,056;    1,829;    3,773
539,834; 8308,129;    0,101;    0,773
540,418; 8672,286;   -1,990;    4,318
541,001; 9023,037;   -0,990;    1,773
541,584; 9332,124;    2,101;    2,227
542,167; 9391,336;    1,374;    2,955
542,750; 9711,135;    1,919;   -0,773
543,333; 9648,524;    0,555;    2,136
543,916;10592,730;    0,192;    2,500
544,499;11299,197;   -1,354;    0,227
545,082;11550,179;    1,374;    3,591
545,665;11882,721;    1,919;    1,500
546,248;12352,160;    1,010;   -0,318
546,830;12295,742;   -0,445;    1,955
547,413;12833,359;    1,010;   -0,773
547,996;13520,022;    0,555;    0,500
548,579;13443,793;    0,919;    0,955
549,161;13412,684;    1,828;    2,682
549,744;13363,456;   -0,809;    0,409
550,326;13982,192;   -0,809;   -1,136
550,909;13963,041;    2,737;    0,591
551,492;14460,165;   -0,263;    0,227
552,074;14370,654;   -0,173;   -1,318
552,657;15004,627;    2,373;    0,045
553,239;14904,104;   -0,173;   -0,773
553,821;14918,560;   -1,082;    1,045
554,404;14551,045;    1,282;    1,136
554,986;14975,917;    0,464;    1,045
555,568;15612,303;    1,191;   -0,955
556,151;14992,189;    1,191;   -0,227
556,733;15230,986;   -0,264;   -0,864
557,315;15754,402;    0,100;    0,500
557,897;15610,261;    0,554;   -0,500
558,479;15793,029;   -1,991;    1,318
559,061;16009,072;   -0,719;   -0,864
559,643;16397,796;   -0,264;    0,045
560,225;16796,830;    1,645;    2,864
560,807;16870,796;    0,918;    0,318
561,389;16406,337;    0,554;    2,318
561,971;17203,143;    0,463;    2,136
562,553;17013,563;   -1,628;    1,591
563,135;17217,036;   -0,537;    1,136
563,717;16865,273;    3,372;    1,136
564,298;17591,167;    3,645;   -0,045
564,880;17416,783;    0,645;   -1,409
565,462;17591,601;    0,645;    1,318
566,043;18734,849;   -0,446;    2,318
566,625;18325,208;    1,918;    1,227
567,207;18209,743;    1,099;    1,682
567,788;19339,493;   -1,264;    1,500
568,370;20149,754;    1,917;   -0,500
568,951;19991,310;    0,190;    0,227
569,533;20843,635;   -0,628;   -0,500
570,114;21308,557;   -0,446;    0,682
570,695;21872,095;   -0,174;   -1,318
571,277;22307,513;   -0,265;   -1,682
571,858;23061,227;    2,008;   -1,136
572,439;23993,410;    1,554;   -1,045
573,021;24165,042;    2,099;   -2,773
573,602;24668,802;   -1,265;    0,318
574,183;25645,283;   -2,083;    2,227
574,764;25751,965;   -1,629;    0,409
575,345;26298,651;    0,917;   -0,136
575,926;26899,994;   -0,356;    0,136
576,507;26921,434;    1,099;   -0,227
577,088;28019,130;    3,099;    1,682
577,669;28074,456;    0,735;    1,955
578,250;28912,465;    0,644;   -1,045
578,831;29550,040;   -1,356;   -2,227
579,412;29830,251;   -0,810;    0,955
579,993;30729,687;    1,008;    0,227
580,573;31076,269;   -0,629;   -0,955
581,154;30062,947;    0,735;   -0,591
581,735;30996,783;    0,644;    0,773
582,315;30520,601;   -0,629;    2,136
582,896;30785,874;   -0,174;    1,227
583,477;30213,527;    0,189;    1,227
584,057;30473,383;    0,553;    0,955
584,638;30817,960;    2,553;    2,318
585,218;30904,556;   -0,538;    2,682
585,799;31057,552;    0,281;   -0,227
586,379;31058,130;    0,372;    1,591
586,959;29810,165;    0,735;    0,318
587,540;29159,750;   -0,629;    2,227
588,120;28740,361;    1,007;   -0,045
588,700;27800,654;    2,553;    2,136
589,281;28205,387;    0,462;   -0,955
589,861;28175,537;    0,099;   -1,682
590,441;27974,123;    2,371;   -2,682
591,021;26998,501;   -0,265;   -2,591
591,601;27181,403;   -0,537;    0,500
592,181;27228,417;   -0,719;   -0,773
592,761;26554,230;    0,007;    1,409
593,341;26522,311;   -0,901;    0,045
593,921;26541,734;   -0,265;    1,591
594,501;26489,288;   -0,538;    1,318
595,081;26294,212;    0,917;   -0,318
595,661;26657,866;   -1,447;    0,955
596,240;27209,253;   -0,537;    0,136
596,820;26904,200;    0,372;    1,955
597,400;27117,429;    2,008;    0,773
597,980;27294,613;    2,008;    1,045
598,559;27336,234;    2,735;   -0,227
599,139;27051,715;   -0,174;   -1,227
599,718;26966,897;   -0,174;   -0,409
600,298;27266,175;    0,735;    0,682
600,877;27535,535;    2,917;    1,409
601,457;27824,482;    2,281;    1,136
602,036;27712,398;    0,190;    2,045
602,616;27963,517;    0,644;    1,682
603,195;28322,750;   -0,355;    3,500
603,774;27882,927;   -0,901;    2,045
604,354;27766,268;    0,826;   -0,500
604,933;27261,117;    0,463;    1,864
605,512;27390,068;    3,554;    0,591
606,091;27448,960;   -0,537;    3,773
606,671;28284,909;    0,281;    0,773
607,250;27407,372;    1,644;    3,136
607,829;27701,451;    2,372;    3,227
608,408;27573,919;    1,190;    2,591
608,987;26529,144;    1,281;    3,409
609,566;26857,325;   -1,265;   -2,500
610,145;26993,493;   -1,082;    0,682
610,723;27417,179;    4,372;    6,864
611,302;26718,285;   -0,446;    1,682
611,881;26208,048;    5,008;   11,227
612,460;27035,030;    1,645;    3,955
613,039;27477,245;   -0,082;    2,045
613,617;26225,774;    1,736;    4,773
614,196;26412,971;    1,099;    1,227
614,775;26785,568;    1,009;    2,409
615,353;26761,214;    0,736;    0,864
615,932;26495,287;    0,100;    2,409
616,510;27109,381;    0,554;    0,591
617,089;26661,086;    7,100;   17,591
617,667;26407,564;    2,372;    6,136
618,246;26276,633;   -1,537;    1,318
618,824;26427,801;   -3,355;   -0,955
619,402;25973,260;   -2,900;   -1,773
619,981;26494,020;   -0,173;   -1,045
620,559;26293,129;    0,009;    1,682
621,137;25817,215;   -0,718;    1,864
621,715;25939,538;   -1,173;   -0,682
622,293;25802,270;   -0,537;   -0,773
622,871;26307,674;   -0,718;    0,500
623,450;25909,480;    0,373;   -0,864
624,028;25799,611;    0,191;   -0,955
624,606;25466,776;   -1,718;    1,682
625,183;25839,136;   -1,536;   -1,136
625,761;25463,313;    1,009;    1,136
626,339;25759,039;    1,373;    2,591
626,917;26186,855;   -0,172;   -0,045
627,495;26203,446;   -0,354;    1,318
628,073;25645,320;   -0,263;    2,864
628,650;25352,850;    0,100;    2,136
629,228;25753,494;    0,373;    4,409
629,806;25185,041;    2,282;    1,136
630,383;25492,660;    1,464;   -0,318
630,961;25255,163;    2,555;   -0,955
631,539;25011,347;    2,464;    0,227
632,116;24414,800;   11,373;   15,409
632,694;24960,305;    2,555;    6,500
633,271;25230,285;    0,828;    2,682
633,848;25219,984;    1,828;    2,045
634,426;25219,390;   -1,081;    1,773
635,003;24342,015;    1,101;   -0,409
635,580;24675,634;    1,192;    3,682
636,158;25276,545;    3,737;    1,227
636,735;25245,862;    0,555;   -0,500
637,312;25421,338;   -0,809;   -0,682
637,889;25502,699;   -4,354;   -0,682
638,466;24956,698;   -3,990;   -0,409
639,043;24968,600;    2,101;   -1,136
639,620;25300,563;   -2,262;   -0,955
640,197;25608,603;    1,100;    1,682
640,774;25734,932;   -0,172;    1,136
641,351;26173,807;    0,737;    1,136
641,928;25629,408;   -0,627;    1,409
642,505;25249,101;    0,828;   -0,500
643,082;25396,794;   -1,718;    1,227
643,658;24374,214;   -0,718;    1,500
644,235;25212,270;    1,191;    2,500
644,812;25501,236;    1,918;    0,773
645,388;25212,201;   -0,991;    1,409
645,965;25284,440;   -0,809;    1,682
646,542;25361,587;   -1,445;   -0,227
647,118;25394,916;    1,009;   -0,955
647,695;25667,609;   -0,263;    1,136
648,271;25575,483;   -0,536;    0,500
648,848;25872,994;    0,736;    2,227
649,424;25731,778;    0,827;    1,318
650,000;25521,562;   -0,354;   -1,045
650,577;25301,982;   -0,627;   -0,955
651,153;25805,220;   -1,809;    0,955
651,729;26845,549;    1,191;    0,864
652,305;27286,151;    0,645;    2,773
652,881;32194,480;   -0,082;    1,136
653,458;39135,264;    1,100;    0,227
654,034;42687,048;    0,282;    1,591
654,610;44034,013;    0,554;    0,773
655,186;45263,251;    0,645;    3,045
655,762;44952,944;   -0,991;    0,409
656,338;44998,091;    0,100;    0,136
656,913;45982,966;   -0,082;    0,409
657,489;45242,659;    0,827;   -0,318
658,065;45240,442;   -0,173;   -1,591
658,641;45901,953;   -0,900;   -0,864
659,217;45227,919;   -0,991;    0,409
659,792;44615,430;    0,645;   -0,409
660,368;44790,214;   -2,173;   -0,682
660,944;44233,452;   -2,082;    1,227
661,519;39169,417;   -0,628;    0,409
662,095;33091,383;   -1,719;    0,591
662,670;28735,348;    1,281;   -0,136
663,246;27822,314;    1,009;   -0,409
663,821;27153,370;    0,281;    1,682
664,396;26649,699;    0,009;    1,864
664,972;26941,119;    0,009;   -0,500
665,547;27229,721;    1,372;    0,136
666,122;27296,323;   -1,082;    0,318
666,698;27581,743;   -0,173;    0,318
667,273;26970,709;   -0,173;    0,136
667,848;27737,220;    2,372;    1,500
668,423;27537,276;    2,190;    2,318
668,998;28118,787;    2,827;   -0,682
669,573;28640,934;   -3,264;   -1,500
670,148;28462,809;   -1,446;   -0,682
670,723;28306,138;   -1,810;    0,318
671,298;28714,013;    2,372;    1,045
671,873;28815,887;   -0,082;   -0,136
672,448;28750,580;    0,645;    0,136
673,023;29136,545;   -1,992;   -0,227
673,597;29490,693;    0,827;    2,318
674,172;29270,749;   -0,355;    0,318
674,747;28676,806;    0,372;   -1,045
675,321;28559,589;   -0,628;    3,318
675,896;28138,100;    0,645;    1,045
676,471;29126,338;    2,645;    1,591
677,045;28880,122;   -1,264;    0,682
677,620;28979,724;    0,190;    1,136
678,194;29239,326;   -2,628;    1,136
678,769;28790,564;   -1,083;   -0,318
679,343;29098,802;   -0,628;    1,773
679,917;28969,313;   -1,446;    1,955
680,492;29032,915;    0,826;    3,227
681,066;29129,426;    3,372;    0,409
681,640;29218,664;    1,463;   -0,318
682,214;30064,357;    0,735;    0,500
682,788;29576,141;   -1,356;   -0,773
683,363;29554,561;   -1,810;    1,682
683,937;29255,799;   -1,719;   -0,318
684,511;29992,492;    0,463;   -0,591
685,085;29742,548;   -1,356;    0,318
685,659;29449,605;   -2,538;    0,864
686,232;29790,843;   -0,356;   -0,318
686,806;29467,536;   -0,901;    0,409
687,380;30129,774;   -0,174;    0,591
687,954;30317,103;   -1,174;    1,136
688,528;29990,796;   -0,719;    1,955
689,101;30803,670;   -3,992;    1,045
689,675;30383,272;   -0,356;   -0,136
690,249;29754,692;   -0,719;    0,409
690,822;30058,112;    0,280;    0,318
691,396;30208,260;   -0,265;    1,227
691,969;29628,498;    1,280;    0,136
692,543;30111,463;   -0,447;   -1,955
693,116;29747,793;   -0,265;   -1,409
693,690;29614,849;    0,099;    0,500
694,263;30157,269;   -1,083;    2,955
694,836;30169,144;    1,371;    3,591
695,410;28835,654;   -0,265;    1,773
695,983;29359,529;    0,189;    0,591
696,556;29304,767;   -0,447;   -1,045
697,129;29652,278;   -0,356;    1,409
697,703;29304,244;   -1,629;    1,955
698,276;29285,755;    1,462;   -0,773
698,849;29129,993;    1,280;    1,409
699,422;29493,322;   -1,083;    0,591
699,995;29212,560;    0,007;    0,136
700,568;29739,253;   -0,629;    3,045
701,140;29730,219;   -2,811;    1,682
701,713;29424,820;   -0,174;    2,409
702,286;29210,150;   -0,538;    0,864
702,859;29161,479;   -0,902;   -0,591
703,432;28266,081;    0,825;    0,682
704,004;28714,682;    0,462;    0,318
704,577;28633,375;   -0,629;    0,136
705,150;29217,523;    0,189;    2,500
705,722;28944,124;   -0,356;   -3,227
706,295;28730,181;   -0,175;   -0,591
706,867;28652,601;   -0,175;    1,955
707,440;28839,748;   -1,720;   -0,409
708,012;29116,805;    0,462;    0,591
708,584;29026,770;    2,462;    0,227
709,157;29323,645;    1,825;   -0,591
709,729;28951,792;    2,280;    2,045
710,301;29772,848;    0,734;    0,045
710,874;29829,268;   -1,447;   -0,227
711,446;28662,507;    0,371;    0,864
712,018;28563,654;    0,098;    0,500
712,590;28295,074;   -1,993;    1,682
713,162;28803,767;    0,825;    1,318
713,734;29048,187;    1,825;   -2,045
714,306;28996,243;   -1,902;   -0,409
714,878;27665,209;    0,825;    0,864
715,450;28482,447;    0,643;    0,864
716,022;28695,413;    1,552;    1,318
716,593;28884,833;    0,189;    0,591
717,165;28826,344;   -3,175;   -1,227
717,737;28569,673;    0,280;    0,409
718,309;28184,365;    0,280;   -0,045
718,880;28159,422;   -0,539;   -1,409
719,452;28378,387;   -0,175;   -1,591
720,024;27953,716;    0,734;   -0,591
720,595;28545,409;   -2,902;    0,955
721,167;28082,738;    0,370;   -2,045
721,738;27613,977;   -0,812;   -1,045
722,309;27606,033;   -0,993;   -1,227
722,881;27408,908;   -1,357;    0,773
723,452;28028,782;   -2,630;    2,864
724,023;28241,657;   -0,721;    2,682
724,595;27992,804;    0,007;    0,682
725,166;27721,042;    0,007;   -0,409
725,737;27408,008;    1,734;    0,227
726,308;27430,519;   -0,266;    0,318
726,879;27912,302;   -1,630;    1,227
727,450;27771,632;    0,552;   -0,045
728,021;27754,506;    3,097;    0,682
728,592;27523,835;    0,734;    0,500
729,163;27867,255;    0,643;   -0,136
729,734;27919,766;    0,188;   -0,227
730,305;28243,641;    1,734;    0,136
730,876;28632,152;    0,188;    2,955
731,447;28309,026;    2,188;    2,682
732,017;28433,174;    1,097;    1,864
732,588;27887,230;    0,734;    1,227
733,159;28128,650;    0,643;   -1,045
733,729;27903,616;    0,006;    0,409
734,300;27179,127;    0,915;    0,864
734,870;27601,547;    3,461;    0,591
735,441;28178,240;    0,370;   -0,591
736,011;27958,205;    0,643;   -1,591
736,582;27880,625;   -0,812;    0,045
737,152;27356,045;   -1,721;   -2,045
737,722;27768,102;   -0,267;   -0,682
738,293;27494,976;   -1,358;    1,318
738,863;27372,760;    2,461;    2,318
739,433;27190,725;    5,279;    0,318
740,003;27848,509;   -0,994;   -0,682
740,573;27222,293;    2,097;   -1,591
741,143;27214,713;   -1,085;    0,318
741,713;27998,587;    1,188;   -0,500
742,283;27655,098;    0,915;    1,591
742,853;27452,882;    1,915;    1,591
743,423;26868,302;    1,733;    0,045
743,993;27012,995;   -0,358;    1,500
744,563;26369,778;    0,097;   -0,864
745,133;26322,926;   -0,812;   -0,864
745,702;27050,437;   -0,267;    1,773
746,272;26216,039;   -0,176;    0,591
746,842;26065,368;   -1,358;   -0,591
747,411;26437,606;   -0,267;   -0,318
747,981;26632,026;    0,097;    0,500
748,551;26637,991;    2,278;   -1,045
749,120;26498,866;    0,642;   -0,227
749,690;26850,286;   -0,631;    2,409
750,259;27213,706;    1,369;    2,955
750,828;27151,853;    1,551;   -1,955
751,398;27426,183;    1,278;   -0,045
751,967;26954,784;    2,187;    0,409
752,536;27132,205;   -0,813;   -0,227
753,105;27515,715;    0,096;    0,227
753,675;27315,681;    0,096;    1,773
754,244;27288,556;   -0,904;    3,591
754,813;27322,703;    0,551;    1,227
755,382;26912,032;    0,460;    0,955
755,951;27428,907;    1,551;    3,682
756,520;26972,872;   -0,085;    1,864
757,089;27551,292;    0,278;    0,500
757,658;27761,258;    1,733;    1,227
758,227;27758,587;    1,096;    0,318
758,795;28051,098;    1,187;    1,136
759,364;28244,063;   -0,086;   -0,591
759,933;27272,392;   -1,176;   -0,045
760,501;26766,176;    0,733;   -1,318
761,070;27197,869;   -2,813;   -1,409
761,639;27916,925;   -1,904;    1,318
762,207;27292,891;    1,551;   -0,955
762,776;27241,856;    0,369;    0,864
763,344;27165,822;   -0,995;    0,591
763,913;26273,969;   -0,722;    1,409
764,481;26972,116;    1,005;   -0,136
765,049;26742,900;   -1,358;    1,409
765,618;26660,320;   -0,086;    0,318
766,186;26729,558;    0,278;    0,136
766,754;26931,797;    0,005;    1,864
767,322;25923,308;   -1,995;    0,409
767,890;25929,909;   -0,722;   -1,773
768,459;26395,057;   -2,177;   -0,318
769,027;26568,749;    1,641;    3,409
769,595;25505,533;    3,278;    2,591
770,163;25944,771;    3,823;    2,955
770,730;25664,464;    0,732;   -0,136
771,298;25496,430;    0,187;   -1,409
771,866;25603,032;   -1,541;    4,955
772,434;25984,906;   -0,631;   -1,864
773,002;26095,872;    0,005;    0,682
773,569;25754,655;    0,914;    1,682
774,137;25603,257;   -0,268;   -0,045
774,705;26352,314;    0,278;   -0,136
775,272;25863,461;    0,641;    0,682
775,840;25600,245;   -0,177;    2,682
776,407;25123,574;    0,277;    1,955
776,975;24752,357;   -0,632;    0,318
777,542;25745,323;   -1,086;   -0,045
778,110;25592,379;   -1,268;   -0,045
778,677;25242,436;   -2,359;   -0,864
779,244;25010,674;    2,186;    1,045
779,812;25146,003;    1,823;    0,864
780,379;24984,878;    0,005;    1,136
780,946;25217,480;    1,005;   -0,773
781,513;25545,627;   -1,450;    0,318
782,080;24869,956;   -0,086;    2,864
782,647;25634,467;   -0,268;    3,045
783,214;25229,796;   -0,177;    3,864
783,781;24869,489;   -0,723;   -0,682
784,348;24734,636;   -0,632;    1,500
784,915;25184,238;   -3,177;    0,318
785,482;24976,840;    1,368;    2,591
786,049;25409,896;    0,186;   -0,591
786,615;25508,953;    0,277;   -0,955
787,182;25261,555;    0,186;   -0,682
787,749;24946,429;   -2,814;    1,409
788,315;24273,031;   -1,632;   -0,409
788,882;24574,542;    1,550;   -1,227
789,448;25274,962;    1,732;   -0,955
790,015;25272,564;    1,095;    3,227
790,581;24831,802;    1,459;    0,227
791,148;24738,768;    0,641;    1,045
791,714;24952,460;   -0,541;    3,136
792,280;24613,335;    0,186;    1,591
792,847;24162,755;    0,550;    2,500
793,413;24745,630;   -0,269;   -0,318
793,979;24307,050;    3,459;   -1,318
794,545;24435,924;    4,459;    2,682
795,111;23794,344;    2,186;    1,318
795,678;24013,764;    0,731;   -1,682
796,244;23635,821;    3,368;    0,136
796,810;24136,695;    1,731;    0,773
797,375;23883,752;    0,549;   -2,136
797,941;23900,263;   -0,541;    0,591
798,507;24021,410;   -0,451;   -0,955
799,073;23555,921;   -0,360;    0,591
799,639;23620,341;   -2,632;    3,136
800,205;23644,307;    0,095;    2,682
800,770;23218,999;    0,640;    1,773
801,336;23296,419;    1,368;   -0,955
801,901;23006,203;    4,549;    3,136
802,467;23555,259;   -0,542;    2,045
803,033;22900,316;   -0,087;    0,864
803,598;23158,009;    1,913;   -1,045
804,163;23151,701;    1,095;   -0,318
804,729;23118,031;   -0,178;    1,136
805,294;23536,542;    0,822;    2,227
805,859;23275,325;    0,731;   -0,409
806,425;22750,018;    1,186;    2,682
806,990;22420,802;    2,186;    4,318
807,555;22915,585;   -1,451;    2,591
808,120;22810,733;    0,822;   -0,409
808,685;22904,244;    0,185;   -2,500
809,250;22422,664;    0,004;   -0,500
809,815;22632,902;    1,913;    0,682
810,380;23182,413;   -0,269;    1,591
810,945;23726,378;   -1,087;    2,045
811,510;22890,071;    2,094;    1,591
812,075;22606,400;   -0,633;   -1,409
812,640;22632,093;    2,003;    1,409
813,204;22680,331;    0,822;   -0,227
813,769;23191,751;    2,094;   -0,045
814,334;22592,626;    0,458;    0,864
814,898;22625,682;    0,367;    0,591
815,463;22453,466;    1,276;   -0,773
816,027;22422,250;   -0,724;   -2,318
816,592;22536,579;    0,640;   -2,045
817,156;22062,817;    2,094;    1,136
817,721;21972,055;    4,276;    2,318
818,285;21900,475;    2,912;    1,500
818,849;22513,259;   -1,451;    1,682
819,414;22448,770;   -0,269;    2,955
819,978;21999,008;   -1,269;    1,773
820,542;22582,610;    2,003;    0,500
821,106;22289,757;   -0,815;    0,682
821,670;22430,086;   -0,815;    2,591
822,234;22142,416;   -0,270;    1,409
822,798;21487,381;    0,003;    0,500
823,362;21509,801;   -0,633;    4,227
823,926;20822,403;    0,094;    1,136
824,490;21056,641;   -0,997;   -0,682
825,054;21462,334;   -0,088;   -1,136
825,618;21096,572;   -1,542;   -1,500
826,181;21065,538;    0,458;   -1,318
826,745;21011,412;    1,367;   -1,045
827,309;21368,832;    1,185;    1,318
827,872;20740,798;    1,367;    0,955
828,436;21737,400;    1,185;   -0,773
828,999;21773,820;   -0,997;    1,227
829,563;20530,785;   -0,179;    1,136
830,126;20378,478;   -0,179;   -0,591
830,690;20395,625;   -1,997;    2,864
831,253;19917,682;   -0,543;    2,227
831,816;20098,284;   -1,906;    0,500
832,380;20017,431;    0,185;    0,864
832,943;20253,306;   -1,361;   -0,500
833,506;19707,089;    2,639;   -1,227
834,069;20489,600;    3,912;   -0,955
834,632;20534,384;    1,730;    1,318
835,195;20455,895;    1,003;    0,955
835,758;19623,679;   -0,997;    1,955
836,321;19474,189;    0,730;   -1,045
836,884;19577,791;   -0,725;   -0,955
837,447;19590,484;   -2,816;    1,773
838,010;19879,359;    0,366;    3,227
838,573;20158,961;   -1,179;    0,773
839,135;20104,290;   -1,361;   -0,955
839,698;19619,982;    1,275;    0,409
840,261;19136,130;    1,003;   -0,227
840,823;18938,823;   -0,543;    0,864
841,386;19215,788;   -0,452;   -2,409
841,948;19141,208;   -1,361;    1,773
842,511;18817,992;    0,912;    1,682
843,073;18959,866;    1,912;    0,227
843,636;18750,832;   -0,361;   -0,227
844,198;18717,706;    0,911;    0,591
844,760;18844,763;    1,093;    1,955
845,322;18486,092;    0,548;    1,136
845,885;18938,876;    0,730;    0,591
846,447;19362,296;   -1,998;    0,227
847,009;18939,989;    1,911;   -0,682
847,571;19254,499;    0,820;   -2,045
848,133;19334,010;   -1,089;   -1,864
848,695;19136,340;   -0,543;    1,409
849,257;18724,487;   -1,089;   -1,682
849,819;18871,634;   -0,998;   -0,409
850,381;18954,872;   -0,725;   -0,864
850,942;19298,474;    1,093;   -0,591
851,504;19296,531;    1,184;    0,227
852,066;19303,223;    1,275;   -1,591
852,628;18775,553;   -0,180;    1,955
853,189;18331,882;    1,638;    2,682
853,751;18483,393;   -0,907;    1,409
854,312;18327,904;   -0,453;   -1,682
854,874;18829,596;   -2,089;   -0,773
855,435;19322,744;   -0,907;   -1,682
855,997;19528,709;   -1,816;   -0,136
856,558;18770,857;    0,366;    1,773
857,119;18870,913;    0,820;    2,864
857,681;18556,515;    0,002;    0,318
858,242;18579,480;    1,911;   -2,136
858,803;19057,173;    0,456;   -0,773
859,364;19656,230;    0,184;   -4,773
859,925;18943,559;   -2,453;   -0,955
860,486;18786,706;   -0,453;   -0,955
861,047;18510,671;   -0,544;   -1,227
861,608;18358,092;   -1,089;   -0,773
862,169;18471,966;    0,638;   -0,045
862,730;18252,204;    0,456;    1,409
863,291;18456,170;   -0,635;   -0,500
863,852;18874,499;   -0,635;    1,955
864,412;18339,737;   -0,271;   -0,864
864,973;16904,157;   -0,089;    0,500
865,534;16784,486;   -1,726;    0,227
866,094;18269,543;    1,820;    0,227
866,655;17979,508;    1,274;    3,318
867,215;18225,201;    0,274;    0,136
867,776;18079,712;    0,547;   -0,136
868,336;18188,950;   -1,453;    0,136
868,897;17660,098;    2,638;    1,682
869,457;17376,336;    1,365;    0,318
870,017;17612,392;    0,547;   -1,227
870,578;18125,812;   -0,817;    0,773
871,138;17795,414;   -2,089;   -0,955
871,698;17338,471;   -0,817;   -1,318
872,258;17258,527;   -0,453;   -2,864
872,818;17606,583;    2,729;    0,045
873,378;17544,276;    0,638;    1,045
873,938;17080,242;    0,547;    0,500
874,498;17446,571;    0,274;   -1,955
875,058;17357,264;    2,183;    1,773
875,618;17202,047;    1,910;   -2,682
876,177;17103,285;    1,274;    0,136
876,737;16685,524;   -0,090;    1,955
877,297;16735,489;    0,183;    1,955
877,856;16753,182;   -0,362;    0,318
878,416;16731,057;    1,183;   -0,136
878,976;16950,749;   -1,817;    0,409
879,535;17101,169;    0,092;    3,136
880,095;16838,589;   -0,544;    0,045
880,654;16997,373;   -1,090;    1,318
881,213;17050,248;    2,456;    1,500
881,773;16695,577;    2,637;    2,682
882,332;17050,179;    3,365;    5,136
882,891;16897,962;    3,092;    2,136
883,451;17385,837;   -1,272;    1,682
884,010;16798,530;   -2,908;   -0,409
884,569;16898,859;   -0,999;   -0,045
885,128;17073,370;    2,819;   -1,864
885,687;17139,699;    4,455;    0,682
886,246;16834,301;    1,455;    2,136
886,805;16579,994;    2,455;    2,045
887,364;16827,232;   -0,999;   -0,500
887,922;17235,106;   -1,181;    0,045
888,481;16711,708;   -1,545;    0,591
889,040;17046,219;    1,183;    2,136
889,599;17716,276;    2,455;    1,409
890,157;17791,059;    1,455;    2,409
890,716;17422,116;   -0,090;    0,227
891,274;17236,718;    0,092;   -1,136
891,833;17651,774;    1,546;    0,864
892,391;17517,194;   -0,454;    0,500
892,950;17606,160;    1,819;   -0,773
893,508;17985,307;    0,455;   -0,409
894,067;17317,727;    0,637;    0,136
894,625;17252,874;   -0,636;   -1,500
895,183;17437,840;   -0,363;   -0,682
895,741;17371,714;    1,728;   -1,773
896,299;17214,953;   -0,545;   -2,409
896,858;17371,191;    0,819;   -1,591
897,416;17518,793;    2,728;   -1,318
897,974;17280,667;    1,819;    0,318
898,532;17444,360;    6,091;    2,682
899,089;17340,235;    2,091;   -0,682
899,647;17345,655;   -1,454;    1,318
900,205;17087,257;    1,182;    1,045
900,763;17242,131;   -0,454;    0,227
901,321;17294,006;    2,364;   -1,409
901,878;16702,517;   -1,000;   -0,773
902,436;16579,028;   -1,363;    1,318
902,994;16951,175;    4,728;    3,682
903,551;16430,595;    0,728;    0,409
904,109;16816,833;    0,182;   -1,409
904,666;16363,708;    2,455;    1,045
905,224;16161,491;    0,182;   -0,409
905,781;15936,366;    0,727;   -0,318
906,338;16040,786;   -1,363;    1,045
906,895;15958,570;    0,637;    2,045
907,453;15883,808;    1,727;    1,136
908,010;15921,774;   -0,909;    0,409
908,567;15547,194;    1,273;    0,591
909,124;15029,523;    0,364;   -1,500
909,681;15128,125;   -2,909;    0,682
910,238;15258,090;    0,636;   -1,318
910,795;15591,601;   -0,273;   -1,136
911,352;15186,692;   -2,909;   -2,682
911,909;14581,510;   -1,364;   -0,864
912,466;15155,601;   -3,182;    1,500
913,022;14656,146;   -1,636;    0,500
913,579;15005,056;   -0,909;    2,045
914,136;14725,056;    1,636;    0,955
914,692;15056,874;    0,091;   -1,227
915,249;14640,146;    1,455;    0,409
915,806;14898,601;    0,182;    1,955
916,362;14659,692;    1,909;    1,864
916,918;14202,783;    2,000;    1,045
917,475;14196,510;   -1,182;    0,955
918,031;14246,056;    3,364;   -0,045
918,587;13686,783;   -0,909;   -0,318
919,144;13886,237;   -2,273;    0,227
919,700;14201,965;    1,727;    0,773
920,256;13797,783;    0,727;    0,045
920,812;13417,874;   -0,727;   -1,045
921,368;13424,237;   -1,727;   -1,045
921,924;13079,146;    0,182;   -0,136
922,480;12644,146;   -0,545;    1,227
923,036;13262,419;    1,273;    1,955
923,592;13185,965;    0,455;    0,318
924,148;13105,328;    0,455;   -0,955
924,704;12452,237;   -1,364;   -0,409
925,259;12694,510;   -0,273;    0,591
925,815;12450,328;    1,455;    0,500
926,371;11947,328;    2,909;    1,409
926,926;11837,146;    2,091;    0,591
927,482;11489,328;   -1,364;    0,773
928,037;11374,146;    0,909;    2,045
928,593;11680,056;    1,636;    1,045
929,148;11491,965;   -1,818;   -1,500
929,704;10979,783;   -1,455;   -0,500
930,259;11193,965;    0,091;   -0,136
930,814;10254,692;   -0,818;    1,955
931,369; 9920,874;    1,091;   -0,773
931,925; 9780,146;   -0,091;    0,136
932,480; 9687,419;   -2,818;   -2,591
933,035; 9625,601;    0,545;   -0,318
933,590; 9377,783;    0,364;   -1,773
934,145; 8989,237;   -1,364;   -0,318
934,700; 9304,692;    0,455;   -0,591
935,255; 9138,056;   -0,091;    0,045
935,809; 8428,965;    3,182;    0,864
936,364; 7570,056;   -0,455;   -0,136
936,919; 7514,510;    0,455;   -1,773
937,474; 7414,601;    1,455;    0,136
938,028; 7169,874;   -1,636;    1,136
938,583; 6640,146;    1,818;    4,682
939,138; 6897,601;    2,091;    2,136
939,692; 6332,601;    1,636;   -1,136
940,247; 6067,056;   -0,727;   -1,045
940,801; 5584,419;   -0,636;    0,227
941,355; 5469,056;   -0,364;    2,591
941,910; 5127,965;   -0,273;   -2,136
942,464; 5233,146;   -0,818;   -0,318
943,018; 5051,056;    1,000;   -0,227
943,572; 4972,965;    2,545;   -0,682
944,126; 4406,328;    0,091;   -0,409
944,681; 4292,419;    3,091;    0,227
945,235; 4273,419;    1,000;   -0,591
945,789; 4211,783;    0,364;   -1,864
946,342; 4308,419;    0,455;   -0,591
946,896; 4106,237;   -2,273;    0,955
947,450; 3862,237;    1,545;   -0,227
948,004; 4058,510;    1,727;   -0,045
948,558; 4066,965;    0,273;   -0,864
949,111; 3990,783;   -0,273;   -0,318
949,665; 4029,237;    1,636;   -0,682
950,219; 3898,056;   -0,091;   -1,045
950,772; 3976,874;   -1,909;    1,864
951,326; 3877,146;    0,545;   -0,955
951,879; 3977,965;    0,727;   -2,318
952,433; 3996,510;    0,000;    2,227
952,986; 3835,237;    2,909;    0,682
953,539; 3803,783;   -0,273;    0,591
954,093; 3717,056;    0,545;   -1,318
954,646; 3874,692;    0,909;    1,318
955,199; 3668,237;    0,000;   -0,500
955,752; 3548,056;   -0,455;    1,773
956,305; 3518,965;   -0,091;    2,955
956,858; 3688,328;    0,818;   -0,318
957,411; 3847,692;   -0,545;    2,136
957,964; 3692,692;    1,364;    2,136
958,517; 3681,783;   -1,545;    3,136
959,070; 3508,601;   -0,455;    1,955
959,623; 3578,510;    1,091;    1,500
960,176; 3347,237;    1,727;    2,045
960,728; 3327,874;   -2,727;    0,773
961,281; 3378,874;    0,545;    0,500
961,834; 3428,237;   -0,909;    0,864
962,386; 3346,601;    1,727;    1,045
962,939; 3281,328;    0,364;   -0,318
963,491; 3417,965;    0,455;    1,136
964,043; 3284,601;    1,182;    2,409
964,596; 3413,510;   -1,000;    2,227
965,148; 3258,601;   -1,000;    1,773
965,700; 3168,146;    1,091;   -0,227
966,253; 3316,419;   -0,636;    0,318
966,805; 3154,237;   -2,273;    0,773
967,357; 3197,419;    1,091;   -1,500
967,909; 3166,419;    0,455;   -1,227
968,461; 3270,783;    0,545;    3,136
969,013; 3208,146;   -0,182;   -0,864
969,565; 3288,783;   -0,455;   -1,136
970,117; 3347,237;   -0,364;    1,045
970,669; 3157,328;    0,182;   -0,136
971,220; 3036,692;   -0,455;   -1,500
971,772; 2954,056;   -0,636;   -0,318
972,324; 3076,510;    0,091;   -0,500
972,876; 3035,965;    0,818;   -0,045
973,427; 3178,419;    1,909;   -1,045
973,979; 3129,692;   -0,727;   -2,500
974,530; 3167,692;    1,818;    1,318
975,082; 3177,783;   -0,545;    1,682
975,633; 3061,056;    1,091;    1,682
976,184; 3193,692;    0,909;    0,773
976,736; 2986,510;    0,091;    0,227
977,287; 2805,056;   -0,909;   -0,500
977,838; 2979,783;    0,909;   -0,318
978,389; 3047,692;   -1,000;   -0,500
978,940; 2915,328;    0,545;   -0,409
979,491; 2936,601;    0,091;   -0,500
980,042; 2902,328;    0,182;    3,045
980,593; 2957,783;   -2,545;    0,227
981,144; 3015,328;    2,545;   -0,500
981,695; 2976,237;    1,455;    1,500
982,246; 2948,146;   -0,273;    1,045
982,797; 3097,510;   -1,727;    0,682
983,347; 3195,328;    0,364;    0,591
983,898; 3387,874;    3,091;    0,409
984,449; 3196,328;    2,182;    0,773
984,999; 3104,601;    1,455;   -1,136
985,550; 2861,419;    0,182;   -0,318
986,100; 2902,328;   -0,455;   -0,318
986,651; 2934,692;   -0,818;    0,045
987,201; 2920,692;   -1,000;   -0,591
987,751; 3001,419;    0,818;    2,864
988,302; 2984,965;    2,636;    1,500
988,852; 3018,419;    0,455;   -1,136
989,402; 3063,965;    0,091;    0,682
989,952; 2970,419;   -2,182;    0,864
990,502; 3049,601;   -0,091;    0,682
991,052; 3015,965;   -0,727;    0,045
991,602; 2895,874;   -2,909;    1,318
992,152; 2898,146;    0,455;    0,682
992,702; 2883,056;    1,364;   -0,045
993,252; 2808,146;   -3,000;   -0,500
993,802; 2898,965;   -0,273;    1,318
994,352; 3109,601;   -1,545;    1,136
994,901; 3216,510;   -0,182;    3,227
995,451; 3116,601;   -0,182;    0,318
996,000; 3203,510;    1,636;    0,318
996,550; 2924,328;    2,273;    0,227
997,100; 2909,783;    1,273;   -0,045
997,649; 3208,692;    2,182;    0,955
998,198; 2823,965;    1,727;   -1,500
998,748; 3024,146;    1,091;   -2,318
999,297; 2931,419;   -0,818;   -0,409
999,846; 2986,692;    1,000;   -0,773
1000,395; 3036,692;   -0,818;    0,500
1000,945; 3001,601;    1,818;   -0,773
1001,494; 3098,510;    2,364;    0,682
1002,043; 3077,783;    4,636;    0,864
1002,592; 2920,874;   -1,091;    1,955
1003,141; 3062,056;   -0,455;   -0,682
1003,690; 2922,874;    1,727;    0,500
1004,238; 3008,783;    1,455;   -0,045
1004,787; 2636,874;    1,364;    1,227
1005,336; 2881,874;    0,364;    0,682
1005,885; 3019,510;    1,364;   -2,773
1006,433; 3157,783;    0,545;    0,955
1006,982; 3221,237;    0,455;    1,682
1007,531; 3117,874;   -1,818;   -0,227
1008,079; 3081,328;   -2,273;    0,500
1008,627; 3219,874;   -1,455;    0,409
1009,176; 2939,692;    0,000;   -1,955
1009,724; 2991,783;    1,091;    0,864
1010,273; 3039,692;    1,273;    0,500
1010,821; 3147,328;    0,091;    1,409
1011,369; 2888,328;   -1,364;    1,318
1011,917; 2887,692;   -1,364;   -0,591
1012,465; 3158,874;    1,273;   -1,591
1013,013; 3284,328;    2,091;   -1,682
1013,561; 3158,874;    0,455;   -0,773
1014,109; 3209,692;   -1,909;    1,682
1014,657; 3075,237;    0,364;    0,591
1015,205; 3202,146;    1,636;   -0,955
1015,753; 3236,419;   -0,545;   -1,409
1016,301; 3252,510;   -2,636;    3,045
1016,848; 3259,328;   -1,273;    0,409
1017,396; 3321,419;    2,545;    0,045
1017,944; 3437,965;    1,182;    1,864
1018,491; 3190,056;    0,273;    1,409
1019,039; 3346,328;    0,455;    0,591
1019,586; 3268,692;   -1,364;    1,682
1020,134; 3353,328;    0,455;    1,500
1020,681; 3373,419;    0,182;   -1,136
1021,228; 3374,056;    2,909;   -2,227
1021,776; 3199,692;    1,182;   -1,136
1022,323; 3447,146;    0,455;    0,773
1022,870; 3378,146;   -1,000;   -0,045
1023,417; 3256,419;    2,636;    1,864
1023,964; 3404,419;    2,636;    1,227
1024,511; 3251,419;    1,000;    0,773
1025,058; 3049,601;    3,182;   -0,045
1025,605; 3092,419;   -2,273;    3,136
1026,152; 3315,056;    1,727;   -0,591
1026,699; 3036,874;    1,818;    1,318
1027,245; 3196,783;   -0,091;    0,318
1027,792; 3409,783;   -1,000;    1,409
1028,339; 3307,419;    2,364;   -0,045
1028,885; 3162,419;    1,000;   -0,227
1029,432; 3085,510;   -0,091;    0,227
1029,978; 3161,146;   -1,000;   -1,591
1030,525; 3059,419;    1,000;    0,409
1031,071; 3291,237;   -1,364;    1,136
1031,618; 3404,601;    0,364;    1,682
1032,164; 3189,419;   -0,091;    3,045
1032,710; 3229,419;    1,636;   -1,500
1033,256; 3144,328;   -0,636;   -0,136
1033,803; 3138,056;   -0,545;    1,500
1034,349; 2843,874;   -1,364;    0,136
1034,895; 3020,783;    0,000;   -0,318
1035,441; 2981,056;   -0,818;    0,318
1035,987; 2978,965;   -2,364;   -0,682
1036,533; 2978,965;   -1,455;   -0,955
1037,078; 3179,965;    1,455;    1,682
1037,624; 3012,056;    2,455;   -0,955
1038,170; 3028,419;    0,455;   -0,318
1038,716; 2942,692;    1,636;   -0,409
1039,261; 2863,328;   -2,273;   -0,773
1039,807; 2790,692;   -0,091;    3,409
1040,352; 2872,783;   -1,909;   -0,318
1040,898; 2899,237;   -1,545;   -0,682
1041,443; 2809,965;   -1,455;   -2,591
1041,989; 2849,965;    1,091;    1,591
1042,534; 2708,056;   -0,364;    2,591
1043,079; 2816,510;    2,909;    0,955
1043,625; 2626,056;    1,818;    0,500
1044,170; 2663,510;   -1,364;    1,045
1044,715; 2913,328;    2,455;    0,955
1045,260; 2730,056;    2,182;   -0,955
1045,805; 2773,692;    1,182;   -0,591
1046,350; 2722,146;    1,364;   -0,409
1046,895; 2665,965;    2,909;    1,591
1047,440; 2626,237;    5,364;    0,409
1047,985; 2526,692;    2,818;   -0,955
1048,530; 2451,328;    1,545;    1,227
1049,074; 2504,419;    0,000;    0,318
1049,619; 2482,328;   -1,364;    1,955
1050,164; 2273,056;    0,455;    0,227
1050,708; 2340,419;   -0,455;    0,045
1051,253; 2710,510;    1,273;   -2,227
1051,797; 2418,965;    0,818;   -1,318
1052,342; 2421,328;   -1,182;    1,045
1052,886; 2420,328;    0,364;   -1,409
1053,430; 2289,965;   -1,364;    0,136
1053,975; 2307,237;   -0,818;   -0,318
1054,519; 2279,237;   -0,727;    3,227
1055,063; 2301,601;    0,909;    1,318
1055,607; 2177,874;   -0,182;    0,227
1056,151; 2214,510;    2,909;    1,682
1056,695; 2124,783;    2,273;   -1,136
1057,239; 2202,237;   -1,727;   -0,682
1057,783; 2217,237;    0,818;   -1,500
1058,327; 2163,601;    0,000;    1,409
1058,871; 2387,237;   -0,545;    1,318
1059,415; 2097,419;   -0,818;   -0,045
1059,958; 2367,965;    1,455;    2,591
1060,502; 2074,510;   -1,000;   -0,773
1061,046; 1976,874;    0,364;   -0,955
1061,589; 1941,601;   -3,000;   -1,136
1062,133; 1834,692;   -1,273;    1,864
1062,676; 1773,692;    1,182;    0,864
1063,220; 1788,692;    1,091;    0,500
1063,763; 1809,328;    0,909;    1,136
1064,306; 1896,874;   -0,909;    1,864
1064,849; 1783,328;   -0,909;    0,591
1065,393; 1785,874;    2,000;   -1,500
1065,936; 1887,056;    0,182;   -0,409
1066,479; 1770,146;   -1,455;    1,318
1067,022; 1801,146;   -0,273;   -0,227
1067,565; 1687,237;   -0,091;   -1,318
1068,108; 1717,419;    0,727;   -0,591
1068,651; 1693,419;   -0,636;    1,409
1069,194; 1621,783;   -0,455;   -1,682
1069,736; 1631,419;   -1,273;    0,955
1070,279; 1611,146;   -1,364;   -0,500
1070,822; 1665,601;   -2,000;   -0,318
1071,364; 1759,692;   -0,364;    1,318
1071,907; 1571,056;   -0,727;    3,227
1072,450; 1471,237;    0,000;   -0,045
1072,992; 1458,874;   -0,273;    3,136
1073,535; 1618,874;    2,091;    2,136
1074,077; 1404,328;   -0,727;    2,045
1074,619; 1364,965;   -1,364;    0,591
1075,161; 1402,146;   -1,091;    1,500
1075,704; 1587,874;    1,545;    1,227
1076,246; 1381,510;   -0,182;    0,682
1076,788; 1301,146;   -0,364;    1,773
1077,330; 1373,874;    1,273;    2,136
1077,872; 1331,965;    0,909;    0,955
1078,414; 1569,419;    2,727;    0,773
1078,956; 1302,783;    1,273;   -0,227
1079,498; 1573,146;    1,636;    0,318
1080,040; 1281,510;    1,909;   -1,318
1080,581; 1222,328;    1,636;   -0,318
1081,123; 1139,510;    0,091;   -0,773
1081,665; 1175,056;   -1,182;   -0,955
1082,206; 1498,965;    1,364;   -0,500
1082,748; 1346,783;    0,727;    2,045
1083,289; 1218,601;   -2,000;    1,318
1083,831; 1133,237;   -0,545;    0,227
1084,372; 1175,056;    0,000;    0,591
1084,913; 1163,965;    1,091;    0,864
1085,455; 1136,783;   -1,909;   -2,045
1085,996; 1117,419;   -2,273;    0,136
1086,537; 1135,874;   -0,091;    0,864
1087,078; 1167,783;   -0,909;   -2,136
1087,619; 1211,419;   -1,273;    0,227
1088,160; 1117,692;    0,000;    1,318
1088,701; 1108,510;   -1,091;    0,682
1089,242; 1043,056;    1,364;   -2,227
1089,783; 1141,237;   -0,273;    1,409
1090,324; 1113,692;    0,455;    0,682
1090,865;  985,783;    2,727;   -0,409
1091,405;  950,419;    0,727;    2,227
1091,946;  974,146;    0,182;   -0,955
1092,487;  899,601;    0,818;   -1,409
1093,027; 1074,965;   -1,364;   -1,500
1093,568;  927,874;   -0,364;    1,227
1094,108; 1040,965;    0,273;    1,773
1094,649;  967,692;   -1,182;    0,136
1095,189;  905,056;   -0,636;   -0,682
1095,729;  860,146;   -0,091;    0,955
1096,269;  863,965;    0,727;   -0,955
1096,810; 1184,146;   -1,364;    0,500
1097,350; 1000,146;    1,364;   -0,773
1097,890;  904,510;    0,364;    1,227
1098,430; 1161,874;    2,364;    2,864
1098,970; 1033,328;    2,182;    1,682
1099,510;  883,328;    0,545;   -2,318
1100,050;  809,510;    1,000;   -1,591
1100,589;  771,965;   -0,727;   -0,318
1101,129;  915,510;    0,818;   -0,955
1101,669; 1072,692;    1,727;    2,136
1102,209;  875,419;   -0,091;    2,227
1102,748;  837,874;    0,000;    0,955
1103,288;  821,965;    1,273;   -1,227
1103,827;  850,419;    3,091;   -2,227
1104,367;  720,510;   -0,091;   -2,409
1104,906;  693,328;    1,364;   -1,136
1105,445;  766,328;    0,636;   -1,136
1105,985;  705,237;   -0,727;    1,500
1106,524;  764,056;   -1,727;   -0,682
1107,063;  738,146;   -2,727;    1,409
1107,602;  704,419;   -1,909;   -1,500
1108,141;  626,056;   -1,909;    1,500
1108,680;  742,783;   -3,455;   -0,591
1109,219;  676,056;   -0,909;   -0,500
1109,758;  678,601;    0,455;    0,682
1110,297;  645,874;    1,000;   -0,682
1110,836;  596,419;   -0,727;    0,955
1111,375;  757,874;   -2,545;    0,409
1111,913;  770,510;   -1,000;    0,773
1112,452;  710,328;   -0,273;    0,136
1112,991;  589,328;    1,091;    1,955
1113,529;  533,237;   -0,818;   -0,045
1114,068;  612,692;   -0,273;    2,955
1114,606;  518,056;   -0,364;   -0,955
1115,144;  675,874;   -1,273;    1,045
1115,683;  613,419;   -0,727;    0,318
1116,221;  665,237;   -0,455;   -0,864
1116,759;  572,510;    0,636;   -0,864
1117,297;  768,237;    0,000;    1,864
1117,836;  569,874;   -2,182;   -1,227
1118,374;  585,692;    0,182;   -0,682
1118,912;  531,419;    0,909;    2,682
1119,450;  509,510;    1,000;    0,864
1119,988;  569,419;    1,545;    2,136
1120,525; 1039,783;    5,091;    3,318
1121,063;  732,874;    1,182;    1,864
1121,601;  531,783;   -0,909;   -1,227
1122,139;  488,510;   -0,727;   -2,045
1122,676;  689,328;   -0,727;    2,773
1123,214;  610,328;   -1,182;    4,409
1123,751;  419,328;    1,727;    2,227
1124,289;  550,510;   -0,091;   -0,409
1124,826;  423,237;    1,727;    0,227
1125,364;  337,965;    1,727;   -0,955
1125,901;  533,510;    1,182;    1,227
1126,438;  654,419;    0,818;    0,955
1126,975;  368,419;   -0,727;   -0,773
1127,513;  449,510;    0,273;    2,136
1128,050;  349,328;    1,636;   -0,682
1128,587;  452,965;    2,000;   -0,227
1129,124;  501,783;    0,091;    1,318
1129,661;  357,146;    0,273;    0,227
1130,198;  540,328;    1,636;    0,773
1130,734;  483,510;    0,182;    1,409
1131,271;  334,328;   -0,909;    0,864
1131,808;  503,601;    2,909;    3,045
1132,345;  371,874;    1,545;    0,318
1132,881;  236,056;   -1,545;   -1,864
1133,418;  387,510;    0,727;   -1,136
1133,954;  327,874;    2,455;   -2,682
1134,491;  408,510;    1,364;   -0,773
1135,027;  298,783;    2,364;    0,864
1135,564;  388,419;    0,273;    2,955
1136,100;  369,965;    0,364;    2,136
1136,636;  258,692;   -1,273;   -1,045
1137,172;  362,146;    0,000;   -1,045
1137,708;  276,237;   -1,364;   -1,045
1138,245;  283,601;    1,273;   -1,227
1138,781;  222,419;    1,091;   -3,318
1139,317;  309,237;    1,273;   -1,409
1139,852;  296,510;    3,091;    0,136
1140,388;  418,146;   -1,182;   -0,409
1140,924;  289,692;   -1,091;   -2,227
1141,460;  222,510;   -1,636;    0,136
1141,996;  159,965;   -1,364;    2,682
1142,531;  208,237;    1,364;    3,318
1143,067;  433,601;    1,182;    1,045
1143,602;  495,419;   -0,091;   -0,318
1144,138;  331,056;   -2,636;    1,045
1144,673;  205,783;   -1,455;    1,409
1145,209;  265,601;   -1,909;   -0,318
1145,744;  182,783;   -0,727;    0,864
1146,279;  327,874;    1,818;   -0,136
1146,815;  239,692;    1,545;   -2,682
1147,350;  276,874;   -1,364;    0,045
1147,885;  185,510;   -0,818;   -1,318
1148,420;  184,328;   -2,273;    0,773
1148,955;  171,419;   -1,727;    1,864
1149,490;  191,965;   -0,909;   -1,591
1150,025;  179,056;    0,455;   -1,773
1150,560;  291,056;    1,091;   -0,955
1151,094;  254,237;    1,455;   -0,591
1151,629;  270,783;    1,636;    0,864
1152,164;  196,510;    1,364;    1,318
1152,698;  143,692;   -0,182;   -0,136
1153,233;   98,056;    0,091;   -0,682
1153,767;  148,692;   -3,000;   -2,318
1154,302;  203,146;   -1,455;    1,773
1154,836;  203,146;   -0,455;   -2,136
1155,371;  266,146;   -1,364;    3,682
1155,905;  209,510;   -0,636;    1,682
1156,439;  179,874;   -0,636;   -0,500
1156,973;  204,419;    0,364;    0,318
1157,507;  142,874;   -0,364;    0,682
1158,042;  176,328;   -0,727;    1,045
1158,576;  225,146;    0,182;    1,773
1159,110;  216,510;   -0,818;    2,409
1159,643;  182,874;    0,636;   -0,045
1160,177;  112,601;   -1,545;    1,500

