
Integration time [ms]:   0,040
Averaging Nr. [scans]: 11
Smoothing Nr. [pixels]: 0
Data measured with spectrometer [name]: 7318044SP
Wave   ;Sample   ;Dark     ;Reference
[nm]   ;[counts] ;[counts] ;[counts] 

186,757;   24,796;   31,551;    1,318
187,357;   46,236;   22,551;    0,955
187,958;   32,306;   15,460;   -1,591
188,558;   82,113;    8,915;   -1,227
189,159;   43,715;    6,733;   -4,500
189,759;   18,351;    7,278;   -3,591
190,360;   18,554;    2,824;   -2,136
190,960;   58,188;    2,915;   -4,136
191,560;   71,203;    3,189;   -6,591
192,161;  289,477;    4,372;   -3,500
192,761;  151,734;    4,010;   -3,227
193,361;  100,088;    1,556;   -3,773
193,962;  150,308;    2,010;   -2,682
194,562;   74,744;    1,189;   -3,955
195,162;  113,019;   -2,448;   -2,227
195,762;  276,006;   -3,176;   -0,045
196,362;  213,558;    1,370;   -2,500
196,963;   86,841;    2,006;   -0,864
197,563;  152,000;    1,551;   -0,955
198,163;  101,520;    0,096;   -0,682
198,763;  122,010;    1,733;   -0,500
199,363;  226,466;    3,096;   -0,500
199,963;  188,211;    0,369;    0,409
200,563;  158,037;    2,823;   -1,409
201,163;  136,341;    3,277;   -0,227
201,763;  223,998;    3,732;    0,318
202,363;  157,412;    1,459;    1,500
202,963;  261,921;    1,459;    1,045
203,563;  375,188;    0,277;    0,500
204,162;  229,463;    2,096;   -1,864
204,762;  216,600;    0,550;    0,591
205,362;  183,045;    3,004;    1,955
205,962;  279,727;    3,096;    1,955
206,562;  272,176;    1,823;    2,318
207,161;  247,242;   -0,087;    0,318
207,761;  402,654;    1,277;    2,409
208,361;  273,600;   -0,268;    1,409
208,960;  369,879;    0,459;    1,500
209,560;  436,533;    1,277;    1,591
210,160;  421,026;    0,550;    1,864
210,759;  379,179;    4,186;    1,227
211,359;  380,564;    1,459;    1,045
211,958;  639,323;    1,277;    2,045
212,558;  715,092;    1,732;    1,864
213,157;  550,895;    1,822;    1,500
213,757;  983,977;    3,822;   -0,227
214,356;  687,264;    1,277;   -0,409
214,956; 1004,702;    3,095;    0,409
215,555;  630,230;    2,095;    2,136
216,154;  575,252;   -2,723;   -0,591
216,754;  575,842;    0,277;    0,773
217,353;  700,376;   -0,268;   -1,045
217,952;  565,650;   -0,178;    0,318
218,552;  800,446;    1,368;   -0,773
219,151;  690,112;    0,277;    0,955
219,750;  679,736;    0,004;   -0,227
220,349;  756,403;   -0,451;    1,045
220,948;  852,638;   -1,360;    1,136
221,548;  832,852;    0,913;    1,227
222,147;  945,077;   -0,087;   -0,409
222,746; 1225,614;   -0,451;   -0,955
223,345; 1087,412;    0,731;    0,500
223,944; 1098,538;   -0,451;    0,773
224,543; 1222,917;    1,004;   -1,409
225,142; 1346,673;    0,094;    0,136
225,741; 1226,178;   -0,814;    1,045
226,340; 1242,453;   -0,451;   -0,955
226,939; 1656,303;   -0,996;   -0,136
227,538; 1533,631;   -0,360;   -0,773
228,137; 1712,457;   -0,814;    0,864
228,735; 1787,843;   -0,541;    1,227
229,334; 1554,251;   -0,905;   -0,227
229,933; 1935,343;    0,459;    0,591
230,532; 2017,519;    1,186;   -0,409
231,131; 2074,537;    1,732;    0,318
231,729; 2154,636;   -2,450;   -2,318
232,328; 2210,861;   -0,723;   -1,500
232,927; 2238,556;    1,004;   -0,500
233,525; 2315,284;    3,640;    0,045
234,124; 2499,223;    2,368;   -1,591
234,723; 2485,591;    0,913;   -1,045
235,321; 2585,213;    2,277;    0,136
235,920; 2769,887;    1,186;   -1,227
236,518; 3025,509;    3,459;    0,318
237,117; 3106,443;    0,004;   -0,227
237,715; 3221,751;    0,640;   -0,500
238,314; 3285,543;   -0,087;   -2,318
238,912; 3394,202;   -0,723;   -1,409
239,510; 3357,291;    0,459;   -1,227
240,109; 3523,938;    0,004;    3,773
240,707; 3542,896;   -0,996;    1,227
241,305; 3807,672;    0,550;    0,136
241,904; 3988,400;   -0,178;   -2,045
242,502; 3993,242;   -0,632;   -0,227
243,100; 3873,523;   -0,087;   -0,955
243,698; 4072,377;    0,732;    1,682
244,297; 4215,138;   -0,632;    0,682
244,895; 4087,258;   -0,269;   -2,318
245,493; 4365,831;    2,186;   -0,591
246,091; 4358,442;    1,368;   -1,318
246,689; 4326,555;    1,004;    0,591
247,287; 4431,009;    0,822;   -1,136
247,885; 4673,929;   -1,451;    1,227
248,483; 4726,372;    1,822;   -0,500
249,081; 4829,212;    0,185;    1,591
249,679; 4965,506;   -0,178;    1,682
250,277; 5174,176;   -1,723;    0,864
250,875; 5151,955;   -1,087;   -1,045
251,473; 5144,626;   -1,178;    0,500
252,071; 5320,463;    1,459;    1,045
252,669; 5426,083;   -1,814;    0,318
253,267; 5604,511;   -0,087;    0,773
253,864; 5545,373;   -0,360;    0,682
254,462; 5488,541;    1,640;    1,591
255,060; 5417,198;   -0,269;    1,318
255,658; 5680,356;    0,822;   -0,136
256,255; 6056,850;    0,186;   -2,045
256,853; 5946,111;   -0,269;    1,409
257,451; 5895,421;    0,822;    1,864
258,048; 6213,986;    1,822;    1,864
258,646; 5919,564;    1,731;   -1,045
259,243; 6087,566;   -0,087;    2,227
259,841; 6098,038;   -0,814;    0,318
260,438; 5997,612;   -0,087;    0,864
261,036; 6596,502;   -1,905;    1,409
261,633; 6529,948;   -0,087;    2,227
262,231; 6301,082;    2,731;   -0,045
262,828; 6349,294;   -0,905;    1,136
263,425; 6390,122;    0,913;   -0,591
264,023; 6631,016;    0,186;    0,045
264,620; 6217,790;   -0,360;   -0,318
265,217; 6527,425;   -2,087;    3,136
265,815; 6598,348;   -1,905;    2,136
266,412; 6438,198;    0,731;    0,136
267,009; 6456,352;   -1,451;    0,773
267,606; 6424,745;    0,822;   -0,955
268,203; 6395,618;   -0,269;   -0,591
268,801; 6632,674;    1,731;    0,591
269,398; 6878,886;   -0,360;    2,500
269,995; 6853,748;    0,277;    1,591
270,592; 6650,910;   -0,632;   -0,500
271,189; 6786,545;    0,186;    0,409
271,786; 6896,850;   -0,632;    1,227
272,383; 6795,094;   -1,087;    0,227
272,980; 6926,012;    0,277;    0,318
273,577; 7336,540;    0,004;    1,227
274,174; 6933,656;    0,822;    2,591
274,771; 6913,083;   -0,814;   -0,773
275,367; 7096,926;    2,277;    1,409
275,964; 7065,706;    0,731;   -0,500
276,561; 7133,017;    1,549;   -1,045
277,158; 7255,869;    0,095;   -1,773
277,755; 7414,485;    2,185;    0,409
278,351; 6853,404;   -0,451;   -1,500
278,948; 7159,939;   -0,815;    0,045
279,545; 7139,773;   -1,360;    2,318
280,141; 7739,601;   -1,723;   -2,045
280,738; 7575,764;   -0,451;   -0,136
281,334; 7720,522;   -1,633;    0,591
281,931; 7196,222;   -0,087;   -1,318
282,528; 7309,174;    0,822;   -0,500
283,124; 7911,814;   -1,087;   -0,500
283,721; 7776,856;   -0,451;    1,409
284,317; 7613,882;    0,185;    2,500
284,913; 8147,243;   -1,360;    0,591
285,510; 8330,152;    0,640;   -0,318
286,106; 8319,782;   -2,269;   -0,955
286,703; 7923,437;   -0,360;    1,955
287,299; 8117,311;   -1,451;   -0,591
287,895; 8287,540;    0,822;   -1,045
288,491; 8803,158;    0,186;    2,136
289,088; 8563,936;   -2,360;    2,409
289,684; 8630,265;   -1,723;    1,500
290,280; 8631,303;    0,368;    0,682
290,876; 8723,153;    1,822;    5,500
291,472; 8629,892;    1,276;    2,227
292,068; 8725,101;    1,367;    0,227
292,665; 8425,674;    2,095;    0,773
293,261; 8145,955;    0,276;    2,136
293,857; 8521,621;    2,913;    2,136
294,453; 8444,729;    3,550;    0,955
295,049; 8329,176;   -0,268;    1,955
295,644; 8343,896;    0,095;    0,136
296,240; 8259,614;   -0,905;   -0,136
296,836; 8340,102;   -0,995;    0,318
297,432; 8591,433;    1,096;   -0,500
298,028; 8638,388;    0,732;    0,773
298,624; 8956,763;    1,459;    1,864
299,220; 9175,303;    2,368;    0,591
299,815; 8831,810;    1,005;   -0,409
300,411; 8687,086;    0,914;    1,773
301,007; 8686,364;    1,368;    0,227
301,602; 8694,853;   -0,541;   -2,318
302,198; 8831,676;    0,732;   -0,773
302,794; 9109,074;    1,187;   -0,500
303,389; 9215,916;   -1,177;    1,045
303,985; 9269,827;    0,550;    1,409
304,580; 9254,914;    1,459;    1,591
305,176; 9214,608;   -3,086;    0,136
305,771; 9153,341;   -1,268;   -1,227
306,367; 9086,253;    4,095;    0,136
306,962; 9342,580;    0,641;    1,500
307,558; 9059,443;   -0,450;    0,136
308,153; 8977,131;    1,095;   -1,136
308,748; 9191,242;   -0,814;    1,682
309,344; 9182,913;   -0,632;   -1,318
309,939; 9322,317;   -1,905;   -1,318
310,534; 9506,524;   -0,086;   -1,682
311,130; 9428,447;    0,459;   -2,500
311,725; 9158,270;    1,004;   -0,500
312,320; 9500,422;    2,459;    0,045
312,915; 9377,320;    1,459;   -1,045
313,510; 9451,270;    1,550;   -0,500
314,105; 9874,729;    1,096;    1,409
314,700; 9276,097;   -3,086;   -1,045
315,295; 8962,551;   -0,904;    0,045
315,890; 8554,988;    1,277;    0,864
316,485; 8878,771;   -0,359;   -0,318
317,080; 8941,445;   -3,086;    1,591
317,675; 9442,763;    2,005;   -0,682
318,270; 8974,929;    5,550;    3,318
318,865; 8968,133;    3,278;    3,045
319,460; 8793,648;   -0,904;    0,591
320,055; 9043,673;   -0,541;   -1,227
320,650; 8735,398;   -1,995;   -0,591
321,244; 8768,199;   -0,177;   -1,409
321,839; 9624,304;   -1,541;   -0,227
322,434; 9484,876;   -1,086;   -1,591
323,029; 9214,841;    1,732;    1,591
323,623; 9048,787;    1,550;    0,773
324,218; 8890,814;    2,368;    1,409
324,812; 8779,052;    1,096;    1,591
325,407; 8608,012;   -0,814;    2,045
326,002; 8548,854;    0,277;   -0,409
326,596; 8822,073;    0,914;    1,318
327,191; 8984,964;    0,823;   -1,045
327,785; 8651,346;   -0,813;   -0,227
328,379; 8845,805;    1,368;    0,136
328,974; 8619,647;    0,914;   -3,955
329,568; 8867,507;    0,186;   -2,409
330,163; 8716,547;    2,096;    1,045
330,757; 9004,863;    2,459;    1,591
331,351; 8410,948;    0,459;    0,682
331,945; 8747,187;    0,914;    1,409
332,540; 8413,380;   -1,723;   -0,591
333,134; 8520,614;   -1,086;    0,773
333,728; 8743,448;    0,005;    0,318
334,322; 9041,418;   -1,177;   -0,864
334,916; 8400,984;    0,277;    0,955
335,510; 8733,015;   -0,450;   -0,136
336,105; 8897,237;   -1,086;    1,591
336,699; 8638,496;   -1,086;    0,591
337,293; 8602,278;   -1,723;    0,318
337,887; 8747,718;   -2,723;    1,955
338,481; 8842,426;    0,459;    0,591
339,074; 9003,642;   -0,359;    2,682
339,668; 8855,366;   -1,632;    1,227
340,262; 9136,433;    1,732;    3,227
340,856; 8639,284;    1,822;   -0,682
341,450; 8074,971;    1,004;    1,864
342,044; 8863,096;    1,459;    0,136
342,637; 8679,938;    0,913;   -2,136
343,231; 8557,649;   -2,360;    0,682
343,825; 8510,245;   -1,086;   -0,591
344,419; 8506,781;   -1,995;    0,500
345,012; 8391,095;    2,459;    4,045
345,606; 8399,296;    4,641;    1,591
346,199; 8212,789;   -1,813;   -0,227
346,793; 7811,513;    1,914;    2,045
347,386; 7984,142;   -0,813;   -1,136
347,980; 7979,984;   -0,268;   -0,045
348,573; 7831,316;    2,278;    0,409
349,167; 7603,601;    5,278;    4,773
349,760; 7918,489;    2,914;    2,682
350,354; 7859,190;   -0,813;    1,136
350,947; 7650,020;    1,096;    1,682
351,540; 7349,178;   -0,358;   -1,409
352,134; 7319,330;    1,096;    1,136
352,727; 7405,367;   -0,086;    1,136
353,320; 7224,515;    0,005;    0,591
353,913; 7081,586;   -1,995;    1,864
354,507; 7268,203;    0,823;   -1,227
355,100; 7255,427;    0,460;    0,864
355,693; 6677,702;    2,005;    2,409
356,286; 6688,988;    0,823;    2,773
356,879; 6985,535;   -0,722;    1,227
357,472; 6654,219;   -0,904;    1,500
358,065; 6879,187;   -0,722;    2,500
358,658; 6758,285;   -0,540;    2,318
359,251; 6460,877;   -1,631;   -0,591
359,844; 6056,345;   -1,904;   -1,136
360,437; 6277,177;   -2,995;    0,045
361,030; 6504,036;    1,369;   -0,682
361,623; 6151,475;    2,824;    0,318
362,215; 6169,640;   -0,086;    2,045
362,808; 6046,507;   -2,358;   -1,682
363,401; 6230,994;   -2,449;    0,136
363,994; 6045,352;   -0,631;   -1,500
364,586; 5951,564;    0,824;   -1,500
365,179; 6124,804;   -0,449;   -1,136
365,772; 5659,364;   -1,995;    2,045
366,364; 5917,423;    1,915;   -3,227
366,957; 6118,352;    2,279;   -0,045
367,549; 6112,096;    2,188;   -0,864
368,142; 5834,650;    1,825;   -1,500
368,734; 5992,782;    0,734;   -2,136
369,327; 5944,931;    1,643;   -0,500
369,919; 5883,912;   -1,538;    0,409
370,512; 5756,818;   -1,083;   -0,500
371,104; 5543,156;   -0,901;    1,591
371,696; 5715,350;    1,191;   -0,955
372,289; 5790,361;    0,373;    1,136
372,881; 5916,298;   -2,080;    1,318
373,473; 5842,997;   -2,170;    1,136
374,066; 5667,038;   -0,169;    0,500
374,658; 5550,366;    0,378;    1,136
375,250; 5851,542;    0,653;   -1,409
375,842; 5723,816;    0,473;   -0,045
376,434; 5608,277;   -0,435;   -0,409
377,026; 6092,266;    0,204;   -2,500
377,618; 6032,489;   -0,158;   -0,682
378,210; 5853,797;   -0,338;   -1,955
378,802; 5718,573;    0,754;   -0,591
379,394; 5744,228;    1,846;    0,682
379,986; 6226,196;    1,393;   -0,955
380,578; 6295,249;   -0,153;    0,773
381,170; 5738,666;   -0,972;    0,045
381,762; 5705,624;    0,755;    1,409
382,354; 5847,679;   -0,065;   -1,318
382,945; 5933,144;   -2,976;    0,318
383,537; 6067,962;   -2,705;   -1,955
384,129; 6090,460;   -2,160;   -1,136
384,721; 6272,264;   -0,252;    0,955
385,312; 6148,786;   -0,161;   -0,955
385,904; 6267,610;   -2,706;    1,591
386,496; 5721,728;   -0,979;    1,045
387,087; 5872,172;    1,022;    2,500
387,679; 5875,724;   -1,160;    0,045
388,270; 6000,052;    2,840;    2,045
388,862; 6091,538;    1,295;   -0,318
389,453; 5974,033;   -0,887;    1,045
390,045; 6232,192;   -0,705;   -2,682
390,636; 6127,949;    0,204;   -0,591
391,227; 6017,013;   -0,523;   -0,045
391,819; 6122,455;    0,204;    0,773
392,410; 6203,990;    1,022;    0,045
393,001; 6143,075;   -0,979;   -1,591
393,593; 6360,311;    1,930;   -0,045
394,184; 6237,667;    1,385;   -0,409
394,775; 6145,213;    1,839;    2,136
395,366; 6319,625;    1,385;    0,773
395,957; 6290,696;    0,113;    0,136
396,548; 6562,756;   -0,342;    2,682
397,139; 6856,370;   -2,433;    0,591
397,730; 6604,101;   -1,888;    0,955
398,321; 6646,114;   -1,252;    0,955
398,912; 6639,869;   -0,615;    0,136
399,503; 6755,027;   -3,524;   -1,409
400,094; 6297,968;    0,294;    1,682
400,685; 6138,226;   -0,433;    0,045
401,276; 6152,676;    0,930;   -0,955
401,867; 6451,164;   -0,888;    0,773
402,458; 6523,516;   -2,251;   -2,318
403,048; 6528,100;    1,112;    0,591
403,639; 6165,333;    0,840;    0,864
404,230; 6456,896;    2,476;    0,318
404,821; 6392,300;   -0,615;    0,045
405,411; 6507,924;    1,203;   -2,591
406,002; 6131,442;   -1,252;   -1,136
406,592; 6071,433;    2,294;    0,045
407,183; 6296,088;    0,566;   -1,500
407,774; 6176,353;    3,475;   -0,136
408,364; 6460,257;    0,930;    0,409
408,954; 6133,990;    0,384;    1,227
409,545; 6200,329;    1,021;    1,045
410,135; 5772,527;    1,293;    0,500
410,726; 5913,623;    1,838;    0,318
411,316; 6273,580;    0,111;    0,773
411,906; 5967,569;   -0,253;   -0,409
412,497; 5539,231;   -1,070;   -0,045
413,087; 6049,323;   -1,980;   -0,227
413,677; 6392,373;   -0,707;    3,864
414,267; 6280,348;    0,656;    1,409
414,857; 6236,215;   -2,980;    4,227
415,448; 6490,054;    0,839;    0,500
416,038; 6218,693;    0,020;   -0,591
416,628; 6181,439;   -0,889;    0,409
417,218; 5792,015;    0,565;    3,318
417,808; 6005,155;    0,202;   -0,409
418,398; 6355,246;    0,020;    2,682
418,988; 6329,567;    2,020;    0,591
419,578; 6549,308;   -0,707;    1,409
420,168; 6842,889;   -1,343;   -0,955
420,757; 6493,713;   -1,343;   -1,500
421,347; 6208,261;    0,111;   -0,227
421,937; 6311,714;    2,292;    1,409
422,527; 6319,880;    0,838;   -0,773
423,116; 6154,564;   -0,253;   -0,045
423,706; 6380,071;   -1,889;    0,318
424,296; 6366,661;    1,384;    0,682
424,885; 6759,934;   -0,071;   -3,045
425,475; 7013,419;    1,474;   -2,864
426,065; 6894,850;   -0,980;   -0,318
426,654; 6584,078;   -0,435;   -0,318
427,244; 6736,899;    0,020;    1,409
427,833; 6244,145;    1,383;   -0,500
428,423; 6634,390;   -0,526;    1,136
429,012; 7297,336;   -0,344;   -1,136
429,601; 6844,594;   -1,344;    0,136
430,191; 7033,739;    1,292;    4,318
430,780; 6675,777;   -0,344;   -0,409
431,369; 6681,663;    0,746;   -0,045
431,959; 7186,120;   -1,254;    0,500
432,548; 6987,440;   -1,163;   -0,045
433,137; 7081,174;   -1,254;   -1,318
433,726; 7547,465;    0,292;    0,500
434,315; 6998,788;   -0,526;    2,409
434,905; 7085,015;   -1,254;    1,409
435,494; 7009,208;    0,746;    0,955
436,083; 7396,604;   -0,981;   -0,955
436,672; 7296,974;    0,110;    0,500
437,261; 6928,554;    0,292;   -1,955
437,850; 7036,389;    1,383;    0,682
438,439; 7037,091;    3,291;    1,955
439,027; 6946,005;    3,655;    1,773
439,616; 7230,857;    2,927;    1,227
440,205; 7055,619;    0,200;   -2,136
440,794; 7085,837;    2,109;   -0,045
441,383; 7272,260;   -1,346;   -0,591
441,971; 7153,076;   -2,436;    0,591
442,560; 7009,839;    0,563;   -1,773
443,149; 6783,972;    0,379;   -1,318
443,737; 6930,813;   -0,074;   -2,318
444,326; 7158,682;    0,018;    0,318
444,915; 7211,452;   -1,982;    0,864
445,503; 7501,878;   -2,891;   -0,318
446,092; 6892,337;    0,382;    2,136
446,680; 7397,367;    0,382;    0,318
447,269; 7523,327;   -0,346;   -0,318
447,857; 7306,429;    0,018;   -1,773
448,445; 7402,387;    0,563;    1,318
449,034; 7597,998;   -1,528;   -1,136
449,622; 7673,703;   -1,073;    3,500
450,210; 7081,204;    2,017;    2,227
450,799; 7549,958;    0,290;   -0,591
451,387; 7478,803;    1,381;   -0,591
451,975; 7200,865;    2,654;    0,864
452,563; 7295,787;    3,472;    2,318
453,151; 7297,780;   -0,528;   -1,227
453,739; 7236,485;   -1,347;    0,136
454,328; 7091,568;    2,381;   -2,136
454,916; 6875,418;    2,562;   -0,136
455,504; 7041,501;    1,017;    1,227
456,092; 7172,539;    0,017;   -1,591
456,679; 7144,541;    1,472;    0,682
457,267; 7176,825;    4,017;    1,045
457,855; 7237,536;    1,017;    1,409
458,443; 6969,094;   -0,165;    1,682
459,031; 7156,245;    0,108;    2,409
459,619; 7537,238;   -1,801;    2,864
460,206; 7572,607;    0,835;    2,045
460,794; 7665,955;   -2,983;   -0,227
461,382; 7883,131;   -0,529;   -0,864
461,970; 7519,813;    1,198;    1,864
462,557; 7520,425;   -0,711;   -0,682
463,145; 7685,919;   -3,165;   -1,682
463,732; 7810,573;    2,016;   -1,045
464,320; 7720,882;   -0,075;   -3,045
464,907; 7467,695;    2,743;   -0,773
465,495; 7356,608;    0,743;   -1,227
466,082; 7474,790;   -1,984;   -0,045
466,670; 7379,246;   -2,529;    1,227
467,257; 7758,297;   -1,711;    2,045
467,844; 7913,575;   -0,075;    0,045
468,432; 7949,237;    0,834;    3,500
469,019; 7514,684;    0,925;   -1,773
469,606; 7899,834;    0,470;    3,682
470,193; 7768,649;   -1,439;    0,227
470,780; 7434,906;   -2,075;    0,864
471,368; 7708,257;   -1,257;   -0,773
471,955; 7498,093;    1,379;   -0,682
472,542; 7182,084;    0,652;   -1,136
473,129; 7381,846;   -0,166;    0,136
473,716; 7157,251;    1,470;    0,591
474,303; 7319,206;    0,652;   -0,864
474,890; 7574,187;   -1,439;   -0,500
475,477; 7632,239;   -1,621;    0,409
476,064; 7498,414;    1,106;   -1,591
476,650; 7419,355;    0,288;    0,318
477,237; 7292,355;   -0,258;    0,955
477,824; 7440,699;   -1,076;    0,864
478,411; 7386,970;   -1,894;   -0,318
478,997; 7563,732;    0,560;   -0,773
479,584; 7639,680;    1,196;   -0,409
480,171; 8245,583;   -0,440;   -0,773
480,757; 7950,916;    2,651;    0,773
481,344; 8171,061;    0,469;    0,409
481,931; 7706,969;    1,105;    1,045
482,517; 8601,996;   -1,258;    0,318
483,104; 9029,385;    1,106;    2,864
483,690; 9169,955;   -1,804;    0,045
484,276; 9422,490;   -0,895;    0,227
484,863; 9231,505;    2,469;    1,136
485,449; 9729,000;   -0,077;    0,318
486,035; 9700,570;   -1,986;   -0,136
486,622;10052,218;   -0,895;    0,045
487,208;10011,975;    1,378;    1,500
487,794; 9857,122;    0,741;    0,318
488,380; 9964,399;    0,105;   -1,409
488,967;10028,807;   -1,168;   -0,409
489,553;10073,640;   -1,895;   -1,409
490,139;10270,118;    1,559;    0,773
490,725; 9799,098;    0,741;   -0,227
491,311; 9427,368;    3,287;    3,045
491,897; 8873,119;   -0,986;    1,500
492,483; 8762,510;    0,105;    1,227
493,069; 8733,917;    3,923;    0,864
493,655; 8660,427;    1,650;    0,682
494,241; 8569,879;    1,377;   -0,955
494,826; 8932,298;    0,287;   -1,045
495,412; 8444,048;    2,559;   -0,682
495,998; 8586,372;   -0,805;   -0,318
496,584; 8681,865;    0,377;    1,045
497,169; 8668,325;    1,014;   -0,682
497,755; 8626,322;    0,650;    1,227
498,341; 9157,984;    0,559;    0,318
498,926; 8804,424;    1,832;    1,955
499,512; 8952,968;    1,286;    2,955
500,097; 8993,631;    0,195;   -0,318
500,683; 8935,534;   -0,350;    2,136
501,268; 9266,876;   -0,169;   -0,955
501,854; 9045,496;   -0,169;    1,227
502,439; 8984,239;   -0,624;   -1,773
503,024; 9143,205;    0,195;    0,500
503,610; 9196,840;   -0,078;   -0,682
504,195; 9200,891;    0,558;    1,955
504,780; 9332,423;    2,922;    1,227
505,366; 9214,920;    3,013;    2,864
505,951; 8965,934;    0,740;    1,045
506,536; 9006,454;   -3,260;   -3,682
507,121; 8991,015;    0,285;   -0,318
507,706; 9389,494;    2,376;    1,045
508,291; 9756,548;    2,649;    1,136
508,876; 9237,988;   -0,988;    2,591
509,461; 8771,908;   -0,169;   -0,773
510,046; 9176,383;    0,194;    0,318
510,631; 9411,215;   -0,351;   -0,773
511,216; 9104,609;    2,467;   -0,500
511,801; 9470,546;   -0,442;    2,591
512,386; 9687,924;    0,740;    0,500
512,971; 9599,939;   -2,988;    0,955
513,555; 9237,065;   -0,897;   -1,500
514,140; 9912,751;   -0,442;   -3,136
514,725; 9898,382;   -0,715;   -1,136
515,309; 9985,697;   -0,533;    0,318
515,894; 9551,514;   -0,624;   -2,227
516,479; 9943,383;   -0,624;   -0,955
517,063; 9744,128;    0,376;    1,227
517,648; 9861,312;    1,012;   -1,136
518,232; 9526,158;   -0,261;   -1,409
518,817; 9875,999;   -0,079;    1,682
519,401;10083,746;    2,194;    0,591
519,985; 9606,923;    1,103;    1,136
520,570; 9510,547;    0,830;   -1,955
521,154; 9783,123;    2,102;    0,591
521,738; 9929,684;   -2,352;    2,409
522,323;10416,438;   -0,170;    1,682
522,907;10148,818;    0,466;   -0,136
523,491; 9932,297;    0,557;    0,955
524,075; 9920,412;    2,284;    0,591
524,659; 9995,448;    1,466;    0,591
525,243; 9560,928;    1,739;    0,409
525,827; 9734,548;    0,648;   -0,045
526,411;10461,266;   -1,989;   -0,136
526,995;10650,022;   -0,352;    1,409
527,579;10310,746;   -0,443;   -1,045
528,163;10560,324;    0,375;   -1,500
528,747;10512,616;    2,466;   -0,773
529,331;10762,386;   -0,080;   -1,409
529,915;10895,393;    1,738;    0,955
530,499;10857,370;   -0,807;    1,227
531,082;10618,064;   -0,534;    1,591
531,666;10129,861;    1,374;    0,773
532,250;10685,004;    1,284;    2,682
532,833;10950,403;    0,920;    2,773
533,417;10806,291;   -1,807;    0,864
534,001;10766,165;    1,647;   -0,318
534,584;11391,995;    0,374;    0,500
535,168;11232,403;    0,465;    1,409
535,751;11286,316;    0,647;    0,045
536,334;10756,207;   -0,898;   -0,409
536,918;11276,661;    0,011;    1,591
537,501;11352,805;   -0,899;    1,318
538,085;11364,831;   -0,444;    1,045
538,668;11470,128;    0,829;    2,409
539,251;11758,788;    1,829;    3,773
539,834;11784,058;    0,101;    0,773
540,418;11766,097;   -1,990;    4,318
541,001;11790,251;   -0,990;    1,773
541,584;11736,640;    2,101;    2,227
542,167;11474,031;    1,374;    2,955
542,750;11572,581;    1,919;   -0,773
543,333;11171,645;    0,555;    2,136
543,916;11875,701;    0,192;    2,500
544,499;12364,729;   -1,354;    0,227
545,082;12372,640;    1,374;    3,591
545,665;12488,204;    1,919;    1,500
546,248;12752,554;    1,010;   -0,318
546,830;12399,551;   -0,445;    1,955
547,413;12787,654;    1,010;   -0,773
547,996;13275,798;    0,555;    0,500
548,579;13018,034;    0,919;    0,955
549,161;12825,127;    1,828;    2,682
549,744;12630,363;   -0,809;    0,409
550,326;13086,137;   -0,809;   -1,136
550,909;12914,531;    2,737;    0,591
551,492;13283,179;   -0,263;    0,227
552,074;13079,104;   -0,173;   -1,318
552,657;13570,695;    2,373;    0,045
553,239;13352,402;   -0,173;   -0,773
553,821;13268,118;   -1,082;    1,045
554,404;12802,694;    1,282;    1,136
554,986;13166,610;    0,464;    1,045
555,568;13649,226;    1,191;   -0,955
556,151;12950,886;    1,191;   -0,227
556,733;13123,721;   -0,264;   -0,864
557,315;13537,284;    0,100;    0,500
557,897;13291,804;    0,554;   -0,500
558,479;13419,237;   -1,991;    1,318
559,061;13542,663;   -0,719;   -0,864
559,643;13850,405;   -0,264;    0,045
560,225;14113,409;    1,645;    2,864
560,807;14129,678;    0,918;    0,318
561,389;13710,522;    0,554;    2,318
561,971;14312,588;    0,463;    2,136
562,553;14148,027;   -1,628;    1,591
563,135;14255,844;   -0,537;    1,136
563,717;13884,207;    3,372;    1,136
564,298;14482,917;    3,645;   -0,045
564,880;14204,850;    0,645;   -1,409
565,462;14343,122;    0,645;    1,318
566,043;15372,968;   -0,446;    2,318
566,625;14970,717;    1,918;    1,227
567,207;14752,864;    1,099;    1,682
567,788;15653,844;   -1,264;    1,500
568,370;16336,266;    1,917;   -0,500
568,951;16093,484;    0,190;    0,227
569,533;16834,865;   -0,628;   -0,500
570,114;17200,791;   -0,446;    0,682
570,695;17579,563;   -0,174;   -1,318
571,277;17877,569;   -0,265;   -1,682
571,858;18504,541;    2,008;   -1,136
572,439;19199,716;    1,554;   -1,045
573,021;19289,927;    2,099;   -2,773
573,602;19682,124;   -1,265;    0,318
574,183;20442,631;   -2,083;    2,227
574,764;20446,493;   -1,629;    0,409
575,345;20867,522;    0,917;   -0,136
575,926;21343,440;   -0,356;    0,136
576,507;21253,874;    1,099;   -0,227
577,088;22267,578;    3,099;    1,682
577,669;22256,407;    0,735;    1,955
578,250;22909,450;    0,644;   -1,045
578,831;23393,945;   -1,356;   -2,227
579,412;23515,794;   -0,810;    0,955
579,993;24330,523;    1,008;    0,227
580,573;24576,524;   -0,629;   -0,955
581,154;23553,317;    0,735;   -0,591
581,735;24423,224;    0,644;    0,773
582,315;23925,315;   -0,629;    2,136
582,896;24139,039;   -0,174;    1,227
583,477;23633,870;    0,189;    1,227
584,057;23848,682;    0,553;    0,955
584,638;24126,432;    2,553;    2,318
585,218;24196,908;   -0,538;    2,682
585,799;24310,199;    0,281;   -0,227
586,379;24285,396;    0,372;    1,591
586,959;23234,768;    0,735;    0,318
587,540;22719,761;   -0,629;    2,227
588,120;22375,073;    1,007;   -0,045
588,700;21581,060;    2,553;    2,136
589,281;21869,478;    0,462;   -0,955
589,861;21816,640;    0,099;   -1,682
590,441;21625,888;    2,371;   -2,682
591,021;20717,727;   -0,265;   -2,591
591,601;21038,756;   -0,537;    0,500
592,181;21098,959;   -0,719;   -0,773
592,761;20461,087;    0,007;    1,409
593,341;20415,949;   -0,901;    0,045
593,921;20404,828;   -0,265;    1,591
594,501;20298,427;   -0,538;    1,318
595,081;20139,804;    0,917;   -0,318
595,661;20536,992;   -1,447;    0,955
596,240;20978,234;   -0,537;    0,136
596,820;20607,042;    0,372;    1,955
597,400;20683,718;    2,008;    0,773
597,980;20860,252;    2,008;    1,045
598,559;20936,057;    2,735;   -0,227
599,139;20680,197;   -0,174;   -1,227
599,718;20568,106;   -0,174;   -0,409
600,298;20864,989;    0,735;    0,682
600,877;21081,277;    2,917;    1,409
601,457;21276,539;    2,281;    1,136
602,036;21258,688;    0,190;    2,045
602,616;21415,911;    0,644;    1,682
603,195;21672,743;   -0,355;    3,500
603,774;21184,769;   -0,901;    2,045
604,354;21069,429;    0,826;   -0,500
604,933;20719,187;    0,463;    1,864
605,512;20843,794;    3,554;    0,591
606,091;20922,694;   -0,537;    3,773
606,671;21616,494;    0,281;    0,773
607,250;20858,995;    1,644;    3,136
607,829;21052,596;    2,372;    3,227
608,408;20962,170;    1,190;    2,591
608,987;20064,403;    1,281;    3,409
609,566;20322,061;   -1,265;   -2,500
610,145;20485,746;   -1,082;    0,682
610,723;20827,952;    4,372;    6,864
611,302;20145,693;   -0,446;    1,682
611,881;19704,970;    5,008;   11,227
612,460;20500,426;    1,645;    3,955
613,039;20863,711;   -0,082;    2,045
613,617;19701,167;    1,736;    4,773
614,196;19818,267;    1,099;    1,227
614,775;20144,369;    1,009;    2,409
615,353;20155,499;    0,736;    0,864
615,932;19927,682;    0,100;    2,409
616,510;20427,845;    0,554;    0,591
617,089;20100,320;    7,100;   17,591
617,667;19905,114;    2,372;    6,136
618,246;19754,767;   -1,537;    1,318
618,824;19909,565;   -3,355;   -0,955
619,402;19453,997;   -2,900;   -1,773
619,981;19917,922;   -0,173;   -1,045
620,559;19789,735;    0,009;    1,682
621,137;19429,306;   -0,718;    1,864
621,715;19374,604;   -1,173;   -0,682
622,293;19310,578;   -0,537;   -0,773
622,871;19769,829;   -0,718;    0,500
623,450;19410,339;    0,373;   -0,864
624,028;19333,871;    0,191;   -0,955
624,606;18979,683;   -1,718;    1,682
625,183;19368,698;   -1,536;   -1,136
625,761;19062,629;    1,009;    1,136
626,339;19326,276;    1,373;    2,591
626,917;19625,822;   -0,172;   -0,045
627,495;19641,869;   -0,354;    1,318
628,073;19161,679;   -0,263;    2,864
628,650;18905,942;    0,100;    2,136
629,228;19339,724;    0,373;    4,409
629,806;18744,625;    2,282;    1,136
630,383;18964,888;    1,464;   -0,318
630,961;18841,012;    2,555;   -0,955
631,539;18572,001;    2,464;    0,227
632,116;18053,648;   11,373;   15,409
632,694;18588,480;    2,555;    6,500
633,271;18784,122;    0,828;    2,682
633,848;18760,903;    1,828;    2,045
634,426;18781,957;   -1,081;    1,773
635,003;17987,915;    1,101;   -0,409
635,580;18234,094;    1,192;    3,682
636,158;18738,723;    3,737;    1,227
636,735;18722,236;    0,555;   -0,500
637,312;18830,405;   -0,809;   -0,682
637,889;18890,954;   -4,354;   -0,682
638,466;18496,318;   -3,990;   -0,409
639,043;18465,075;    2,101;   -1,136
639,620;18724,893;   -2,262;   -0,955
640,197;19031,472;    1,100;    1,682
640,774;19132,825;   -0,172;    1,136
641,351;19462,360;    0,737;    1,136
641,928;19075,259;   -0,627;    1,409
642,505;18705,431;    0,828;   -0,500
643,082;18811,875;   -1,718;    1,227
643,658;17969,774;   -0,718;    1,500
644,235;18585,946;    1,191;    2,500
644,812;18841,209;    1,918;    0,773
645,388;18616,017;   -0,991;    1,409
645,965;18664,825;   -0,809;    1,682
646,542;18754,451;   -1,445;   -0,227
647,118;18798,713;    1,009;   -0,955
647,695;19045,340;   -0,263;    1,136
648,271;18952,057;   -0,536;    0,500
648,848;19156,865;    0,736;    2,227
649,424;19052,582;    0,827;    1,318
650,000;18808,117;   -0,354;   -1,045
650,577;18631,380;   -0,627;   -0,955
651,153;19025,824;   -1,809;    0,955
651,729;19885,359;    1,191;    0,864
652,305;20100,713;    0,645;    2,773
652,881;23716,885;   -0,082;    1,136
653,458;28978,783;    1,100;    0,227
654,034;31607,773;    0,282;    1,591
654,610;32538,945;    0,554;    0,773
655,186;33610,208;    0,645;    3,045
655,762;33221,197;   -0,991;    0,409
656,338;33269,460;    0,100;    0,136
656,913;34108,813;   -0,082;    0,409
657,489;33381,621;    0,827;   -0,318
658,065;33408,157;   -0,173;   -1,591
658,641;34063,965;   -0,900;   -0,864
659,217;33437,955;   -0,991;    0,409
659,792;32926,308;    0,645;   -0,409
660,368;33213,298;   -2,173;   -0,682
660,944;33020,379;   -2,082;    1,227
661,519;29264,369;   -0,628;    0,409
662,095;24636,995;   -1,719;    0,591
662,670;21259,439;    1,281;   -0,136
663,246;20566,429;    1,009;   -0,409
663,821;20073,782;    0,281;    1,682
664,396;19600,681;    0,009;    1,864
664,972;19805,671;    0,009;   -0,500
665,547;20076,116;    1,372;    0,136
666,122;20159,015;   -1,082;    0,318
666,698;20367,732;   -0,173;    0,318
667,273;19725,085;   -0,173;    0,136
667,848;20494,802;    2,372;    1,500
668,423;20257,701;    2,190;    2,318
668,998;20661,964;    2,827;   -0,682
669,573;21166,044;   -3,264;   -1,500
670,148;21015,943;   -1,446;   -0,682
670,723;20738,115;   -1,810;    0,318
671,298;21156,196;    2,372;    1,045
671,873;21188,277;   -0,082;   -0,136
672,448;21158,994;    0,645;    0,136
673,023;21471,711;   -1,992;   -0,227
673,597;21759,701;    0,827;    2,318
674,172;21565,691;   -0,355;    0,318
674,747;21110,862;    0,372;   -1,045
675,321;20888,397;   -0,628;    3,318
675,896;20522,387;    0,645;    1,045
676,471;21372,923;    2,645;    1,591
677,045;21159,549;   -1,264;    0,682
677,620;21199,448;    0,190;    1,136
678,194;21479,892;   -2,628;    1,136
678,769;21156,700;   -1,083;   -0,318
679,343;21432,235;   -0,628;    1,773
679,917;21297,134;   -1,446;    1,955
680,492;21289,579;    0,826;    3,227
681,066;21431,114;    3,372;    0,409
681,640;21410,922;    1,463;   -0,318
682,214;22169,094;    0,735;    0,500
682,788;21705,538;   -1,356;   -0,773
683,363;21639,255;   -1,810;    1,682
683,937;21395,518;   -1,719;   -0,318
684,511;22046,053;    0,463;   -0,591
685,085;21795,407;   -1,356;    0,318
685,659;21547,669;   -2,538;    0,864
686,232;21843,295;   -0,356;   -0,318
686,806;21589,558;   -0,901;    0,409
687,380;22070,639;   -0,174;    0,591
687,954;22277,901;   -1,174;    1,136
688,528;21941,437;   -0,719;    1,955
689,101;22698,063;   -3,992;    1,045
689,675;22316,234;   -0,356;   -0,136
690,249;21717,679;   -0,719;    0,409
690,822;22074,941;    0,280;    0,318
691,396;22206,840;   -0,265;    1,227
691,969;21693,012;    1,280;    0,136
692,543;22103,184;   -0,447;   -1,955
693,116;21816,083;   -0,265;   -1,409
693,690;21708,072;    0,099;    0,500
694,263;22220,335;   -1,083;    2,955
694,836;22234,416;    1,371;    3,591
695,410;21022,496;   -0,265;    1,773
695,983;21395,486;    0,189;    0,591
696,556;21415,840;   -0,447;   -1,045
697,129;21743,193;   -0,356;    1,409
697,703;21413,547;   -1,629;    1,955
698,276;21437,718;    1,462;   -0,773
698,849;21274,526;    1,280;    1,409
699,422;21562,971;   -1,083;    0,591
699,995;21358,870;    0,007;    0,136
700,568;21736,496;   -0,629;    3,045
701,140;21728,395;   -2,811;    1,682
701,713;21505,476;   -0,174;    2,409
702,286;21350,011;   -0,538;    0,864
702,859;21196,728;   -0,902;   -0,591
703,432;20507,991;    0,825;    0,682
704,004;20901,071;    0,462;    0,318
704,577;20802,152;   -0,629;    0,136
705,150;21301,324;    0,189;    2,500
705,722;21104,041;   -0,356;   -3,227
706,295;20951,940;   -0,175;   -0,591
706,867;20802,384;   -0,175;    1,955
707,440;21083,647;   -1,720;   -0,409
708,012;21292,364;    0,462;    0,591
708,584;21177,354;    2,462;    0,227
709,157;21433,071;    1,825;   -0,591
709,729;21123,243;    2,280;    2,045
710,301;21887,505;    0,734;    0,045
710,874;21882,586;   -1,447;   -0,227
711,446;20835,667;    0,371;    0,864
712,018;20710,656;    0,098;    0,500
712,590;20510,464;   -1,993;    1,682
713,162;20993,363;    0,825;    1,318
713,734;21226,717;    1,825;   -2,045
714,306;21167,525;   -1,902;   -0,409
714,878;20019,878;    0,825;    0,864
715,450;20744,959;    0,643;    0,864
716,022;20996,858;    1,552;    1,318
716,593;21153,393;    0,189;    0,591
717,165;21084,838;   -3,175;   -1,227
717,737;20909,191;    0,280;    0,409
718,309;20530,636;    0,280;   -0,045
718,880;20484,989;   -0,539;   -1,409
719,452;20726,524;   -0,175;   -1,591
720,024;20379,241;    0,734;   -0,591
720,595;20877,504;   -2,902;    0,955
721,167;20496,767;    0,370;   -2,045
721,738;20040,029;   -0,812;   -1,045
722,309;20108,292;   -0,993;   -1,227
722,881;19866,463;   -1,357;    0,773
723,452;20448,362;   -2,630;    2,864
724,023;20638,989;   -0,721;    2,682
724,595;20432,160;    0,007;    0,682
725,166;20169,605;    0,007;   -0,409
725,737;19883,504;    1,734;    0,227
726,308;19943,221;   -0,266;    0,318
726,879;20284,029;   -1,630;    1,227
727,450;20183,109;    0,552;   -0,045
728,021;20168,281;    3,097;    0,682
728,592;19989,635;    0,734;    0,500
729,163;20284,806;    0,643;   -0,136
729,734;20270,160;    0,188;   -0,227
730,305;20561,422;    1,734;    0,136
730,876;20862,776;    0,188;    2,955
731,447;20640,947;    2,188;    2,682
732,017;20717,483;    1,097;    1,864
732,588;20300,018;    0,734;    1,227
733,159;20473,553;    0,643;   -1,045
733,729;20278,543;    0,006;    0,409
734,300;19657,260;    0,915;    0,864
734,870;20025,250;    3,461;    0,591
735,441;20490,876;    0,370;   -0,591
736,011;20360,684;    0,643;   -1,591
736,582;20258,765;   -0,812;    0,045
737,152;19721,664;   -1,721;   -2,045
737,722;20182,836;   -0,267;   -0,682
738,293;19909,007;   -1,358;    1,318
738,863;19793,361;    2,461;    2,318
739,433;19672,896;    5,279;    0,318
740,003;20291,341;   -0,994;   -0,682
740,573;19755,421;    2,097;   -1,591
741,143;19729,047;   -1,085;    0,318
741,713;20386,492;    1,188;   -0,500
742,283;20136,482;    0,915;    1,591
742,853;19956,472;    1,915;    1,591
743,423;19450,370;    1,733;    0,045
743,993;19514,542;   -0,358;    1,500
744,563;18999,714;    0,097;   -0,864
745,133;19006,885;   -0,812;   -0,864
745,702;19601,603;   -0,267;    1,773
746,272;18868,229;   -0,176;    0,591
746,842;18726,673;   -1,358;   -0,591
747,411;19145,936;   -0,267;   -0,318
747,981;19266,562;    0,097;    0,500
748,551;19315,915;    2,278;   -1,045
749,120;19149,269;    0,642;   -0,227
749,690;19509,350;   -0,631;    2,409
750,259;19792,339;    1,369;    2,955
750,828;19699,329;    1,551;   -1,955
751,398;19953,956;    1,278;   -0,045
751,967;19525,127;    2,187;    0,409
752,536;19698,117;   -0,813;   -0,227
753,105;20112,198;    0,096;    0,227
753,675;19862,551;    0,096;    1,773
754,244;19807,359;   -0,904;    3,591
754,813;19797,804;    0,551;    1,227
755,382;19423,794;    0,460;    0,955
755,951;19871,329;    1,551;    3,682
756,520;19542,864;   -0,085;    1,864
757,089;20081,308;    0,278;    0,500
757,658;20130,935;    1,733;    1,227
758,227;20112,197;    1,096;    0,318
758,795;20371,005;    1,187;    1,136
759,364;20602,450;   -0,086;   -0,591
759,933;19736,076;   -1,176;   -0,045
760,501;19309,884;    0,733;   -1,318
761,070;19717,510;   -2,813;   -1,409
761,639;20384,864;   -1,904;    1,318
762,207;19793,399;    1,551;   -0,955
762,776;19728,661;    0,369;    0,864
763,344;19709,015;   -0,995;    0,591
763,913;18771,096;   -0,722;    1,409
764,481;19513,449;    1,005;   -0,136
765,049;19381,075;   -1,358;    1,409
765,618;19266,792;   -0,086;    0,318
766,186;19386,510;    0,278;    0,136
766,754;19503,227;    0,005;    1,864
767,322;18676,126;   -1,995;    0,409
767,890;18633,115;   -0,722;   -1,773
768,459;19058,924;   -2,177;   -0,318
769,027;19234,186;    1,641;    3,409
769,595;18297,176;    3,278;    2,591
770,163;18707,984;    3,823;    2,955
770,730;18530,428;    0,732;   -0,136
771,298;18378,873;    0,187;   -1,409
771,866;18485,499;   -1,541;    4,955
772,434;18748,216;   -0,631;   -1,864
773,002;18934,933;    0,005;    0,682
773,569;18634,832;    0,914;    1,682
774,137;18445,913;   -0,268;   -0,045
774,705;19136,175;    0,278;   -0,136
775,272;18756,347;    0,641;    0,682
775,840;18554,791;   -0,177;    2,682
776,407;18119,963;    0,277;    1,955
776,975;17701,680;   -0,632;    0,318
777,542;18630,943;   -1,086;   -0,045
778,110;18546,296;   -1,268;   -0,045
778,677;18191,468;   -2,359;   -0,864
779,244;18035,458;    2,186;    1,045
779,812;18143,084;    1,823;    0,864
780,379;17995,892;    0,005;    1,136
780,946;18211,336;    1,005;   -0,773
781,513;18509,054;   -1,450;    0,318
782,080;17926,862;   -0,086;    2,864
782,647;18575,851;   -0,268;    3,045
783,214;18293,478;   -0,177;    3,864
783,781;17930,467;   -0,723;   -0,682
784,348;17807,457;   -0,632;    1,500
784,915;18149,629;   -3,177;    0,318
785,482;17974,437;    1,368;    2,591
786,049;18403,154;    0,186;   -0,591
786,615;18534,780;    0,277;   -0,955
787,182;18250,861;    0,186;   -0,682
787,749;17996,124;   -2,814;    1,409
788,315;17427,023;   -1,632;   -0,409
788,882;17695,194;    1,550;   -1,227
789,448;18299,548;    1,732;   -0,955
790,015;18323,356;    1,095;    3,227
790,581;17963,073;    1,459;    0,227
791,148;17859,335;    0,641;    1,045
791,714;18002,325;   -0,541;    3,136
792,280;17721,224;    0,186;    1,591
792,847;17417,578;    0,550;    2,500
793,413;17831,386;   -0,269;   -0,318
793,979;17482,375;    3,459;   -1,318
794,545;17619,002;    4,459;    2,682
795,111;17105,901;    2,186;    1,318
795,678;17228,709;    0,731;   -1,682
796,244;16940,062;    3,368;    0,136
796,810;17388,688;    1,731;    0,773
797,375;17175,769;    0,549;   -2,136
797,941;17182,941;   -0,541;    0,591
798,507;17274,476;   -0,451;   -0,955
799,073;16869,557;   -0,360;    0,591
799,639;16948,910;   -2,632;    3,136
800,205;16982,718;    0,095;    2,682
800,770;16642,890;    0,640;    1,773
801,336;16619,971;    1,368;   -0,955
801,901;16437,506;    4,549;    3,136
802,467;16961,314;   -0,542;    2,045
803,033;16308,849;   -0,087;    0,864
803,598;16514,839;    1,913;   -1,045
804,163;16602,829;    1,095;   -0,318
804,729;16553,001;   -0,178;    1,136
805,294;16891,172;    0,822;    2,227
805,859;16730,799;    0,731;   -0,409
806,425;16309,879;    1,186;    2,682
806,990;15960,869;    2,186;    4,318
807,555;16357,495;   -1,451;    2,591
808,120;16348,212;    0,822;   -0,409
808,685;16439,202;    0,185;   -2,500
809,250;15968,101;    0,004;   -0,500
809,815;16181,364;    1,913;    0,682
810,380;16669,535;   -0,269;    1,591
810,945;17119,253;   -1,087;    2,045
811,510;16431,333;    2,094;    1,591
812,075;16121,596;   -0,633;   -1,409
812,640;16165,586;    2,003;    1,409
813,204;16273,666;    0,822;   -0,227
813,769;16711,838;    2,094;   -0,045
814,334;16196,464;    0,458;    0,864
814,898;16250,454;    0,367;    0,591
815,463;16064,808;    1,276;   -0,773
816,027;16025,525;   -0,724;   -2,318
816,592;16189,424;    0,640;   -2,045
817,156;15793,777;    2,094;    1,136
817,721;15678,858;    4,276;    2,318
818,285;15676,848;    2,912;    1,500
818,849;16244,929;   -1,451;    1,682
819,414;16120,555;   -0,269;    2,955
819,978;15711,363;   -1,269;    1,773
820,542;16250,898;    2,003;    0,500
821,106;16073,433;   -0,815;    0,682
821,670;16128,514;   -0,815;    2,591
822,234;15864,595;   -0,270;    1,409
822,798;15360,494;    0,003;    0,500
823,362;15376,302;   -0,633;    4,227
823,926;14795,655;    0,094;    1,136
824,490;14990,009;   -0,997;   -0,682
825,054;15375,271;   -0,088;   -1,136
825,618;15125,443;   -1,542;   -1,500
826,181;15065,706;    0,458;   -1,318
826,745;14992,605;    1,367;   -1,045
827,309;15329,322;    1,185;    1,318
827,872;14816,311;    1,367;    0,955
828,436;15659,483;    1,185;   -0,773
828,999;15786,928;   -0,997;    1,227
829,563;14733,008;   -0,179;    1,136
830,126;14562,544;   -0,179;   -0,591
830,690;14654,533;   -1,997;    2,864
831,253;14186,614;   -0,543;    2,227
831,816;14344,877;   -1,906;    0,500
832,380;14298,503;    0,185;    0,864
832,943;14509,584;   -1,361;   -0,500
833,506;14006,392;    2,639;   -1,227
834,069;14710,472;    3,912;   -0,955
834,632;14849,462;    1,730;    1,318
835,195;14745,816;    1,003;    0,955
835,758;14013,442;   -0,997;    1,955
836,321;13912,886;    0,730;   -1,045
836,884;13996,331;   -0,725;   -0,955
837,447;14007,048;   -2,816;    1,773
838,010;14295,220;    0,366;    3,227
838,573;14546,391;   -1,179;    0,773
839,135;14519,472;   -1,361;   -0,955
839,698;14015,916;    1,275;    0,409
840,261;13583,361;    1,003;   -0,227
840,823;13476,714;   -0,543;    0,864
841,386;13755,522;   -0,452;   -2,409
841,948;13665,512;   -1,361;    1,773
842,511;13440,956;    0,912;    1,682
843,073;13572,674;    1,912;    0,227
843,636;13369,572;   -0,361;   -0,227
844,198;13325,926;    0,911;    0,591
844,760;13423,643;    1,093;    1,955
845,322;13124,724;    0,548;    1,136
845,885;13500,350;    0,730;    0,591
846,447;13917,976;   -1,998;    0,227
847,009;13587,330;    1,911;   -0,682
847,571;13787,592;    0,820;   -2,045
848,133;13881,219;   -1,089;   -1,864
848,695;13711,390;   -0,543;    1,409
849,257;13339,107;   -1,089;   -1,682
849,819;13509,824;   -0,998;   -0,409
850,381;13495,269;   -0,725;   -0,864
850,942;13814,531;    1,093;   -0,591
851,504;13752,794;    1,184;    0,227
852,066;13788,693;    1,275;   -1,591
852,628;13424,319;   -0,180;    1,955
853,189;12995,582;    1,638;    2,682
853,751;13152,753;   -0,907;    1,409
854,312;12967,107;   -0,453;   -1,682
854,874;13402,006;   -2,089;   -0,773
855,435;13831,177;   -0,907;   -1,682
855,997;13987,076;   -1,816;   -0,136
856,558;13362,793;    0,366;    1,773
857,119;13465,329;    0,820;    2,864
857,681;13175,773;    0,002;    0,318
858,242;13208,490;    1,911;   -2,136
858,803;13606,571;    0,456;   -0,773
859,364;14148,561;    0,184;   -4,773
859,925;13594,187;   -2,453;   -0,955
860,486;13477,813;   -0,453;   -0,955
861,047;13210,985;   -0,544;   -1,227
861,608;13046,429;   -1,089;   -0,773
862,169;13219,146;    0,638;   -0,045
862,730;12971,045;    0,456;    1,409
863,291;13229,126;   -0,635;   -0,500
863,852;13547,207;   -0,635;    1,955
864,412;13038,106;   -0,271;   -0,864
864,973;11829,277;   -0,089;    0,500
865,534;11740,904;   -1,726;    0,227
866,094;13045,803;    1,820;    0,227
866,655;12739,338;    1,274;    3,318
867,215;13001,237;    0,274;    0,136
867,776;12861,954;    0,547;   -0,136
868,336;12942,671;   -1,453;    0,136
868,897;12579,024;    2,638;    1,682
869,457;12346,196;    1,365;    0,318
870,017;12522,277;    0,547;   -1,227
870,578;13044,085;   -0,817;    0,773
871,138;12681,257;   -2,089;   -0,955
871,698;12247,246;   -0,817;   -1,318
872,258;12185,691;   -0,453;   -2,864
872,818;12543,772;    2,729;    0,045
873,378;12518,307;    0,638;    1,045
873,938;12121,479;    0,547;    0,500
874,498;12380,377;    0,274;   -1,955
875,058;12347,004;    2,183;    1,773
875,618;12188,539;    1,910;   -2,682
876,177;12125,165;    1,274;    0,136
876,737;11801,973;   -0,090;    1,955
877,297;11869,054;    0,183;    1,955
877,856;11892,407;   -0,362;    0,318
878,416;11848,579;    1,183;   -0,136
878,976;12003,387;   -1,817;    0,409
879,535;12170,013;    0,092;    3,136
880,095;11964,821;   -0,544;    0,045
880,654;12033,448;   -1,090;    1,318
881,213;12198,437;    2,456;    1,500
881,773;11871,791;    2,637;    2,682
882,332;12218,326;    3,365;    5,136
882,891;12027,771;    3,092;    2,136
883,451;12440,488;   -1,272;    1,682
884,010;11917,205;   -2,908;   -0,409
884,569;12023,286;   -0,999;   -0,045
885,128;12157,821;    2,819;   -1,864
885,687;12197,538;    4,455;    0,682
886,246;11965,528;    1,455;    2,136
886,805;11746,154;    2,455;    2,045
887,364;11926,235;   -0,999;   -0,500
887,922;12258,134;   -1,181;    0,045
888,481;11806,578;   -1,545;    0,591
889,040;12085,386;    1,183;    2,136
889,599;12597,194;    2,455;    1,409
890,157;12678,911;    1,455;    2,409
890,716;12305,992;   -0,090;    0,227
891,274;12157,527;    0,092;   -1,136
891,833;12538,699;    1,546;    0,864
892,391;12422,689;   -0,454;    0,500
892,950;12511,770;    1,819;   -0,773
893,508;12846,668;    0,455;   -0,409
894,067;12255,295;    0,637;    0,136
894,625;12147,557;   -0,636;   -1,500
895,183;12362,638;   -0,363;   -0,682
895,741;12315,446;    1,728;   -1,773
896,299;12147,254;   -0,545;   -2,409
896,858;12321,335;    0,819;   -1,591
897,416;12465,597;    2,728;   -1,318
897,974;12215,860;    1,819;    0,318
898,532;12412,304;    6,091;    2,682
899,089;12309,385;    2,091;   -0,682
899,647;12321,739;   -1,454;    1,318
900,205;12156,183;    1,182;    1,045
900,763;12311,082;   -0,454;    0,227
901,321;12326,435;    2,364;   -1,409
901,878;11815,880;   -1,000;   -0,773
902,436;11710,233;   -1,363;    1,318
902,994;12128,678;    4,728;    3,682
903,551;11608,576;    0,728;    0,409
904,109;11965,385;    0,182;   -1,409
904,666;11633,374;    2,455;    1,045
905,224;11484,182;    0,182;   -0,409
905,781;11296,081;    0,727;   -0,318
906,338;11318,708;   -1,363;    1,045
906,895;11318,243;    0,637;    2,045
907,453;11262,233;    1,727;    1,136
908,010;11273,313;   -0,909;    0,409
908,567;10979,485;    1,273;    0,591
909,124;10546,020;    0,364;   -1,500
909,681;10617,192;   -2,909;    0,682
910,238;10808,364;    0,636;   -1,318
910,795;11119,808;   -0,273;   -1,136
911,352;10800,444;   -2,909;   -2,682
911,909;10315,808;   -1,364;   -0,864
912,466;10750,626;   -3,182;    1,500
913,022;10363,172;   -1,636;    0,500
913,579;10707,535;   -0,909;    2,045
914,136;10439,808;    1,636;    0,955
914,692;10763,717;    0,091;   -1,227
915,249;10397,717;    1,455;    0,409
915,806;10558,717;    0,182;    1,955
916,362;10437,263;    1,909;    1,864
916,918;10029,172;    2,000;    1,045
917,475;10045,899;   -1,182;    0,955
918,031;10097,172;    3,364;   -0,045
918,587; 9651,990;   -0,909;   -0,318
919,144; 9885,535;   -2,273;    0,227
919,700;10122,808;    1,727;    0,773
920,256; 9731,172;    0,727;    0,045
920,812; 9424,808;   -0,727;   -1,045
921,368; 9513,535;   -1,727;   -1,045
921,924; 9165,717;    0,182;   -0,136
922,480; 8847,263;   -0,545;    1,227
923,036; 9406,081;    1,273;    1,955
923,592; 9365,899;    0,455;    0,318
924,148; 9331,899;    0,455;   -0,955
924,704; 8728,263;   -1,364;   -0,409
925,259; 9010,444;   -0,273;    0,591
925,815; 8827,717;    1,455;    0,500
926,371; 8407,444;    2,909;    1,409
926,926; 8351,899;    2,091;    0,591
927,482; 8059,717;   -1,364;    0,773
928,037; 8008,081;    0,909;    2,045
928,593; 8307,808;    1,636;    1,045
929,148; 8151,081;   -1,818;   -1,500
929,704; 7757,808;   -1,455;   -0,500
930,259; 7948,081;    0,091;   -0,136
930,814; 7194,899;   -0,818;    1,955
931,369; 6956,990;    1,091;   -0,773
931,925; 6867,263;   -0,091;    0,136
932,480; 6809,717;   -2,818;   -2,591
933,035; 6798,899;    0,545;   -0,318
933,590; 6629,990;    0,364;   -1,773
934,145; 6306,808;   -1,364;   -0,318
934,700; 6569,535;    0,455;   -0,591
935,255; 6466,535;   -0,091;    0,045
935,809; 5988,808;    3,182;    0,864
936,364; 5259,990;   -0,455;   -0,136
936,919; 5289,717;    0,455;   -1,773
937,474; 5212,081;    1,455;    0,136
938,028; 5026,354;   -1,636;    1,136
938,583; 4704,899;    1,818;    4,682
939,138; 4895,263;    2,091;    2,136
939,692; 4425,899;    1,636;   -1,136
940,247; 4236,081;   -0,727;   -1,045
940,801; 3967,081;   -0,636;    0,227
941,355; 3892,990;   -0,364;    2,591
941,910; 3577,172;   -0,273;   -2,136
942,464; 3702,081;   -0,818;   -0,318
943,018; 3636,626;    1,000;   -0,227
943,572; 3555,899;    2,545;   -0,682
944,126; 3136,263;    0,091;   -0,409
944,681; 3040,081;    3,091;    0,227
945,235; 3002,535;    1,000;   -0,591
945,789; 2950,263;    0,364;   -1,864
946,342; 3150,535;    0,455;   -0,591
946,896; 2908,535;   -2,273;    0,955
947,450; 2704,263;    1,545;   -0,227
948,004; 2960,081;    1,727;   -0,045
948,558; 2889,899;    0,273;   -0,864
949,111; 2818,717;   -0,273;   -0,318
949,665; 2933,172;    1,636;   -0,682
950,219; 2851,808;   -0,091;   -1,045
950,772; 2866,081;   -1,909;    1,864
951,326; 2807,444;    0,545;   -0,955
951,879; 2840,172;    0,727;   -2,318
952,433; 2906,263;    0,000;    2,227
952,986; 2725,081;    2,909;    0,682
953,539; 2675,263;   -0,273;    0,591
954,093; 2625,081;    0,545;   -1,318
954,646; 2769,444;    0,909;    1,318
955,199; 2597,444;    0,000;   -0,500
955,752; 2590,535;   -0,455;    1,773
956,305; 2516,808;   -0,091;    2,955
956,858; 2635,354;    0,818;   -0,318
957,411; 2782,263;   -0,545;    2,136
957,964; 2621,172;    1,364;    2,136
958,517; 2603,444;   -1,545;    3,136
959,070; 2463,444;   -0,455;    1,955
959,623; 2637,263;    1,091;    1,500
960,176; 2433,899;    1,727;    2,045
960,728; 2423,717;   -2,727;    0,773
961,281; 2455,626;    0,545;    0,500
961,834; 2468,172;   -0,909;    0,864
962,386; 2394,626;    1,727;    1,045
962,939; 2324,172;    0,364;   -0,318
963,491; 2449,626;    0,455;    1,136
964,043; 2337,626;    1,182;    2,409
964,596; 2490,808;   -1,000;    2,227
965,148; 2336,263;   -1,000;    1,773
965,700; 2252,535;    1,091;   -0,227
966,253; 2405,081;   -0,636;    0,318
966,805; 2298,990;   -2,273;    0,773
967,357; 2296,444;    1,091;   -1,500
967,909; 2314,444;    0,455;   -1,227
968,461; 2332,172;    0,545;    3,136
969,013; 2280,081;   -0,182;   -0,864
969,565; 2378,172;   -0,455;   -1,136
970,117; 2559,535;   -0,364;    1,045
970,669; 2322,899;    0,182;   -0,136
971,220; 2137,626;   -0,455;   -1,500
971,772; 2117,808;   -0,636;   -0,318
972,324; 2251,444;    0,091;   -0,500
972,876; 2157,808;    0,818;   -0,045
973,427; 2326,172;    1,909;   -1,045
973,979; 2316,444;   -0,727;   -2,500
974,530; 2263,444;    1,818;    1,318
975,082; 2282,354;   -0,545;    1,682
975,633; 2193,626;    1,091;    1,682
976,184; 2345,354;    0,909;    0,773
976,736; 2195,899;    0,091;    0,227
977,287; 2050,626;   -0,909;   -0,500
977,838; 2182,808;    0,909;   -0,318
978,389; 2223,172;   -1,000;   -0,500
978,940; 2069,626;    0,545;   -0,409
979,491; 2082,626;    0,091;   -0,500
980,042; 2093,263;    0,182;    3,045
980,593; 2105,808;   -2,545;    0,227
981,144; 2207,990;    2,545;   -0,500
981,695; 2232,444;    1,455;    1,500
982,246; 2172,354;   -0,273;    1,045
982,797; 2217,172;   -1,727;    0,682
983,347; 2344,535;    0,364;    0,591
983,898; 2557,354;    3,091;    0,409
984,449; 2414,808;    2,182;    0,773
984,999; 2228,899;    1,455;   -1,136
985,550; 2089,081;    0,182;   -0,318
986,100; 2045,717;   -0,455;   -0,318
986,651; 2075,626;   -0,818;    0,045
987,201; 2067,717;   -1,000;   -0,591
987,751; 2141,444;    0,818;    2,864
988,302; 2173,263;    2,636;    1,500
988,852; 2174,263;    0,455;   -1,136
989,402; 2255,899;    0,091;    0,682
989,952; 2204,899;   -2,182;    0,864
990,502; 2224,172;   -0,091;    0,682
991,052; 2128,899;   -0,727;    0,045
991,602; 2055,263;   -2,909;    1,318
992,152; 2086,899;    0,455;    0,682
992,702; 2081,717;    1,364;   -0,045
993,252; 2005,081;   -3,000;   -0,500
993,802; 2116,263;   -0,273;    1,318
994,352; 2261,081;   -1,545;    1,136
994,901; 2276,990;   -0,182;    3,227
995,451; 2223,444;   -0,182;    0,318
996,000; 2292,263;    1,636;    0,318
996,550; 2076,990;    2,273;    0,227
997,100; 2087,808;    1,273;   -0,045
997,649; 2355,990;    2,182;    0,955
998,198; 2038,081;    1,727;   -1,500
998,748; 2230,717;    1,091;   -2,318
999,297; 2118,263;   -0,818;   -0,409
999,846; 2228,172;    1,000;   -0,773
1000,395; 2205,535;   -0,818;    0,500
1000,945; 2252,990;    1,818;   -0,773
1001,494; 2318,263;    2,364;    0,682
1002,043; 2276,990;    4,636;    0,864
1002,592; 2079,808;   -1,091;    1,955
1003,141; 2213,899;   -0,455;   -0,682
1003,690; 2152,535;    1,727;    0,500
1004,238; 2158,626;    1,455;   -0,045
1004,787; 1856,717;    1,364;    1,227
1005,336; 2131,808;    0,364;    0,682
1005,885; 2192,354;    1,364;   -2,773
1006,433; 2252,263;    0,545;    0,955
1006,982; 2449,535;    0,455;    1,682
1007,531; 2296,444;   -1,818;   -0,227
1008,079; 2195,444;   -2,273;    0,500
1008,627; 2294,172;   -1,455;    0,409
1009,176; 2104,535;    0,000;   -1,955
1009,724; 2111,081;    1,091;    0,864
1010,273; 2236,899;    1,273;    0,500
1010,821; 2266,717;    0,091;    1,409
1011,369; 2048,899;   -1,364;    1,318
1011,917; 2047,444;   -1,364;   -0,591
1012,465; 2292,172;    1,273;   -1,591
1013,013; 2346,354;    2,091;   -1,682
1013,561; 2314,081;    0,455;   -0,773
1014,109; 2411,172;   -1,909;    1,682
1014,657; 2254,444;    0,364;    0,591
1015,205; 2298,899;    1,636;   -0,955
1015,753; 2274,990;   -0,545;   -1,409
1016,301; 2354,990;   -2,636;    3,045
1016,848; 2366,808;   -1,273;    0,409
1017,396; 2411,354;    2,545;    0,045
1017,944; 2498,717;    1,182;    1,864
1018,491; 2279,354;    0,273;    1,409
1019,039; 2551,990;    0,455;    0,591
1019,586; 2349,172;   -1,364;    1,682
1020,134; 2408,354;    0,455;    1,500
1020,681; 2465,990;    0,182;   -1,136
1021,228; 2401,081;    2,909;   -2,227
1021,776; 2269,444;    1,182;   -1,136
1022,323; 2534,535;    0,455;    0,773
1022,870; 2457,535;   -1,000;   -0,045
1023,417; 2414,535;    2,636;    1,864
1023,964; 2432,081;    2,636;    1,227
1024,511; 2326,354;    1,000;    0,773
1025,058; 2164,717;    3,182;   -0,045
1025,605; 2226,899;   -2,273;    3,136
1026,152; 2491,081;    1,727;   -0,591
1026,699; 2215,444;    1,818;    1,318
1027,245; 2315,535;   -0,091;    0,318
1027,792; 2451,081;   -1,000;    1,409
1028,339; 2454,263;    2,364;   -0,045
1028,885; 2281,626;    1,000;   -0,227
1029,432; 2229,808;   -0,091;    0,227
1029,978; 2345,899;   -1,000;   -1,591
1030,525; 2242,172;    1,000;    0,409
1031,071; 2367,172;   -1,364;    1,136
1031,618; 2575,444;    0,364;    1,682
1032,164; 2331,990;   -0,091;    3,045
1032,710; 2393,263;    1,636;   -1,500
1033,256; 2297,535;   -0,636;   -0,136
1033,803; 2221,990;   -0,545;    1,500
1034,349; 1985,535;   -1,364;    0,136
1034,895; 2119,535;    0,000;   -0,318
1035,441; 2123,172;   -0,818;    0,318
1035,987; 2166,626;   -2,364;   -0,682
1036,533; 2190,263;   -1,455;   -0,955
1037,078; 2410,626;    1,455;    1,682
1037,624; 2207,899;    2,455;   -0,955
1038,170; 2181,626;    0,455;   -0,318
1038,716; 2169,899;    1,636;   -0,409
1039,261; 2043,444;   -2,273;   -0,773
1039,807; 1998,081;   -0,091;    3,409
1040,352; 2087,263;   -1,909;   -0,318
1040,898; 2102,444;   -1,545;   -0,682
1041,443; 1995,626;   -1,455;   -2,591
1041,989; 2168,717;    1,091;    1,591
1042,534; 1984,899;   -0,364;    2,591
1043,079; 2009,626;    2,909;    0,955
1043,625; 1912,717;    1,818;    0,500
1044,170; 1969,626;   -1,364;    1,045
1044,715; 2224,354;    2,455;    0,955
1045,260; 2046,354;    2,182;   -0,955
1045,805; 2025,626;    1,182;   -0,591
1046,350; 1960,081;    1,364;   -0,409
1046,895; 2008,990;    2,909;    1,591
1047,440; 2002,263;    5,364;    0,409
1047,985; 1849,808;    2,818;   -0,955
1048,530; 1765,717;    1,545;    1,227
1049,074; 1847,263;    0,000;    0,318
1049,619; 1807,354;   -1,364;    1,955
1050,164; 1669,535;    0,455;    0,227
1050,708; 1714,081;   -0,455;    0,045
1051,253; 2128,354;    1,273;   -2,227
1051,797; 1816,535;    0,818;   -1,318
1052,342; 1749,808;   -1,182;    1,045
1052,886; 1787,899;    0,364;   -1,409
1053,430; 1638,717;   -1,364;    0,136
1053,975; 1680,626;   -0,818;   -0,318
1054,519; 1694,444;   -0,727;    3,227
1055,063; 1753,535;    0,909;    1,318
1055,607; 1671,263;   -0,182;    0,227
1056,151; 1681,808;    2,909;    1,682
1056,695; 1555,717;    2,273;   -1,136
1057,239; 1615,990;   -1,727;   -0,682
1057,783; 1659,081;    0,818;   -1,500
1058,327; 1678,081;    0,000;    1,409
1058,871; 1895,081;   -0,545;    1,318
1059,415; 1620,081;   -0,818;   -0,045
1059,958; 1910,990;    1,455;    2,591
1060,502; 1601,717;   -1,000;   -0,773
1061,046; 1459,444;    0,364;   -0,955
1061,589; 1419,626;   -3,000;   -1,136
1062,133; 1343,808;   -1,273;    1,864
1062,676; 1327,899;    1,182;    0,864
1063,220; 1359,899;    1,091;    0,500
1063,763; 1395,626;    0,909;    1,136
1064,306; 1470,535;   -0,909;    1,864
1064,849; 1374,535;   -0,909;    0,591
1065,393; 1378,717;    2,000;   -1,500
1065,936; 1457,354;    0,182;   -0,409
1066,479; 1316,808;   -1,455;    1,318
1067,022; 1340,444;   -0,273;   -0,227
1067,565; 1264,717;   -0,091;   -1,318
1068,108; 1262,535;    0,727;   -0,591
1068,651; 1224,808;   -0,636;    1,409
1069,194; 1188,444;   -0,455;   -1,682
1069,736; 1215,899;   -1,273;    0,955
1070,279; 1168,808;   -1,364;   -0,500
1070,822; 1269,990;   -2,000;   -0,318
1071,364; 1396,081;   -0,364;    1,318
1071,907; 1195,899;   -0,727;    3,227
1072,450; 1044,081;    0,000;   -0,045
1072,992; 1090,354;   -0,273;    3,136
1073,535; 1245,444;    2,091;    2,136
1074,077; 1044,626;   -0,727;    2,045
1074,619; 1031,626;   -1,364;    0,591
1075,161; 1076,899;   -1,091;    1,500
1075,704; 1258,899;    1,545;    1,227
1076,246; 1022,354;   -0,182;    0,682
1076,788;  941,717;   -0,364;    1,773
1077,330;  997,172;    1,273;    2,136
1077,872; 1006,535;    0,909;    0,955
1078,414; 1263,172;    2,727;    0,773
1078,956; 1008,899;    1,273;   -0,227
1079,498; 1271,263;    1,636;    0,318
1080,040;  977,444;    1,909;   -1,318
1080,581;  918,444;    1,636;   -0,318
1081,123;  841,444;    0,091;   -0,773
1081,665;  874,535;   -1,182;   -0,955
1082,206; 1196,444;    1,364;   -0,500
1082,748; 1061,808;    0,727;    2,045
1083,289;  907,808;   -2,000;    1,318
1083,831;  838,808;   -0,545;    0,227
1084,372;  900,626;    0,000;    0,591
1084,913;  910,444;    1,091;    0,864
1085,455;  847,535;   -1,909;   -2,045
1085,996;  842,899;   -2,273;    0,136
1086,537;  890,717;   -0,091;    0,864
1087,078;  895,444;   -0,909;   -2,136
1087,619;  949,444;   -1,273;    0,227
1088,160;  866,444;    0,000;    1,318
1088,701;  840,535;   -1,091;    0,682
1089,242;  791,172;    1,364;   -2,227
1089,783;  891,444;   -0,273;    1,409
1090,324;  872,535;    0,455;    0,682
1090,865;  749,444;    2,727;   -0,409
1091,405;  693,717;    0,727;    2,227
1091,946;  732,717;    0,182;   -0,955
1092,487;  657,081;    0,818;   -1,409
1093,027;  850,263;   -1,364;   -1,500
1093,568;  717,172;   -0,364;    1,227
1094,108;  818,354;    0,273;    1,773
1094,649;  739,808;   -1,182;    0,136
1095,189;  669,263;   -0,636;   -0,682
1095,729;  645,808;   -0,091;    0,955
1096,269;  638,808;    0,727;   -0,955
1096,810;  947,717;   -1,364;    0,500
1097,350;  791,717;    1,364;   -0,773
1097,890;  698,172;    0,364;    1,227
1098,430;  953,626;    2,364;    2,864
1098,970;  843,172;    2,182;    1,682
1099,510;  682,444;    0,545;   -2,318
1100,050;  623,717;    1,000;   -1,591
1100,589;  605,626;   -0,727;   -0,318
1101,129;  725,535;    0,818;   -0,955
1101,669;  878,535;    1,727;    2,136
1102,209;  708,899;   -0,091;    2,227
1102,748;  660,990;    0,000;    0,955
1103,288;  658,626;    1,273;   -1,227
1103,827;  676,172;    3,091;   -2,227
1104,367;  562,172;   -0,091;   -2,409
1104,906;  528,444;    1,364;   -1,136
1105,445;  607,717;    0,636;   -1,136
1105,985;  564,444;   -0,727;    1,500
1106,524;  607,081;   -1,727;   -0,682
1107,063;  585,899;   -2,727;    1,409
1107,602;  542,263;   -1,909;   -1,500
1108,141;  481,354;   -1,909;    1,500
1108,680;  590,899;   -3,455;   -0,591
1109,219;  525,717;   -0,909;   -0,500
1109,758;  517,626;    0,455;    0,682
1110,297;  505,172;    1,000;   -0,682
1110,836;  450,444;   -0,727;    0,955
1111,375;  607,535;   -2,545;    0,409
1111,913;  627,808;   -1,000;    0,773
1112,452;  555,808;   -0,273;    0,136
1112,991;  440,172;    1,091;    1,955
1113,529;  416,172;   -0,818;   -0,045
1114,068;  477,263;   -0,273;    2,955
1114,606;  393,990;   -0,364;   -0,955
1115,144;  553,626;   -1,273;    1,045
1115,683;  485,354;   -0,727;    0,318
1116,221;  537,717;   -0,455;   -0,864
1116,759;  452,354;    0,636;   -0,864
1117,297;  642,535;    0,000;    1,864
1117,836;  460,354;   -2,182;   -1,227
1118,374;  468,717;    0,182;   -0,682
1118,912;  424,081;    0,909;    2,682
1119,450;  406,081;    1,000;    0,864
1119,988;  447,354;    1,545;    2,136
1120,525;  898,172;    5,091;    3,318
1121,063;  603,990;    1,182;    1,864
1121,601;  424,808;   -0,909;   -1,227
1122,139;  381,444;   -0,727;   -2,045
1122,676;  577,717;   -0,727;    2,773
1123,214;  506,535;   -1,182;    4,409
1123,751;  333,263;    1,727;    2,227
1124,289;  452,626;   -0,091;   -0,409
1124,826;  337,535;    1,727;    0,227
1125,364;  264,444;    1,727;   -0,955
1125,901;  445,354;    1,182;    1,227
1126,438;  538,535;    0,818;    0,955
1126,975;  289,444;   -0,727;   -0,773
1127,513;  356,626;    0,273;    2,136
1128,050;  276,990;    1,636;   -0,682
1128,587;  371,172;    2,000;   -0,227
1129,124;  414,535;    0,091;    1,318
1129,661;  284,535;    0,273;    0,227
1130,198;  441,626;    1,636;    0,773
1130,734;  379,444;    0,182;    1,409
1131,271;  250,717;   -0,909;    0,864
1131,808;  420,081;    2,909;    3,045
1132,345;  309,354;    1,545;    0,318
1132,881;  181,626;   -1,545;   -1,864
1133,418;  319,899;    0,727;   -1,136
1133,954;  264,899;    2,455;   -2,682
1134,491;  329,808;    1,364;   -0,773
1135,027;  228,081;    2,364;    0,864
1135,564;  315,717;    0,273;    2,955
1136,100;  308,899;    0,364;    2,136
1136,636;  204,081;   -1,273;   -1,045
1137,172;  290,354;    0,000;   -1,045
1137,708;  222,354;   -1,364;   -1,045
1138,245;  224,717;    1,273;   -1,227
1138,781;  173,172;    1,091;   -3,318
1139,317;  241,626;    1,273;   -1,409
1139,852;  232,808;    3,091;    0,136
1140,388;  335,717;   -1,182;   -0,409
1140,924;  230,172;   -1,091;   -2,227
1141,460;  168,263;   -1,636;    0,136
1141,996;  114,899;   -1,364;    2,682
1142,531;  170,444;    1,364;    3,318
1143,067;  368,081;    1,182;    1,045
1143,602;  426,354;   -0,091;   -0,318
1144,138;  275,263;   -2,636;    1,045
1144,673;  146,808;   -1,455;    1,409
1145,209;  209,990;   -1,909;   -0,318
1145,744;  142,354;   -0,727;    0,864
1146,279;  266,172;    1,818;   -0,136
1146,815;  180,990;    1,545;   -2,682
1147,350;  226,626;   -1,364;    0,045
1147,885;  157,808;   -0,818;   -1,318
1148,420;  149,444;   -2,273;    0,773
1148,955;  134,263;   -1,727;    1,864
1149,490;  149,081;   -0,909;   -1,591
1150,025;  139,717;    0,455;   -1,773
1150,560;  246,354;    1,091;   -0,955
1151,094;  215,172;    1,455;   -0,591
1151,629;  225,263;    1,636;    0,864
1152,164;  152,990;    1,364;    1,318
1152,698;  114,717;   -0,182;   -0,136
1153,233;   77,172;    0,091;   -0,682
1153,767;  123,899;   -3,000;   -2,318
1154,302;  169,172;   -1,455;    1,773
1154,836;  163,899;   -0,455;   -2,136
1155,371;  214,354;   -1,364;    3,682
1155,905;  161,263;   -0,636;    1,682
1156,439;  137,263;   -0,636;   -0,500
1156,973;  168,263;    0,364;    0,318
1157,507;  104,354;   -0,364;    0,682
1158,042;  137,899;   -0,727;    1,045
1158,576;  180,354;    0,182;    1,773
1159,110;  170,626;   -0,818;    2,409
1159,643;  141,172;    0,636;   -0,045
1160,177;   88,899;   -1,545;    1,500

