
Integration time [ms]:   0,050
Averaging Nr. [scans]: 11
Smoothing Nr. [pixels]: 0
Data measured with spectrometer [name]: 7318044SP
Wave   ;Sample   ;Dark     ;Reference
[nm]   ;[counts] ;[counts] ;[counts] 

186,757;  -13,518;   38,161;    1,318
187,357;   32,042;   26,706;    0,955
187,958;    1,246;   17,252;   -1,591
188,558;   58,090;   12,979;   -1,227
189,159;   25,539;   10,070;   -4,500
189,759;    6,581;    5,797;   -3,591
190,360;   -0,066;    6,797;   -2,136
190,960;   43,385;    5,706;   -4,136
191,560;   60,389;    2,614;   -6,591
192,161;  294,248;    5,885;   -3,500
192,761;  137,880;    5,520;   -3,227
193,361;   89,554;    3,065;   -3,773
193,962;  141,699;    1,612;   -2,682
194,562;   72,741;   -0,114;   -3,955
195,162;  108,275;   -0,567;   -2,227
195,762;  270,423;    2,433;   -0,045
196,362;  220,412;    1,706;   -2,500
196,963;   91,507;    1,706;   -0,864
197,563;  152,104;    1,252;   -0,955
198,163;  103,728;   -0,111;   -0,682
198,763;  125,794;   -0,020;   -0,500
199,363;  227,984;    3,616;   -0,500
199,963;  200,166;    2,162;    0,409
200,563;  169,204;    6,344;   -1,409
201,163;  144,831;    5,435;   -0,227
201,763;  239,578;    1,435;    0,318
202,363;  185,125;    0,980;    1,500
202,963;  293,605;    1,526;    1,045
203,563;  406,211;    0,344;    0,500
204,162;  256,177;    1,889;   -1,864
204,762;  245,789;    2,071;    0,591
205,362;  214,512;    0,708;    1,955
205,962;  313,180;    3,435;    1,955
206,562;  326,964;    1,889;    2,318
207,161;  291,547;    1,708;    0,318
207,761;  443,090;    4,435;    2,409
208,361;  332,478;    1,889;    1,409
208,960;  427,509;    2,889;    1,500
209,560;  505,377;    0,435;    1,591
210,160;  481,178;    5,071;    1,864
210,759;  458,525;    0,708;    1,227
211,359;  449,318;   -0,474;    1,045
211,958;  726,675;    3,526;    2,045
212,558;  812,862;    0,799;    1,864
213,157;  653,774;   -0,929;    1,500
213,757; 1126,767;    5,617;   -0,227
214,356;  818,210;    1,708;   -0,409
214,956; 1156,217;    3,526;    0,409
215,555;  800,110;    0,617;    2,136
216,154;  715,782;   -0,292;   -0,591
216,754;  742,117;    1,253;    0,773
217,353;  892,056;   -0,383;   -1,045
217,952;  759,556;    2,072;    0,318
218,552;  971,116;    0,254;   -0,773
219,151;  896,231;   -1,110;    0,955
219,750;  909,117;    0,890;   -0,227
220,349; 1102,788;   -2,292;    1,045
220,948; 1123,533;    1,163;    1,136
221,548; 1194,485;    0,617;    1,227
222,147; 1315,722;   -1,292;   -0,409
222,746; 1624,036;    1,254;   -0,955
223,345; 1512,016;   -1,019;    0,500
223,944; 1536,892;    1,163;    0,773
224,543; 1774,707;    4,072;   -1,409
225,142; 1888,447;    1,345;    0,136
225,741; 1802,048;    1,163;    1,045
226,340; 1837,154;    1,254;   -0,955
226,939; 2328,784;    2,708;   -0,136
227,538; 2398,404;    1,163;   -0,773
228,137; 2522,362;    0,435;    0,864
228,735; 2760,894;    0,435;    1,227
229,334; 2466,502;   -0,474;   -0,227
229,933; 2865,236;    0,799;    0,591
230,532; 3013,429;   -1,201;   -0,409
231,131; 3081,351;    1,253;    0,318
231,729; 3284,347;    1,163;   -2,318
232,328; 3513,724;    0,435;   -1,500
232,927; 3645,230;    4,526;   -0,500
233,525; 3795,226;    0,981;    0,045
234,124; 4060,394;    1,890;   -1,591
234,723; 4156,054;    1,617;   -1,045
235,321; 4341,155;    1,163;    0,136
235,920; 4630,634;    2,526;   -1,227
236,518; 4948,736;    1,072;    0,318
237,117; 5229,100;    2,890;   -0,227
237,715; 5450,481;    1,163;   -0,500
238,314; 5503,836;    1,708;   -2,318
238,912; 5586,234;    0,526;   -1,409
239,510; 5689,632;    1,162;   -1,227
240,109; 5913,242;   -0,474;    3,773
240,707; 6005,642;   -0,474;    1,227
241,305; 6503,231;   -0,383;    0,136
241,904; 6729,049;   -0,292;   -2,045
242,502; 6682,910;    3,253;   -0,227
243,100; 6678,270;    3,344;   -0,955
243,698; 6988,378;    2,799;    1,682
244,297; 7184,879;   -0,656;    0,682
244,895; 7007,309;   -0,474;   -2,318
245,493; 7419,507;    2,981;   -0,591
246,091; 7538,597;    5,163;   -1,318
246,689; 7494,673;    2,163;    0,591
247,287; 7718,715;   -0,019;   -1,136
247,885; 8113,454;   -1,019;    1,227
248,483; 8263,211;   -0,201;   -0,500
249,081; 8399,871;    0,981;    1,591
249,679; 8585,031;   -1,019;    1,682
250,277; 8902,536;   -2,292;    0,864
250,875; 8879,648;    0,617;   -1,045
251,473; 8953,877;   -0,019;    0,500
252,071; 9161,938;   -0,383;    1,045
252,669; 9380,892;   -1,565;    0,318
253,267; 9693,012;    1,618;    0,773
253,864; 9693,079;    0,617;    0,682
254,462; 9496,411;    1,526;    1,591
255,060; 9558,068;    0,072;    1,318
255,658; 9968,256;   -3,292;   -0,136
256,255;10430,519;   -0,201;   -2,045
256,853;10288,090;    2,345;    1,409
257,451;10311,024;    1,981;    1,864
258,048;10534,589;    2,072;    1,864
258,646;10330,397;    0,436;   -1,045
259,243;10543,545;    2,981;    2,227
259,841;10626,599;    1,799;    0,318
260,438;10496,070;    0,254;    0,864
261,036;11371,747;    0,617;    1,409
261,633;11334,466;    1,526;    2,227
262,231;11058,521;   -0,110;   -0,045
262,828;11132,102;   -0,383;    1,136
263,425;11178,288;   -1,928;   -0,591
264,023;11496,613;    1,436;    0,045
264,620;11007,096;    1,526;   -0,318
265,217;11419,179;    2,890;    3,136
265,815;11544,206;    2,527;    2,136
266,412;11272,935;    0,072;    0,136
267,009;11348,282;    0,526;    0,773
267,606;11207,034;    0,345;   -0,955
268,203;11212,384;   -0,383;   -0,591
268,801;11587,368;   -0,474;    0,591
269,398;11937,623;   -0,564;    2,500
269,995;11942,011;    0,890;    1,591
270,592;11665,446;    0,799;   -0,500
271,189;11955,203;    1,981;    0,409
271,786;12073,428;    2,072;    1,227
272,383;11850,593;   -0,383;    0,227
272,980;12108,912;    1,617;    0,318
273,577;12663,275;    2,162;    1,227
274,174;12198,549;    1,435;    2,591
274,771;12208,438;    1,890;   -0,773
275,367;12318,897;    3,253;    1,409
275,964;12258,411;   -0,565;   -0,500
276,561;12433,662;   -2,474;   -1,045
277,158;12711,031;    1,799;   -1,773
277,755;12837,599;   -0,110;    0,409
278,351;12127,019;    0,436;   -1,500
278,948;12511,549;   -0,201;    0,045
279,545;12573,323;    0,527;    2,318
280,141;13280,967;    1,254;   -2,045
280,738;13153,773;    2,435;   -0,136
281,334;13442,350;   -0,383;    0,591
281,931;12753,239;    2,890;   -1,318
282,528;12903,021;    4,072;   -0,500
283,124;13734,230;    3,345;   -0,500
283,721;13643,091;    0,709;    1,409
284,317;13436,869;    0,163;    2,500
284,913;13992,357;   -0,110;    0,591
285,510;14261,994;    2,890;   -0,318
286,106;14347,046;    2,345;   -0,955
286,703;13907,562;    0,072;    1,955
287,299;14097,781;    1,254;   -0,591
287,895;14422,040;    0,890;   -1,045
288,491;15098,077;    0,163;    2,136
289,088;14773,170;    0,163;    2,409
289,684;14830,256;    2,890;    1,500
290,280;14838,561;    1,890;    0,682
290,876;14945,683;    0,163;    5,500
291,472;14868,248;    2,163;    2,227
292,068;14910,984;    1,254;    0,227
292,665;14630,781;   -0,564;    0,773
293,261;14144,141;   -1,292;    2,136
293,857;14588,532;    4,072;    2,136
294,453;14582,859;   -0,928;    0,955
295,049;14431,419;    0,253;    1,955
295,644;14415,600;   -1,292;    0,136
296,240;14298,051;    0,162;   -0,136
296,836;14428,556;   -0,747;    0,318
297,432;14725,698;    2,980;   -0,500
298,028;14741,041;    0,435;    0,773
298,624;15231,689;    0,889;    1,864
299,220;15594,981;    0,435;    0,591
299,815;15224,222;    0,526;   -0,409
300,411;14955,146;    0,435;    1,773
301,007;14995,998;    1,889;    0,227
301,602;15116,004;    2,071;   -2,318
302,198;15219,220;    1,435;   -0,773
302,794;15633,812;    1,526;   -0,500
303,389;15879,218;    1,071;    1,045
303,985;15885,135;    1,253;    1,409
304,580;15816,071;    0,889;    1,591
305,176;15809,202;    0,344;    0,136
305,771;15795,820;   -0,929;   -1,227
306,367;15529,520;    3,071;    0,136
306,962;15997,095;    2,889;    1,500
307,558;15724,115;    2,435;    0,136
308,153;15658,943;   -0,383;   -1,136
308,748;15927,459;    0,162;    1,682
309,344;15901,374;    0,253;   -1,318
309,939;15980,008;    2,071;   -1,318
310,534;16336,827;   -2,020;   -1,682
311,130;16317,544;   -0,656;   -2,500
311,725;16028,930;    0,526;   -0,500
312,320;16352,270;    1,253;    0,045
312,915;16168,023;    2,890;   -1,045
313,510;16223,434;    0,526;   -0,500
314,105;16832,055;   -3,565;    1,409
314,700;16193,533;   -1,656;   -1,045
315,295;15722,980;   -0,020;    0,045
315,890;15234,521;   -0,292;    0,864
316,485;15635,868;    0,253;   -0,318
317,080;15751,123;   -0,929;    1,591
317,675;16387,375;    3,071;   -0,682
318,270;15625,018;    6,889;    3,318
318,865;15689,368;    2,435;    3,045
319,460;15515,332;   -1,565;    0,591
320,055;15789,568;   -2,565;   -1,227
320,650;15447,462;   -1,838;   -0,591
321,244;15507,003;    0,889;   -1,409
321,839;16543,666;    0,980;   -0,227
322,434;16415,724;   -0,111;   -1,591
323,029;16002,215;   -0,474;    1,591
323,623;15814,278;    0,798;    0,773
324,218;15533,116;    2,707;    1,409
324,812;15432,281;    0,889;    1,591
325,407;15242,150;   -0,929;    2,045
326,002;15130,053;    0,526;   -0,409
326,596;15479,945;   -0,656;    1,318
327,191;15733,164;   -0,383;   -1,045
327,785;15245,217;   -0,747;   -0,227
328,379;15525,381;   -0,383;    0,136
328,974;15319,779;    1,798;   -3,955
329,568;15508,057;    2,889;   -2,409
330,163;15322,733;    2,435;    1,045
330,757;15728,603;    0,253;    1,591
331,351;15028,663;   -0,292;    0,682
331,945;15289,980;   -0,383;    1,409
332,540;14792,859;    1,617;   -0,591
333,134;14952,142;    3,344;    0,773
333,728;15220,915;    2,799;    0,318
334,322;15575,205;    0,889;   -0,864
334,916;14853,808;    0,344;    0,955
335,510;15178,670;   -0,111;   -0,136
336,105;15429,255;   -0,929;    1,591
336,699;15114,447;   -1,292;    0,591
337,293;15009,563;    1,071;    0,318
337,887;15221,214;    0,071;    1,955
338,481;15232,971;    2,980;    0,591
339,074;15395,340;    2,071;    2,682
339,668;15205,688;   -0,110;    1,227
340,262;15489,736;    7,708;    3,227
340,856;14935,461;    1,708;   -0,682
341,450;14217,645;    0,708;    1,864
342,044;15223,927;    1,799;    0,136
342,637;14965,242;    1,162;   -2,136
343,231;14818,276;   -1,474;    0,682
343,825;14745,433;   -0,747;   -0,591
344,419;14682,156;   -0,474;    0,500
345,012;14371,608;    2,889;    4,045
345,606;14362,670;   -0,656;    1,591
346,199;14185,065;   -0,111;   -0,227
346,793;13626,686;    2,525;    2,045
347,386;13833,959;    0,889;   -1,136
347,980;13852,460;   -0,838;   -0,045
348,573;13600,652;   -1,748;    0,409
349,167;13144,179;    6,161;    4,773
349,760;13545,424;    2,252;    2,682
350,354;13545,699;    1,616;    1,136
350,947;13217,942;    2,798;    1,682
351,540;12845,222;    0,616;   -1,409
352,134;12791,914;   -1,111;    1,136
352,727;12844,934;   -0,657;    1,136
353,320;12617,565;    2,343;    0,591
353,913;12486,231;   -1,929;    1,864
354,507;12625,666;    0,434;   -1,227
355,100;12639,308;    0,071;    0,864
355,693;11698,963;    4,798;    2,409
356,286;11727,445;    0,980;    2,773
356,879;12169,816;   -0,475;    1,227
357,472;11688,167;    0,980;    1,500
358,065;11907,631;    3,161;    2,500
358,658;11841,529;    0,798;    2,318
359,251;11388,376;    0,252;   -0,591
359,844;10757,225;    0,343;   -1,136
360,437;10928,574;    0,252;    0,045
361,030;11308,704;    0,525;   -0,682
361,623;10810,355;    0,434;    0,318
362,215;10830,987;    0,979;    2,045
362,808;10647,800;   -2,293;   -1,682
363,401;10848,206;    0,798;    0,136
363,994;10495,861;    3,252;   -1,500
364,586;10439,938;    0,888;   -1,500
365,179;10654,081;   -0,203;   -1,136
365,772;10071,923;   -0,930;    2,045
366,364;10416,258;    1,524;   -3,227
366,957;10634,149;    1,342;   -0,045
367,549;10666,013;   -0,203;   -0,864
368,142;10245,112;    0,978;   -1,500
368,734;10472,072;    2,523;   -2,136
369,327;10427,893;    2,341;   -0,500
369,919;10327,479;   -1,659;    0,409
370,512;10030,467;   -1,023;   -0,500
371,104; 9735,390;    2,704;    1,591
371,696; 9924,338;    1,703;   -0,955
372,289;10068,315;    0,157;    1,136
372,881;10235,763;    1,156;    1,318
373,473;10157,167;    4,064;    1,136
374,066; 9888,509;    1,336;    0,500
374,658; 9725,083;    0,879;    1,136
375,250;10153,722;   -1,668;   -1,409
375,842; 9960,131;   -0,124;   -0,045
376,434; 9817,517;   -2,762;   -0,409
377,026;10475,914;   -1,855;   -2,500
377,618;10354,502;    0,779;   -0,682
378,210;10212,230;    3,141;   -1,955
378,802;10047,751;    3,412;   -0,591
379,394; 9934,740;    3,411;    0,682
379,986;10665,219;    1,138;   -0,955
380,578;10799,695;    1,410;    0,773
381,170; 9966,474;    0,320;    0,045
381,762; 9943,037;   -0,224;    1,409
382,354;10220,718;   -0,223;   -1,318
382,945;10354,203;    0,870;    0,318
383,537;10506,030;    1,144;   -1,955
384,129;10518,517;    0,963;   -1,136
384,721;10744,384;    0,418;    0,955
385,312;10668,701;   -1,399;   -0,955
385,904;10724,966;   -0,945;    1,591
386,496;10037,937;    0,691;    1,045
387,087;10181,614;    0,418;    2,500
387,679;10255,474;   -0,401;    0,045
388,270;10385,602;   -2,401;    2,045
388,862;10506,046;   -0,401;   -0,318
389,453;10417,540;    1,054;    1,045
390,045;10708,505;    3,236;   -2,682
390,636;10662,359;    0,144;   -0,591
391,227;10508,206;    2,054;   -0,045
391,819;10576,721;    0,781;    0,773
392,410;10671,482;    0,600;    0,045
393,001;10580,527;    1,600;   -1,591
393,593;10918,685;    0,600;   -0,045
394,184;10717,828;    0,873;   -0,409
394,775;10674,969;    1,146;    2,136
395,366;10897,149;    1,782;    0,773
395,957;10941,727;   -2,400;    0,136
396,548;11317,097;    1,054;    2,682
397,139;11653,983;    2,236;    0,591
397,730;11322,267;    0,873;    0,955
398,321;11387,972;    0,509;    0,955
398,912;11416,757;   -0,764;    0,136
399,503;11526,218;   -1,945;   -1,409
400,094;10886,481;   -1,582;    1,682
400,685;10746,950;    3,600;    0,045
401,276;10840,200;   -0,400;   -0,955
401,867;11180,743;   -1,127;    0,773
402,458;11322,136;    1,509;   -2,318
403,048;11309,297;    0,146;    0,591
403,639;10849,038;    1,509;    0,864
404,230;11063,452;    0,691;    0,318
404,821;10987,400;   -0,127;    0,045
405,411;11104,510;   -0,763;   -2,591
406,002;10636,179;    3,237;   -1,136
406,592;10437,444;    2,691;    0,045
407,183;10783,221;    0,328;   -1,500
407,774;10682,728;    1,419;   -0,136
408,364;11080,292;    2,600;    0,409
408,954;10641,687;   -0,036;    1,227
409,545;10685,826;    1,873;    1,045
410,135;10128,042;   -1,581;    0,500
410,726;10333,244;    0,783;    0,318
411,316;10764,242;    2,237;    0,773
411,906;10393,135;    0,146;   -0,409
412,497; 9791,916;   -0,490;   -0,045
413,087;10507,560;    0,783;   -0,227
413,677;10960,460;   -2,490;    3,864
414,267;10768,096;   -1,035;    1,409
414,857;10781,181;    0,419;    4,227
415,448;11116,485;   -0,763;    0,500
416,038;10741,591;   -2,945;   -0,591
416,628;10723,963;    0,965;    0,409
417,218;10072,855;   -1,762;    3,318
417,808;10358,940;    0,965;   -0,409
418,398;10951,807;   -1,035;    2,682
418,988;10997,571;   -2,217;    0,591
419,578;11277,965;    3,601;    1,409
420,168;11703,255;    0,692;   -0,955
420,757;11163,520;    0,964;   -1,500
421,347;10810,702;    1,601;   -0,227
421,937;11028,967;    3,329;    1,409
422,527;10895,698;    2,602;   -0,773
423,116;10679,192;    2,692;   -0,045
423,706;11182,433;    2,965;    0,318
424,296;11124,950;    1,601;    0,682
424,885;11604,495;    1,510;   -3,045
425,475;11926,527;    1,147;   -2,864
426,065;11844,988;   -1,489;   -0,318
426,654;11428,460;    0,329;   -0,318
427,244;11524,528;    1,147;    1,409
427,833;10883,519;    1,056;   -0,500
428,423;11460,086;    0,147;    1,136
429,012;12381,198;    2,420;   -1,136
429,601;11779,068;    2,057;    0,136
430,191;12001,006;    2,511;    4,318
430,780;11586,534;   -1,671;   -0,409
431,369;11477,446;    1,329;   -0,045
431,959;12224,734;    1,693;    0,500
432,548;12018,994;   -1,398;   -0,045
433,137;12198,528;    0,329;   -1,318
433,726;12733,036;    0,148;    0,500
434,315;12044,402;    0,148;    2,409
434,905;12151,006;    0,693;    1,409
435,494;12029,666;    3,148;    0,955
436,083;12548,982;    1,420;   -0,955
436,672;12381,971;    1,148;    0,500
437,261;11881,067;    0,512;   -1,955
437,850;11966,162;   -1,125;    0,682
438,439;11954,017;    2,239;    1,955
439,027;11747,222;    3,421;    1,773
439,616;12199,542;    2,239;    1,227
440,205;12088,054;    0,057;   -2,136
440,794;12182,976;   -0,306;   -0,045
441,383;12484,570;    1,603;   -0,591
441,971;12343,877;   -0,306;    0,591
442,560;12186,253;    0,603;   -1,773
443,149;11958,937;    3,060;   -1,318
443,737;12079,006;    0,968;   -2,318
444,326;12359,296;    0,331;    0,318
444,915;12441,169;   -1,851;    0,864
445,503;12897,194;    0,058;   -0,318
446,092;12067,035;    7,876;    2,136
446,680;12687,976;    1,876;    0,318
447,269;12913,887;   -1,487;   -0,318
447,857;12624,172;    2,240;   -1,773
448,445;12742,397;    2,149;    1,318
449,034;13009,347;    0,876;   -1,136
449,622;13158,998;    1,240;    3,500
450,210;12189,519;    3,149;    2,227
450,799;12769,345;    2,604;   -0,591
451,387;12766,767;    1,786;   -0,591
451,975;12366,338;   -1,305;    0,864
452,563;12419,501;    0,422;    2,318
453,151;12491,459;   -1,032;   -1,227
453,739;12391,735;   -1,577;    0,136
454,328;12177,333;    0,604;   -2,136
454,916;11857,323;    1,150;   -0,136
455,504;12041,690;    3,513;    1,227
456,092;12301,086;    2,150;   -1,591
456,679;12271,639;    0,604;    0,682
457,267;12078,923;    3,604;    1,045
457,855;12339,695;    3,241;    1,409
458,443;12137,764;   -0,304;    1,682
459,031;12221,914;    1,332;    2,409
459,619;12766,785;   -3,577;    2,864
460,206;12942,857;   -0,759;    2,045
460,794;12969,546;   -0,668;   -0,227
461,382;13300,554;    0,878;   -0,864
461,970;12813,211;    0,605;    1,864
462,557;12873,308;    0,878;   -0,682
463,145;13105,299;   -0,304;   -1,682
463,732;13271,845;    2,514;   -1,045
464,320;13204,494;    1,514;   -3,045
464,907;12783,604;    0,423;   -0,773
465,495;12662,161;    2,696;   -1,227
466,082;12821,850;    2,060;   -0,045
466,670;12740,362;    2,605;    1,227
467,257;13144,504;    0,060;    2,045
467,844;13336,758;    1,514;    0,045
468,432;13367,395;   -0,031;    3,500
469,019;12780,031;    1,606;   -1,773
469,606;13319,860;    0,969;    3,682
470,193;13123,610;    2,151;    0,227
470,780;12588,798;    0,333;    0,864
471,368;12967,726;   -1,212;   -0,773
471,955;12720,961;    1,060;   -0,682
472,542;12332,003;   -0,303;   -1,136
473,129;12605,648;   -0,485;    0,136
473,716;12300,059;    0,060;    0,591
474,303;12526,996;    1,333;   -0,864
474,890;12864,791;    2,333;   -0,500
475,477;12852,487;   -0,576;    0,409
476,064;12754,445;    0,697;   -1,591
476,650;12697,984;    2,152;    0,318
477,237;12527,711;    1,879;    0,955
477,824;12706,468;    3,879;    0,864
478,411;12790,047;    0,606;   -0,318
478,997;13013,465;    0,606;   -0,773
479,584;13103,130;   -0,666;   -0,409
480,171;13867,596;    1,243;   -0,773
480,757;13522,924;   -0,848;    0,773
481,344;13842,044;    0,334;    0,409
481,931;13330,343;   -0,393;    1,045
482,517;14442,586;    0,425;    0,318
483,104;15189,004;    1,334;    2,864
483,690;15630,501;    0,243;    0,045
484,276;16081,031;    0,698;    0,227
484,863;15797,392;    2,152;    1,136
485,449;16501,924;    0,152;    0,318
486,035;16512,379;   -0,666;   -0,136
486,622;17001,081;   -2,393;    0,045
487,208;16930,972;    1,334;    1,500
487,794;16775,459;    0,971;    0,318
488,380;16870,118;    0,698;   -1,409
488,967;16929,946;   -1,120;   -0,409
489,553;16985,754;   -1,029;   -1,409
490,139;17162,656;    0,971;    0,773
490,725;16563,000;    0,789;   -0,227
491,311;15992,530;    1,516;    3,045
491,897;15136,664;   -0,665;    1,500
492,483;14816,631;    0,426;    1,227
493,069;14464,867;    5,426;    0,864
493,655;14485,536;    1,789;    0,682
494,241;14412,794;    1,517;   -0,955
494,826;14843,012;    0,335;   -1,045
495,412;14262,320;    0,335;   -0,682
495,998;14414,591;    0,971;   -0,318
496,584;14616,168;    2,244;    1,045
497,169;14620,926;    2,335;   -0,682
497,755;14545,040;    1,244;    1,227
498,341;15094,185;    2,153;    0,318
498,926;14655,014;    2,881;    1,955
499,512;14914,264;   -0,028;    2,955
500,097;15054,689;   -0,574;   -0,318
500,683;14965,609;   -0,028;    2,136
501,268;15402,855;    1,881;   -0,955
501,854;15081,081;   -0,119;    1,227
502,439;15034,207;   -0,573;   -1,773
503,024;15215,887;    1,608;    0,500
503,610;15253,425;    1,335;   -0,682
504,195;15346,344;    1,245;    1,955
504,780;15432,002;    2,335;    1,227
505,366;15218,462;    4,063;    2,864
505,951;14930,618;   -1,119;    1,045
506,536;14968,023;    1,427;   -3,682
507,121;14927,069;    1,699;   -0,318
507,706;15471,748;   -0,392;    1,045
508,291;15929,724;   -2,937;    1,136
508,876;15350,905;   -0,482;    2,591
509,461;14755,697;    1,427;   -0,773
510,046;15230,948;   -0,391;    0,318
510,631;15468,524;   -0,119;   -0,773
511,216;15113,506;   -0,664;   -0,500
511,801;15522,667;   -0,755;    2,591
512,386;15846,330;    0,972;    0,500
512,971;15772,092;    0,427;    0,955
513,555;15255,332;    1,154;   -1,500
514,140;16150,467;    1,336;   -3,136
514,725;16201,160;    1,791;   -1,136
515,309;16325,166;    1,064;    0,318
515,894;15670,207;   -0,300;   -2,227
516,479;16150,349;    1,973;   -0,955
517,063;15994,858;    0,882;    1,227
517,648;16152,097;    0,155;   -1,136
518,232;15772,102;   -1,300;   -1,409
518,817;16119,731;    1,337;    1,682
519,401;16336,975;    0,700;    0,591
519,985;15804,224;    2,700;    1,136
520,570;15679,243;   -0,118;   -1,955
521,154;15987,043;    0,064;    0,591
521,738;16194,896;    1,064;    2,409
522,323;16839,958;   -0,390;    1,682
522,907;16520,000;    2,428;   -0,136
523,491;16259,134;    1,155;    0,955
524,075;16211,218;    0,428;    0,591
524,659;16312,830;    0,973;    0,591
525,243;15679,194;    0,883;    0,409
525,827;15959,925;    0,883;   -0,045
526,411;16903,102;    1,155;   -0,136
526,995;17134,846;    0,337;    1,409
527,579;16768,827;    1,974;   -1,045
528,163;17068,362;    0,428;   -1,500
528,747;16963,837;    1,065;   -0,773
529,331;17280,710;    0,883;   -1,409
529,915;17488,790;    2,338;    0,955
530,499;17490,482;    0,247;    1,227
531,082;17152,617;    1,065;    1,591
531,666;16541,586;    0,520;    0,773
532,250;17355,194;    0,428;    2,682
532,833;17688,389;    0,610;    2,773
533,417;17549,543;    1,247;    0,864
534,001;17509,121;    0,429;   -0,318
534,584;18278,728;    1,974;    0,500
535,168;18106,972;    3,247;    1,409
535,751;18171,817;    4,520;    0,045
536,334;17584,854;    4,520;   -0,409
536,918;18251,574;    1,974;    1,591
537,501;18372,955;    1,520;    1,318
538,085;18321,418;    1,702;    1,045
538,668;18528,411;    0,883;    2,409
539,251;18893,496;    3,156;    3,773
539,834;18912,348;    0,156;    0,773
540,418;18789,599;    3,247;    4,318
541,001;18987,996;    2,702;    1,773
541,584;19029,812;    1,429;    2,227
542,167;18673,237;    0,702;    2,955
542,750;18853,309;    0,793;   -0,773
543,333;18429,471;    1,429;    2,136
543,916;19285,466;   -0,298;    2,500
544,499;19918,936;    2,520;    0,227
545,082;19953,308;    0,248;    3,591
545,665;20117,956;   -0,207;    1,500
546,248;20522,834;    0,520;   -0,318
546,830;20148,456;   -1,752;    1,955
547,413;20576,111;    0,157;   -0,773
547,996;21163,625;    0,157;    0,500
548,579;20972,286;   -0,843;    0,955
549,161;20729,930;    0,884;    2,682
549,744;20472,774;    0,612;    0,409
550,326;21088,893;    0,885;   -1,136
550,909;20815,330;    2,339;    0,591
551,492;21207,989;    0,521;    0,227
552,074;20955,206;   -0,024;   -1,318
552,657;21588,822;    2,430;    0,045
553,239;21357,620;   -3,024;   -0,773
553,821;21293,063;   -1,570;    1,045
554,404;20751,227;   -0,024;    1,136
554,986;21161,398;    2,248;    1,045
555,568;21759,014;    0,430;   -0,955
556,151;20935,553;    4,067;   -0,227
556,733;21179,872;   -1,388;   -0,864
557,315;21665,145;    4,703;    0,500
557,897;21498,326;    0,521;   -0,500
558,479;21635,208;    1,703;    1,318
559,061;21705,271;    1,067;   -0,864
559,643;22109,673;   -0,297;    0,045
560,225;22494,658;   -0,388;    2,864
560,807;22555,401;    0,340;    0,318
561,389;22020,542;   -1,206;    2,318
561,971;22832,083;   -0,660;    2,136
562,553;22625,320;    0,613;    1,591
563,135;22765,313;    1,249;    1,136
563,717;22358,900;    3,158;    1,136
564,298;23159,895;    3,976;   -0,045
564,880;22863,563;    0,340;   -1,409
565,462;23076,200;    1,977;    1,318
566,043;24345,765;   -0,933;    2,318
566,625;23858,023;    4,067;    1,227
567,207;23739,371;    0,704;    1,682
567,788;24996,896;   -0,114;    1,500
568,370;25980,399;   -1,841;   -0,500
568,951;25806,234;   -0,569;    0,227
569,533;26826,416;    0,977;   -0,500
570,114;27433,564;   -0,296;    0,682
570,695;28023,847;   -0,478;   -1,318
571,277;28694,108;   -0,205;   -1,682
571,858;29553,910;    2,704;   -1,136
572,439;30588,781;    0,795;   -1,045
573,021;30801,752;    0,432;   -2,773
573,602;31405,931;    1,795;    0,318
574,183;32464,444;   -0,114;    2,227
574,764;32799,094;    2,068;    0,409
575,345;33418,341;    0,250;   -0,136
575,926;34127,895;    2,704;    0,136
576,507;34165,371;    2,704;   -0,227
577,088;35285,609;    1,704;    1,682
577,669;35371,844;    1,704;    1,955
578,250;36226,717;   -0,750;   -1,045
578,831;37069,166;   -0,841;   -2,227
579,412;37407,292;   -1,205;    0,955
579,993;38383,572;    1,432;    0,227
580,573;38710,622;   -0,023;   -0,955
581,154;37576,166;    1,613;   -0,591
581,735;38511,522;    0,341;    0,773
582,315;38043,431;    0,523;    2,136
582,896;38367,185;   -1,750;    1,227
583,477;37846,981;    0,614;    1,227
584,057;37984,810;    1,159;    0,955
584,638;38237,572;   -2,750;    2,318
585,218;38231,509;    2,886;    2,682
585,799;38396,157;    1,977;   -0,227
586,379;38423,518;    1,250;    1,591
586,959;37008,696;    2,613;    0,318
587,540;36191,836;    0,432;    2,227
588,120;35576,270;   -1,113;   -0,045
588,700;34350,250;    2,977;    2,136
589,281;34649,370;    1,250;   -0,955
589,861;34582,127;   -0,296;   -1,682
590,441;34448,216;   -1,477;   -2,682
591,021;33281,376;    1,432;   -2,591
591,601;33505,544;    0,431;    0,500
592,181;33385,613;   -1,296;   -0,773
592,761;32625,168;    2,250;    1,409
593,341;32536,738;    1,522;    0,045
593,921;32478,665;   -0,569;    1,591
594,501;32295,004;    1,250;    1,318
595,081;32172,398;    0,522;   -0,318
595,661;32521,156;    1,068;    0,955
596,240;33026,125;   -1,023;    0,136
596,820;32661,162;    2,613;    1,955
597,400;33005,512;    1,977;    0,773
597,980;33200,228;   -0,750;    1,045
598,559;33198,106;    0,341;   -0,227
599,139;32842,010;   -0,750;   -1,227
599,718;32745,919;    0,795;   -0,409
600,298;32981,687;   -2,387;    0,682
600,877;33196,089;    4,795;    1,409
601,457;33483,944;    0,340;    1,136
602,036;33416,439;    1,795;    2,045
602,616;33672,123;    2,250;    1,682
603,195;33975,294;    0,431;    3,500
603,774;33501,617;   -0,296;    2,045
604,354;33434,428;    2,522;   -0,500
604,933;32832,956;    0,250;    1,864
605,512;32906,981;    2,340;    0,591
606,091;32967,704;    1,886;    3,773
606,671;33790,742;    0,249;    0,773
607,250;32779,497;    1,431;    3,136
607,829;33071,897;    1,158;    3,227
608,408;32930,368;    4,613;    2,591
608,987;31866,109;    2,704;    3,409
609,566;32223,171;    0,341;   -2,500
610,145;32224,858;    2,885;    0,682
610,723;32657,950;    1,613;    6,864
611,302;31832,708;    1,067;    1,682
611,881;31273,549;    5,158;   11,227
612,460;32133,102;    0,795;    3,955
613,039;32626,762;    1,703;    2,045
613,617;31285,626;    0,886;    4,773
614,196;31485,046;    1,613;    1,227
614,775;31821,516;    1,249;    2,409
615,353;31739,416;   -1,660;    0,864
615,932;31364,242;    0,249;    2,409
616,510;32027,502;    0,158;    0,591
617,089;31456,522;    8,794;   17,591
617,667;31140,074;    4,885;    6,136
618,246;30952,938;   -1,115;    1,318
618,824;31123,506;    1,612;   -0,955
619,402;30693,702;    0,431;   -1,773
619,981;31185,426;    1,067;   -1,045
620,559;31047,717;    0,794;    1,682
621,137;30586,677;    3,067;    1,864
621,715;30490,587;    3,703;   -0,682
622,293;30402,446;    1,885;   -0,773
622,871;30866,327;    0,340;    0,500
623,450;30373,545;    0,430;   -0,864
624,028;30267,102;   -0,388;   -0,955
624,606;29860,344;    2,339;    1,682
625,183;30234,201;   -0,661;   -1,136
625,761;29856,095;    1,885;    1,136
626,339;30144,925;    2,339;    2,591
626,917;30539,797;    0,339;   -0,045
627,495;30576,238;    2,794;    1,318
628,073;30023,060;    5,248;    2,864
628,650;29675,366;    3,067;    2,136
629,228;30083,160;    1,248;    4,409
629,806;29434,122;   -0,024;    1,136
630,383;29655,663;    0,066;   -0,318
630,961;29415,066;   -2,206;   -0,955
631,539;29154,418;   -2,479;    0,227
632,116;28347,429;   12,703;   15,409
632,694;29044,600;    4,885;    6,500
633,271;29375,362;    1,975;    2,682
633,848;29198,288;    1,430;    2,045
634,426;29314,457;    1,521;    1,773
635,003;28379,456;   -0,207;   -0,409
635,580;28674,217;    1,884;    3,682
636,158;29218,580;    3,793;    1,227
636,735;29221,488;    3,339;   -0,500
637,312;29380,870;    0,521;   -0,682
637,889;29476,897;    2,248;   -0,682
638,466;28951,768;    0,066;   -0,409
639,043;28914,299;    1,702;   -1,136
639,620;29225,068;    0,611;   -0,955
640,197;29606,223;    1,612;    1,682
640,774;29724,213;    1,430;    1,136
641,351;30140,112;    0,612;    1,136
641,928;29486,283;    2,794;    1,409
642,505;29163,728;    0,794;   -0,500
643,082;29244,081;    1,885;    1,227
643,658;28178,617;    1,157;    1,500
644,235;28971,152;   -2,479;    2,500
644,812;29261,687;    1,794;    0,773
645,388;29017,859;    1,612;    1,409
645,965;29078,576;    1,521;    1,682
646,542;29140,475;    3,430;   -0,227
647,118;29145,374;    3,703;   -0,955
647,695;29501,636;    0,339;    1,136
648,271;29366,263;   -2,115;    0,500
648,848;29712,980;    0,248;    2,227
649,424;29541,424;    0,976;    1,318
650,000;29306,414;   -0,388;   -1,045
650,577;29108,859;    0,158;   -0,955
651,153;29627,030;   -1,115;    0,955
651,729;30677,747;    0,521;    0,864
652,305;30994,464;    1,339;    2,773
652,881;36217,454;   -1,297;    1,136
653,458;44453,899;    0,249;    0,227
654,034;49144,979;    0,703;    1,591
654,610;51021,697;    0,339;    0,773
655,186;52584,141;    1,612;    3,045
655,762;52363,767;   -1,842;    0,409
656,338;52430,484;    0,703;    0,136
656,913;53462,565;   -0,297;    0,409
657,489;52693,555;    0,249;   -0,318
658,065;52545,999;    0,794;   -1,591
658,641;53181,444;    2,158;   -0,864
659,217;52400,252;    2,067;    0,409
659,792;51819,333;   -1,751;   -0,409
660,368;52126,050;   -0,388;   -0,682
660,944;51622,221;    1,794;    1,227
661,519;46261,666;    0,522;    0,409
662,095;38921,656;   -0,206;    0,591
662,670;33257,464;   -0,206;   -0,136
663,246;31776,454;   -0,660;   -0,409
663,821;30908,171;    0,431;    1,682
664,396;30438,524;    0,613;    1,864
664,972;30617,241;   -0,660;   -0,500
665,547;31037,867;    3,794;    0,136
666,122;30992,039;    1,340;    0,318
666,698;31329,847;    2,431;    0,318
667,273;30626,928;    0,885;    0,136
667,848;31447,372;    0,340;    1,500
668,423;31231,544;    1,795;    2,318
668,998;31823,625;    0,976;   -0,682
669,573;32448,796;    2,067;   -1,500
670,148;32266,695;    1,885;   -0,682
670,723;32052,685;   -0,024;    0,318
671,298;32592,221;   -1,296;    1,045
671,873;32704,029;   -0,296;   -0,136
672,448;32645,837;    1,704;    0,136
673,023;32993,917;    0,249;   -0,227
673,597;33290,180;    2,704;    2,318
674,172;33038,170;    2,431;    0,318
674,747;32528,069;   -0,205;   -1,045
675,321;32417,877;   -0,933;    3,318
675,896;31944,048;    2,158;    1,045
676,471;32973,311;    2,522;    1,591
677,045;32756,846;   -0,296;    0,682
677,620;32788,745;    2,158;    1,136
678,194;33131,553;    0,249;    1,136
678,769;32608,725;    0,886;   -0,318
679,343;32827,897;   -0,023;    1,773
679,917;32706,341;    0,340;    1,955
680,492;32864,422;    0,249;    3,227
681,066;33080,775;    0,613;    0,409
681,640;33093,856;    1,795;   -0,318
682,214;33820,210;    2,340;    0,500
682,788;33311,018;    0,613;   -0,773
683,363;33285,735;    1,977;    1,682
683,937;33036,725;    0,886;   -0,318
684,511;33842,896;   -1,023;   -0,591
685,085;33551,068;   -1,478;    0,318
685,659;33254,512;    1,431;    0,864
686,232;33492,230;    1,159;   -0,318
686,806;33257,310;    2,159;    0,409
687,380;33932,391;   -1,932;    0,591
687,954;34202,654;    2,432;    1,136
688,528;33832,916;    2,613;    1,955
689,101;34613,179;    0,432;    1,045
689,675;34174,078;    0,886;   -0,136
690,249;33547,068;    3,432;    0,409
690,822;33838,785;    1,159;    0,318
691,396;33958,502;    2,068;    1,227
691,969;33425,310;    2,523;    0,136
692,543;33880,663;   -0,568;   -1,955
693,116;33471,108;   -0,659;   -1,409
693,690;33287,370;   -0,296;    0,500
694,263;33862,178;    2,341;    2,955
694,836;33919,532;    2,795;    3,591
695,410;32447,431;    1,159;    1,773
695,983;32945,966;    1,614;    0,591
696,556;32960,501;   -0,750;   -1,045
697,129;33410,219;   -1,114;    1,409
697,703;33032,663;    1,341;    1,955
698,276;32948,653;    1,705;   -0,773
698,849;32706,279;   -1,023;    1,409
699,422;33098,269;    1,250;    0,591
699,995;32764,895;   -0,659;    0,136
700,568;33316,703;   -0,204;    3,045
701,140;33344,329;   -1,841;    1,682
701,713;33005,319;    0,341;    2,409
702,286;32745,945;    0,796;    0,864
702,859;32685,935;    0,614;   -0,591
703,432;31757,925;   -0,841;    0,682
704,004;32256,279;    1,978;    0,318
704,577;32151,541;    1,068;    0,136
705,150;32732,167;    0,887;    2,500
705,722;32536,612;    1,523;   -3,227
706,295;32275,329;    1,432;   -0,591
706,867;32079,410;    0,250;    1,955
707,440;32326,581;   -0,113;   -0,409
708,012;32573,571;   -0,022;    0,591
708,584;32457,834;    2,705;    0,227
709,157;32810,551;    1,160;   -0,591
709,729;32432,086;    1,069;    2,045
710,301;33288,622;   -1,204;    0,045
710,874;33359,793;    0,341;   -0,227
711,446;32136,147;   -0,295;    0,864
712,018;32080,409;   -3,022;    0,500
712,590;31788,581;   -0,204;    1,682
713,162;32335,571;   -0,477;    1,318
713,734;32624,015;    1,796;   -2,045
714,306;32469,005;    0,342;   -0,409
714,878;31099,995;   -0,295;    0,864
715,450;31893,167;   -0,113;    0,864
716,022;32167,793;    2,433;    1,318
716,593;32362,510;    0,978;    0,591
717,165;32323,954;    1,796;   -1,227
717,737;31981,581;    0,796;    0,409
718,309;31649,116;    1,160;   -0,045
718,880;31559,469;   -1,295;   -1,409
719,452;31792,914;    0,887;   -1,591
720,024;31307,176;    1,705;   -0,591
720,595;31864,984;    2,978;    0,955
721,167;31399,520;    1,160;   -2,045
721,738;30895,237;    2,069;   -1,045
722,309;30810,318;    1,251;   -1,227
722,881;30606,671;    2,705;    0,773
723,452;31363,116;    1,251;    2,864
724,023;31548,833;    1,524;    2,682
724,595;31289,277;    2,342;    0,682
725,166;30999,994;    1,524;   -0,409
725,737;30592,348;    1,887;    0,227
726,308;30679,701;    0,797;    0,318
726,879;31162,600;    1,069;    1,227
727,450;31021,135;   -2,022;   -0,045
728,021;30984,943;    1,069;    0,682
728,592;30815,206;    1,160;    0,500
729,163;31104,560;    1,433;   -0,136
729,734;31113,277;    2,160;   -0,227
730,305;31453,812;    0,615;    0,136
730,876;31866,802;    0,888;    2,955
731,447;31529,519;    0,797;    2,682
732,017;31622,963;   -0,840;    1,864
732,588;31107,044;   -0,021;    1,227
733,159;31360,761;    3,615;   -1,045
733,729;31165,751;    1,251;    0,409
734,300;30432,105;    0,160;    0,864
734,870;30901,004;   -1,385;    0,591
735,441;31480,993;    0,888;   -0,591
736,011;31198,529;    1,070;   -1,591
736,582;31146,610;    1,251;    0,045
737,152;30580,327;    0,979;   -2,045
737,722;31044,680;    1,070;   -0,682
738,293;30786,943;   -2,021;    1,318
738,863;30556,660;    1,797;    2,318
739,433;30333,377;    4,524;    0,318
740,003;31029,730;    1,524;   -0,682
740,573;30389,720;    2,252;   -1,591
741,143;30325,256;    3,615;    0,318
741,713;31110,064;    0,252;   -0,500
742,283;30734,872;    1,706;    1,591
742,853;30475,680;    0,524;    1,591
743,423;29925,215;    0,161;    0,045
743,993;30037,841;    1,070;    1,500
744,563;29367,286;    2,524;   -0,864
745,133;29334,003;   -0,112;   -0,864
745,702;30066,447;    2,797;    1,773
746,272;29236,710;    0,434;    0,591
746,842;28966,791;   -0,748;   -0,591
747,411;29430,871;   -0,839;   -0,318
747,981;29652,770;   -0,930;    0,500
748,551;29727,669;   -0,021;   -1,045
749,120;29494,295;   -0,112;   -0,227
749,690;29906,103;    2,161;    2,409
750,259;30223,821;    0,979;    2,955
750,828;30147,447;    4,070;   -1,955
751,398;30445,528;   -0,112;   -0,045
751,967;29869,517;    2,888;    0,409
752,536;30136,598;    1,161;   -0,227
753,105;30569,224;   -1,384;    0,227
753,675;30376,032;   -0,112;    1,773
754,244;30335,204;    0,888;    3,591
754,813;30376,285;    0,979;    1,227
755,382;30015,184;    0,798;    0,955
755,951;30514,083;   -0,112;    3,682
756,520;30033,709;    2,525;    1,864
757,089;30654,517;    1,888;    0,500
757,658;30836,143;    2,434;    1,227
758,227;30823,588;   -1,111;    0,318
758,795;31183,941;   -1,021;    1,136
759,364;31421,204;    0,525;   -0,591
759,933;30364,830;    1,343;   -0,045
760,501;29858,183;    0,252;   -1,318
761,070;30302,991;   -0,293;   -1,409
761,639;31077,527;    1,434;    1,318
762,207;30345,789;    0,889;   -0,955
762,776;30258,143;    2,889;    0,864
763,344;30201,405;    0,071;    0,591
763,913;29313,941;    1,616;    1,409
764,481;30047,567;    1,980;   -0,136
765,049;29799,648;    0,616;    1,409
765,618;29680,274;    1,434;    0,318
766,186;29742,537;    2,434;    0,136
766,754;29912,254;    1,798;    1,864
767,322;28817,880;    1,162;    0,409
767,890;28899,233;    0,525;   -1,773
768,459;29288,678;    2,616;   -0,318
769,027;29457,486;    2,525;    3,409
769,595;28437,203;    2,616;    2,591
770,163;28857,647;    3,344;    2,955
770,730;28520,364;    2,525;   -0,136
771,298;28408,991;    1,162;   -1,409
771,866;28498,071;    0,253;    4,955
772,434;28828,698;    1,162;   -1,864
773,002;29007,960;    2,616;    0,682
773,569;28601,405;    1,071;    1,682
774,137;28423,122;    0,889;   -0,045
774,705;29280,293;   -0,747;   -0,136
775,272;28681,465;    0,253;    0,682
775,840;28415,819;   -0,111;    2,682
776,407;27905,445;   -0,293;    1,955
776,975;27468,344;    1,162;    0,318
777,542;28581,425;    2,162;   -0,045
778,110;28413,505;    0,707;   -0,045
778,677;28092,222;    1,071;   -0,864
779,244;27821,485;   -1,020;    1,045
779,812;27939,475;    0,980;    0,864
780,379;27731,737;    2,435;    1,136
780,946;28006,000;    2,617;   -0,773
781,513;28332,535;   -0,565;    0,318
782,080;27607,525;    1,253;    2,864
782,647;28362,515;    1,708;    3,045
783,214;27938,232;   -0,201;    3,864
783,781;27529,131;    1,708;   -0,682
784,348;27441,485;    0,253;    1,500
784,915;27912,384;   -1,474;    0,318
785,482;27654,828;    2,708;    2,591
786,049;28131,181;    1,071;   -0,591
786,615;28210,171;    1,708;   -0,955
787,182;27963,707;   -3,201;   -0,682
787,749;27664,969;   -2,201;    1,409
788,315;26935,505;    0,253;   -0,409
788,882;27268,222;    0,981;   -1,227
789,448;27951,121;    1,435;   -0,955
790,015;27960,747;    1,799;    3,227
790,581;27499,828;    0,708;    0,227
791,148;27337,181;    1,344;    1,045
791,714;27613,898;   -1,019;    3,136
792,280;27285,524;    3,708;    1,591
792,847;26789,060;   -0,928;    2,500
793,413;27396,959;   -0,110;   -0,318
793,979;26846,312;    1,526;   -1,318
794,545;26951,484;    2,981;    2,682
795,111;26307,474;    2,435;    1,318
795,678;26503,827;    3,526;   -1,682
796,244;26149,635;    2,799;    0,136
796,810;26711,534;    0,799;    0,773
797,375;26440,797;   -0,292;   -2,136
797,941;26486,877;   -1,110;    0,591
798,507;26576,049;    0,254;   -0,955
799,073;26089,494;    2,708;    0,591
799,639;26178,847;    1,435;    3,136
800,205;26216,746;   -1,565;    2,682
800,770;25725,009;    1,345;    1,773
801,336;25765,544;    2,981;   -0,955
801,901;25404,443;    6,072;    3,136
802,467;25972,978;    0,526;    2,045
803,033;25285,513;   -0,019;    0,864
803,598;25517,322;    1,072;   -1,045
804,163;25551,311;    0,708;   -0,318
804,729;25463,210;   -0,110;    1,136
805,294;25902,655;    1,072;    2,227
805,859;25711,190;    0,890;   -0,409
806,425;25170,362;    3,890;    2,682
806,990;24851,988;    1,890;    4,318
807,555;25378,250;   -0,110;    2,591
808,120;25271,059;   -1,292;   -0,409
808,685;25313,957;    1,072;   -2,500
809,250;24810,220;    2,072;   -0,500
809,815;25140,028;   -0,201;    0,682
810,380;25697,472;    0,981;    1,591
810,945;26237,281;    2,890;    2,045
811,510;25400,361;   -0,200;    1,591
812,075;25095,533;    2,800;   -1,409
812,640;25116,796;    3,709;    1,409
813,204;25133,876;    2,163;   -0,227
813,769;25649,775;    0,254;   -0,045
814,334;24985,220;    0,527;    0,864
814,898;25029,846;    1,981;    0,591
815,463;24859,927;    0,981;   -0,773
816,027;24849,553;    1,345;   -2,318
816,592;24926,906;    2,163;   -2,045
817,156;24380,442;   -2,200;    1,136
817,721;24128,068;    0,982;    2,318
818,285;24116,149;    0,618;    1,500
818,849;24807,684;   -0,018;    1,682
819,414;24704,583;    0,073;    2,955
819,978;24272,482;   -0,291;    1,773
820,542;24885,017;    2,891;    0,500
821,106;24601,189;    2,800;    0,682
821,670;24686,088;    2,709;    2,591
822,234;24357,987;    1,073;    1,409
822,798;23722,249;   -0,836;    0,500
823,362;23665,421;    1,527;    4,227
823,926;22939,865;   -0,018;    1,136
824,490;23163,673;    3,527;   -0,682
825,054;23653,663;    2,527;   -1,136
825,618;23214,744;   -1,200;   -1,500
826,181;23166,370;    0,982;   -1,318
826,745;23019,724;   -0,745;   -1,045
827,309;23404,895;    2,255;    1,318
827,872;22754,067;    0,527;    0,955
828,436;23833,330;    1,982;   -0,773
828,999;23893,501;    2,436;    1,227
829,563;22615,946;   -0,654;    1,136
830,126;22439,481;   -0,018;   -0,591
830,690;22443,835;    0,709;    2,864
831,253;21944,006;   -0,473;    2,227
831,816;22065,632;   -0,018;    0,500
832,380;21928,168;    1,164;    0,864
832,943;22172,430;    3,073;   -0,500
833,506;21663,329;    0,255;   -1,227
834,069;22432,319;    2,164;   -0,955
834,632;22492,945;   -2,200;    1,318
835,195;22366,026;    1,346;    0,955
835,758;21603,471;    0,709;    1,955
836,321;21397,642;    1,073;   -1,045
836,884;21479,723;   -1,291;   -0,955
837,447;21524,167;    0,528;    1,773
838,010;21780,975;    1,800;    3,227
838,573;22054,238;    0,528;    0,773
839,135;21997,864;   -0,109;   -0,955
839,698;21392,945;    2,528;    0,409
840,261;20930,571;    0,255;   -0,227
840,823;20755,288;   -0,927;    0,864
841,386;21054,005;   -0,018;   -2,409
841,948;20898,268;    0,255;    1,773
842,511;20605,076;    0,255;    1,682
843,073;20754,793;    2,982;    0,227
843,636;20585,783;    0,619;   -0,227
844,198;20491,318;    1,255;    0,591
844,760;20605,035;    0,619;    1,955
845,322;20230,934;    0,164;    1,136
845,885;20718,924;   -0,290;    0,591
846,447;21162,187;    0,710;    0,227
847,009;20668,540;    3,983;   -0,682
847,571;21035,167;    1,346;   -2,045
848,133;21124,338;   -0,199;   -1,864
848,695;20986,783;    2,346;    1,409
849,257;20508,500;    1,346;   -1,682
849,819;20663,308;    2,983;   -0,409
850,381;20726,752;    1,801;   -0,864
850,942;21157,288;    1,892;   -0,591
851,504;21052,186;    0,983;    0,227
852,066;21121,085;    1,619;   -1,591
852,628;20593,984;    0,165;    1,955
853,189;20144,701;    0,256;    2,682
853,751;20300,782;   -0,654;    1,409
854,312;20139,954;    1,256;   -1,682
854,874;20652,217;   -0,108;   -0,773
855,435;21141,388;    0,528;   -1,682
855,997;21312,378;    3,983;   -0,136
856,558;20520,550;    0,801;    1,773
857,119;20646,540;   -0,744;    2,864
857,681;20274,439;   -0,108;    0,318
858,242;20308,883;    1,347;   -2,136
858,803;20771,145;    1,074;   -0,773
859,364;21362,317;    0,892;   -4,773
859,925;20695,580;   -0,290;   -0,955
860,486;20582,297;    0,529;   -0,955
861,047;20290,287;    0,165;   -1,227
861,608;20084,004;    0,165;   -0,773
862,169;20249,903;   -0,562;   -0,045
862,730;20021,529;   -0,290;    1,409
863,291;20241,428;    0,438;   -0,500
863,852;20586,781;   -0,926;    1,955
864,412;20080,953;   -1,835;   -0,864
864,973;18544,125;    1,892;    0,500
865,534;18363,933;    2,074;    0,227
866,094;19929,468;    2,620;    0,227
866,655;19584,185;    4,711;    3,318
867,215;19893,993;    0,074;    0,136
867,776;19743,438;   -1,199;   -0,136
868,336;19862,700;    1,529;    0,136
868,897;19274,236;    3,438;    1,682
869,457;19009,498;    3,256;    0,318
870,017;19246,670;    2,438;   -1,227
870,578;19781,932;    1,893;    0,773
871,138;19429,195;    2,620;   -0,955
871,698;18957,367;   -0,562;   -1,318
872,258;18806,811;    0,711;   -2,864
872,818;19145,710;    2,347;    0,045
873,378;19119,791;   -2,198;    1,045
873,938;18677,872;    4,984;    0,500
874,498;19018,407;    1,256;   -1,955
875,058;18896,760;    4,347;    1,773
875,618;18740,932;    1,438;   -2,682
876,177;18699,649;   -0,471;    0,136
876,737;18238,912;   -0,289;    1,955
877,297;18212,720;    2,711;    1,955
877,856;18263,528;    2,529;    0,318
878,416;18165,881;    2,438;   -0,136
878,976;18397,053;    3,438;    0,409
879,535;18641,497;    4,529;    3,136
880,095;18306,487;    1,347;    0,045
880,654;18444,023;    0,347;    1,318
881,213;18508,376;    2,347;    1,500
881,773;18155,275;    1,984;    2,682
882,332;18520,810;    6,075;    5,136
882,891;18353,346;    0,711;    2,136
883,451;18854,699;   -2,016;    1,682
884,010;18310,598;   -1,107;   -0,409
884,569;18368,588;   -2,289;   -0,045
885,128;18508,760;   -0,743;   -1,864
885,687;18605,386;   -0,743;    0,682
886,246;18277,921;    2,620;    2,136
886,805;17982,456;    1,620;    2,045
887,364;18317,446;    1,166;   -0,500
887,922;18715,891;   -0,016;    0,045
888,481;18187,153;    1,530;    0,591
889,040;18513,870;    3,711;    2,136
889,599;19211,224;    2,166;    1,409
890,157;19310,577;    2,166;    2,409
890,716;18959,931;    2,166;    0,227
891,274;18684,830;    0,075;   -1,136
891,833;19171,183;    1,166;    0,864
892,391;19059,537;    1,802;    0,500
892,950;19157,981;    0,166;   -0,773
893,508;19524,789;    0,984;   -0,409
894,067;18855,779;   -0,379;    0,136
894,625;18722,860;   -1,016;   -1,500
895,183;18942,486;   -0,198;   -0,682
895,741;18842,021;    2,257;   -1,773
896,299;18689,739;    1,621;   -2,409
896,858;18876,274;    1,530;   -1,591
897,416;18991,536;    0,166;   -1,318
897,974;18737,344;   -2,197;    0,318
898,532;18866,243;    6,530;    2,682
899,089;18733,779;    0,621;   -0,682
899,647;18859,132;    0,530;    1,318
900,205;18562,758;    0,257;    1,045
900,763;18744,839;    2,166;    0,227
901,321;18760,284;    3,530;   -1,409
901,878;18133,273;    3,257;   -0,773
902,436;17964,354;    0,257;    1,318
902,994;18394,435;    6,712;    3,682
903,551;17849,152;    1,439;    0,409
904,109;18226,233;    1,530;   -1,409
904,666;17794,405;    1,439;    1,045
905,224;17583,940;    3,894;   -0,409
905,781;17343,202;   -0,470;   -0,318
906,338;17423,829;    0,167;    1,045
906,895;17318,182;    1,894;    2,045
907,453;17223,354;    2,348;    1,136
908,010;17251,525;    3,348;    0,409
908,567;16875,879;   -0,561;    0,591
909,124;16403,414;    2,439;   -1,500
909,681;16452,495;   -1,288;    0,682
910,238;16600,667;   -0,106;   -1,318
910,795;16886,566;   -1,561;   -1,136
911,352;16512,020;   -0,379;   -2,682
911,909;15951,384;    2,803;   -0,864
912,466;16449,657;    1,985;    1,500
913,022;15936,020;   -0,924;    0,500
913,579;16313,566;   -0,470;    2,045
914,136;15966,475;   -2,561;    0,955
914,692;16361,293;    1,530;   -1,227
915,249;15904,657;    0,530;    0,409
915,806;16135,475;    1,803;    1,955
916,362;15823,747;    0,894;    1,864
916,918;15351,929;    2,439;    1,045
917,475;15330,929;    1,621;    0,955
918,031;15433,747;    0,076;   -0,045
918,587;14826,566;    0,621;   -0,318
919,144;15098,020;   -0,379;    0,227
919,700;15426,838;    0,167;    0,773
920,256;14988,111;    0,439;    0,045
920,812;14547,202;    1,439;   -1,045
921,368;14545,747;    1,348;   -1,045
921,924;14205,111;    0,439;   -0,136
922,480;13716,384;    0,076;    1,227
923,036;14339,384;   -0,652;    1,955
923,592;14290,384;    0,621;    0,318
924,148;14204,566;    1,894;   -0,955
924,704;13507,747;    0,258;   -0,409
925,259;13747,838;   -0,561;    0,591
925,815;13442,293;    3,803;    0,500
926,371;12968,111;    3,530;    1,409
926,926;12866,929;    1,621;    0,591
927,482;12463,293;    1,621;    0,773
928,037;12302,020;   -0,833;    2,045
928,593;12629,111;    0,258;    1,045
929,148;12419,657;    1,167;   -1,500
929,704;11903,202;    2,439;   -0,500
930,259;12116,475;    0,894;   -0,136
930,814;11135,929;    1,803;    1,955
931,369;10818,293;    0,258;   -0,773
931,925;10679,747;   -1,924;    0,136
932,480;10536,384;    3,076;   -2,591
933,035;10408,929;    3,985;   -0,318
933,590;10149,202;   -1,742;   -1,773
934,145; 9816,929;   -1,288;   -0,318
934,700;10179,657;    0,348;   -0,591
935,255; 9923,566;    4,803;    0,045
935,809; 9125,475;    6,258;    0,864
936,364; 8219,384;    2,167;   -0,136
936,919; 8182,111;    2,348;   -1,773
937,474; 8060,747;    1,348;    0,136
938,028; 7804,657;    3,076;    1,136
938,583; 7192,747;    6,348;    4,682
939,138; 7506,929;    0,167;    2,136
939,692; 6947,020;   -1,015;   -1,136
940,247; 6578,020;    1,167;   -1,045
940,801; 6098,657;    0,621;    0,227
941,355; 5972,747;    0,439;    2,591
941,910; 5642,838;    0,712;   -2,136
942,464; 5715,838;    2,712;   -0,318
943,018; 5450,293;    3,258;   -0,227
943,572; 5391,202;    2,803;   -0,682
944,126; 4759,566;   -0,924;   -0,409
944,681; 4660,838;    0,712;    0,227
945,235; 4642,202;    2,167;   -0,591
945,789; 4568,657;    1,258;   -1,864
946,342; 4625,657;   -0,561;   -0,591
946,896; 4456,293;    0,348;    0,955
947,450; 4201,929;   -0,561;   -0,227
948,004; 4379,929;    1,076;   -0,045
948,558; 4419,566;    1,258;   -0,864
949,111; 4328,747;   -1,197;   -0,318
949,665; 4338,838;   -0,106;   -0,682
950,219; 4198,293;    0,621;   -1,045
950,772; 4291,747;    0,258;    1,864
951,326; 4215,475;   -1,106;   -0,955
951,879; 4317,475;    1,076;   -2,318
952,433; 4331,020;    1,348;    2,227
952,986; 4172,657;    0,348;    0,682
953,539; 4084,838;    1,530;    0,591
954,093; 4026,293;    0,985;   -1,318
954,646; 4156,929;   -0,288;    1,318
955,199; 3961,929;    1,258;   -0,500
955,752; 3828,384;    1,985;    1,773
956,305; 3778,384;    0,894;    2,955
956,858; 3958,475;    0,621;   -0,318
957,411; 4156,111;    3,621;    2,136
957,964; 3975,020;    2,076;    2,136
958,517; 3955,111;    0,985;    3,136
959,070; 3791,475;   -1,197;    1,955
959,623; 3830,657;    1,076;    1,500
960,176; 3602,111;    0,712;    2,045
960,728; 3573,929;    1,712;    0,773
961,281; 3646,475;    2,258;    0,500
961,834; 3685,566;   -0,833;    0,864
962,386; 3619,020;    1,258;    1,045
962,939; 3517,566;    3,439;   -0,318
963,491; 3670,202;    2,621;    1,136
964,043; 3542,838;    0,076;    2,409
964,596; 3665,838;    1,712;    2,227
965,148; 3490,384;   -0,379;    1,773
965,700; 3428,929;   -0,015;   -0,227
966,253; 3620,020;   -0,833;    0,318
966,805; 3403,747;    1,894;    0,773
967,357; 3456,929;    0,439;   -1,500
967,909; 3378,838;    1,167;   -1,227
968,461; 3525,020;    0,894;    3,136
969,013; 3437,747;   -1,561;   -0,864
969,565; 3512,657;    1,803;   -1,136
970,117; 3567,202;    3,803;    1,045
970,669; 3422,566;    3,258;   -0,136
971,220; 3279,293;    2,167;   -1,500
971,772; 3178,020;    1,348;   -0,318
972,324; 3312,566;   -1,197;   -0,500
972,876; 3268,020;    0,167;   -0,045
973,427; 3385,384;   -1,197;   -1,045
973,979; 3361,020;    0,076;   -2,500
974,530; 3422,929;    0,803;    1,318
975,082; 3416,293;    2,167;    1,682
975,633; 3299,929;    2,894;    1,682
976,184; 3461,657;    2,076;    0,773
976,736; 3231,111;    0,348;    0,227
977,287; 3002,475;    0,258;   -0,500
977,838; 3206,566;   -0,924;   -0,318
978,389; 3269,384;    0,803;   -0,500
978,940; 3152,111;    1,258;   -0,409
979,491; 3170,293;    2,258;   -0,500
980,042; 3115,838;   -0,652;    3,045
980,593; 3202,293;    1,894;    0,227
981,144; 3218,747;    3,530;   -0,500
981,695; 3161,111;   -0,470;    1,500
982,246; 3147,747;   -1,833;    1,045
982,797; 3329,747;   -0,561;    0,682
983,347; 3459,111;    2,167;    0,591
983,898; 3591,020;    4,167;    0,409
984,449; 3386,929;    2,530;    0,773
984,999; 3321,657;    1,894;   -1,136
985,550; 3087,202;    3,167;   -0,318
986,100; 3150,202;    0,712;   -0,318
986,651; 3181,838;    0,258;    0,045
987,201; 3145,838;    0,894;   -0,591
987,751; 3229,747;   -0,288;    2,864
988,302; 3205,202;   -0,379;    1,500
988,852; 3232,747;    1,985;   -1,136
989,402; 3257,838;    0,985;    0,682
989,952; 3166,838;    1,621;    0,864
990,502; 3293,384;    1,076;    0,682
991,052; 3277,838;   -0,106;    0,045
991,602; 3128,475;    1,167;    1,318
992,152; 3111,747;    2,803;    0,682
992,702; 3080,838;    1,167;   -0,045
993,252; 3000,929;    0,076;   -0,500
993,802; 3076,202;    1,167;    1,318
994,352; 3367,111;   -0,742;    1,136
994,901; 3466,020;    1,076;    3,227
995,451; 3367,111;   -1,197;    0,318
996,000; 3459,111;    1,076;    0,318
996,550; 3151,566;    2,894;    0,227
997,100; 3159,293;   -0,561;   -0,045
997,649; 3445,293;   -0,197;    0,955
998,198; 3058,020;   -0,288;   -1,500
998,748; 3237,111;    0,348;   -2,318
999,297; 3156,202;    0,985;   -0,409
999,846; 3242,384;    1,894;   -0,773
1000,395; 3281,020;    1,530;    0,500
1000,945; 3207,929;    1,076;   -0,773
1001,494; 3301,202;    0,167;    0,682
1002,043; 3297,111;    0,712;    0,864
1002,592; 3125,838;    3,439;    1,955
1003,141; 3290,293;    2,439;   -0,682
1003,690; 3121,111;    1,258;    0,500
1004,238; 3205,475;   -0,106;   -0,045
1004,787; 2817,475;   -1,288;    1,227
1005,336; 3065,475;    1,621;    0,682
1005,885; 3229,475;   -0,197;   -2,773
1006,433; 3396,838;   -0,470;    0,955
1006,982; 3433,929;    2,167;    1,682
1007,531; 3332,929;    2,712;   -0,227
1008,079; 3301,747;    0,258;    0,500
1008,627; 3479,202;    1,621;    0,409
1009,176; 3197,929;    0,076;   -1,955
1009,724; 3250,747;   -2,742;    0,864
1010,273; 3274,293;    1,076;    0,500
1010,821; 3432,566;    1,076;    1,409
1011,369; 3149,020;    0,076;    1,318
1011,917; 3123,202;   -0,833;   -0,591
1012,465; 3424,202;    2,530;   -1,591
1013,013; 3553,111;    0,439;   -1,682
1013,561; 3379,929;   -1,288;   -0,773
1014,109; 3413,111;   -0,833;    1,682
1014,657; 3289,202;    1,348;    0,591
1015,205; 3426,475;    0,894;   -0,955
1015,753; 3497,475;    0,258;   -1,409
1016,301; 3493,384;    2,621;    3,045
1016,848; 3500,566;    2,167;    0,409
1017,396; 3527,929;    1,621;    0,045
1017,944; 3687,657;    2,621;    1,864
1018,491; 3439,384;   -0,197;    1,409
1019,039; 3563,202;   -0,652;    0,591
1019,586; 3511,475;    0,076;    1,682
1020,134; 3617,202;    0,712;    1,500
1020,681; 3626,747;    2,894;   -1,136
1021,228; 3660,293;   -0,561;   -2,227
1021,776; 3501,020;   -0,833;   -1,136
1022,323; 3676,566;    0,803;    0,773
1022,870; 3629,929;   -0,470;   -0,045
1023,417; 3517,838;    2,076;    1,864
1023,964; 3688,566;    0,621;    1,227
1024,511; 3497,293;   -0,652;    0,773
1025,058; 3274,111;    0,439;   -0,045
1025,605; 3346,202;   -1,742;    3,136
1026,152; 3538,475;   -0,106;   -0,591
1026,699; 3272,111;    0,167;    1,318
1027,245; 3466,747;    2,439;    0,318
1027,792; 3707,657;    0,712;    1,409
1028,339; 3558,929;    4,076;   -0,045
1028,885; 3403,202;    3,621;   -0,227
1029,432; 3340,020;   -0,106;    0,227
1029,978; 3390,020;    1,348;   -1,591
1030,525; 3285,566;    1,621;    0,409
1031,071; 3586,657;    0,348;    1,136
1031,618; 3655,293;    1,258;    1,682
1032,164; 3436,838;    2,076;    3,045
1032,710; 3463,475;    0,076;   -1,500
1033,256; 3427,566;    0,712;   -0,136
1033,803; 3424,202;   -0,288;    1,500
1034,349; 3127,657;    1,803;    0,136
1034,895; 3280,111;    2,621;   -0,318
1035,441; 3245,747;    0,439;    0,318
1035,987; 3256,293;   -2,288;   -0,682
1036,533; 3256,838;   -0,197;   -0,955
1037,078; 3449,838;    4,712;    1,682
1037,624; 3268,202;    2,439;   -0,955
1038,170; 3307,929;    1,712;   -0,318
1038,716; 3165,838;    2,167;   -0,409
1039,261; 3112,020;    2,167;   -0,773
1039,807; 3045,293;   -0,015;    3,409
1040,352; 3113,838;   -1,288;   -0,318
1040,898; 3175,475;    0,167;   -0,682
1041,443; 3077,111;    0,803;   -2,591
1041,989; 3052,747;    3,621;    1,591
1042,534; 2950,657;    0,985;    2,591
1043,079; 3102,020;    1,985;    0,955
1043,625; 2841,384;    0,258;    0,500
1044,170; 2880,111;    2,439;    1,045
1044,715; 3144,111;    0,167;    0,955
1045,260; 2958,747;   -0,833;   -0,955
1045,805; 3014,384;    0,258;   -0,591
1046,350; 2969,566;    0,530;   -0,409
1046,895; 2907,111;    0,803;    1,591
1047,440; 2829,657;    1,530;    0,409
1047,985; 2749,202;   -1,197;   -0,955
1048,530; 2654,111;    1,348;    1,227
1049,074; 2720,020;    2,803;    0,318
1049,619; 2710,475;   -0,924;    1,955
1050,164; 2487,475;    1,076;    0,227
1050,708; 2537,111;    2,621;    0,045
1051,253; 2882,929;    3,258;   -2,227
1051,797; 2613,111;   -0,197;   -1,318
1052,342; 2653,202;    1,348;    1,045
1052,886; 2615,020;    1,803;   -1,409
1053,430; 2525,384;    2,167;    0,136
1053,975; 2524,929;    0,894;   -0,318
1054,519; 2494,929;    1,803;    3,227
1055,063; 2491,475;    3,621;    1,318
1055,607; 2374,566;    1,348;    0,227
1056,151; 2389,202;    0,530;    1,682
1056,695; 2328,293;   -1,833;   -1,136
1057,239; 2399,657;   -1,197;   -0,682
1057,783; 2374,475;    2,258;   -1,500
1058,327; 2323,111;    3,076;    1,409
1058,871; 2556,929;    3,985;    1,318
1059,415; 2247,293;   -0,561;   -0,045
1059,958; 2491,566;    2,985;    2,591
1060,502; 2227,020;    1,348;   -0,773
1061,046; 2149,475;    1,712;   -0,955
1061,589; 2130,566;    2,803;   -1,136
1062,133; 2018,838;    0,985;    1,864
1062,676; 1927,657;    1,439;    0,864
1063,220; 1931,020;    0,985;    0,500
1063,763; 1938,838;    2,985;    1,136
1064,306; 2007,838;    0,985;    1,864
1064,849; 1904,111;    2,076;    0,591
1065,393; 1913,111;    2,894;   -1,500
1065,936; 2032,111;    2,530;   -0,409
1066,479; 1929,838;    2,621;    1,318
1067,022; 1949,111;    1,894;   -0,227
1067,565; 1831,566;   -1,197;   -1,318
1068,108; 1867,202;    1,258;   -0,591
1068,651; 1862,747;   -2,470;    1,409
1069,194; 1782,657;   -1,106;   -1,682
1069,736; 1769,020;    3,803;    0,955
1070,279; 1744,838;   -1,652;   -0,500
1070,822; 1790,929;    1,530;   -0,318
1071,364; 1843,111;    0,530;    1,318
1071,907; 1676,293;    0,348;    3,227
1072,450; 1617,838;    0,258;   -0,045
1072,992; 1594,657;   -0,561;    3,136
1073,535; 1713,747;    0,167;    2,136
1074,077; 1522,202;    2,985;    2,045
1074,619; 1478,838;    0,985;    0,591
1075,161; 1490,475;   -0,561;    1,500
1075,704; 1681,475;    0,258;    1,227
1076,246; 1505,566;    1,530;    0,682
1076,788; 1425,929;   -1,015;    1,773
1077,330; 1514,202;   -2,106;    2,136
1077,872; 1451,929;   -1,924;    0,955
1078,414; 1655,111;    3,712;    0,773
1078,956; 1394,747;    0,167;   -0,227
1079,498; 1641,657;    0,439;    0,318
1080,040; 1336,475;    0,985;   -1,318
1080,581; 1306,384;    0,621;   -0,318
1081,123; 1251,747;   -0,106;   -0,773
1081,665; 1287,293;    3,803;   -0,955
1082,206; 1560,020;    3,258;   -0,500
1082,748; 1434,657;    3,258;    2,045
1083,289; 1322,838;    0,167;    1,318
1083,831; 1214,384;    0,258;    0,227
1084,372; 1234,929;    0,894;    0,591
1084,913; 1244,202;    3,348;    0,864
1085,455; 1227,202;    1,530;   -2,045
1085,996; 1179,566;    0,530;    0,136
1086,537; 1189,838;    0,985;    0,864
1087,078; 1238,293;    0,439;   -2,136
1087,619; 1270,838;   -1,652;    0,227
1088,160; 1181,293;    1,439;    1,318
1088,701; 1170,657;   -0,742;    0,682
1089,242; 1106,929;   -0,561;   -2,227
1089,783; 1195,838;   -0,561;    1,409
1090,324; 1170,384;   -0,833;    0,682
1090,865; 1053,566;   -1,924;   -0,409
1091,405; 1039,929;   -0,561;    2,227
1091,946; 1068,747;   -0,197;   -0,955
1092,487;  992,566;   -1,288;   -1,409
1093,027; 1140,929;    1,803;   -1,500
1093,568;  991,111;    2,258;    1,227
1094,108; 1081,202;    0,621;    1,773
1094,649; 1027,929;   -0,470;    0,136
1095,189;  967,475;    1,167;   -0,682
1095,729;  899,929;    0,712;    0,955
1096,269;  928,384;    1,258;   -0,955
1096,810; 1227,202;   -0,197;    0,500
1097,350; 1048,293;   -0,561;   -0,773
1097,890;  952,929;    2,985;    1,227
1098,430; 1200,020;    4,985;    2,864
1098,970; 1070,020;    1,894;    1,682
1099,510;  940,384;   -0,833;   -2,318
1100,050;  867,111;    0,258;   -1,591
1100,589;  833,202;    0,076;   -0,318
1101,129;  949,566;    0,894;   -0,955
1101,669; 1091,566;    2,803;    2,136
1102,209;  924,475;    1,530;    2,227
1102,748;  874,566;    3,439;    0,955
1103,288;  857,838;    0,712;   -1,227
1103,827;  896,566;    3,530;   -2,227
1104,367;  779,202;    1,712;   -2,409
1104,906;  738,566;   -1,015;   -1,136
1105,445;  806,657;    0,985;   -1,136
1105,985;  750,838;   -0,652;    1,500
1106,524;  788,747;    1,530;   -0,682
1107,063;  760,657;    1,167;    1,409
1107,602;  736,838;    1,894;   -1,500
1108,141;  665,838;    1,621;    1,500
1108,680;  759,657;    3,985;   -0,591
1109,219;  698,020;    0,167;   -0,500
1109,758;  701,384;    4,167;    0,682
1110,297;  676,657;   -1,106;   -0,682
1110,836;  621,020;    1,439;    0,955
1111,375;  778,475;    0,348;    0,409
1111,913;  784,111;    0,985;    0,773
1112,452;  735,202;    0,894;    0,136
1112,991;  620,929;    1,076;    1,955
1113,529;  573,020;    0,167;   -0,045
1114,068;  645,747;    0,439;    2,955
1114,606;  533,657;   -0,561;   -0,955
1115,144;  685,929;    1,530;    1,045
1115,683;  625,838;    1,985;    0,318
1116,221;  682,020;    2,076;   -0,864
1116,759;  594,111;    1,621;   -0,864
1117,297;  774,293;    1,621;    1,864
1117,836;  603,020;    1,985;   -1,227
1118,374;  600,566;    0,258;   -0,682
1118,912;  543,747;    0,439;    2,682
1119,450;  535,293;    0,985;    0,864
1119,988;  589,293;    3,348;    2,136
1120,525; 1034,929;    7,258;    3,318
1121,063;  727,838;    0,530;    1,864
1121,601;  539,929;    1,076;   -1,227
1122,139;  489,838;    1,076;   -2,045
1122,676;  673,202;   -1,652;    2,773
1123,214;  619,929;    0,712;    4,409
1123,751;  443,202;    0,621;    2,227
1124,289;  574,384;    0,894;   -0,409
1124,826;  440,202;   -0,379;    0,227
1125,364;  372,475;    0,712;   -0,955
1125,901;  554,657;    6,258;    1,227
1126,438;  643,657;    3,530;    0,955
1126,975;  383,293;    2,985;   -0,773
1127,513;  449,838;    2,621;    2,136
1128,050;  366,657;   -0,561;   -0,682
1128,587;  456,838;    1,348;   -0,227
1129,124;  488,566;   -0,015;    1,318
1129,661;  369,202;   -1,924;    0,227
1130,198;  532,657;    2,439;    0,773
1130,734;  475,293;   -0,379;    1,409
1131,271;  336,747;   -1,197;    0,864
1131,808;  511,111;    1,621;    3,045
1132,345;  378,747;    4,530;    0,318
1132,881;  271,929;   -0,561;   -1,864
1133,418;  394,929;    0,348;   -1,136
1133,954;  341,293;    0,712;   -2,682
1134,491;  404,384;    1,712;   -0,773
1135,027;  305,020;    2,167;    0,864
1135,564;  387,293;    1,439;    2,955
1136,100;  370,111;   -0,742;    2,136
1136,636;  274,657;   -1,015;   -1,045
1137,172;  350,657;    0,894;   -1,045
1137,708;  282,657;   -1,561;   -1,045
1138,245;  284,929;    0,803;   -1,227
1138,781;  250,111;    1,803;   -3,318
1139,317;  301,657;    1,894;   -1,409
1139,852;  291,202;    3,076;    0,136
1140,388;  399,838;    2,076;   -0,409
1140,924;  285,657;    1,076;   -2,227
1141,460;  235,202;   -0,288;    0,136
1141,996;  173,838;   -0,652;    2,682
1142,531;  213,929;    1,076;    3,318
1143,067;  423,384;    1,167;    1,045
1143,602;  473,384;    3,439;   -0,318
1144,138;  317,020;    0,803;    1,045
1144,673;  201,384;    1,621;    1,409
1145,209;  256,020;    2,894;   -0,318
1145,744;  184,475;    0,803;    0,864
1146,279;  304,384;    1,530;   -0,136
1146,815;  236,657;    1,530;   -2,682
1147,350;  273,111;   -0,924;    0,045
1147,885;  187,657;   -1,924;   -1,318
1148,420;  189,202;    2,439;    0,773
1148,955;  171,202;   -1,470;    1,864
1149,490;  195,293;   -1,106;   -1,591
1150,025;  175,020;   -1,106;   -1,773
1150,560;  284,202;   -0,288;   -0,955
1151,094;  244,838;    0,258;   -0,591
1151,629;  248,657;   -3,742;    0,864
1152,164;  179,838;   -1,288;    1,318
1152,698;  149,475;    1,258;   -0,136
1153,233;  102,566;   -1,379;   -0,682
1153,767;  146,475;   -0,288;   -2,318
1154,302;  198,384;   -0,379;    1,773
1154,836;  205,384;    0,803;   -2,136
1155,371;  247,293;    2,258;    3,682
1155,905;  207,384;    1,985;    1,682
1156,439;  174,747;    0,530;   -0,500
1156,973;  199,929;    0,439;    0,318
1157,507;  136,566;   -1,742;    0,682
1158,042;  164,838;   -0,652;    1,045
1158,576;  215,929;   -0,561;    1,773
1159,110;  205,384;    0,076;    2,409
1159,643;  179,202;   -2,470;   -0,045
1160,177;  112,111;   -2,015;    1,500

