
Integration time [ms]:   0,050
Averaging Nr. [scans]: 11
Smoothing Nr. [pixels]: 0
Data measured with spectrometer [name]: 7318044SP
Wave   ;Sample   ;Dark     ;Reference
[nm]   ;[counts] ;[counts] ;[counts] 

186,757;   -5,415;   38,161;    1,318
187,357;   31,324;   26,706;    0,955
187,958;   16,437;   17,252;   -1,591
188,558;   60,374;   12,979;   -1,227
189,159;   28,185;   10,070;   -4,500
189,759;   -3,500;    5,797;   -3,591
190,360;    5,304;    6,797;   -2,136
190,960;   43,751;    5,706;   -4,136
191,560;   54,747;    2,614;   -6,591
192,161;  285,318;    5,885;   -3,500
192,761;  131,297;    5,520;   -3,227
193,361;   91,242;    3,065;   -3,773
193,962;  139,397;    1,612;   -2,682
194,562;   67,550;   -0,114;   -3,955
195,162;  103,276;   -0,567;   -2,227
195,762;  275,337;    2,433;   -0,045
196,362;  218,145;    1,706;   -2,500
196,963;   83,424;    1,706;   -0,864
197,563;  151,752;    1,252;   -0,955
198,163;  105,015;   -0,111;   -0,682
198,763;  132,443;   -0,020;   -0,500
199,363;  236,815;    3,616;   -0,500
199,963;  193,636;    2,162;    0,409
200,563;  167,676;    6,344;   -1,409
201,163;  149,303;    5,435;   -0,227
201,763;  242,323;    1,435;    0,318
202,363;  185,689;    0,980;    1,500
202,963;  293,807;    1,526;    1,045
203,563;  407,593;    0,344;    0,500
204,162;  256,741;    1,889;   -1,864
204,762;  242,811;    2,071;    0,591
205,362;  219,624;    0,708;    1,955
205,962;  317,653;    3,435;    1,955
206,562;  323,894;    1,889;    2,318
207,161;  291,752;    1,708;    0,318
207,761;  447,747;    4,435;    2,409
208,361;  327,861;    1,889;    1,409
208,960;  411,165;    2,889;    1,500
209,560;  501,854;    0,435;    1,591
210,160;  483,290;    5,071;    1,864
210,759;  459,819;    0,708;    1,227
211,359;  451,342;   -0,474;    1,045
211,958;  732,060;    3,526;    2,045
212,558;  825,520;    0,799;    1,864
213,157;  649,524;   -0,929;    1,500
213,757; 1112,064;    5,617;   -0,227
214,356;  814,052;    1,708;   -0,409
214,956; 1157,238;    3,526;    0,409
215,555;  791,681;    0,617;    2,136
216,154;  728,807;   -0,292;   -0,591
216,754;  753,324;    1,253;    0,773
217,353;  892,806;   -0,383;   -1,045
217,952;  762,946;    2,072;    0,318
218,552;  990,506;    0,254;   -0,773
219,151;  888,440;   -1,110;    0,955
219,750;  896,328;    0,890;   -0,227
220,349; 1090,270;   -2,292;    1,045
220,948; 1126,925;    1,163;    1,136
221,548; 1197,875;    0,617;    1,227
222,147; 1312,656;   -1,292;   -0,409
222,746; 1610,518;    1,254;   -0,955
223,345; 1506,226;   -1,019;    0,500
223,944; 1540,919;    1,163;    0,773
224,543; 1749,278;    4,072;   -1,409
225,142; 1856,477;    1,345;    0,136
225,741; 1781,711;    1,163;    1,045
226,340; 1829,000;    1,254;   -0,955
226,939; 2348,991;    2,708;   -0,136
227,538; 2392,158;    1,163;   -0,773
228,137; 2525,387;    0,435;    0,864
228,735; 2757,464;    0,435;    1,227
229,334; 2467,072;   -0,474;   -0,227
229,933; 2847,261;    0,799;    0,591
230,532; 2990,181;   -1,201;   -0,409
231,131; 3066,647;    1,253;    0,318
231,729; 3267,281;    1,163;   -2,318
232,328; 3504,475;    0,435;   -1,500
232,927; 3641,071;    4,526;   -0,500
233,525; 3829,344;    0,981;    0,045
234,124; 4055,873;    1,890;   -1,591
234,723; 4135,896;    1,617;   -1,045
235,321; 4346,454;    1,163;    0,136
235,920; 4640,931;    2,526;   -1,227
236,518; 4950,943;    1,072;    0,318
237,117; 5213,127;    2,890;   -0,227
237,715; 5425,324;    1,163;   -0,500
238,314; 5473,133;    1,708;   -2,318
238,912; 5555,531;    0,526;   -1,409
239,510; 5659,110;    1,162;   -1,227
240,109; 5893,628;   -0,474;    3,773
240,707; 5968,119;   -0,474;    1,227
241,305; 6463,618;   -0,383;    0,136
241,904; 6696,254;   -0,292;   -2,045
242,502; 6664,206;    3,253;   -0,227
243,100; 6677,477;    3,344;   -0,955
243,698; 6956,583;    2,799;    1,682
244,297; 7176,631;   -0,656;    0,682
244,895; 6987,062;   -0,474;   -2,318
245,493; 7422,079;    2,981;   -0,591
246,091; 7495,077;    5,163;   -1,318
246,689; 7472,154;    2,163;    0,591
247,287; 7697,286;   -0,019;   -1,136
247,885; 8071,572;   -1,019;    1,227
248,483; 8214,782;   -0,201;   -0,500
249,081; 8377,537;    0,981;    1,591
249,679; 8570,242;   -1,019;    1,682
250,277; 8889,472;   -2,292;    0,864
250,875; 8865,582;    0,617;   -1,045
251,473; 8946,994;   -0,019;    0,500
252,071; 9161,691;   -0,383;    1,045
252,669; 9373,374;   -1,565;    0,318
253,267; 9738,315;    1,618;    0,773
253,864; 9703,832;    0,617;    0,682
254,462; 9491,984;    1,526;    1,591
255,060; 9517,185;    0,072;    1,318
255,658; 9923,555;   -3,292;   -0,136
256,255;10406,636;   -0,201;   -2,045
256,853;10256,572;    2,345;    1,409
257,451;10282,141;    1,981;    1,864
258,048;10560,524;    2,072;    1,864
258,646;10368,061;    0,436;   -1,045
259,243;10579,482;    2,981;    2,227
259,841;10647,171;    1,799;    0,318
260,438;10485,097;    0,254;    0,864
261,036;11366,317;    0,617;    1,409
261,633;11272,857;    1,526;    2,227
262,231;10987,002;   -0,110;   -0,045
262,828;11096,308;   -0,383;    1,136
263,425;11197,132;   -1,928;   -0,591
264,023;11473,640;    1,436;    0,045
264,620;11009,941;    1,526;   -0,318
265,217;11420,661;    2,890;    3,136
265,815;11567,326;    2,527;    2,136
266,412;11277,780;    0,072;    0,136
267,009;11322,490;    0,526;    0,773
267,606;11209,515;    0,345;   -0,955
268,203;11198,228;   -0,383;   -0,591
268,801;11549,394;   -0,474;    0,591
269,398;11891,378;   -0,564;    2,500
269,995;11888,762;    0,890;    1,591
270,592;11599,743;    0,799;   -0,500
271,189;11876,776;    1,981;    0,409
271,786;12038,272;    2,072;    1,227
272,383;11848,437;   -0,383;    0,227
272,980;12145,484;    1,617;    0,318
273,577;12697,117;    2,162;    1,227
274,174;12172,118;    1,435;    2,591
274,771;12202,555;    1,890;   -0,773
275,367;12320,466;    3,253;    1,409
275,964;12281,526;   -0,565;   -0,500
276,561;12399,326;   -2,474;   -1,045
277,158;12713,333;    1,799;   -1,773
277,755;12830,991;   -0,110;    0,409
278,351;12142,774;    0,436;   -1,500
278,948;12541,851;   -0,201;    0,045
279,545;12592,169;    0,527;    2,318
280,141;13259,356;    1,254;   -2,045
280,738;13152,709;    2,435;   -0,136
281,334;13447,650;   -0,383;    0,591
281,931;12803,542;    2,890;   -1,318
282,528;12877,688;    4,072;   -0,500
283,124;13727,075;    3,345;   -0,500
283,721;13655,030;    0,709;    1,409
284,317;13500,445;    0,163;    2,500
284,913;14081,206;   -0,110;    0,591
285,510;14274,297;    2,890;   -0,318
286,106;14350,166;    2,345;   -0,955
286,703;13919,955;    0,072;    1,955
287,299;14144,171;    1,254;   -0,591
287,895;14400,431;    0,890;   -1,045
288,491;15123,196;    0,163;    2,136
289,088;14767,381;    0,163;    2,409
289,684;14792,192;    2,890;    1,500
290,280;14839,041;    1,890;    0,682
290,876;14948,074;    0,163;    5,500
291,472;14804,731;    2,163;    2,227
292,068;14921,559;    1,254;    0,227
292,665;14629,989;   -0,564;    0,773
293,261;14186,351;   -1,292;    2,136
293,857;14625,194;    4,072;    2,136
294,453;14597,338;   -0,928;    0,955
295,049;14424,257;    0,253;    1,955
295,644;14439,168;   -1,292;    0,136
296,240;14340,163;    0,162;   -0,136
296,836;14428,848;   -0,747;    0,318
297,432;14733,626;    2,980;   -0,500
298,028;14735,514;    0,435;    0,773
298,624;15210,346;    0,889;    1,864
299,220;15564,000;    0,435;    0,591
299,815;15188,333;    0,526;   -0,409
300,411;14938,712;    0,435;    1,773
301,007;14998,744;    1,889;    0,227
301,602;15076,932;    2,071;   -2,318
302,198;15258,601;    1,435;   -0,773
302,794;15626,376;    1,526;   -0,500
303,389;15822,419;    1,071;    1,045
303,985;15886,791;    1,253;    1,409
304,580;15855,362;    0,889;    1,591
305,176;15832,950;    0,344;    0,136
305,771;15800,113;   -0,929;   -1,227
306,367;15546,815;    3,071;    0,136
306,962;16010,660;    2,889;    1,500
307,558;15724,317;    2,435;    0,136
308,153;15672,237;   -0,383;   -1,136
308,748;15964,116;    0,162;    1,682
309,344;15922,850;    0,253;   -1,318
309,939;15977,029;    2,071;   -1,318
310,534;16328,394;   -2,020;   -1,682
311,130;16326,109;   -0,656;   -2,500
311,725;16080,224;    0,526;   -0,500
312,320;16352,926;    1,253;    0,045
312,915;16171,499;    2,890;   -1,045
313,510;16209,728;    0,526;   -0,500
314,105;16842,437;   -3,565;    1,409
314,700;16181,097;   -1,656;   -1,045
315,295;15729,908;   -0,020;    0,045
315,890;15251,449;   -0,292;    0,864
316,485;15671,343;    0,253;   -0,318
317,080;15766,052;   -0,929;    1,591
317,675;16386,122;    3,071;   -0,682
318,270;15594,036;    6,889;    3,318
318,865;15657,567;    2,435;    3,045
319,460;15499,443;   -1,565;    0,591
320,055;15794,494;   -2,565;   -1,227
320,650;15413,478;   -1,838;   -0,591
321,244;15491,020;    0,889;   -1,409
321,839;16562,504;    0,980;   -0,227
322,434;16437,017;   -0,111;   -1,591
323,029;15978,051;   -0,474;    1,591
323,623;15803,752;    0,798;    0,773
324,218;15517,588;    2,707;    1,409
324,812;15423,936;    0,889;    1,591
325,407;15235,261;   -0,929;    2,045
326,002;15111,618;    0,526;   -0,409
326,596;15462,054;   -0,656;    1,318
327,191;15742,183;   -0,383;   -1,045
327,785;15265,509;   -0,747;   -0,227
328,379;15506,582;   -0,383;    0,136
328,974;15309,890;    1,798;   -3,955
329,568;15557,804;    2,889;   -2,409
330,163;15350,570;    2,435;    1,045
330,757;15707,442;    0,253;    1,591
331,351;14962,683;   -0,292;    0,682
331,945;15260,544;   -0,383;    1,409
332,540;14791,243;    1,617;   -0,591
333,134;14948,799;    3,344;    0,773
333,728;15222,208;    2,799;    0,318
334,322;15607,497;    0,889;   -0,864
334,916;14815,012;    0,344;    0,955
335,510;15167,417;   -0,111;   -0,136
336,105;15436,092;   -0,929;    1,591
336,699;15103,468;   -1,292;    0,591
337,293;15017,585;    1,071;    0,318
337,887;15202,143;    0,071;    1,955
338,481;15260,628;    2,980;    0,591
339,074;15425,635;    2,071;    2,682
339,668;15180,801;   -0,110;    1,227
340,262;15460,030;    7,708;    3,227
340,856;14977,484;    1,708;   -0,682
341,450;14214,851;    0,708;    1,864
342,044;15224,312;    1,799;    0,136
342,637;14961,355;    1,162;   -2,136
343,231;14797,211;   -1,474;    0,682
343,825;14750,544;   -0,747;   -0,591
344,419;14651,812;   -0,474;    0,500
345,012;14350,172;    2,889;    4,045
345,606;14365,961;   -0,656;    1,591
346,199;14210,810;   -0,111;   -0,227
346,793;13610,794;    2,525;    2,045
347,386;13864,796;    0,889;   -1,136
347,980;13873,021;   -0,838;   -0,045
348,573;13619,575;   -1,748;    0,409
349,167;13124,191;    6,161;    4,773
349,760;13545,255;    2,252;    2,682
350,354;13545,981;    1,616;    1,136
350,947;13246,590;    2,798;    1,682
351,540;12878,778;    0,616;   -1,409
352,134;12791,927;   -1,111;    1,136
352,727;12843,495;   -0,657;    1,136
353,320;12631,579;    2,343;    0,591
353,913;12467,063;   -1,929;    1,864
354,507;12617,498;    0,434;   -1,227
355,100;12631,685;    0,071;    0,864
355,693;11664,610;    4,798;    2,409
356,286;11759,094;    0,980;    2,773
356,879;12192,102;   -0,475;    1,227
357,472;11706,998;    0,980;    1,500
358,065;11908,280;    3,161;    2,500
358,658;11859,179;    0,798;    2,318
359,251;11422,662;    0,252;   -0,591
359,844;10766,782;    0,343;   -1,136
360,437;10912,224;    0,252;    0,045
361,030;11264,627;    0,525;   -0,682
361,623;10778,639;    0,434;    0,318
362,215;10778,908;    0,979;    2,045
362,808;10645,630;   -2,293;   -1,682
363,401;10855,762;    0,798;    0,136
363,994;10532,053;    3,252;   -1,500
364,586;10460,855;    0,888;   -1,500
365,179;10677,360;   -0,203;   -1,136
365,772;10075,479;   -0,930;    2,045
366,364;10428,174;    1,524;   -3,227
366,957;10661,880;    1,342;   -0,045
367,549;10675,470;   -0,203;   -0,864
368,142;10240,840;    0,978;   -1,500
368,734;10462,523;    2,523;   -2,136
369,327;10419,069;    2,341;   -0,500
369,919;10322,471;   -1,659;    0,409
370,512;10026,365;   -1,023;   -0,500
371,104; 9726,917;    2,704;    1,591
371,696; 9915,765;    1,703;   -0,955
372,289;10051,283;    0,157;    1,136
372,881;10219,359;    1,156;    1,318
373,473;10154,300;    4,064;    1,136
374,066; 9920,265;    1,336;    0,500
374,658; 9746,366;    0,879;    1,136
375,250;10155,534;   -1,668;   -1,409
375,842; 9937,923;   -0,124;   -0,045
376,434; 9809,930;   -2,762;   -0,409
377,026;10523,032;   -1,855;   -2,500
377,618;10389,782;    0,779;   -0,682
378,210;10212,492;    3,141;   -1,955
378,802;10014,909;    3,412;   -0,591
379,394; 9935,979;    3,411;    0,682
379,986;10655,905;    1,138;   -0,955
380,578;10796,106;    1,410;    0,773
381,170; 9999,347;    0,320;    0,045
381,762; 9981,466;   -0,224;    1,409
382,354;10243,343;   -0,223;   -1,318
382,945;10351,207;    0,870;    0,318
383,537;10510,322;    1,144;   -1,955
384,129;10488,641;    0,963;   -1,136
384,721;10744,967;    0,418;    0,955
385,312;10668,742;   -1,399;   -0,955
385,904;10769,277;   -0,945;    1,591
386,496;10015,609;    0,691;    1,045
387,087;10174,281;    0,418;    2,500
387,679;10207,685;   -0,401;    0,045
388,270;10378,719;   -2,401;    2,045
388,862;10522,892;   -0,401;   -0,318
389,453;10412,385;    1,054;    1,045
390,045;10706,896;    3,236;   -2,682
390,636;10667,202;    0,144;   -0,591
391,227;10508,688;    2,054;   -0,045
391,819;10569,113;    0,781;    0,773
392,410;10638,694;    0,600;    0,045
393,001;10582,018;    1,600;   -1,591
393,593;10916,359;    0,600;   -0,045
394,184;10727,229;    0,873;   -0,409
394,775;10655,369;    1,146;    2,136
395,366;10908,001;    1,782;    0,773
395,957;10983,394;   -2,400;    0,136
396,548;11361,312;    1,054;    2,682
397,139;11649,467;    2,236;    0,591
397,730;11341,755;    0,873;    0,955
398,321;11418,644;    0,509;    0,955
398,912;11422,430;   -0,764;    0,136
399,503;11539,709;   -1,945;   -1,409
400,094;10892,609;   -1,582;    1,682
400,685;10742,894;    3,600;    0,045
401,276;10849,507;   -0,400;   -0,955
401,867;11189,688;   -1,127;    0,773
402,458;11306,989;    1,509;   -2,318
403,048;11282,879;    0,146;    0,591
403,639;10813,708;    1,509;    0,864
404,230;11043,579;    0,691;    0,318
404,821;10977,709;   -0,127;    0,045
405,411;11103,729;   -0,763;   -2,591
406,002;10657,488;    3,237;   -1,136
406,592;10403,937;    2,691;    0,045
407,183;10786,535;    0,328;   -1,500
407,774;10689,496;    1,419;   -0,136
408,364;11121,514;    2,600;    0,409
408,954;10628,182;   -0,036;    1,227
409,545;10681,048;    1,873;    1,045
410,135;10124,085;   -1,581;    0,500
410,726;10333,926;    0,783;    0,318
411,316;10779,467;    2,237;    0,773
411,906;10405,362;    0,146;   -0,409
412,497; 9758,232;   -0,490;   -0,045
413,087;10441,785;    0,783;   -0,227
413,677;10965,416;   -2,490;    3,864
414,267;10758,324;   -1,035;    1,409
414,857;10769,500;    0,419;    4,227
415,448;11067,164;   -0,763;    0,500
416,038;10706,544;   -2,945;   -0,591
416,628;10693,828;    0,965;    0,409
417,218;10049,266;   -1,762;    3,318
417,808;10368,988;    0,965;   -0,409
418,398;10943,674;   -1,035;    2,682
418,988;10962,710;   -2,217;    0,591
419,578;11256,012;    3,601;    1,409
420,168;11636,482;    0,692;   -0,955
420,757;11152,381;    0,964;   -1,500
421,347;10795,661;    1,601;   -0,227
421,937;10991,017;    3,329;    1,409
422,527;10925,658;    2,602;   -0,773
423,116;10700,603;    2,692;   -0,045
423,706;11164,118;    2,965;    0,318
424,296;11148,180;    1,601;    0,682
424,885;11579,998;    1,510;   -3,045
425,475;11907,395;    1,147;   -2,864
426,065;11828,220;   -1,489;   -0,318
426,654;11424,786;    0,329;   -0,318
427,244;11532,396;    1,147;    1,409
427,833;10901,751;    1,056;   -0,500
428,423;11464,593;    0,147;    1,136
429,012;12361,525;    2,420;   -1,136
429,601;11785,033;    2,057;    0,136
430,191;12070,787;    2,511;    4,318
430,780;11634,132;   -1,671;   -0,409
431,369;11521,956;    1,329;   -0,045
431,959;12258,790;    1,693;    0,500
432,548;12027,596;   -1,398;   -0,045
433,137;12196,222;    0,329;   -1,318
433,726;12782,366;    0,148;    0,500
434,315;12028,187;    0,148;    2,409
434,905;12125,340;    0,693;    1,409
435,494;12006,089;    3,148;    0,955
436,083;12549,857;    1,420;   -0,955
436,672;12388,029;    1,148;    0,500
437,261;11882,308;    0,512;   -1,955
437,850;11973,039;   -1,125;    0,682
438,439;11928,079;    2,239;    1,955
439,027;11747,284;    3,421;    1,773
439,616;12199,878;    2,239;    1,227
440,205;12098,299;    0,057;   -2,136
440,794;12215,314;   -0,306;   -0,045
441,383;12455,273;    1,603;   -0,591
441,971;12327,124;   -0,306;    0,591
442,560;12179,685;    0,603;   -1,773
443,149;11979,846;    3,060;   -1,318
443,737;12136,626;    0,968;   -2,318
444,326;12361,637;    0,331;    0,318
444,915;12417,328;   -1,851;    0,864
445,503;12861,897;    0,058;   -0,318
446,092;12063,557;    7,876;    2,136
446,680;12695,499;    1,876;    0,318
447,269;12904,775;   -1,487;   -0,318
447,857;12623,879;    2,240;   -1,773
448,445;12739,833;    2,149;    1,318
449,034;12986,600;    0,876;   -1,136
449,622;13114,251;    1,240;    3,500
450,210;12179,321;    3,149;    2,227
450,799;12815,603;    2,604;   -0,591
451,387;12755,843;    1,786;   -0,591
451,975;12316,867;   -1,305;    0,864
452,563;12432,484;    0,422;    2,318
453,151;12456,081;   -1,032;   -1,227
453,739;12398,269;   -1,577;    0,136
454,328;12195,411;    0,604;   -2,136
454,916;11832,402;    1,150;   -0,136
455,504;12078,768;    3,513;    1,227
456,092;12326,254;    2,150;   -1,591
456,679;12297,262;    0,604;    0,682
457,267;12106,548;    3,604;    1,045
457,855;12378,321;    3,241;    1,409
458,443;12143,573;   -0,304;    1,682
459,031;12228,995;    1,332;    2,409
459,619;12754,319;   -3,577;    2,864
460,206;12956,847;   -0,759;    2,045
460,794;13044,810;   -0,668;   -0,227
461,382;13322,728;    0,878;   -0,864
461,970;12828,840;    0,605;    1,864
462,557;12870,938;    0,878;   -0,682
463,145;13072,745;   -0,304;   -1,682
463,732;13229,294;    2,514;   -1,045
464,320;13210,581;    1,514;   -3,045
464,907;12747,236;    0,423;   -0,773
465,495;12626,251;    2,696;   -1,227
466,082;12841,483;    2,060;   -0,045
466,670;12753,540;    2,605;    1,227
467,257;13183,592;    0,060;    2,045
467,844;13353,301;    1,514;    0,045
468,432;13363,666;   -0,031;    3,500
469,019;12793,578;    1,606;   -1,773
469,606;13292,223;    0,969;    3,682
470,193;13096,430;    2,151;    0,227
470,780;12570,707;    0,333;    0,864
471,368;12973,182;   -1,212;   -0,773
471,955;12700,144;    1,060;   -0,682
472,542;12309,369;   -0,303;   -1,136
473,129;12603,376;   -0,485;    0,136
473,716;12307,787;    0,060;    0,591
474,303;12536,088;    1,333;   -0,864
474,890;12885,796;    2,333;   -0,500
475,477;12847,674;   -0,576;    0,409
476,064;12762,452;    0,697;   -1,591
476,650;12689,626;    2,152;    0,318
477,237;12547,444;    1,879;    0,955
477,824;12733,838;    3,879;    0,864
478,411;12761,417;    0,606;   -0,318
478,997;13009,473;    0,606;   -0,773
479,584;13095,776;   -0,666;   -0,409
480,171;13862,877;    1,243;   -0,773
480,757;13524,935;   -0,848;    0,773
481,344;13832,326;    0,334;    0,409
481,931;13379,177;   -0,393;    1,045
482,517;14443,599;    0,425;    0,318
483,104;15172,832;    1,334;    2,864
483,690;15615,239;    0,243;    0,045
484,276;16157,225;    0,698;    0,227
484,863;15841,948;    2,152;    1,136
485,449;16516,937;    0,152;    0,318
486,035;16517,757;   -0,666;   -0,136
486,622;16986,274;   -2,393;    0,045
487,208;16886,167;    1,334;    1,500
487,794;16754,292;    0,971;    0,318
488,380;16891,043;    0,698;   -1,409
488,967;16914,965;   -1,120;   -0,409
489,553;16997,134;   -1,029;   -1,409
490,139;17170,855;    0,971;    0,773
490,725;16558,018;    0,789;   -0,227
491,311;16020,911;    1,516;    3,045
491,897;15146,499;   -0,665;    1,500
492,483;14873,285;    0,426;    1,227
493,069;14490,067;    5,426;    0,864
493,655;14480,829;    1,789;    0,682
494,241;14387,086;    1,517;   -0,955
494,826;14844,484;    0,335;   -1,045
495,412;14252,701;    0,335;   -0,682
495,998;14441,521;    0,971;   -0,318
496,584;14618,916;    2,244;    1,045
497,169;14605,220;    2,335;   -0,682
497,755;14513,064;    1,244;    1,227
498,341;15092,842;    2,153;    0,318
498,926;14643,309;    2,881;    1,955
499,512;14911,474;   -0,028;    2,955
500,097;15045,442;   -0,574;   -0,318
500,683;14994,907;   -0,028;    2,136
501,268;15349,152;    1,881;   -0,955
501,854;15072,925;   -0,119;    1,227
502,439;14998,326;   -0,573;   -1,773
503,024;15236,732;    1,608;    0,500
503,610;15339,179;    1,335;   -0,682
504,195;15373,826;    1,245;    1,955
504,780;15440,391;    2,335;    1,227
505,366;15223,851;    4,063;    2,864
505,951;14945,285;   -1,119;    1,045
506,536;14968,052;    1,427;   -3,682
507,121;14921,461;    1,699;   -0,318
507,706;15508,686;   -0,392;    1,045
508,291;15968,208;   -2,937;    1,136
508,876;15359,394;   -0,482;    2,591
509,461;14745,912;    1,427;   -0,773
510,046;15227,344;   -0,391;    0,318
510,631;15480,465;   -0,119;   -0,773
511,216;15110,539;   -0,664;   -0,500
511,801;15512,606;   -0,755;    2,591
512,386;15827,635;    0,972;    0,500
512,971;15754,127;    0,427;    0,955
513,555;15268,547;    1,154;   -1,500
514,140;16147,228;    1,336;   -3,136
514,725;16166,287;    1,791;   -1,136
515,309;16295,746;    1,064;    0,318
515,894;15668,061;   -0,300;   -2,227
516,479;16145,476;    1,973;   -0,955
517,063;16016,439;    0,882;    1,227
517,648;16204,678;    0,155;   -1,136
518,232;15827,959;   -1,300;   -1,409
518,817;16134,135;    1,337;    1,682
519,401;16360,741;    0,700;    0,591
519,985;15851,717;    2,700;    1,136
520,570;15719,010;   -0,118;   -1,955
521,154;16017,357;    0,064;    0,591
521,738;16216,303;    1,064;    2,409
522,323;16850,271;   -0,390;    1,682
522,907;16547,043;    2,428;   -0,136
523,491;16225,814;    1,155;    0,955
524,075;16246,262;    0,428;    0,591
524,659;16343,872;    0,973;    0,591
525,243;15722,600;    0,883;    0,409
525,827;15954,423;    0,883;   -0,045
526,411;16934,145;    1,155;   -0,136
526,995;17129,616;    0,337;    1,409
527,579;16735,600;    1,974;   -1,045
528,163;17046,319;    0,428;   -1,500
528,747;16974,156;    1,065;   -0,773
529,331;17314,302;    0,883;   -1,409
529,915;17557,382;    2,338;    0,955
530,499;17505,438;    0,247;    1,227
531,082;17145,026;    1,065;    1,591
531,666;16527,271;    0,520;    0,773
532,250;17306,150;    0,428;    2,682
532,833;17697,892;    0,610;    2,773
533,417;17553,592;    1,247;    0,864
534,001;17515,535;    0,429;   -0,318
534,584;18317,053;    1,974;    0,500
535,168;18104,024;    3,247;    1,409
535,751;18156,684;    4,520;    0,045
536,334;17613,359;    4,520;   -0,409
536,918;18283,169;    1,974;    1,591
537,501;18385,006;    1,520;    1,318
538,085;18353,378;    1,702;    1,045
538,668;18561,008;    0,883;    2,409
539,251;18893,729;    3,156;    3,773
539,834;18923,581;    0,156;    0,773
540,418;18869,926;    3,247;    4,318
541,001;19016,595;    2,702;    1,773
541,584;19040,050;    1,429;    2,227
542,167;18702,745;    0,702;    2,955
542,750;18897,637;    0,793;   -0,773
543,333;18392,346;    1,429;    2,136
543,916;19265,612;   -0,298;    2,500
544,499;19990,720;    2,520;    0,227
545,082;19979,274;    0,248;    3,591
545,665;20111,558;   -0,207;    1,500
546,248;20486,801;    0,520;   -0,318
546,830;20165,331;   -1,752;    1,955
547,413;20573,534;    0,157;   -0,773
547,996;21151,776;    0,157;    0,500
548,579;20986,257;   -0,843;    0,955
549,161;20746,446;    0,884;    2,682
549,744;20549,564;    0,612;    0,409
550,326;21076,592;    0,885;   -1,136
550,909;20788,212;    2,339;    0,591
551,492;21279,870;    0,521;    0,227
552,074;21017,907;   -0,024;   -1,318
552,657;21626,977;    2,430;    0,045
553,239;21403,231;   -3,024;   -0,773
553,821;21304,672;   -1,570;    1,045
554,404;20766,201;   -0,024;    1,136
554,986;21184,736;    2,248;    1,045
555,568;21802,080;    0,430;   -0,955
556,151;20886,256;    4,067;   -0,227
556,733;21145,846;   -1,388;   -0,864
557,315;21668,395;    4,703;    0,500
557,897;21503,394;    0,521;   -0,500
558,479;21655,275;    1,703;    1,318
559,061;21750,977;    1,067;   -0,864
559,643;22100,378;   -0,297;    0,045
560,225;22542,270;   -0,388;    2,864
560,807;22588,197;    0,340;    0,318
561,389;22062,247;   -1,206;    2,318
561,971;22796,609;   -0,660;    2,136
562,553;22674,572;    0,613;    1,591
563,135;22790,655;    1,249;    1,136
563,717;22393,515;    3,158;    1,136
564,298;23162,693;    3,976;   -0,045
564,880;22883,637;    0,340;   -1,409
565,462;23103,183;    1,977;    1,318
566,043;24395,473;   -0,933;    2,318
566,625;23909,458;    4,067;    1,227
567,207;23756,443;    0,704;    1,682
567,788;25047,606;   -0,114;    1,500
568,370;25966,928;   -1,841;   -0,500
568,951;25868,398;   -0,569;    0,227
569,533;26832,765;    0,977;   -0,500
570,114;27405,637;   -0,296;    0,682
570,695;27977,922;   -0,478;   -1,318
571,277;28690,366;   -0,205;   -1,682
571,858;29539,440;    2,704;   -1,136
572,439;30596,401;    0,795;   -1,045
573,021;30830,376;    0,432;   -2,773
573,602;31475,008;    1,795;    0,318
574,183;32476,887;   -0,114;    2,227
574,764;32746,627;    2,068;    0,409
575,345;33432,420;    0,250;   -0,136
575,926;34118,881;    2,704;    0,136
576,507;34169,630;    2,704;   -0,227
577,088;35314,232;    1,704;    1,682
577,669;35378,105;    1,704;    1,955
578,250;36241,977;   -0,750;   -1,045
578,831;37047,883;   -0,841;   -2,227
579,412;37401,007;   -1,205;    0,955
579,993;38387,743;    1,432;    0,227
580,573;38809,974;   -0,023;   -0,955
581,154;37672,518;    1,613;   -0,591
581,735;38547,601;    0,341;    0,773
582,315;38061,692;    0,523;    2,136
582,896;38444,536;   -1,750;    1,227
583,477;37816,243;    0,614;    1,227
584,057;38006,889;    1,159;    0,955
584,638;38227,288;   -2,750;    2,318
585,218;38255,133;    2,886;    2,682
585,799;38464,690;    1,977;   -0,227
586,379;38427,232;    1,250;    1,591
586,959;37103,229;    2,613;    0,318
587,540;36223,099;    0,432;    2,227
588,120;35617,535;   -1,113;   -0,045
588,700;34424,968;    2,977;    2,136
589,281;34722,540;    1,250;   -0,955
589,861;34625,116;   -0,296;   -1,682
590,441;34439,932;   -1,477;   -2,682
591,021;33327,728;    1,432;   -2,591
591,601;33471,439;    0,431;    0,500
592,181;33472,054;   -1,296;   -0,773
592,761;32678,068;    2,250;    1,409
593,341;32530,635;    1,522;    0,045
593,921;32466,106;   -0,569;    1,591
594,501;32313,628;    1,250;    1,318
595,081;32196,476;    0,522;   -0,318
595,661;32528,325;    1,068;    0,955
596,240;33047,383;   -1,023;    0,136
596,820;32686,147;    2,613;    1,955
597,400;32977,045;    1,977;    0,773
597,980;33182,940;   -0,750;    1,045
598,559;33211,184;    0,341;   -0,227
599,139;32883,270;   -0,750;   -1,227
599,718;32785,088;    0,795;   -0,409
600,298;33015,855;   -2,387;    0,682
600,877;33223,074;    4,795;    1,409
601,457;33500,110;    0,340;    1,136
602,036;33418,698;    1,795;    2,045
602,616;33703,290;    2,250;    1,682
603,195;34003,460;    0,431;    3,500
603,774;33509,601;   -0,296;    2,045
604,354;33505,958;    2,522;   -0,500
604,933;32913,124;    0,250;    1,864
605,512;33007,512;    2,340;    0,591
606,091;33074,779;    1,886;    3,773
606,671;33846,908;    0,249;    0,773
607,250;32798,663;    1,431;    3,136
607,829;33114,516;    1,158;    3,227
608,408;32955,624;    4,613;    2,591
608,987;31878,726;    2,704;    3,409
609,566;32226,158;    0,341;   -2,500
610,145;32250,566;    2,885;    0,682
610,723;32666,113;    1,613;    6,864
611,302;31890,415;    1,067;    1,682
611,881;31351,075;    5,158;   11,227
612,460;32193,356;    0,795;    3,955
613,039;32644,650;    1,703;    2,045
613,617;31276,427;    0,886;    4,773
614,196;31439,027;    1,613;    1,227
614,775;31849,314;    1,249;    2,409
615,353;31780,758;   -1,660;    0,864
615,932;31407,129;    0,249;    2,409
616,510;32003,572;    0,158;    0,591
617,089;31464,683;    8,794;   17,591
617,667;31160,144;    4,885;    6,136
618,246;30956,007;   -1,115;    1,318
618,824;31190,665;    1,612;   -0,955
619,402;30735,862;    0,431;   -1,773
619,981;31245,312;    1,067;   -1,045
620,559;31093,330;    0,794;    1,682
621,137;30550,835;    3,067;    1,864
621,715;30502,109;    3,703;   -0,682
622,293;30409,422;    1,885;   -0,773
622,871;30909,486;    0,340;    0,500
623,450;30439,702;    0,430;   -0,864
624,028;30325,714;   -0,388;   -0,955
624,606;29932,501;    2,339;    1,682
625,183;30328,811;   -0,661;   -1,136
625,761;29860,979;    1,885;    1,136
626,339;30154,447;    2,339;    2,591
626,917;30556,224;    0,339;   -0,045
627,495;30572,483;    2,794;    1,318
628,073;30008,304;    5,248;    2,864
628,650;29639,885;    3,067;    2,136
629,228;30078,862;    1,248;    4,409
629,806;29412,277;   -0,024;    1,136
630,383;29713,090;    0,066;   -0,318
630,961;29446,676;   -2,206;   -0,955
631,539;29139,935;   -2,479;    0,227
632,116;28375,767;   12,703;   15,409
632,694;29035,027;    4,885;    6,500
633,271;29387,332;    1,975;    2,682
633,848;29288,441;    1,430;    2,045
634,426;29288,881;    1,521;    1,773
635,003;28404,876;   -0,207;   -0,409
635,580;28690,364;    1,884;    3,682
636,158;29268,275;    3,793;    1,227
636,735;29232,367;    3,339;   -0,500
637,312;29370,205;    0,521;   -0,682
637,889;29548,229;    2,248;   -0,682
638,466;28961,279;    0,066;   -0,409
639,043;28915,899;    1,702;   -1,136
639,620;29276,122;    0,611;   -0,955
640,197;29589,921;    1,612;    1,682
640,774;29718,638;    1,430;    1,136
641,351;30219,083;    0,612;    1,136
641,928;29498,709;    2,794;    1,409
642,505;29092,608;    0,794;   -0,500
643,082;29291,871;    1,885;    1,227
643,658;28202,316;    1,157;    1,500
644,235;28997,760;   -2,479;    2,500
644,812;29306,205;    1,794;    0,773
645,388;29060,740;    1,612;    1,409
645,965;29119,730;    1,521;    1,682
646,542;29165,084;    3,430;   -0,227
647,118;29169,256;    3,703;   -0,955
647,695;29540,155;    0,339;    1,136
648,271;29420,509;   -2,115;    0,500
648,848;29743,408;    0,248;    2,227
649,424;29577,671;    0,976;    1,318
650,000;29337,752;   -0,388;   -1,045
650,577;29126,651;    0,158;   -0,955
651,153;29660,095;   -1,115;    0,955
651,729;30653,086;    0,521;    0,864
652,305;30978,257;    1,339;    2,773
652,881;36317,338;   -1,297;    1,136
653,458;44426,510;    0,249;    0,227
654,034;49145,228;    0,703;    1,591
654,610;51055,309;    0,339;    0,773
655,186;52534,026;    1,612;    3,045
655,762;52333,289;   -1,842;    0,409
656,338;52411,097;    0,703;    0,136
656,913;53396,723;   -0,297;    0,409
657,489;52668,259;    0,249;   -0,318
658,065;52555,885;    0,794;   -1,591
658,641;53139,603;    2,158;   -0,864
659,217;52387,593;    2,067;    0,409
659,792;51863,219;   -1,751;   -0,409
660,368;52099,845;   -0,388;   -0,682
660,944;51649,381;    1,794;    1,227
661,519;46329,462;    0,522;    0,409
662,095;38907,634;   -0,206;    0,591
662,670;33299,624;   -0,206;   -0,136
663,246;31778,796;   -0,660;   -0,409
663,821;30983,422;    0,431;    1,682
664,396;30421,594;    0,613;    1,864
664,972;30683,402;   -0,660;   -0,500
665,547;31022,483;    3,794;    0,136
666,122;31023,201;    1,340;    0,318
666,698;31380,827;    2,431;    0,318
667,273;30619,090;    0,885;    0,136
667,848;31491,352;    0,340;    1,500
668,423;31233,706;    1,795;    2,318
668,998;31878,878;    0,976;   -0,682
669,573;32450,504;    2,067;   -1,500
670,148;32243,495;    1,885;   -0,682
670,723;32049,575;   -0,024;    0,318
671,298;32567,747;   -1,296;    1,045
671,873;32680,647;   -0,296;   -0,136
672,448;32595,909;    1,704;    0,136
673,023;33037,899;    0,249;   -0,227
673,597;33286,435;    2,704;    2,318
674,172;33004,061;    2,431;    0,318
674,747;32527,506;   -0,205;   -1,045
675,321;32442,950;   -0,933;    3,318
675,896;31960,941;    2,158;    1,045
676,471;32987,294;    2,522;    1,591
677,045;32802,830;   -0,296;    0,682
677,620;32809,183;    2,158;    1,136
678,194;33089,719;    0,249;    1,136
678,769;32566,891;    0,886;   -0,318
679,343;32811,244;   -0,023;    1,773
679,917;32708,598;    0,340;    1,955
680,492;32826,679;    0,249;    3,227
681,066;33048,396;    0,613;    0,409
681,640;33078,296;    1,795;   -0,318
682,214;33859,195;    2,340;    0,500
682,788;33395,276;    0,613;   -0,773
683,363;33391,084;    1,977;    1,682
683,937;33038,710;    0,886;   -0,318
684,511;33904,337;   -1,023;   -0,591
685,085;33602,418;   -1,478;    0,318
685,659;33296,317;    1,431;    0,864
686,232;33499,852;    1,159;   -0,318
686,806;33278,570;    2,159;    0,409
687,380;33953,014;   -1,932;    0,591
687,954;34207,095;    2,432;    1,136
688,528;33844,813;    2,613;    1,955
689,101;34693,348;    0,432;    1,045
689,675;34194,520;    0,886;   -0,136
690,249;33555,328;    3,432;    0,409
690,822;33901,682;    1,159;    0,318
691,396;33977,127;    2,068;    1,227
691,969;33364,844;    2,523;    0,136
692,543;33821,925;   -0,568;   -1,955
693,116;33516,551;   -0,659;   -1,409
693,690;33357,359;   -0,296;    0,500
694,263;33910,713;    2,341;    2,955
694,836;33946,794;    2,795;    3,591
695,410;32491,966;    1,159;    1,773
695,983;33046,956;    1,614;    0,591
696,556;32932,219;   -0,750;   -1,045
697,129;33380,209;   -1,114;    1,409
697,703;32989,563;    1,341;    1,955
698,276;32924,007;    1,705;   -0,773
698,849;32737,361;   -1,023;    1,409
699,422;33140,169;    1,250;    0,591
699,995;32758,159;   -0,659;    0,136
700,568;33353,058;   -0,204;    3,045
701,140;33351,685;   -1,841;    1,682
701,713;33035,766;    0,341;    2,409
702,286;32823,301;    0,796;    0,864
702,859;32689,655;    0,614;   -0,591
703,432;31754,100;   -0,841;    0,682
704,004;32312,544;    1,978;    0,318
704,577;32179,261;    1,068;    0,136
705,150;32810,797;    0,887;    2,500
705,722;32569,605;    1,523;   -3,227
706,295;32282,232;    1,432;   -0,591
706,867;32105,676;    0,250;    1,955
707,440;32338,121;   -0,113;   -0,409
708,012;32594,384;   -0,022;    0,591
708,584;32500,646;    2,705;    0,227
709,157;32780,546;    1,160;   -0,591
709,729;32449,717;    1,069;    2,045
710,301;33360,344;   -1,204;    0,045
710,874;33326,061;    0,341;   -0,227
711,446;32159,324;   -0,295;    0,864
712,018;32082,223;   -3,022;    0,500
712,590;31825,304;   -0,204;    1,682
713,162;32352,476;   -0,477;    1,318
713,734;32666,193;    1,796;   -2,045
714,306;32487,274;    0,342;   -0,409
714,878;31117,355;   -0,295;    0,864
715,450;31977,800;   -0,113;    0,864
716,022;32283,881;    2,433;    1,318
716,593;32385,416;    0,978;    0,591
717,165;32307,952;    1,796;   -1,227
717,737;31982,669;    0,796;    0,409
718,309;31651,932;    1,160;   -0,045
718,880;31628,195;   -1,295;   -1,409
719,452;31867,003;    0,887;   -1,591
720,024;31365,629;    1,705;   -0,591
720,595;31945,438;    2,978;    0,955
721,167;31421,700;    1,160;   -2,045
721,738;30927,963;    2,069;   -1,045
722,309;30843,680;    1,251;   -1,227
722,881;30643,852;    2,705;    0,773
723,452;31377,388;    1,251;    2,864
724,023;31529,560;    1,524;    2,682
724,595;31238,459;    2,342;    0,682
725,166;30969,176;    1,524;   -0,409
725,737;30658,348;    1,887;    0,227
726,308;30741,520;    0,797;    0,318
726,879;31144,055;    1,069;    1,227
727,450;31052,955;   -2,022;   -0,045
728,021;30999,399;    1,069;    0,682
728,592;30813,662;    1,160;    0,500
729,163;31080,016;    1,433;   -0,136
729,734;31090,006;    2,160;   -0,227
730,305;31476,723;    0,615;    0,136
730,876;31827,258;    0,888;    2,955
731,447;31567,430;    0,797;    2,682
732,017;31643,420;   -0,840;    1,864
732,588;31192,501;   -0,021;    1,227
733,159;31405,764;    3,615;   -1,045
733,729;31177,936;    1,251;    0,409
734,300;30390,017;    0,160;    0,864
734,870;30856,280;   -1,385;    0,591
735,441;31468,088;    0,888;   -0,591
736,011;31197,896;    1,070;   -1,591
736,582;31170,704;    1,251;    0,045
737,152;30575,513;    0,979;   -2,045
737,722;31050,412;    1,070;   -0,682
738,293;30796,493;   -2,021;    1,318
738,863;30675,210;    1,797;    2,318
739,433;30389,473;    4,524;    0,318
740,003;31040,099;    1,524;   -0,682
740,573;30394,908;    2,252;   -1,591
741,143;30301,534;    3,615;    0,318
741,713;31114,433;    0,252;   -0,500
742,283;30726,514;    1,706;    1,591
742,853;30509,141;    0,524;    1,591
743,423;29966,676;    0,161;    0,045
743,993;30095,212;    1,070;    1,500
744,563;29400,383;    2,524;   -0,864
745,133;29329,646;   -0,112;   -0,864
745,702;30145,909;    2,797;    1,773
746,272;29278,626;    0,434;    0,591
746,842;28982,980;   -0,748;   -0,591
747,411;29456,516;   -0,839;   -0,318
747,981;29691,506;   -0,930;    0,500
748,551;29739,950;   -0,021;   -1,045
749,120;29535,668;   -0,112;   -0,227
749,690;29936,930;    2,161;    2,409
750,259;30259,466;    0,979;    2,955
750,828;30175,910;    4,070;   -1,955
751,398;30408,628;   -0,112;   -0,045
751,967;29908,345;    2,888;    0,409
752,536;30137,062;    1,161;   -0,227
753,105;30599,416;   -1,384;    0,227
753,675;30441,315;   -0,112;    1,773
754,244;30397,942;    0,888;    3,591
754,813;30397,386;    0,979;    1,227
755,382;30019,740;    0,798;    0,955
755,951;30580,639;   -0,112;    3,682
756,520;30051,447;    2,525;    1,864
757,089;30657,801;    1,888;    0,500
757,658;30826,427;    2,434;    1,227
758,227;30815,236;   -1,111;    0,318
758,795;31144,498;   -1,021;    1,136
759,364;31351,579;    0,525;   -0,591
759,933;30354,206;    1,343;   -0,045
760,501;29898,923;    0,252;   -1,318
761,070;30358,095;   -0,293;   -1,409
761,639;31064,994;    1,434;    1,318
762,207;30394,984;    0,889;   -0,955
762,776;30289,611;    2,889;    0,864
763,344;30201,055;    0,071;    0,591
763,913;29285,318;    1,616;    1,409
764,481;30067,035;    1,980;   -0,136
765,049;29778,753;    0,616;    1,409
765,618;29694,015;    1,434;    0,318
766,186;29811,278;    2,434;    0,136
766,754;29932,996;    1,798;    1,864
767,322;28828,531;    1,162;    0,409
767,890;28922,794;    0,525;   -1,773
768,459;29313,966;    2,616;   -0,318
769,027;29462,410;    2,525;    3,409
769,595;28448,309;    2,616;    2,591
770,163;28861,209;    3,344;    2,955
770,730;28558,017;    2,525;   -0,136
771,298;28457,371;    1,162;   -1,409
771,866;28586,179;    0,253;    4,955
772,434;28876,987;    1,162;   -1,864
773,002;28999,886;    2,616;    0,682
773,569;28608,694;    1,071;    1,682
774,137;28534,230;    0,889;   -0,045
774,705;29302,402;   -0,747;   -0,136
775,272;28690,028;    0,253;    0,682
775,840;28495,655;   -0,111;    2,682
776,407;27948,372;   -0,293;    1,955
776,975;27484,271;    1,162;    0,318
777,542;28624,443;    2,162;   -0,045
778,110;28442,615;    0,707;   -0,045
778,677;28063,514;    1,071;   -0,864
779,244;27799,686;   -1,020;    1,045
779,812;27940,494;    0,980;    0,864
780,379;27741,484;    2,435;    1,136
780,946;28002,292;    2,617;   -0,773
781,513;28368,373;   -0,565;    0,318
782,080;27636,818;    1,253;    2,864
782,647;28392,263;    1,708;    3,045
783,214;27983,434;   -0,201;    3,864
783,781;27515,879;    1,708;   -0,682
784,348;27443,142;    0,253;    1,500
784,915;27985,314;   -1,474;    0,318
785,482;27711,395;    2,708;    2,591
786,049;28136,294;    1,071;   -0,591
786,615;28251,647;    1,708;   -0,955
787,182;28027,910;   -3,201;   -0,682
787,749;27698,809;   -2,201;    1,409
788,315;26966,709;    0,253;   -0,409
788,882;27276,062;    0,981;   -1,227
789,448;27929,325;    1,435;   -0,955
790,015;27998,133;    1,799;    3,227
790,581;27557,760;    0,708;    0,227
791,148;27342,932;    1,344;    1,045
791,714;27624,012;   -1,019;    3,136
792,280;27299,912;    3,708;    1,591
792,847;26807,265;   -0,928;    2,500
793,413;27428,619;   -0,110;   -0,318
793,979;26904,791;    1,526;   -1,318
794,545;26949,690;    2,981;    2,682
795,111;26364,862;    2,435;    1,318
795,678;26567,488;    3,526;   -1,682
796,244;26214,933;    2,799;    0,136
796,810;26771,923;    0,799;    0,773
797,375;26458,913;   -0,292;   -2,136
797,941;26488,539;   -1,110;    0,591
798,507;26629,257;    0,254;   -0,955
799,073;26140,247;    2,708;    0,591
799,639;26171,328;    1,435;    3,136
800,205;26253,045;   -1,565;    2,682
800,770;25700,853;    1,345;    1,773
801,336;25753,934;    2,981;   -0,955
801,901;25439,652;    6,072;    3,136
802,467;26005,460;    0,526;    2,045
803,033;25294,995;   -0,019;    0,864
803,598;25511,167;    1,072;   -1,045
804,163;25591,430;    0,708;   -0,318
804,729;25536,511;   -0,110;    1,136
805,294;25913,228;    1,072;    2,227
805,859;25720,491;    0,890;   -0,409
806,425;25165,299;    3,890;    2,682
806,990;24828,017;    1,890;    4,318
807,555;25379,643;   -0,110;    2,591
808,120;25239,724;   -1,292;   -0,409
808,685;25325,896;    1,072;   -2,500
809,250;24770,795;    2,072;   -0,500
809,815;25113,876;   -0,201;    0,682
810,380;25624,139;    0,981;    1,591
810,945;26166,493;    2,890;    2,045
811,510;25380,846;   -0,200;    1,591
812,075;25045,018;    2,800;   -1,409
812,640;25097,281;    3,709;    1,409
813,204;25128,907;    2,163;   -0,227
813,769;25628,534;    0,254;   -0,045
814,334;24939,251;    0,527;    0,864
814,898;25037,605;    1,981;    0,591
815,463;24883,413;    0,981;   -0,773
816,027;24799,221;    1,345;   -2,318
816,592;24931,120;    2,163;   -2,045
817,156;24407,838;   -2,200;    1,136
817,721;24182,373;    0,982;    2,318
818,285;24129,181;    0,618;    1,500
818,849;24874,262;   -0,018;    1,682
819,414;24764,525;    0,073;    2,955
819,978;24290,515;   -0,291;    1,773
820,542;24924,778;    2,891;    0,500
821,106;24641,132;    2,800;    0,682
821,670;24709,213;    2,709;    2,591
822,234;24332,203;    1,073;    1,409
822,798;23725,284;   -0,836;    0,500
823,362;23706,910;    1,527;    4,227
823,926;22972,809;   -0,018;    1,136
824,490;23199,345;    3,527;   -0,682
825,054;23644,244;    2,527;   -1,136
825,618;23216,507;   -1,200;   -1,500
826,181;23129,860;    0,982;   -1,318
826,745;23036,578;   -0,745;   -1,045
827,309;23420,477;    2,255;    1,318
827,872;22751,103;    0,527;    0,955
828,436;23816,093;    1,982;   -0,773
828,999;23889,447;    2,436;    1,227
829,563;22641,255;   -0,654;    1,136
830,126;22457,700;   -0,018;   -0,591
830,690;22443,326;    0,709;    2,864
831,253;21939,498;   -0,473;    2,227
831,816;22080,943;   -0,018;    0,500
832,380;21994,115;    1,164;    0,864
832,943;22176,286;    3,073;   -0,500
833,506;21706,731;    0,255;   -1,227
834,069;22502,903;    2,164;   -0,955
834,632;22534,529;   -2,200;    1,318
835,195;22400,519;    1,346;    0,955
835,758;21558,782;    0,709;    1,955
836,321;21331,590;    1,073;   -1,045
836,884;21452,399;   -1,291;   -0,955
837,447;21491,843;    0,528;    1,773
838,010;21772,106;    1,800;    3,227
838,573;22132,823;    0,528;    0,773
839,135;22042,268;   -0,109;   -0,955
839,698;21410,622;    2,528;    0,409
840,261;20920,248;    0,255;   -0,227
840,823;20822,329;   -0,927;    0,864
841,386;21091,501;   -0,018;   -2,409
841,948;20899,491;    0,255;    1,773
842,511;20643,845;    0,255;    1,682
843,073;20847,198;    2,982;    0,227
843,636;20587,916;    0,619;   -0,227
844,198;20480,088;    1,255;    0,591
844,760;20650,987;    0,619;    1,955
845,322;20255,068;    0,164;    1,136
845,885;20702,876;   -0,290;    0,591
846,447;21183,775;    0,710;    0,227
847,009;20689,856;    3,983;   -0,682
847,571;21080,392;    1,346;   -2,045
848,133;21174,472;   -0,199;   -1,864
848,695;21000,553;    2,346;    1,409
849,257;20516,180;    1,346;   -1,682
849,819;20703,897;    2,983;   -0,409
850,381;20750,524;    1,801;   -0,864
850,942;21166,059;    1,892;   -0,591
851,504;21057,140;    0,983;    0,227
852,066;21144,130;    1,619;   -1,591
852,628;20630,393;    0,165;    1,955
853,189;20186,838;    0,256;    2,682
853,751;20342,646;   -0,654;    1,409
854,312;20153,272;    1,256;   -1,682
854,874;20674,353;   -0,108;   -0,773
855,435;21143,161;    0,528;   -1,682
855,997;21263,788;    3,983;   -0,136
856,558;20503,414;    0,801;    1,773
857,119;20671,495;   -0,744;    2,864
857,681;20325,394;   -0,108;    0,318
858,242;20348,839;    1,347;   -2,136
858,803;20799,011;    1,074;   -0,773
859,364;21354,819;    0,892;   -4,773
859,925;20696,355;   -0,290;   -0,955
860,486;20614,436;    0,529;   -0,955
861,047;20272,244;    0,165;   -1,227
861,608;20067,961;    0,165;   -0,773
862,169;20288,133;   -0,562;   -0,045
862,730;20027,214;   -0,290;    1,409
863,291;20250,931;    0,438;   -0,500
863,852;20589,467;   -0,926;    1,955
864,412;20063,002;   -1,835;   -0,864
864,973;18596,538;    1,892;    0,500
865,534;18453,891;    2,074;    0,227
866,094;20018,336;    2,620;    0,227
866,655;19614,962;    4,711;    3,318
867,215;19926,862;    0,074;    0,136
867,776;19742,215;   -1,199;   -0,136
868,336;19846,660;    1,529;    0,136
868,897;19265,650;    3,438;    1,682
869,457;19043,913;    3,256;    0,318
870,017;19273,539;    2,438;   -1,227
870,578;19775,438;    1,893;    0,773
871,138;19404,428;    2,620;   -0,955
871,698;18946,782;   -0,562;   -1,318
872,258;18788,227;    0,711;   -2,864
872,818;19171,308;    2,347;    0,045
873,378;19147,570;   -2,198;    1,045
873,938;18698,924;    4,984;    0,500
874,498;19038,278;    1,256;   -1,955
875,058;18884,177;    4,347;    1,773
875,618;18705,985;    1,438;   -2,682
876,177;18713,612;   -0,471;    0,136
876,737;18267,238;   -0,289;    1,955
877,297;18239,319;    2,711;    1,955
877,856;18231,127;    2,529;    0,318
878,416;18178,663;    2,438;   -0,136
878,976;18403,107;    3,438;    0,409
879,535;18626,916;    4,529;    3,136
880,095;18336,633;    1,347;    0,045
880,654;18469,259;    0,347;    1,318
881,213;18510,795;    2,347;    1,500
881,773;18173,148;    1,984;    2,682
882,332;18514,684;    6,075;    5,136
882,891;18368,310;    0,711;    2,136
883,451;18840,573;   -2,016;    1,682
884,010;18292,836;   -1,107;   -0,409
884,569;18404,553;   -2,289;   -0,045
885,128;18487,725;   -0,743;   -1,864
885,687;18561,988;   -0,743;    0,682
886,246;18228,342;    2,620;    2,136
886,805;17986,695;    1,620;    2,045
887,364;18359,049;    1,166;   -0,500
887,922;18733,403;   -0,016;    0,045
888,481;18171,484;    1,530;    0,591
889,040;18534,746;    3,711;    2,136
889,599;19245,373;    2,166;    1,409
890,157;19303,817;    2,166;    2,409
890,716;18981,808;    2,166;    0,227
891,274;18729,343;    0,075;   -1,136
891,833;19200,242;    1,166;    0,864
892,391;19091,869;    1,802;    0,500
892,950;19149,404;    0,166;   -0,773
893,508;19472,940;    0,984;   -0,409
894,067;18818,384;   -0,379;    0,136
894,625;18743,102;   -1,016;   -1,500
895,183;18964,546;   -0,198;   -0,682
895,741;18871,991;    2,257;   -1,773
896,299;18667,072;    1,621;   -2,409
896,858;18875,607;    1,530;   -1,591
897,416;19034,234;    0,166;   -1,318
897,974;18792,678;   -2,197;    0,318
898,532;18908,759;    6,530;    2,682
899,089;18781,477;    0,621;   -0,682
899,647;18871,739;    0,530;    1,318
900,205;18502,184;    0,257;    1,045
900,763;18736,538;    2,166;    0,227
901,321;18738,891;    3,530;   -1,409
901,878;18147,154;    3,257;   -0,773
902,436;17995,871;    0,257;    1,318
902,994;18394,680;    6,712;    3,682
903,551;17830,488;    1,439;    0,409
904,109;18255,478;    1,530;   -1,409
904,666;17822,923;    1,439;    1,045
905,224;17561,185;    3,894;   -0,409
905,781;17315,994;   -0,470;   -0,318
906,338;17416,165;    0,167;    1,045
906,895;17340,428;    1,894;    2,045
907,453;17224,873;    2,348;    1,136
908,010;17265,772;    3,348;    0,409
908,567;16866,944;   -0,561;    0,591
909,124;16340,116;    2,439;   -1,500
909,681;16451,924;   -1,288;    0,682
910,238;16618,096;   -0,106;   -1,318
910,795;16937,995;   -1,561;   -1,136
911,352;16546,268;   -0,379;   -2,682
911,909;15940,995;    2,803;   -0,864
912,466;16423,359;    1,985;    1,500
913,022;15977,086;   -0,924;    0,500
913,579;16345,995;   -0,470;    2,045
914,136;16002,722;   -2,561;    0,955
914,692;16370,086;    1,530;   -1,227
915,249;15900,359;    0,530;    0,409
915,806;16114,631;    1,803;    1,955
916,362;15765,359;    0,894;    1,864
916,918;15341,359;    2,439;    1,045
917,475;15357,177;    1,621;    0,955
918,031;15493,086;    0,076;   -0,045
918,587;14867,449;    0,621;   -0,318
919,144;15098,086;   -0,379;    0,227
919,700;15457,086;    0,167;    0,773
920,256;14983,268;    0,439;    0,045
920,812;14554,995;    1,439;   -1,045
921,368;14542,631;    1,348;   -1,045
921,924;14234,904;    0,439;   -0,136
922,480;13753,722;    0,076;    1,227
923,036;14407,449;   -0,652;    1,955
923,592;14338,631;    0,621;    0,318
924,148;14228,904;    1,894;   -0,955
924,704;13541,177;    0,258;   -0,409
925,259;13768,722;   -0,561;    0,591
925,815;13501,268;    3,803;    0,500
926,371;13036,177;    3,530;    1,409
926,926;12878,904;    1,621;    0,591
927,482;12507,086;    1,621;    0,773
928,037;12313,631;   -0,833;    2,045
928,593;12598,449;    0,258;    1,045
929,148;12365,449;    1,167;   -1,500
929,704;11908,904;    2,439;   -0,500
930,259;12088,359;    0,894;   -0,136
930,814;11120,631;    1,803;    1,955
931,369;10789,086;    0,258;   -0,773
931,925;10658,540;   -1,924;    0,136
932,480;10567,086;    3,076;   -2,591
933,035;10421,904;    3,985;   -0,318
933,590;10158,631;   -1,742;   -1,773
934,145; 9764,449;   -1,288;   -0,318
934,700;10173,813;    0,348;   -0,591
935,255; 9943,722;    4,803;    0,045
935,809; 9121,359;    6,258;    0,864
936,364; 8214,359;    2,167;   -0,136
936,919; 8183,722;    2,348;   -1,773
937,474; 8085,995;    1,348;    0,136
938,028; 7844,995;    3,076;    1,136
938,583; 7221,268;    6,348;    4,682
939,138; 7538,449;    0,167;    2,136
939,692; 6956,813;   -1,015;   -1,136
940,247; 6583,177;    1,167;   -1,045
940,801; 6105,813;    0,621;    0,227
941,355; 5994,540;    0,439;    2,591
941,910; 5652,540;    0,712;   -2,136
942,464; 5738,540;    2,712;   -0,318
943,018; 5487,268;    3,258;   -0,227
943,572; 5419,268;    2,803;   -0,682
944,126; 4773,722;   -0,924;   -0,409
944,681; 4683,813;    0,712;    0,227
945,235; 4682,449;    2,167;   -0,591
945,789; 4592,540;    1,258;   -1,864
946,342; 4661,722;   -0,561;   -0,591
946,896; 4477,904;    0,348;    0,955
947,450; 4213,359;   -0,561;   -0,227
948,004; 4384,813;    1,076;   -0,045
948,558; 4429,449;    1,258;   -0,864
949,111; 4360,631;   -1,197;   -0,318
949,665; 4338,359;   -0,106;   -0,682
950,219; 4195,359;    0,621;   -1,045
950,772; 4284,722;    0,258;    1,864
951,326; 4203,449;   -1,106;   -0,955
951,879; 4310,449;    1,076;   -2,318
952,433; 4323,359;    1,348;    2,227
952,986; 4179,813;    0,348;    0,682
953,539; 4110,631;    1,530;    0,591
954,093; 4050,177;    0,985;   -1,318
954,646; 4193,722;   -0,288;    1,318
955,199; 3993,540;    1,258;   -0,500
955,752; 3849,631;    1,985;    1,773
956,305; 3812,995;    0,894;    2,955
956,858; 3981,359;    0,621;   -0,318
957,411; 4164,359;    3,621;    2,136
957,964; 3957,177;    2,076;    2,136
958,517; 3963,631;    0,985;    3,136
959,070; 3780,631;   -1,197;    1,955
959,623; 3852,086;    1,076;    1,500
960,176; 3595,722;    0,712;    2,045
960,728; 3571,995;    1,712;    0,773
961,281; 3643,631;    2,258;    0,500
961,834; 3682,268;   -0,833;    0,864
962,386; 3608,449;    1,258;    1,045
962,939; 3522,540;    3,439;   -0,318
963,491; 3683,449;    2,621;    1,136
964,043; 3543,813;    0,076;    2,409
964,596; 3679,449;    1,712;    2,227
965,148; 3482,995;   -0,379;    1,773
965,700; 3433,813;   -0,015;   -0,227
966,253; 3594,177;   -0,833;    0,318
966,805; 3398,631;    1,894;    0,773
967,357; 3459,813;    0,439;   -1,500
967,909; 3389,995;    1,167;   -1,227
968,461; 3518,177;    0,894;    3,136
969,013; 3454,268;   -1,561;   -0,864
969,565; 3528,359;    1,803;   -1,136
970,117; 3556,449;    3,803;    1,045
970,669; 3423,904;    3,258;   -0,136
971,220; 3276,722;    2,167;   -1,500
971,772; 3200,268;    1,348;   -0,318
972,324; 3318,177;   -1,197;   -0,500
972,876; 3284,177;    0,167;   -0,045
973,427; 3397,540;   -1,197;   -1,045
973,979; 3365,722;    0,076;   -2,500
974,530; 3437,359;    0,803;    1,318
975,082; 3430,631;    2,167;    1,682
975,633; 3295,995;    2,894;    1,682
976,184; 3467,813;    2,076;    0,773
976,736; 3239,813;    0,348;    0,227
977,287; 3015,995;    0,258;   -0,500
977,838; 3207,359;   -0,924;   -0,318
978,389; 3261,449;    0,803;   -0,500
978,940; 3153,449;    1,258;   -0,409
979,491; 3165,631;    2,258;   -0,500
980,042; 3099,631;   -0,652;    3,045
980,593; 3188,904;    1,894;    0,227
981,144; 3216,268;    3,530;   -0,500
981,695; 3156,177;   -0,470;    1,500
982,246; 3147,813;   -1,833;    1,045
982,797; 3329,177;   -0,561;    0,682
983,347; 3445,631;    2,167;    0,591
983,898; 3589,449;    4,167;    0,409
984,449; 3375,813;    2,530;    0,773
984,999; 3340,722;    1,894;   -1,136
985,550; 3080,904;    3,167;   -0,318
986,100; 3139,268;    0,712;   -0,318
986,651; 3177,449;    0,258;    0,045
987,201; 3144,904;    0,894;   -0,591
987,751; 3245,177;   -0,288;    2,864
988,302; 3217,086;   -0,379;    1,500
988,852; 3238,631;    1,985;   -1,136
989,402; 3269,813;    0,985;    0,682
989,952; 3167,904;    1,621;    0,864
990,502; 3290,086;    1,076;    0,682
991,052; 3271,359;   -0,106;    0,045
991,602; 3120,722;    1,167;    1,318
992,152; 3103,359;    2,803;    0,682
992,702; 3078,449;    1,167;   -0,045
993,252; 3029,904;    0,076;   -0,500
993,802; 3092,631;    1,167;    1,318
994,352; 3356,177;   -0,742;    1,136
994,901; 3470,268;    1,076;    3,227
995,451; 3380,086;   -1,197;    0,318
996,000; 3470,995;    1,076;    0,318
996,550; 3158,631;    2,894;    0,227
997,100; 3159,631;   -0,561;   -0,045
997,649; 3464,722;   -0,197;    0,955
998,198; 3071,904;   -0,288;   -1,500
998,748; 3251,813;    0,348;   -2,318
999,297; 3173,449;    0,985;   -0,409
999,846; 3249,540;    1,894;   -0,773
1000,395; 3291,086;    1,530;    0,500
1000,945; 3215,268;    1,076;   -0,773
1001,494; 3301,449;    0,167;    0,682
1002,043; 3295,904;    0,712;    0,864
1002,592; 3152,995;    3,439;    1,955
1003,141; 3314,813;    2,439;   -0,682
1003,690; 3112,359;    1,258;    0,500
1004,238; 3208,722;   -0,106;   -0,045
1004,787; 2837,813;   -1,288;    1,227
1005,336; 3047,268;    1,621;    0,682
1005,885; 3218,177;   -0,197;   -2,773
1006,433; 3384,449;   -0,470;    0,955
1006,982; 3442,631;    2,167;    1,682
1007,531; 3363,722;    2,712;   -0,227
1008,079; 3333,540;    0,258;    0,500
1008,627; 3485,722;    1,621;    0,409
1009,176; 3190,540;    0,076;   -1,955
1009,724; 3237,722;   -2,742;    0,864
1010,273; 3286,177;    1,076;    0,500
1010,821; 3412,995;    1,076;    1,409
1011,369; 3140,995;    0,076;    1,318
1011,917; 3101,540;   -0,833;   -0,591
1012,465; 3411,631;    2,530;   -1,591
1013,013; 3553,722;    0,439;   -1,682
1013,561; 3373,631;   -1,288;   -0,773
1014,109; 3418,631;   -0,833;    1,682
1014,657; 3296,722;    1,348;    0,591
1015,205; 3447,268;    0,894;   -0,955
1015,753; 3484,722;    0,258;   -1,409
1016,301; 3526,449;    2,621;    3,045
1016,848; 3529,177;    2,167;    0,409
1017,396; 3562,177;    1,621;    0,045
1017,944; 3700,177;    2,621;    1,864
1018,491; 3462,631;   -0,197;    1,409
1019,039; 3565,904;   -0,652;    0,591
1019,586; 3520,359;    0,076;    1,682
1020,134; 3630,722;    0,712;    1,500
1020,681; 3640,722;    2,894;   -1,136
1021,228; 3676,631;   -0,561;   -2,227
1021,776; 3482,177;   -0,833;   -1,136
1022,323; 3693,268;    0,803;    0,773
1022,870; 3633,995;   -0,470;   -0,045
1023,417; 3510,904;    2,076;    1,864
1023,964; 3675,813;    0,621;    1,227
1024,511; 3506,359;   -0,652;    0,773
1025,058; 3281,995;    0,439;   -0,045
1025,605; 3326,359;   -1,742;    3,136
1026,152; 3532,359;   -0,106;   -0,591
1026,699; 3274,449;    0,167;    1,318
1027,245; 3475,177;    2,439;    0,318
1027,792; 3738,540;    0,712;    1,409
1028,339; 3568,268;    4,076;   -0,045
1028,885; 3405,359;    3,621;   -0,227
1029,432; 3338,268;   -0,106;    0,227
1029,978; 3402,449;    1,348;   -1,591
1030,525; 3297,995;    1,621;    0,409
1031,071; 3572,540;    0,348;    1,136
1031,618; 3633,359;    1,258;    1,682
1032,164; 3449,086;    2,076;    3,045
1032,710; 3491,813;    0,076;   -1,500
1033,256; 3416,359;    0,712;   -0,136
1033,803; 3416,449;   -0,288;    1,500
1034,349; 3151,813;    1,803;    0,136
1034,895; 3294,359;    2,621;   -0,318
1035,441; 3253,540;    0,439;    0,318
1035,987; 3266,086;   -2,288;   -0,682
1036,533; 3244,449;   -0,197;   -0,955
1037,078; 3450,722;    4,712;    1,682
1037,624; 3280,086;    2,439;   -0,955
1038,170; 3312,813;    1,712;   -0,318
1038,716; 3170,631;    2,167;   -0,409
1039,261; 3113,540;    2,167;   -0,773
1039,807; 3029,177;   -0,015;    3,409
1040,352; 3094,086;   -1,288;   -0,318
1040,898; 3155,813;    0,167;   -0,682
1041,443; 3088,177;    0,803;   -2,591
1041,989; 3056,631;    3,621;    1,591
1042,534; 2968,540;    0,985;    2,591
1043,079; 3115,995;    1,985;    0,955
1043,625; 2839,177;    0,258;    0,500
1044,170; 2883,813;    2,439;    1,045
1044,715; 3142,177;    0,167;    0,955
1045,260; 2949,359;   -0,833;   -0,955
1045,805; 3025,359;    0,258;   -0,591
1046,350; 2985,995;    0,530;   -0,409
1046,895; 2894,449;    0,803;    1,591
1047,440; 2837,995;    1,530;    0,409
1047,985; 2735,268;   -1,197;   -0,955
1048,530; 2664,359;    1,348;    1,227
1049,074; 2726,449;    2,803;    0,318
1049,619; 2702,813;   -0,924;    1,955
1050,164; 2478,359;    1,076;    0,227
1050,708; 2531,086;    2,621;    0,045
1051,253; 2882,722;    3,258;   -2,227
1051,797; 2612,177;   -0,197;   -1,318
1052,342; 2651,904;    1,348;    1,045
1052,886; 2628,268;    1,803;   -1,409
1053,430; 2510,904;    2,167;    0,136
1053,975; 2525,449;    0,894;   -0,318
1054,519; 2498,268;    1,803;    3,227
1055,063; 2478,631;    3,621;    1,318
1055,607; 2361,086;    1,348;    0,227
1056,151; 2409,086;    0,530;    1,682
1056,695; 2337,359;   -1,833;   -1,136
1057,239; 2397,268;   -1,197;   -0,682
1057,783; 2392,177;    2,258;   -1,500
1058,327; 2325,904;    3,076;    1,409
1058,871; 2539,722;    3,985;    1,318
1059,415; 2247,995;   -0,561;   -0,045
1059,958; 2500,086;    2,985;    2,591
1060,502; 2226,995;    1,348;   -0,773
1061,046; 2140,449;    1,712;   -0,955
1061,589; 2114,631;    2,803;   -1,136
1062,133; 2005,086;    0,985;    1,864
1062,676; 1947,086;    1,439;    0,864
1063,220; 1930,268;    0,985;    0,500
1063,763; 1931,722;    2,985;    1,136
1064,306; 2018,813;    0,985;    1,864
1064,849; 1914,904;    2,076;    0,591
1065,393; 1930,995;    2,894;   -1,500
1065,936; 2048,086;    2,530;   -0,409
1066,479; 1925,086;    2,621;    1,318
1067,022; 1935,540;    1,894;   -0,227
1067,565; 1826,722;   -1,197;   -1,318
1068,108; 1871,540;    1,258;   -0,591
1068,651; 1857,631;   -2,470;    1,409
1069,194; 1775,631;   -1,106;   -1,682
1069,736; 1753,813;    3,803;    0,955
1070,279; 1757,177;   -1,652;   -0,500
1070,822; 1779,449;    1,530;   -0,318
1071,364; 1832,177;    0,530;    1,318
1071,907; 1673,540;    0,348;    3,227
1072,450; 1617,722;    0,258;   -0,045
1072,992; 1598,631;   -0,561;    3,136
1073,535; 1694,813;    0,167;    2,136
1074,077; 1513,177;    2,985;    2,045
1074,619; 1472,359;    0,985;    0,591
1075,161; 1507,631;   -0,561;    1,500
1075,704; 1683,904;    0,258;    1,227
1076,246; 1493,540;    1,530;    0,682
1076,788; 1424,995;   -1,015;    1,773
1077,330; 1509,177;   -2,106;    2,136
1077,872; 1449,995;   -1,924;    0,955
1078,414; 1675,177;    3,712;    0,773
1078,956; 1397,995;    0,167;   -0,227
1079,498; 1644,631;    0,439;    0,318
1080,040; 1343,813;    0,985;   -1,318
1080,581; 1296,177;    0,621;   -0,318
1081,123; 1243,904;   -0,106;   -0,773
1081,665; 1294,540;    3,803;   -0,955
1082,206; 1562,813;    3,258;   -0,500
1082,748; 1432,631;    3,258;    2,045
1083,289; 1322,268;    0,167;    1,318
1083,831; 1223,813;    0,258;    0,227
1084,372; 1237,813;    0,894;    0,591
1084,913; 1243,540;    3,348;    0,864
1085,455; 1222,177;    1,530;   -2,045
1085,996; 1176,904;    0,530;    0,136
1086,537; 1197,449;    0,985;    0,864
1087,078; 1230,268;    0,439;   -2,136
1087,619; 1270,086;   -1,652;    0,227
1088,160; 1191,268;    1,439;    1,318
1088,701; 1180,177;   -0,742;    0,682
1089,242; 1114,540;   -0,561;   -2,227
1089,783; 1218,268;   -0,561;    1,409
1090,324; 1177,631;   -0,833;    0,682
1090,865; 1057,722;   -1,924;   -0,409
1091,405; 1040,995;   -0,561;    2,227
1091,946; 1065,631;   -0,197;   -0,955
1092,487; 1001,540;   -1,288;   -1,409
1093,027; 1135,540;    1,803;   -1,500
1093,568;  990,540;    2,258;    1,227
1094,108; 1076,540;    0,621;    1,773
1094,649; 1032,813;   -0,470;    0,136
1095,189;  971,177;    1,167;   -0,682
1095,729;  912,904;    0,712;    0,955
1096,269;  927,449;    1,258;   -0,955
1096,810; 1229,540;   -0,197;    0,500
1097,350; 1056,540;   -0,561;   -0,773
1097,890;  953,086;    2,985;    1,227
1098,430; 1200,177;    4,985;    2,864
1098,970; 1070,904;    1,894;    1,682
1099,510;  957,086;   -0,833;   -2,318
1100,050;  876,631;    0,258;   -1,591
1100,589;  842,722;    0,076;   -0,318
1101,129;  956,631;    0,894;   -0,955
1101,669; 1089,904;    2,803;    2,136
1102,209;  929,540;    1,530;    2,227
1102,748;  877,904;    3,439;    0,955
1103,288;  855,177;    0,712;   -1,227
1103,827;  894,268;    3,530;   -2,227
1104,367;  783,904;    1,712;   -2,409
1104,906;  749,177;   -1,015;   -1,136
1105,445;  805,631;    0,985;   -1,136
1105,985;  746,722;   -0,652;    1,500
1106,524;  796,086;    1,530;   -0,682
1107,063;  764,449;    1,167;    1,409
1107,602;  741,904;    1,894;   -1,500
1108,141;  652,268;    1,621;    1,500
1108,680;  763,813;    3,985;   -0,591
1109,219;  705,540;    0,167;   -0,500
1109,758;  715,904;    4,167;    0,682
1110,297;  679,177;   -1,106;   -0,682
1110,836;  626,449;    1,439;    0,955
1111,375;  780,086;    0,348;    0,409
1111,913;  791,631;    0,985;    0,773
1112,452;  735,449;    0,894;    0,136
1112,991;  637,268;    1,076;    1,955
1113,529;  581,268;    0,167;   -0,045
1114,068;  641,722;    0,439;    2,955
1114,606;  534,995;   -0,561;   -0,955
1115,144;  702,086;    1,530;    1,045
1115,683;  636,268;    1,985;    0,318
1116,221;  698,540;    2,076;   -0,864
1116,759;  605,086;    1,621;   -0,864
1117,297;  775,540;    1,621;    1,864
1117,836;  599,904;    1,985;   -1,227
1118,374;  602,268;    0,258;   -0,682
1118,912;  550,995;    0,439;    2,682
1119,450;  532,086;    0,985;    0,864
1119,988;  570,449;    3,348;    2,136
1120,525; 1026,177;    7,258;    3,318
1121,063;  724,268;    0,530;    1,864
1121,601;  543,086;    1,076;   -1,227
1122,139;  506,995;    1,076;   -2,045
1122,676;  688,631;   -1,652;    2,773
1123,214;  626,449;    0,712;    4,409
1123,751;  438,359;    0,621;    2,227
1124,289;  566,359;    0,894;   -0,409
1124,826;  434,359;   -0,379;    0,227
1125,364;  373,904;    0,712;   -0,955
1125,901;  552,359;    6,258;    1,227
1126,438;  646,177;    3,530;    0,955
1126,975;  389,631;    2,985;   -0,773
1127,513;  453,540;    2,621;    2,136
1128,050;  373,177;   -0,561;   -0,682
1128,587;  455,631;    1,348;   -0,227
1129,124;  492,086;   -0,015;    1,318
1129,661;  373,359;   -1,924;    0,227
1130,198;  537,904;    2,439;    0,773
1130,734;  476,540;   -0,379;    1,409
1131,271;  342,813;   -1,197;    0,864
1131,808;  513,813;    1,621;    3,045
1132,345;  386,086;    4,530;    0,318
1132,881;  271,359;   -0,561;   -1,864
1133,418;  393,631;    0,348;   -1,136
1133,954;  341,904;    0,712;   -2,682
1134,491;  399,540;    1,712;   -0,773
1135,027;  305,449;    2,167;    0,864
1135,564;  387,359;    1,439;    2,955
1136,100;  370,904;   -0,742;    2,136
1136,636;  283,449;   -1,015;   -1,045
1137,172;  357,631;    0,894;   -1,045
1137,708;  281,268;   -1,561;   -1,045
1138,245;  291,268;    0,803;   -1,227
1138,781;  253,177;    1,803;   -3,318
1139,317;  310,177;    1,894;   -1,409
1139,852;  291,268;    3,076;    0,136
1140,388;  409,995;    2,076;   -0,409
1140,924;  296,177;    1,076;   -2,227
1141,460;  240,268;   -0,288;    0,136
1141,996;  174,995;   -0,652;    2,682
1142,531;  214,359;    1,076;    3,318
1143,067;  410,449;    1,167;    1,045
1143,602;  475,904;    3,439;   -0,318
1144,138;  325,722;    0,803;    1,045
1144,673;  197,086;    1,621;    1,409
1145,209;  260,722;    2,894;   -0,318
1145,744;  186,540;    0,803;    0,864
1146,279;  305,359;    1,530;   -0,136
1146,815;  234,540;    1,530;   -2,682
1147,350;  277,086;   -0,924;    0,045
1147,885;  189,268;   -1,924;   -1,318
1148,420;  190,449;    2,439;    0,773
1148,955;  173,086;   -1,470;    1,864
1149,490;  199,904;   -1,106;   -1,591
1150,025;  181,086;   -1,106;   -1,773
1150,560;  285,268;   -0,288;   -0,955
1151,094;  247,722;    0,258;   -0,591
1151,629;  252,086;   -3,742;    0,864
1152,164;  184,813;   -1,288;    1,318
1152,698;  147,268;    1,258;   -0,136
1153,233;  107,540;   -1,379;   -0,682
1153,767;  159,177;   -0,288;   -2,318
1154,302;  192,813;   -0,379;    1,773
1154,836;  194,995;    0,803;   -2,136
1155,371;  251,540;    2,258;    3,682
1155,905;  205,540;    1,985;    1,682
1156,439;  179,086;    0,530;   -0,500
1156,973;  208,359;    0,439;    0,318
1157,507;  139,359;   -1,742;    0,682
1158,042;  169,268;   -0,652;    1,045
1158,576;  208,086;   -0,561;    1,773
1159,110;  202,540;    0,076;    2,409
1159,643;  183,631;   -2,470;   -0,045
1160,177;  123,904;   -2,015;    1,500

