
Integration time [ms]:   0,050
Averaging Nr. [scans]: 11
Smoothing Nr. [pixels]: 0
Data measured with spectrometer [name]: 7318044SP
Wave   ;Sample   ;Dark     ;Reference
[nm]   ;[counts] ;[counts] ;[counts] 

186,757;    7,436;   38,161;    1,318
187,357;   13,770;   26,706;    0,955
187,958;    6,163;   17,252;   -1,591
188,558;   21,874;   12,979;   -1,227
189,159;    8,794;   10,070;   -4,500
189,759;    4,511;    5,797;   -3,591
190,360;    3,623;    6,797;   -2,136
190,960;   16,721;    5,706;   -4,136
191,560;   21,494;    2,614;   -6,591
192,161;  127,884;    5,885;   -3,500
192,761;   70,638;    5,520;   -3,227
193,361;   40,763;    3,065;   -3,773
193,962;   63,272;    1,612;   -2,682
194,562;   25,845;   -0,114;   -3,955
195,162;   27,394;   -0,567;   -2,227
195,762;   84,773;    2,433;   -0,045
196,362;   56,413;    1,706;   -2,500
196,963;   19,914;    1,706;   -0,864
197,563;   39,701;    1,252;   -0,955
198,163;   13,616;   -0,111;   -0,682
198,763;   22,939;   -0,020;   -0,500
199,363;   48,960;    3,616;   -0,500
199,963;   37,668;    2,162;    0,409
200,563;   36,410;    6,344;   -1,409
201,163;   25,266;    5,435;   -0,227
201,763;   45,136;    1,435;    0,318
202,363;   27,022;    0,980;    1,500
202,963;   47,700;    1,526;    1,045
203,563;   88,524;    0,344;    0,500
204,162;   45,556;    1,889;   -1,864
204,762;   39,260;    2,071;    0,591
205,362;   25,577;    0,708;    1,955
205,962;   47,440;    3,435;    1,955
206,562;   47,690;    1,889;    2,318
207,161;   36,344;    1,708;    0,318
207,761;  103,966;    4,435;    2,409
208,361;   51,299;    1,889;    1,409
208,960;   73,292;    2,889;    1,500
209,560;   71,556;    0,435;    1,591
210,160;   88,173;    5,071;    1,864
210,759;   68,733;    0,708;    1,227
211,359;   55,311;   -0,474;    1,045
211,958;  167,742;    3,526;    2,045
212,558;  184,967;    0,799;    1,864
213,157;  110,797;   -0,929;    1,500
213,757;  275,540;    5,617;   -0,227
214,356;  151,326;    1,708;   -0,409
214,956;  274,730;    3,526;    0,409
215,555;  127,216;    0,617;    2,136
216,154;   92,855;   -0,292;   -0,591
216,754;   97,567;    1,253;    0,773
217,353;  123,762;   -0,383;   -1,045
217,952;   54,198;    2,072;    0,318
218,552;  163,569;    0,254;   -0,773
219,151;  110,394;   -1,110;    0,955
219,750;   99,550;    0,890;   -0,227
220,349;   91,425;   -2,292;    1,045
220,948;  187,626;    1,163;    1,136
221,548;  127,067;    0,617;    1,227
222,147;  163,031;   -1,292;   -0,409
222,746;  291,421;    1,254;   -0,955
223,345;  197,551;   -1,019;    0,500
223,944;  209,944;    1,163;    0,773
224,543;  235,659;    4,072;   -1,409
225,142;  247,434;    1,345;    0,136
225,741;  233,905;    1,163;    1,045
226,340;  221,039;    1,254;   -0,955
226,939;  352,469;    2,708;   -0,136
227,538;  223,248;    1,163;   -0,773
228,137;  375,858;    0,435;    0,864
228,735;  328,395;    0,435;    1,227
229,334;  209,561;   -0,474;   -0,227
229,933;  425,583;    0,799;    0,591
230,532;  444,579;   -1,201;   -0,409
231,131;  519,245;    1,253;    0,318
231,729;  399,361;    1,163;   -2,318
232,328;  331,426;    0,435;   -1,500
232,927;  351,377;    4,526;   -0,500
233,525;  339,257;    0,981;    0,045
234,124;  402,303;    1,890;   -1,591
234,723;  326,639;    1,617;   -1,045
235,321;  326,945;    1,163;    0,136
235,920;  381,460;    2,526;   -1,227
236,518;  568,038;    1,072;    0,318
237,117;  398,345;    2,890;   -0,227
237,715;  416,476;    1,163;   -0,500
238,314;  477,602;    1,708;   -2,318
238,912;  643,605;    0,526;   -1,409
239,510;  511,119;    1,162;   -1,227
240,109;  651,134;   -0,474;    3,773
240,707;  609,171;   -0,474;    1,227
241,305;  465,229;   -0,383;    0,136
241,904;  589,502;   -0,292;   -2,045
242,502;  690,980;    3,253;   -0,227
243,100;  579,460;    3,344;   -0,955
243,698;  535,409;    2,799;    1,682
244,297;  574,206;   -0,656;    0,682
244,895;  574,384;   -0,474;   -2,318
245,493;  788,278;    2,981;   -0,591
246,091;  771,153;    5,163;   -1,318
246,689;  699,600;    2,163;    0,591
247,287;  647,771;   -0,019;   -1,136
247,885;  638,747;   -1,019;    1,227
248,483;  593,488;   -0,201;   -0,500
249,081;  694,986;    0,981;    1,591
249,679;  754,411;   -1,019;    1,682
250,277;  616,965;   -2,292;    0,864
250,875;  763,286;    0,617;   -1,045
251,473;  636,538;   -0,019;    0,500
252,071;  745,488;   -0,383;    1,045
252,669;  676,762;   -1,565;    0,318
253,267;  630,394;    1,618;    0,773
253,864;  661,953;    0,617;    0,682
254,462;  843,633;    1,526;    1,591
255,060;  611,502;    0,072;    1,318
255,658;  598,853;   -3,292;   -0,136
256,255;  723,127;   -0,201;   -2,045
256,853;  759,929;    2,345;    1,409
257,451;  735,535;    1,981;    1,864
258,048; 1228,950;    2,072;    1,864
258,646;  860,261;    0,436;   -1,045
259,243;  975,384;    2,981;    2,227
259,841;  843,403;    1,799;    0,318
260,438;  686,207;    0,254;    0,864
261,036;  851,580;    0,617;    1,409
261,633;  765,050;    1,526;    2,227
262,231;  698,286;   -0,110;   -0,045
262,828;  725,525;   -0,383;    1,136
263,425;  774,934;   -1,928;   -0,591
264,023;  774,775;    1,436;    0,045
264,620;  905,336;    1,526;   -0,318
265,217; 1052,497;    2,890;    3,136
265,815;  772,152;    2,527;    2,136
266,412;  898,240;    0,072;    0,136
267,009;  928,709;    0,526;    0,773
267,606; 1028,352;    0,345;   -0,955
268,203;  796,432;   -0,383;   -0,591
268,801;  868,484;   -0,474;    0,591
269,398;  802,592;   -0,564;    2,500
269,995;  946,343;    0,890;    1,591
270,592;  828,019;    0,799;   -0,500
271,189;  777,867;    1,981;    0,409
271,786;  775,127;    2,072;    1,227
272,383; 1038,959;   -0,383;    0,227
272,980;  875,813;    1,617;    0,318
273,577;  864,015;    2,162;    1,227
274,174;  770,958;    1,435;    2,591
274,771;  904,489;    1,890;   -0,773
275,367; 1355,461;    3,253;    1,409
275,964; 1151,834;   -0,565;   -0,500
276,561;  934,786;   -2,474;   -1,045
277,158;  859,775;    1,799;   -1,773
277,755; 1126,622;   -0,110;    0,409
278,351;  919,799;    0,436;   -1,500
278,948; 1016,157;   -0,201;    0,045
279,545;  925,429;    0,527;    2,318
280,141; 1228,958;    1,254;   -2,045
280,738; 1105,019;    2,435;   -0,136
281,334;  905,865;   -0,383;    0,591
281,931;  909,396;    2,890;   -1,318
282,528; 1017,904;    4,072;   -0,500
283,124; 1161,724;    3,345;   -0,500
283,721; 1125,364;    0,709;    1,409
284,317;  954,863;    0,163;    2,500
284,913; 1201,923;   -0,110;    0,591
285,510; 1523,014;    2,890;   -0,318
286,106; 1300,181;    2,345;   -0,955
286,703;  964,403;    0,072;    1,955
287,299;  938,676;    1,254;   -0,591
287,895;  972,339;    0,890;   -1,045
288,491; 1019,865;    0,163;    2,136
289,088; 1118,933;    0,163;    2,409
289,684; 1140,035;    2,890;    1,500
290,280; 1295,662;    1,890;    0,682
290,876; 1270,326;    0,163;    5,500
291,472; 1154,505;    2,163;    2,227
292,068; 1169,197;    1,254;    0,227
292,665; 1009,767;   -0,564;    0,773
293,261;  873,429;   -1,292;    2,136
293,857; 1085,282;    4,072;    2,136
294,453; 1013,029;   -0,928;    0,955
295,049; 1230,963;    0,253;    1,955
295,644; 1036,091;   -1,292;    0,136
296,240;  913,590;    0,162;   -0,136
296,836; 1068,325;   -0,747;    0,318
297,432; 1235,731;    2,980;   -0,500
298,028; 1299,100;    0,435;    0,773
298,624; 1130,440;    0,889;    1,864
299,220; 1123,275;    0,435;    0,591
299,815; 1071,830;    0,526;   -0,409
300,411; 1169,509;    0,435;    1,773
301,007; 1303,622;    1,889;    0,227
301,602; 1121,339;    2,071;   -2,318
302,198; 1242,543;    1,435;   -0,773
302,794; 1099,340;    1,526;   -0,500
303,389; 1088,273;    1,071;    1,045
303,985; 1151,930;    1,253;    1,409
304,580; 1254,696;    0,889;    1,591
305,176; 1139,960;    0,344;    0,136
305,771; 1017,943;   -0,929;   -1,227
306,367; 1427,087;    3,071;    0,136
306,962; 1216,157;    2,889;    1,500
307,558; 1199,333;    2,435;    0,136
308,153; 1304,241;   -0,383;   -1,136
308,748; 1100,373;    0,162;    1,682
309,344; 1499,453;    0,253;   -1,318
309,939; 1527,657;    2,071;   -1,318
310,534; 1214,328;   -2,020;   -1,682
311,130; 1135,750;   -0,656;   -2,500
311,725; 1054,995;    0,526;   -0,500
312,320; 1150,079;    1,253;    0,045
312,915; 1296,063;    2,890;   -1,045
313,510; 1516,278;    0,526;   -0,500
314,105; 1313,199;   -3,565;    1,409
314,700; 1060,171;   -1,656;   -1,045
315,295; 1118,241;   -0,020;    0,045
315,890; 1006,868;   -0,292;    0,864
316,485; 1131,647;    0,253;   -0,318
317,080; 1107,263;   -0,929;    1,591
317,675; 1439,360;    3,071;   -0,682
318,270; 1615,491;    6,889;    3,318
318,865; 1518,483;    2,435;    3,045
319,460; 1281,063;   -1,565;    0,591
320,055; 1182,228;   -2,565;   -1,227
320,650; 1120,277;   -1,838;   -0,591
321,244; 1128,631;    0,889;   -1,409
321,839; 1278,740;    0,980;   -0,227
322,434; 1321,352;   -0,111;   -1,591
323,029; 1184,806;   -0,474;    1,591
323,623; 1135,282;    0,798;    0,773
324,218; 1274,660;    2,707;    1,409
324,812; 1217,075;    0,889;    1,591
325,407; 1209,700;   -0,929;    2,045
326,002; 1312,167;    0,526;   -0,409
326,596; 1277,420;   -0,656;    1,318
327,191; 1141,673;   -0,383;   -1,045
327,785; 1057,238;   -0,747;   -0,227
328,379; 1175,767;   -0,383;    0,136
328,974; 1166,497;    1,798;   -3,955
329,568; 1232,631;    2,889;   -2,409
330,163; 1289,461;    2,435;    1,045
330,757; 1182,032;    0,253;    1,591
331,351; 1073,947;   -0,292;    0,682
331,945; 1087,877;   -0,383;    1,409
332,540; 1212,682;    1,617;   -0,591
333,134; 1181,772;    3,344;    0,773
333,728; 1153,862;    2,799;    0,318
334,322; 1123,026;    0,889;   -0,864
334,916; 1022,675;    0,344;    0,955
335,510; 1231,207;   -0,111;   -0,136
336,105; 1264,946;   -0,929;    1,591
336,699; 1093,161;   -1,292;    0,591
337,293; 1110,383;    1,071;    0,318
337,887; 1058,627;    0,071;    1,955
338,481; 1230,404;    2,980;    0,591
339,074; 1363,849;    2,071;    2,682
339,668; 1327,261;   -0,110;    1,227
340,262; 1986,146;    7,708;    3,227
340,856; 1495,660;    1,708;   -0,682
341,450; 1075,729;    0,708;    1,864
342,044; 1214,293;    1,799;    0,136
342,637; 1356,680;    1,162;   -2,136
343,231; 1380,268;   -1,474;    0,682
343,825; 1171,789;   -0,747;   -0,591
344,419; 1152,743;   -0,474;    0,500
345,012; 1761,129;    2,889;    4,045
345,606; 1527,897;   -0,656;    1,591
346,199; 1165,979;   -0,111;   -0,227
346,793; 1290,118;    2,525;    2,045
347,386; 1133,610;    0,889;   -1,136
347,980;  978,572;   -0,838;   -0,045
348,573; 1091,897;   -1,748;    0,409
349,167; 1366,116;    6,161;    4,773
349,760; 1318,134;    2,252;    2,682
350,354; 1241,674;    1,616;    1,136
350,947; 1269,388;    2,798;    1,682
351,540; 1062,739;    0,616;   -1,409
352,134;  919,409;   -1,111;    1,136
352,727;  981,896;   -0,657;    1,136
353,320; 1017,270;    2,343;    0,591
353,913;  906,411;   -1,929;    1,864
354,507; 1144,359;    0,434;   -1,227
355,100; 1054,221;    0,071;    0,864
355,693; 1427,474;    4,798;    2,409
356,286; 1143,583;    0,980;    2,773
356,879; 1020,786;   -0,475;    1,227
357,472;  959,813;    0,980;    1,500
358,065; 1039,956;    3,161;    2,500
358,658;  895,687;    0,798;    2,318
359,251;  814,612;    0,252;   -0,591
359,844;  998,932;    0,343;   -1,136
360,437; 1110,962;    0,252;    0,045
361,030;  965,064;    0,525;   -0,682
361,623;  922,581;    0,434;    0,318
362,215; 1174,571;    0,979;    2,045
362,808; 1013,073;   -2,293;   -1,682
363,401;  936,151;    0,798;    0,136
363,994; 1180,168;    3,252;   -1,500
364,586;  946,305;    0,888;   -1,500
365,179;  895,984;   -0,203;   -1,136
365,772;  694,337;   -0,930;    2,045
366,364;  856,793;    1,524;   -3,227
366,957;  989,611;    1,342;   -0,045
367,549;  889,246;   -0,203;   -0,864
368,142;  892,139;    0,978;   -1,500
368,734;  859,928;    2,523;   -2,136
369,327;  765,869;    2,341;   -0,500
369,919;  824,787;   -1,659;    0,409
370,512;  866,955;   -1,023;   -0,500
371,104; 1117,727;    2,704;    1,591
371,696; 1183,378;    1,703;   -0,955
372,289; 1019,695;    0,157;    1,136
372,881;  959,799;    1,156;    1,318
373,473;  807,427;    4,064;    1,136
374,066;  926,414;    1,336;    0,500
374,658;  887,520;    0,879;    1,136
375,250;  838,895;   -1,668;   -1,409
375,842;  887,313;   -0,124;   -0,045
376,434;  827,322;   -2,762;   -0,409
377,026;  899,855;   -1,855;   -2,500
377,618;  920,386;    0,779;   -0,682
378,210;  828,147;    3,141;   -1,955
378,802;  765,978;    3,412;   -0,591
379,394; 1252,763;    3,411;    0,682
379,986; 1021,985;    1,138;   -0,955
380,578;  921,943;    1,410;    0,773
381,170; 1151,167;    0,320;    0,045
381,762; 1011,914;   -0,224;    1,409
382,354;  969,990;   -0,223;   -1,318
382,945;  869,547;    0,870;    0,318
383,537;  833,804;    1,144;   -1,955
384,129;  850,904;    0,963;   -1,136
384,721;  976,624;    0,418;    0,955
385,312;  877,572;   -1,399;   -0,955
385,904; 1019,787;   -0,945;    1,591
386,496;  849,972;    0,691;    1,045
387,087; 1050,581;    0,418;    2,500
387,679;  963,624;   -0,401;    0,045
388,270;  974,169;   -2,401;    2,045
388,862;  927,026;   -0,401;   -0,318
389,453;  846,038;    1,054;    1,045
390,045;  917,944;    3,236;   -2,682
390,636;  830,910;    0,144;   -0,591
391,227;  855,997;    2,054;   -0,045
391,819;  868,040;    0,781;    0,773
392,410; 1150,046;    0,600;    0,045
393,001;  934,974;    1,600;   -1,591
393,593; 1029,913;    0,600;   -0,045
394,184; 1077,262;    0,873;   -0,409
394,775;  883,909;    1,146;    2,136
395,366;  876,803;    1,782;    0,773
395,957; 1091,337;   -2,400;    0,136
396,548;  972,270;    1,054;    2,682
397,139; 1150,135;    2,236;    0,591
397,730; 1009,785;    0,873;    0,955
398,321; 1013,429;    0,509;    0,955
398,912;  939,950;   -0,764;    0,136
399,503;  985,391;   -1,945;   -1,409
400,094;  978,793;   -1,582;    1,682
400,685;  961,855;    3,600;    0,045
401,276;  867,610;   -0,400;   -0,955
401,867;  890,851;   -1,127;    0,773
402,458;  864,046;    1,509;   -2,318
403,048; 1056,361;    0,146;    0,591
403,639;  924,116;    1,509;    0,864
404,230; 1132,561;    0,691;    0,318
404,821; 1193,755;   -0,127;    0,045
405,411; 1063,173;   -0,763;   -2,591
406,002;  903,107;    3,237;   -1,136
406,592; 1189,486;    2,691;    0,045
407,183; 1027,386;    0,328;   -1,500
407,774;  960,463;    1,419;   -0,136
408,364;  966,843;    2,600;    0,409
408,954; 1096,473;   -0,036;    1,227
409,545; 1088,904;    1,873;    1,045
410,135;  972,580;   -1,581;    0,500
410,726;  941,342;    0,783;    0,318
411,316; 1188,600;    2,237;    0,773
411,906;  950,685;    0,146;   -0,409
412,497;  931,395;   -0,490;   -0,045
413,087;  915,053;    0,783;   -0,227
413,677;  886,799;   -2,490;    3,864
414,267;  850,492;   -1,035;    1,409
414,857;  820,085;    0,419;    4,227
415,448;  857,822;   -0,763;    0,500
416,038;  861,955;   -2,945;   -0,591
416,628;  908,048;    0,965;    0,409
417,218;  987,701;   -1,762;    3,318
417,808; 1191,658;    0,965;   -0,409
418,398; 1031,396;   -1,035;    2,682
418,988;  893,342;   -2,217;    0,591
419,578;  991,298;    3,601;    1,409
420,168; 1012,065;    0,692;   -0,955
420,757; 1156,007;    0,964;   -1,500
421,347;  984,152;    1,601;   -0,227
421,937;  942,040;    3,329;    1,409
422,527; 1105,961;    2,602;   -0,773
423,116; 1253,936;    2,692;   -0,045
423,706;  957,309;    2,965;    0,318
424,296;  857,202;    1,601;    0,682
424,885; 1104,657;    1,510;   -3,045
425,475; 1058,684;    1,147;   -2,864
426,065;  914,580;   -1,489;   -0,318
426,654;  891,273;    0,329;   -0,318
427,244; 1262,900;    1,147;    1,409
427,833; 1175,481;    1,056;   -0,500
428,423; 1015,911;    0,147;    1,136
429,012; 1106,306;    2,420;   -1,136
429,601; 1194,420;    2,057;    0,136
430,191; 1060,035;    2,511;    4,318
430,780;  868,924;   -1,671;   -0,409
431,369; 1176,428;    1,329;   -0,045
431,959; 1124,924;    1,693;    0,500
432,548;  978,042;   -1,398;   -0,045
433,137;  902,955;    0,329;   -1,318
433,726; 1067,611;    0,148;    0,500
434,315; 1029,770;    0,148;    2,409
434,905; 1192,635;    0,693;    1,409
435,494; 1240,934;    3,148;    0,955
436,083; 1052,193;    1,420;   -0,955
436,672; 1126,106;    1,148;    0,500
437,261; 1051,823;    0,512;   -1,955
437,850; 1435,923;   -1,125;    0,682
438,439; 1461,758;    2,239;    1,955
439,027; 1585,731;    3,421;    1,773
439,616; 1536,255;    2,239;    1,227
440,205; 1206,011;    0,057;   -2,136
440,794; 1096,295;   -0,306;   -0,045
441,383; 1015,308;    1,603;   -0,591
441,971;  913,731;   -0,306;    0,591
442,560;  934,196;    0,603;   -1,773
443,149;  812,338;    3,060;   -1,318
443,737;  927,709;    0,968;   -2,318
444,326;  942,584;    0,331;    0,318
444,915; 1015,638;   -1,851;    0,864
445,503; 1048,641;    0,058;   -0,318
446,092; 1363,159;    7,876;    2,136
446,680; 1331,551;    1,876;    0,318
447,269; 1237,983;   -1,487;   -0,318
447,857; 1159,777;    2,240;   -1,773
448,445; 1102,835;    2,149;    1,318
449,034; 1071,881;    0,876;   -1,136
449,622; 1039,435;    1,240;    3,500
450,210; 1472,048;    3,149;    2,227
450,799; 1376,830;    2,604;   -0,591
451,387; 1232,351;    1,786;   -0,591
451,975; 1218,173;   -1,305;    0,864
452,563; 1368,573;    0,422;    2,318
453,151; 1056,893;   -1,032;   -1,227
453,739; 1129,670;   -1,577;    0,136
454,328; 1341,928;    0,604;   -2,136
454,916; 1185,239;    1,150;   -0,136
455,504; 1192,668;    3,513;    1,227
456,092; 1077,295;    2,150;   -1,591
456,679;  964,316;    0,604;    0,682
457,267; 1663,656;    3,604;    1,045
457,855; 1152,385;    3,241;    1,409
458,443;  880,757;   -0,304;    1,682
459,031; 1232,547;    1,332;    2,409
459,619; 1187,169;   -3,577;    2,864
460,206; 1005,425;   -0,759;    2,045
460,794; 1027,720;   -0,668;   -0,227
461,382; 1118,323;    0,878;   -0,864
461,970; 1044,773;    0,605;    1,864
462,557;  991,578;    0,878;   -0,682
463,145; 1225,033;   -0,304;   -1,682
463,732; 1548,923;    2,514;   -1,045
464,320; 1186,388;    1,514;   -3,045
464,907; 1394,223;    0,423;   -0,773
465,495; 1255,146;    2,696;   -1,227
466,082; 1118,458;    2,060;   -0,045
466,670; 1098,489;    2,605;    1,227
467,257; 1011,841;    0,060;    2,045
467,844; 1204,551;    1,514;    0,045
468,432; 1178,495;   -0,031;    3,500
469,019; 1068,986;    1,606;   -1,773
469,606; 1187,130;    0,969;    3,682
470,193; 1241,503;    2,151;    0,227
470,780; 1172,998;    0,333;    0,864
471,368; 1075,234;   -1,212;   -0,773
471,955; 1215,981;    1,060;   -0,682
472,542; 1109,735;   -0,303;   -1,136
473,129;  940,662;   -0,485;    0,136
473,716;  927,241;    0,060;    0,591
474,303; 1003,165;    1,333;   -0,864
474,890; 1033,994;    2,333;   -0,500
475,477; 1181,276;   -0,576;    0,409
476,064; 1016,415;    0,697;   -1,591
476,650; 1172,664;    2,152;    0,318
477,237; 1068,936;    1,879;    0,955
477,824; 1033,987;    3,879;    0,864
478,411;  900,046;    0,606;   -0,318
478,997;  906,864;    0,606;   -0,773
479,584;  822,917;   -0,666;   -0,409
480,171; 1212,277;    1,243;   -0,773
480,757; 1294,402;   -0,848;    0,773
481,344; 1112,926;    0,334;    0,409
481,931;  878,382;   -0,393;    1,045
482,517; 1227,477;    0,425;    0,318
483,104; 1393,823;    1,334;    2,864
483,690; 1243,302;    0,243;    0,045
484,276; 1215,387;    0,698;    0,227
484,863; 1561,194;    2,152;    1,136
485,449; 1330,439;    0,152;    0,318
486,035; 1225,018;   -0,666;   -0,136
486,622; 1442,216;   -2,393;    0,045
487,208; 1296,051;    1,334;    1,500
487,794; 1182,295;    0,971;    0,318
488,380; 1221,722;    0,698;   -1,409
488,967; 1208,303;   -1,120;   -0,409
489,553; 1225,725;   -1,029;   -1,409
490,139; 1363,102;    0,971;    0,773
490,725; 1193,141;    0,789;   -0,227
491,311; 1217,099;    1,516;    3,045
491,897; 1049,395;   -0,665;    1,500
492,483; 1068,734;    0,426;    1,227
493,069; 1842,697;    5,426;    0,864
493,655; 1301,396;    1,789;    0,682
494,241; 1114,808;    1,517;   -0,955
494,826; 1195,353;    0,335;   -1,045
495,412; 1247,992;    0,335;   -0,682
495,998; 1127,032;    0,971;   -0,318
496,584; 1201,568;    2,244;    1,045
497,169; 1145,743;    2,335;   -0,682
497,755; 1029,207;    1,244;    1,227
498,341; 1395,099;    2,153;    0,318
498,926; 1541,587;    2,881;    1,955
499,512; 1157,032;   -0,028;    2,955
500,097; 1096,854;   -0,574;   -0,318
500,683; 1128,850;   -0,028;    2,136
501,268; 1093,960;    1,881;   -0,955
501,854; 1120,143;   -0,119;    1,227
502,439; 1046,819;   -0,573;   -1,773
503,024; 1164,022;    1,608;    0,500
503,610; 1218,001;    1,335;   -0,682
504,195; 1041,908;    1,245;    1,955
504,780; 1200,719;    2,335;    1,227
505,366; 1363,944;    4,063;    2,864
505,951; 1203,650;   -1,119;    1,045
506,536; 1115,333;    1,427;   -3,682
507,121; 1158,059;    1,699;   -0,318
507,706; 1136,355;   -0,392;    1,045
508,291; 1046,022;   -2,937;    1,136
508,876; 1021,823;   -0,482;    2,591
509,461; 1081,930;    1,427;   -0,773
510,046; 1161,355;   -0,391;    0,318
510,631; 1147,312;   -0,119;   -0,773
511,216; 1029,420;   -0,664;   -0,500
511,801; 1177,536;   -0,755;    2,591
512,386; 1194,100;    0,972;    0,500
512,971; 1214,230;    0,427;    0,955
513,555; 1267,532;    1,154;   -1,500
514,140; 1273,135;    1,336;   -3,136
514,725; 1384,749;    1,791;   -1,136
515,309; 1266,338;    1,064;    0,318
515,894; 1111,964;   -0,300;   -2,227
516,479; 1151,225;    1,973;   -0,955
517,063; 1143,517;    0,882;    1,227
517,648; 1123,640;    0,155;   -1,136
518,232; 1026,757;   -1,300;   -1,409
518,817; 1154,134;    1,337;    1,682
519,401; 1342,993;    0,700;    0,591
519,985; 1174,657;    2,700;    1,136
520,570; 1028,166;   -0,118;   -1,955
521,154; 1203,456;    0,064;    0,591
521,738; 1470,859;    1,064;    2,409
522,323; 1332,681;   -0,390;    1,682
522,907; 1253,196;    2,428;   -0,136
523,491; 1135,493;    1,155;    0,955
524,075; 1068,415;    0,428;    0,591
524,659; 1286,101;    0,973;    0,591
525,243; 1158,590;    0,883;    0,409
525,827; 1091,602;    0,883;   -0,045
526,411; 1165,465;    1,155;   -0,136
526,995; 1344,723;    0,337;    1,409
527,579; 1367,379;    1,974;   -1,045
528,163; 1303,781;    0,428;   -1,500
528,747; 1473,015;    1,065;   -0,773
529,331; 1407,341;    0,883;   -1,409
529,915; 1186,800;    2,338;    0,955
530,499; 1282,252;    0,247;    1,227
531,082; 1405,636;    1,065;    1,591
531,666; 1447,171;    0,520;    0,773
532,250; 1385,119;    0,428;    2,682
532,833; 1544,766;    0,610;    2,773
533,417; 1321,875;    1,247;    0,864
534,001; 1445,301;    0,429;   -0,318
534,584; 1398,833;    1,974;    0,500
535,168; 1200,999;    3,247;    1,409
535,751; 1614,909;    4,520;    0,045
536,334; 1229,435;    4,520;   -0,409
536,918; 1211,868;    1,974;    1,591
537,501; 1196,615;    1,520;    1,318
538,085; 1241,489;    1,702;    1,045
538,668; 1257,866;    0,883;    2,409
539,251; 1644,424;    3,156;    3,773
539,834; 1386,029;    0,156;    0,773
540,418; 1482,708;    3,247;    4,318
541,001; 1662,369;    2,702;    1,773
541,584; 1404,284;    1,429;    2,227
542,167; 1474,106;    0,702;    2,955
542,750; 1337,452;    0,793;   -0,773
543,333; 1122,256;    1,429;    2,136
543,916; 1446,448;   -0,298;    2,500
544,499; 1340,252;    2,520;    0,227
545,082; 1439,728;    0,248;    3,591
545,665; 1363,213;   -0,207;    1,500
546,248; 1505,529;    0,520;   -0,318
546,830; 1449,487;   -1,752;    1,955
547,413; 1469,120;    0,157;   -0,773
547,996; 1548,311;    0,157;    0,500
548,579; 1356,625;   -0,843;    0,955
549,161; 1631,010;    0,884;    2,682
549,744; 1516,869;    0,612;    0,409
550,326; 1445,976;    0,885;   -1,136
550,909; 1897,538;    2,339;    0,591
551,492; 1588,110;    0,521;    0,227
552,074; 1653,786;   -0,024;   -1,318
552,657; 1733,973;    2,430;    0,045
553,239; 1548,285;   -3,024;   -0,773
553,821; 1456,309;   -1,570;    1,045
554,404; 1650,508;   -0,024;    1,136
554,986; 1787,967;    2,248;    1,045
555,568; 1679,642;    0,430;   -0,955
556,151; 1855,837;    4,067;   -0,227
556,733; 1538,109;   -1,388;   -0,864
557,315; 1558,907;    4,703;    0,500
557,897; 1361,146;    0,521;   -0,500
558,479; 1385,619;    1,703;    1,318
559,061; 1515,947;    1,067;   -0,864
559,643; 1631,015;   -0,297;    0,045
560,225; 1666,845;   -0,388;    2,864
560,807; 1544,925;    0,340;    0,318
561,389; 1461,333;   -1,206;    2,318
561,971; 1536,633;   -0,660;    2,136
562,553; 1537,412;    0,613;    1,591
563,135; 1621,936;    1,249;    1,136
563,717; 1952,108;    3,158;    1,136
564,298; 1858,371;    3,976;   -0,045
564,880; 1571,254;    0,340;   -1,409
565,462; 1445,709;    1,977;    1,318
566,043; 1794,905;   -0,933;    2,318
566,625; 1948,897;    4,067;    1,227
567,207; 1708,039;    0,704;    1,682
567,788; 1698,715;   -0,114;    1,500
568,370; 1820,183;   -1,841;   -0,500
568,951; 1677,586;   -0,569;    0,227
569,533; 1860,657;    0,977;   -0,500
570,114; 1987,979;   -0,296;    0,682
570,695; 1997,469;   -0,478;   -1,318
571,277; 1969,382;   -0,205;   -1,682
571,858; 2205,396;    2,704;   -1,136
572,439; 2233,018;    0,795;   -1,045
573,021; 2202,986;    0,432;   -2,773
573,602; 2334,883;    1,795;    0,318
574,183; 2350,710;   -0,114;    2,227
574,764; 2365,775;    2,068;    0,409
575,345; 2486,498;    0,250;   -0,136
575,926; 2466,391;    2,704;    0,136
576,507; 2553,966;    2,704;   -0,227
577,088; 2637,418;    1,704;    1,682
577,669; 2798,929;    1,704;    1,955
578,250; 3002,710;   -0,750;   -1,045
578,831; 2841,704;   -0,841;   -2,227
579,412; 2720,760;   -1,205;    0,955
579,993; 3006,509;    1,432;    0,227
580,573; 3027,883;   -0,023;   -0,955
581,154; 2726,303;    1,613;   -0,591
581,735; 2914,827;    0,341;    0,773
582,315; 2805,737;    0,523;    2,136
582,896; 2946,957;   -1,750;    1,227
583,477; 2797,328;    0,614;    1,227
584,057; 2871,870;    1,159;    0,955
584,638; 2932,145;   -2,750;    2,318
585,218; 3152,945;    2,886;    2,682
585,799; 3030,611;    1,977;   -0,227
586,379; 2926,509;    1,250;    1,591
586,959; 2785,715;    2,613;    0,318
587,540; 2649,490;    0,432;    2,227
588,120; 2576,805;   -1,113;   -0,045
588,700; 2456,444;    2,977;    2,136
589,281; 2697,968;    1,250;   -0,955
589,861; 2576,655;   -0,296;   -1,682
590,441; 2497,802;   -1,477;   -2,682
591,021; 2301,501;    1,432;   -2,591
591,601; 2412,365;    0,431;    0,500
592,181; 2490,336;   -1,296;   -0,773
592,761; 2206,045;    2,250;    1,409
593,341; 2342,796;    1,522;    0,045
593,921; 2317,960;   -0,569;    1,591
594,501; 2191,264;    1,250;    1,318
595,081; 2184,038;    0,522;   -0,318
595,661; 2402,213;    1,068;    0,955
596,240; 2452,368;   -1,023;    0,136
596,820; 2596,129;    2,613;    1,955
597,400; 2328,829;    1,977;    0,773
597,980; 2344,671;   -0,750;    1,045
598,559; 2355,896;    0,341;   -0,227
599,139; 2310,762;   -0,750;   -1,227
599,718; 2302,125;    0,795;   -0,409
600,298; 2372,717;   -2,387;    0,682
600,877; 2723,603;    4,795;    1,409
601,457; 2609,274;    0,340;    1,136
602,036; 2467,993;    1,795;    2,045
602,616; 2419,026;    2,250;    1,682
603,195; 2561,084;    0,431;    3,500
603,774; 2490,311;   -0,296;    2,045
604,354; 2424,869;    2,522;   -0,500
604,933; 2322,159;    0,250;    1,864
605,512; 2511,527;    2,340;    0,591
606,091; 2498,117;    1,886;    3,773
606,671; 2545,279;    0,249;    0,773
607,250; 2561,113;    1,431;    3,136
607,829; 2574,840;    1,158;    3,227
608,408; 2453,826;    4,613;    2,591
608,987; 2411,399;    2,704;    3,409
609,566; 2270,312;    0,341;   -2,500
610,145; 2369,155;    2,885;    0,682
610,723; 2521,462;    1,613;    6,864
611,302; 2259,510;    1,067;    1,682
611,881; 2412,209;    5,158;   11,227
612,460; 2283,139;    0,795;    3,955
613,039; 2359,347;    1,703;    2,045
613,617; 2110,602;    0,886;    4,773
614,196; 2135,597;    1,613;    1,227
614,775; 2287,511;    1,249;    2,409
615,353; 2315,603;   -1,660;    0,864
615,932; 2213,079;    0,249;    2,409
616,510; 2348,776;    0,158;    0,591
617,089; 2749,372;    8,794;   17,591
617,667; 2386,268;    4,885;    6,136
618,246; 2010,540;   -1,115;    1,318
618,824; 2169,569;    1,612;   -0,955
619,402; 2119,577;    0,431;   -1,773
619,981; 2268,292;    1,067;   -1,045
620,559; 2260,400;    0,794;    1,682
621,137; 2287,172;    3,067;    1,864
621,715; 1967,297;    3,703;   -0,682
622,293; 2015,253;    1,885;   -0,773
622,871; 2283,453;    0,340;    0,500
623,450; 2101,998;    0,430;   -0,864
624,028; 2241,486;   -0,388;   -0,955
624,606; 2123,674;    2,339;    1,682
625,183; 2035,833;   -0,661;   -1,136
625,761; 2056,007;    1,885;    1,136
626,339; 2459,166;    2,339;    2,591
626,917; 2199,841;    0,339;   -0,045
627,495; 2212,777;    2,794;    1,318
628,073; 2182,115;    5,248;    2,864
628,650; 2130,393;    3,067;    2,136
629,228; 2213,969;    1,248;    4,409
629,806; 1932,955;   -0,024;    1,136
630,383; 2027,363;    0,066;   -0,318
630,961; 1998,775;   -2,206;   -0,955
631,539; 1956,617;   -2,479;    0,227
632,116; 2659,594;   12,703;   15,409
632,694; 2311,561;    4,885;    6,500
633,271; 2096,492;    1,975;    2,682
633,848; 2220,785;    1,430;    2,045
634,426; 2033,319;    1,521;    1,773
635,003; 1869,578;   -0,207;   -0,409
635,580; 2221,182;    1,884;    3,682
636,158; 2074,947;    3,793;    1,227
636,735; 1919,858;    3,339;   -0,500
637,312; 1919,185;    0,521;   -0,682
637,889; 1925,914;    2,248;   -0,682
638,466; 1908,862;    0,066;   -0,409
639,043; 1912,272;    1,702;   -1,136
639,620; 1924,079;    0,611;   -0,955
640,197; 2064,655;    1,612;    1,682
640,774; 2041,311;    1,430;    1,136
641,351; 2097,603;    0,612;    1,136
641,928; 2143,077;    2,794;    1,409
642,505; 2256,552;    0,794;   -0,500
643,082; 2157,299;    1,885;    1,227
643,658; 1820,228;    1,157;    1,500
644,235; 1936,702;   -2,479;    2,500
644,812; 2102,176;    1,794;    0,773
645,388; 2038,560;    1,612;    1,409
645,965; 1830,307;    1,521;    1,682
646,542; 1848,508;    3,430;   -0,227
647,118; 2295,255;    3,703;   -0,955
647,695; 2118,820;    0,339;    1,136
648,271; 1912,567;   -2,115;    0,500
648,848; 2039,496;    0,248;    2,227
649,424; 2164,243;    0,976;    1,318
650,000; 1869,081;   -0,388;   -1,045
650,577; 1976,646;    0,158;   -0,955
651,153; 2083,939;   -1,115;    0,955
651,729; 2065,050;    0,521;    0,864
652,305; 2322,978;    1,339;    2,773
652,881; 2621,816;   -1,297;    1,136
653,458; 3377,382;    0,249;    0,227
654,034; 3866,492;    0,703;    1,591
654,610; 3959,694;    0,339;    0,773
655,186; 4399,441;    1,612;    3,045
655,762; 4129,461;   -1,842;    0,409
656,338; 4076,844;    0,703;    0,136
656,913; 4389,136;   -0,297;    0,409
657,489; 4154,883;    0,249;   -0,318
658,065; 4267,903;    0,794;   -1,591
658,641; 4487,287;    2,158;   -0,864
659,217; 4246,125;    2,067;    0,409
659,792; 4033,417;   -1,751;   -0,409
660,368; 4134,437;   -0,388;   -0,682
660,944; 4367,911;    1,794;    1,227
661,519; 3826,204;    0,522;    0,409
662,095; 2982,041;   -0,206;    0,591
662,670; 2316,788;   -0,206;   -0,136
663,246; 2263,263;   -0,660;   -0,409
663,821; 2276,464;    0,431;    1,682
664,396; 2044,393;    0,613;    1,864
664,972; 2059,686;   -0,660;   -0,500
665,547; 2213,614;    3,794;    0,136
666,122; 2141,452;    1,340;    0,318
666,698; 2325,018;    2,431;    0,318
667,273; 1974,492;    0,885;    0,136
667,848; 2137,421;    0,340;    1,500
668,423; 2213,622;    1,795;    2,318
668,998; 2159,551;    0,976;   -0,682
669,573; 2207,935;    2,067;   -1,500
670,148; 2335,045;    1,885;   -0,682
670,723; 2078,338;   -0,024;    0,318
671,298; 2451,357;   -1,296;    1,045
671,873; 2316,923;   -0,296;   -0,136
672,448; 2318,942;    1,704;    0,136
673,023; 2333,235;    0,249;   -0,227
673,597; 2486,073;    2,704;    2,318
674,172; 2458,820;    2,431;    0,318
674,747; 2335,294;   -0,205;   -1,045
675,321; 2145,859;   -0,933;    3,318
675,896; 2000,879;    2,158;    1,045
676,471; 2235,717;    2,522;    1,591
677,045; 2150,373;   -0,296;    0,682
677,620; 2186,757;    2,158;    1,136
678,194; 2196,867;    0,249;    1,136
678,769; 2186,887;    0,886;   -0,318
679,343; 2238,907;   -0,023;    1,773
679,917; 2312,199;    0,340;    1,955
680,492; 2181,492;    0,249;    3,227
681,066; 2235,784;    0,613;    0,409
681,640; 2206,440;    1,795;   -0,318
682,214; 2320,005;    2,340;    0,500
682,788; 2250,025;    0,613;   -0,773
683,363; 2300,499;    1,977;    1,682
683,937; 2132,974;    0,886;   -0,318
684,511; 2349,903;   -1,023;   -0,591
685,085; 2319,650;   -1,478;    0,318
685,659; 2176,397;    1,431;    0,864
686,232; 2390,598;    1,159;   -0,318
686,806; 2278,800;    2,159;    0,409
687,380; 2356,910;   -1,932;    0,591
687,954; 2385,294;    2,432;    1,136
688,528; 2490,950;    2,613;    1,955
689,101; 2541,152;    0,432;    1,045
689,675; 2315,353;    0,886;   -0,136
690,249; 2383,464;    3,432;    0,409
690,822; 2466,120;    1,159;    0,318
691,396; 2338,140;    2,068;    1,227
691,969; 2211,341;    2,523;    0,136
692,543; 2310,634;   -0,568;   -1,955
693,116; 2115,199;   -0,659;   -1,409
693,690; 2197,400;   -0,296;    0,500
694,263; 2315,875;    2,341;    2,955
694,836; 2560,349;    2,795;    3,591
695,410; 2274,642;    1,159;    1,773
695,983; 2303,479;    1,614;    0,591
696,556; 2191,499;   -0,750;   -1,045
697,129; 2250,974;   -1,114;    1,409
697,703; 2247,721;    1,341;    1,955
698,276; 2252,013;    1,705;   -0,773
698,849; 2288,033;   -1,023;    1,409
699,422; 2158,780;    1,250;    0,591
699,995; 2043,890;   -0,659;    0,136
700,568; 2243,910;   -0,204;    3,045
701,140; 2244,475;   -1,841;    1,682
701,713; 2368,132;    0,341;    2,409
702,286; 2263,879;    0,796;    0,864
702,859; 2259,716;    0,614;   -0,591
703,432; 2206,191;   -0,841;    0,682
704,004; 2200,301;    1,978;    0,318
704,577; 2032,594;    1,068;    0,136
705,150; 2127,705;    0,887;    2,500
705,722; 2208,088;    1,523;   -3,227
706,295; 2232,744;    1,432;   -0,591
706,867; 2063,400;    0,250;    1,955
707,440; 2259,238;   -0,113;   -0,409
708,012; 2324,985;   -0,022;    0,591
708,584; 2182,641;    2,705;    0,227
709,157; 2173,934;    1,160;   -0,591
709,729; 2290,681;    1,069;    2,045
710,301; 2404,610;   -1,204;    0,045
710,874; 2370,538;    0,341;   -0,227
711,446; 2004,558;   -0,295;    0,864
712,018; 2103,760;   -3,022;    0,500
712,590; 2011,870;   -0,204;    1,682
713,162; 2337,890;   -0,477;    1,318
713,734; 2220,092;    1,796;   -2,045
714,306; 2181,566;    0,342;   -0,409
714,878; 1989,495;   -0,295;    0,864
715,450; 2134,878;   -0,113;    0,864
716,022; 2182,625;    2,433;    1,318
716,593; 2191,372;    0,978;    0,591
717,165; 2232,847;    1,796;   -1,227
717,737; 2375,685;    0,796;    0,409
718,309; 2213,432;    1,160;   -0,045
718,880; 2133,997;   -1,295;   -1,409
719,452; 2241,289;    0,887;   -1,591
720,024; 2196,036;    1,705;   -0,591
720,595; 2201,511;    2,978;    0,955
721,167; 2096,985;    1,160;   -2,045
721,738; 2091,550;    2,069;   -1,045
722,309; 2142,479;    1,251;   -1,227
722,881; 1991,499;    2,705;    0,773
723,452; 2186,973;    1,251;    2,864
724,023; 2252,265;    1,524;    2,682
724,595; 2261,740;    2,342;    0,682
725,166; 2064,487;    1,524;   -0,409
725,737; 2224,870;    1,887;    0,227
726,308; 2134,890;    0,797;    0,318
726,879; 2064,728;    1,069;    1,227
727,450; 2208,748;   -2,022;   -0,045
728,021; 2074,131;    1,069;    0,682
728,592; 2234,969;    1,160;    0,500
729,163; 2372,716;    1,433;   -0,136
729,734; 2347,918;    2,160;   -0,227
730,305; 2207,574;    0,615;    0,136
730,876; 2192,957;    0,888;    2,955
731,447; 2500,159;    0,797;    2,682
732,017; 2387,360;   -0,840;    1,864
732,588; 2262,107;   -0,021;    1,227
733,159; 2429,127;    3,615;   -1,045
733,729; 2162,510;    1,251;    0,409
734,300; 2224,712;    0,160;    0,864
734,870; 2144,186;   -1,385;    0,591
735,441; 2178,479;    0,888;   -0,591
736,011; 2061,771;    1,070;   -1,591
736,582; 2094,064;    1,251;    0,045
737,152; 2078,265;    0,979;   -2,045
737,722; 2154,558;    1,070;   -0,682
738,293; 2015,032;   -2,021;    1,318
738,863; 2174,961;    1,797;    2,318
739,433; 2407,162;    4,524;    0,318
740,003; 2284,637;    1,524;   -0,682
740,573; 2312,020;    2,252;   -1,591
741,143; 2255,858;    3,615;    0,318
741,713; 2218,514;    0,252;   -0,500
742,283; 2191,625;    1,706;    1,591
742,853; 2092,463;    0,524;    1,591
743,423; 1952,937;    0,161;    0,045
743,993; 2021,048;    1,070;    1,500
744,563; 1907,158;    2,524;   -0,864
745,133; 1965,814;   -0,112;   -0,864
745,702; 2056,561;    2,797;    1,773
746,272; 2100,763;    0,434;    0,591
746,842; 2091,055;   -0,748;   -0,591
747,411; 2003,348;   -0,839;   -0,318
747,981; 1941,277;   -0,930;    0,500
748,551; 1965,751;   -0,021;   -1,045
749,120; 2045,862;   -0,112;   -0,227
749,690; 2069,518;    2,161;    2,409
750,259; 2197,083;    0,979;    2,955
750,828; 2217,103;    4,070;   -1,955
751,398; 2083,395;   -0,112;   -0,045
751,967; 2424,051;    2,888;    0,409
752,536; 2143,071;    1,161;   -0,227
753,105; 2285,364;   -1,384;    0,227
753,675; 2094,929;   -0,112;    1,773
754,244; 2096,949;    0,888;    3,591
754,813; 2130,877;    0,979;    1,227
755,382; 2031,079;    0,798;    0,955
755,951; 2187,372;   -0,112;    3,682
756,520; 2229,119;    2,525;    1,864
757,089; 2469,866;    1,888;    0,500
757,658; 2177,613;    2,434;    1,227
758,227; 2039,541;   -1,111;    0,318
758,795; 2121,743;   -1,021;    1,136
759,364; 2267,581;    0,525;   -0,591
759,933; 1982,328;    1,343;   -0,045
760,501; 1942,075;    0,252;   -1,318
761,070; 2085,458;   -0,293;   -1,409
761,639; 2297,569;    1,434;    1,318
762,207; 2162,134;    0,889;   -0,955
762,776; 2206,699;    2,889;    0,864
763,344; 2065,265;    0,071;    0,591
763,913; 1762,921;    1,616;    1,409
764,481; 2387,668;    1,980;   -0,136
765,049; 2329,597;    0,616;    1,409
765,618; 2209,889;    1,434;    0,318
766,186; 2109,727;    2,434;    0,136
766,754; 2133,838;    1,798;    1,864
767,322; 1855,494;    1,162;    0,409
767,890; 1828,150;    0,525;   -1,773
768,459; 1987,988;    2,616;   -0,318
769,027; 2203,553;    2,525;    3,409
769,595; 1943,300;    2,616;    2,591
770,163; 1980,047;    3,344;    2,955
770,730; 1956,976;    2,525;   -0,136
771,298; 1943,632;    1,162;   -1,409
771,866; 1936,288;    0,253;    4,955
772,434; 1971,217;    1,162;   -1,864
773,002; 2238,328;    2,616;    0,682
773,569; 2077,438;    1,071;    1,682
774,137; 2167,458;    0,889;   -0,045
774,705; 2141,296;   -0,747;   -0,136
775,272; 1978,679;    0,253;    0,682
775,840; 2075,972;   -0,111;    2,682
776,407; 2040,446;   -0,293;    1,955
776,975; 1790,739;    1,162;    0,318
777,542; 1957,940;    2,162;   -0,045
778,110; 1975,596;    0,707;   -0,045
778,677; 1829,343;    1,071;   -0,864
779,244; 1865,181;   -1,020;    1,045
779,812; 2011,474;    0,980;    0,864
780,379; 2045,312;    2,435;    1,136
780,946; 1940,695;    2,617;   -0,773
781,513; 1964,169;   -0,565;    0,318
782,080; 1814,462;    1,253;    2,864
782,647; 1927,482;    1,708;    3,045
783,214; 1864,410;   -0,201;    3,864
783,781; 1992,339;    1,708;   -0,682
784,348; 1972,905;    0,253;    1,500
784,915; 1819,742;   -1,474;    0,318
785,482; 1986,853;    2,708;    2,591
786,049; 2044,873;    1,071;   -0,591
786,615; 1968,984;    1,708;   -0,955
787,182; 1889,549;   -3,201;   -0,682
787,749; 1868,659;   -2,201;    1,409
788,315; 1892,861;    0,253;   -0,409
788,882; 1905,699;    0,981;   -1,227
789,448; 2183,355;    1,435;   -0,955
790,015; 1998,466;    1,799;    3,227
790,581; 2108,485;    0,708;    0,227
791,148; 1889,142;    1,344;    1,045
791,714; 1883,798;   -1,019;    3,136
792,280; 1852,726;    3,708;    1,591
792,847; 1776,746;   -0,928;    2,500
793,413; 1878,493;   -0,110;   -0,318
793,979; 1963,149;    1,526;   -1,318
794,545; 2296,169;    2,981;    2,682
795,111; 2096,734;    2,435;    1,318
795,678; 1959,300;    3,526;   -1,682
796,244; 2123,319;    2,799;    0,136
796,810; 2072,157;    0,799;    0,773
797,375; 2035,450;   -0,292;   -2,136
797,941; 1701,651;   -1,110;    0,591
798,507; 1662,762;    0,254;   -0,955
799,073; 1678,963;    2,708;    0,591
799,639; 1733,620;    1,435;    3,136
800,205; 1694,094;   -1,565;    2,682
800,770; 1647,295;    1,345;    1,773
801,336; 1602,042;    2,981;   -0,955
801,901; 2216,971;    6,072;    3,136
802,467; 1952,718;    0,526;    2,045
803,033; 1631,011;   -0,019;    0,864
803,598; 1638,122;    1,072;   -1,045
804,163; 1703,869;    0,708;   -0,318
804,729; 1797,252;   -0,110;    1,136
805,294; 1715,544;    1,072;    2,227
805,859; 1619,746;    0,890;   -0,409
806,425; 1983,129;    3,890;    2,682
806,990; 1943,149;    1,890;    4,318
807,555; 1759,714;   -0,110;    2,591
808,120; 1905,825;   -1,292;   -0,409
808,685; 1641,390;    1,072;   -2,500
809,250; 1504,410;    2,072;   -0,500
809,815; 1590,339;   -0,201;    0,682
810,380; 1788,540;    0,981;    1,591
810,945; 1938,651;    2,890;    2,045
811,510; 1772,489;   -0,200;    1,591
812,075; 1704,145;    2,800;   -1,409
812,640; 1986,801;    3,709;    1,409
813,204; 1775,912;    2,163;   -0,227
813,769; 1993,295;    0,254;   -0,045
814,334; 1916,588;    0,527;    0,864
814,898; 1680,426;    1,981;    0,591
815,463; 1708,173;    0,981;   -0,773
816,027; 1634,465;    1,345;   -2,318
816,592; 1663,758;    2,163;   -2,045
817,156; 1700,959;   -2,200;    1,136
817,721; 1751,524;    0,982;    2,318
818,285; 1548,999;    0,618;    1,500
818,849; 1681,018;   -0,018;    1,682
819,414; 1575,856;    0,073;    2,955
819,978; 1509,603;   -0,291;    1,773
820,542; 1910,350;    2,891;    0,500
821,106; 1741,279;    2,800;    0,682
821,670; 1907,299;    2,709;    2,591
822,234; 1654,682;    1,073;    1,409
822,798; 1522,884;   -0,836;    0,500
823,362; 1811,176;    1,527;    4,227
823,926; 1541,196;   -0,018;    1,136
824,490; 1751,943;    3,527;   -0,682
825,054; 1676,145;    2,527;   -1,136
825,618; 1515,255;   -1,200;   -1,500
826,181; 1546,821;    0,982;   -1,318
826,745; 1613,477;   -0,745;   -1,045
827,309; 1889,587;    2,255;    1,318
827,872; 1739,789;    0,527;    0,955
828,436; 1709,900;    1,982;   -0,773
828,999; 1675,010;    2,436;    1,227
829,563; 1590,121;   -0,654;    1,136
830,126; 1527,050;   -0,018;   -0,591
830,690; 1556,797;    0,709;    2,864
831,253; 1436,544;   -0,473;    2,227
831,816; 1494,473;   -0,018;    0,500
832,380; 1414,129;    1,164;    0,864
832,943; 1434,421;    3,073;   -0,500
833,506; 1471,623;    0,255;   -1,227
834,069; 1680,552;    2,164;   -0,955
834,632; 1582,026;   -2,200;    1,318
835,195; 1569,591;    1,346;    0,955
835,758; 1475,975;    0,709;    1,955
836,321; 1406,813;    1,073;   -1,045
836,884; 1426,650;   -1,291;   -0,955
837,447; 1417,397;    0,528;    1,773
838,010; 1549,054;    1,800;    3,227
838,573; 1627,892;    0,528;    0,773
839,135; 1537,548;   -0,109;   -0,955
839,698; 1465,749;    2,528;    0,409
840,261; 1400,405;    0,255;   -0,227
840,823; 1364,243;   -0,927;    0,864
841,386; 1351,445;   -0,018;   -2,409
841,948; 1686,646;    0,255;    1,773
842,511; 1395,212;    0,255;    1,682
843,073; 1660,140;    2,982;    0,227
843,636; 1407,251;    0,619;   -0,227
844,198; 1622,816;    1,255;    0,591
844,760; 1598,927;    0,619;    1,955
845,322; 1343,583;    0,164;    1,136
845,885; 1501,876;   -0,290;    0,591
846,447; 1484,986;    0,710;    0,227
847,009; 1790,279;    3,983;   -0,682
847,571; 1510,480;    1,346;   -2,045
848,133; 1482,955;   -0,199;   -1,864
848,695; 1342,974;    2,346;    1,409
849,257; 1389,540;    1,346;   -1,682
849,819; 1553,105;    2,983;   -0,409
850,381; 1431,761;    1,801;   -0,864
850,942; 1510,781;    1,892;   -0,591
851,504; 1517,891;    0,983;    0,227
852,066; 1445,638;    1,619;   -1,591
852,628; 1435,203;    0,165;    1,955
853,189; 1277,860;    0,256;    2,682
853,751; 1340,243;   -0,654;    1,409
854,312; 1504,899;    1,256;   -1,682
854,874; 1665,282;   -0,108;   -0,773
855,435; 1483,120;    0,528;   -1,682
855,997; 1567,049;    3,983;   -0,136
856,558; 1582,251;    0,801;    1,773
857,119; 1462,180;   -0,744;    2,864
857,681; 1309,381;   -0,108;    0,318
858,242; 1536,492;    1,347;   -2,136
858,803; 1603,784;    1,074;   -0,773
859,364; 1544,986;    0,892;   -4,773
859,925; 1573,006;   -0,290;   -0,955
860,486; 1478,298;    0,529;   -0,955
861,047; 1342,318;    0,165;   -1,227
861,608; 1369,974;    0,165;   -0,773
862,169; 1321,176;   -0,562;   -0,045
862,730; 1367,832;   -0,290;    1,409
863,291; 1444,670;    0,438;   -0,500
863,852; 1409,780;   -0,926;    1,955
864,412; 1355,709;   -1,835;   -0,864
864,973; 1511,638;    1,892;    0,500
865,534; 1657,749;    2,074;    0,227
866,094; 1499,496;    2,620;    0,227
866,655; 1602,970;    4,711;    3,318
867,215; 1461,808;    0,074;    0,136
867,776; 1363,191;   -1,199;   -0,136
868,336; 1416,211;    1,529;    0,136
868,897; 1773,413;    3,438;    1,682
869,457; 1544,160;    3,256;    0,318
870,017; 1383,725;    2,438;   -1,227
870,578; 1400,745;    1,893;    0,773
871,138; 1370,492;    2,620;   -0,955
871,698; 1250,057;   -0,562;   -1,318
872,258; 1363,622;    0,711;   -2,864
872,818; 1595,369;    2,347;    0,045
873,378; 1398,480;   -2,198;    1,045
873,938; 1353,681;    4,984;    0,500
874,498; 1270,974;    1,256;   -1,955
875,058; 1312,266;    4,347;    1,773
875,618; 1324,013;    1,438;   -2,682
876,177; 1373,578;   -0,471;    0,136
876,737; 1142,780;   -0,289;    1,955
877,297; 1565,800;    2,711;    1,955
877,856; 1482,820;    2,529;    0,318
878,416; 1226,930;    2,438;   -0,136
878,976; 1223,404;    3,438;    0,409
879,535; 1302,970;    4,529;    3,136
880,095; 1268,353;    1,347;    0,045
880,654; 1167,100;    0,347;    1,318
881,213; 1518,665;    2,347;    1,500
881,773; 1316,140;    1,984;    2,682
882,332; 1932,796;    6,075;    5,136
882,891; 1353,725;    0,711;    2,136
883,451; 1355,653;   -2,016;    1,682
884,010; 1250,491;   -1,107;   -0,409
884,569; 1220,511;   -2,289;   -0,045
885,128; 1431,894;   -0,743;   -1,864
885,687; 1720,187;   -0,743;    0,682
886,246; 1880,389;    2,620;    2,136
886,805; 1590,863;    1,620;    2,045
887,364; 1269,064;    1,166;   -0,500
887,922; 1194,448;   -0,016;    0,045
888,481; 1320,013;    1,530;    0,591
889,040; 1477,760;    3,711;    2,136
889,599; 1370,234;    2,166;    1,409
890,157; 1369,890;    2,166;    2,409
890,716; 1284,092;    2,166;    0,227
891,274; 1371,021;    0,075;   -1,136
891,833; 1460,586;    1,166;    0,864
892,391; 1293,333;    1,802;    0,500
892,950; 1476,807;    0,166;   -0,773
893,508; 1282,463;    0,984;   -0,409
894,067; 1145,301;   -0,379;    0,136
894,625; 1264,321;   -1,016;   -1,500
895,183; 1217,977;   -0,198;   -0,682
895,741; 1532,361;    2,257;   -1,773
896,299; 1306,199;    1,621;   -2,409
896,858; 1218,309;    1,530;   -1,591
897,416; 1361,874;    0,166;   -1,318
897,974; 1290,076;   -2,197;    0,318
898,532; 1807,823;    6,530;    2,682
899,089; 1437,025;    0,621;   -0,682
899,647; 1315,408;    0,530;    1,318
900,205; 1344,428;    0,257;    1,045
900,763; 1355,175;    2,166;    0,227
901,321; 1316,922;    3,530;   -1,409
901,878; 1129,669;    3,257;   -0,773
902,436; 1173,507;    0,257;    1,318
902,994; 2004,527;    6,712;    3,682
903,551; 1474,910;    1,439;    0,409
904,109; 1363,202;    1,530;   -1,409
904,666; 1296,949;    1,439;    1,045
905,224; 1169,060;    3,894;   -0,409
905,781; 1320,625;   -0,470;   -0,318
906,338; 1241,645;    0,167;    1,045
906,895; 1131,392;    1,894;    2,045
907,453; 1418,685;    2,348;    1,136
908,010; 1250,159;    3,348;    0,409
908,567; 1183,269;   -0,561;    0,591
909,124; 1005,926;    2,439;   -1,500
909,681; 1079,400;   -1,288;    0,682
910,238; 1164,056;   -0,106;   -1,318
910,795; 1145,439;   -1,561;   -1,136
911,352; 1126,803;   -0,379;   -2,682
911,909; 1117,167;    2,803;   -0,864
912,466; 1162,530;    1,985;    1,500
913,022; 1177,985;   -0,924;    0,500
913,579; 1296,530;   -0,470;    2,045
914,136; 1155,621;   -2,561;    0,955
914,692; 1221,348;    1,530;   -1,227
915,249; 1152,985;    0,530;    0,409
915,806; 1242,621;    1,803;    1,955
916,362; 1131,167;    0,894;    1,864
916,918; 1045,803;    2,439;    1,045
917,475; 1256,621;    1,621;    0,955
918,031; 1082,803;    0,076;   -0,045
918,587; 1141,803;    0,621;   -0,318
919,144; 1060,894;   -0,379;    0,227
919,700; 1022,985;    0,167;    0,773
920,256;  988,167;    0,439;    0,045
920,812; 1014,076;    1,439;   -1,045
921,368;  967,712;    1,348;   -1,045
921,924;  967,439;    0,439;   -0,136
922,480; 1055,894;    0,076;    1,227
923,036; 1105,439;   -0,652;    1,955
923,592;  994,439;    0,621;    0,318
924,148; 1015,530;    1,894;   -0,955
924,704; 1163,621;    0,258;   -0,409
925,259; 1015,348;   -0,561;    0,591
925,815;  954,167;    3,803;    0,500
926,371;  902,439;    3,530;    1,409
926,926; 1061,167;    1,621;    0,591
927,482; 1014,167;    1,621;    0,773
928,037;  944,167;   -0,833;    2,045
928,593; 1163,439;    0,258;    1,045
929,148;  910,439;    1,167;   -1,500
929,704;  967,076;    2,439;   -0,500
930,259;  862,803;    0,894;   -0,136
930,814; 1056,530;    1,803;    1,955
931,369;  980,076;    0,258;   -0,773
931,925;  768,985;   -1,924;    0,136
932,480;  873,621;    3,076;   -2,591
933,035; 1245,985;    3,985;   -0,318
933,590; 1121,076;   -1,742;   -1,773
934,145;  739,439;   -1,288;   -0,318
934,700;  665,894;    0,348;   -0,591
935,255;  733,712;    4,803;    0,045
935,809; 1037,167;    6,258;    0,864
936,364;  658,167;    2,167;   -0,136
936,919;  656,530;    2,348;   -1,773
937,474;  582,167;    1,348;    0,136
938,028;  610,258;    3,076;    1,136
938,583;  990,348;    6,348;    4,682
939,138;  657,894;    0,167;    2,136
939,692;  526,530;   -1,015;   -1,136
940,247;  549,530;    1,167;   -1,045
940,801;  607,894;    0,621;    0,227
941,355;  526,621;    0,439;    2,591
941,910;  425,803;    0,712;   -2,136
942,464;  469,076;    2,712;   -0,318
943,018;  703,076;    3,258;   -0,227
943,572;  529,258;    2,803;   -0,682
944,126;  580,894;   -0,924;   -0,409
944,681;  466,803;    0,712;    0,227
945,235;  406,985;    2,167;   -0,591
945,789;  369,985;    1,258;   -1,864
946,342;  652,894;   -0,561;   -0,591
946,896;  414,167;    0,348;    0,955
947,450;  384,712;   -0,561;   -0,227
948,004;  619,803;    1,076;   -0,045
948,558;  445,894;    1,258;   -0,864
949,111;  434,803;   -1,197;   -0,318
949,665;  624,894;   -0,106;   -0,682
950,219;  574,712;    0,621;   -1,045
950,772;  505,985;    0,258;    1,864
951,326;  502,803;   -1,106;   -0,955
951,879;  439,712;    1,076;   -2,318
952,433;  557,167;    1,348;    2,227
952,986;  398,439;    0,348;    0,682
953,539;  360,076;    1,530;    0,591
954,093;  316,621;    0,985;   -1,318
954,646;  449,439;   -0,288;    1,318
955,199;  370,530;    1,258;   -0,500
955,752;  570,167;    1,985;    1,773
956,305;  423,985;    0,894;    2,955
956,858;  475,803;    0,621;   -0,318
957,411;  531,621;    3,621;    2,136
957,964;  435,530;    2,076;    2,136
958,517;  369,076;    0,985;    3,136
959,070;  327,167;   -1,197;    1,955
959,623;  583,348;    1,076;    1,500
960,176;  534,894;    0,712;    2,045
960,728;  492,258;    1,712;    0,773
961,281;  436,258;    2,258;    0,500
961,834;  368,167;   -0,833;    0,864
962,386;  384,167;    1,258;    1,045
962,939;  342,530;    3,439;   -0,318
963,491;  395,348;    2,621;    1,136
964,043;  326,712;    0,076;    2,409
964,596;  493,167;    1,712;    2,227
965,148;  404,076;   -0,379;    1,773
965,700;  324,803;   -0,015;   -0,227
966,253;  483,530;   -0,833;    0,318
966,805;  436,258;    1,894;    0,773
967,357;  365,985;    0,439;   -1,500
967,909;  467,712;    1,167;   -1,227
968,461;  375,258;    0,894;    3,136
969,013;  324,348;   -1,561;   -0,864
969,565;  469,803;    1,803;   -1,136
970,117;  696,621;    3,803;    1,045
970,669;  473,621;    3,258;   -0,136
971,220;  286,076;    2,167;   -1,500
971,772;  366,712;    1,348;   -0,318
972,324;  450,439;   -1,197;   -0,500
972,876;  365,803;    0,167;   -0,045
973,427;  473,530;   -1,197;   -1,045
973,979;  540,894;    0,076;   -2,500
974,530;  349,167;    0,803;    1,318
975,082;  413,985;    2,167;    1,682
975,633;  363,530;    2,894;    1,682
976,184;  414,985;    2,076;    0,773
976,736;  404,167;    0,348;    0,227
977,287;  416,985;    0,258;   -0,500
977,838;  392,258;   -0,924;   -0,318
978,389;  396,348;    0,803;   -0,500
978,940;  269,439;    1,258;   -0,409
979,491;  263,985;    2,258;   -0,500
980,042;  354,439;   -0,652;    3,045
980,593;  368,803;    1,894;    0,227
981,144;  448,076;    3,530;   -0,500
981,695;  491,258;   -0,470;    1,500
982,246;  434,076;   -1,833;    1,045
982,797;  316,712;   -0,561;    0,682
983,347;  454,167;    2,167;    0,591
983,898;  645,167;    4,167;    0,409
984,449;  600,712;    2,530;    0,773
984,999;  452,348;    1,894;   -1,136
985,550;  406,894;    3,167;   -0,318
986,100;  286,803;    0,712;   -0,318
986,651;  282,621;    0,258;    0,045
987,201;  308,712;    0,894;   -0,591
987,751;  325,985;   -0,288;    2,864
988,302;  365,439;   -0,379;    1,500
988,852;  404,712;    1,985;   -1,136
989,402;  457,894;    0,985;    0,682
989,952;  473,894;    1,621;    0,864
990,502;  347,439;    1,076;    0,682
991,052;  261,076;   -0,106;    0,045
991,602;  296,985;    1,167;    1,318
992,152;  343,530;    2,803;    0,682
992,702;  379,894;    1,167;   -0,045
993,252;  324,167;    0,076;   -0,500
993,802;  411,712;    1,167;    1,318
994,352;  374,894;   -0,742;    1,136
994,901;  295,712;    1,076;    3,227
995,451;  284,712;   -1,197;    0,318
996,000;  314,439;    1,076;    0,318
996,550;  316,803;    2,894;    0,227
997,100;  355,258;   -0,561;   -0,045
997,649;  481,258;   -0,197;    0,955
998,198;  320,076;   -0,288;   -1,500
998,748;  421,985;    0,348;   -2,318
999,297;  357,076;    0,985;   -0,409
999,846;  480,439;    1,894;   -0,773
1000,395;  401,439;    1,530;    0,500
1000,945;  503,985;    1,076;   -0,773
1001,494;  503,167;    0,167;    0,682
1002,043;  491,530;    0,712;    0,864
1002,592;  320,258;    3,439;    1,955
1003,141;  321,076;    2,439;   -0,682
1003,690;  453,894;    1,258;    0,500
1004,238;  349,712;   -0,106;   -0,045
1004,787;  268,348;   -1,288;    1,227
1005,336;  430,712;    1,621;    0,682
1005,885;  384,439;   -0,197;   -2,773
1006,433;  383,985;   -0,470;    0,955
1006,982;  562,530;    2,167;    1,682
1007,531;  423,530;    2,712;   -0,227
1008,079;  372,712;    0,258;    0,500
1008,627;  328,076;    1,621;    0,409
1009,176;  347,167;    0,076;   -1,955
1009,724;  297,439;   -2,742;    0,864
1010,273;  438,621;    1,076;    0,500
1010,821;  333,258;    1,076;    1,409
1011,369;  293,530;    0,076;    1,318
1011,917;  315,348;   -0,833;   -0,591
1012,465;  388,348;    2,530;   -1,591
1013,013;  376,076;    0,439;   -1,682
1013,561;  475,803;   -1,288;   -0,773
1014,109;  557,803;   -0,833;    1,682
1014,657;  435,348;    1,348;    0,591
1015,205;  342,439;    0,894;   -0,955
1015,753;  293,530;    0,258;   -1,409
1016,301;  368,439;    2,621;    3,045
1016,848;  445,985;    2,167;    0,409
1017,396;  430,530;    1,621;    0,045
1017,944;  425,894;    2,621;    1,864
1018,491;  347,621;   -0,197;    1,409
1019,039;  639,803;   -0,652;    0,591
1019,586;  412,348;    0,076;    1,682
1020,134;  397,803;    0,712;    1,500
1020,681;  460,530;    2,894;   -1,136
1021,228;  377,712;   -0,561;   -2,227
1021,776;  361,621;   -0,833;   -1,136
1022,323;  569,258;    0,803;    0,773
1022,870;  481,258;   -0,470;   -0,045
1023,417;  525,621;    2,076;    1,864
1023,964;  380,894;    0,621;    1,227
1024,511;  353,348;   -0,652;    0,773
1025,058;  378,712;    0,439;   -0,045
1025,605;  336,348;   -1,742;    3,136
1026,152;  531,348;   -0,106;   -0,591
1026,699;  402,076;    0,167;    1,318
1027,245;  386,803;    2,439;    0,318
1027,792;  332,439;    0,712;    1,409
1028,339;  530,985;    4,076;   -0,045
1028,885;  403,894;    3,621;   -0,227
1029,432;  358,803;   -0,106;    0,227
1029,978;  454,167;    1,348;   -1,591
1030,525;  441,348;    1,621;    0,409
1031,071;  332,894;    0,348;    1,136
1031,618;  591,621;    1,258;    1,682
1032,164;  438,258;    2,076;    3,045
1032,710;  475,439;    0,076;   -1,500
1033,256;  442,439;    0,712;   -0,136
1033,803;  307,258;   -0,288;    1,500
1034,349;  200,803;    1,803;    0,136
1034,895;  247,621;    2,621;   -0,318
1035,441;  310,076;    0,439;    0,318
1035,987;  354,803;   -2,288;   -0,682
1036,533;  420,621;   -0,197;   -0,955
1037,078;  591,712;    4,712;    1,682
1037,624;  459,348;    2,439;   -0,955
1038,170;  350,530;    1,712;   -0,318
1038,716;  414,439;    2,167;   -0,409
1039,261;  305,439;    2,167;   -0,773
1039,807;  324,076;   -0,015;    3,409
1040,352;  348,894;   -1,288;   -0,318
1040,898;  336,985;    0,167;   -0,682
1041,443;  272,439;    0,803;   -2,591
1041,989;  551,348;    3,621;    1,591
1042,534;  364,621;    0,985;    2,591
1043,079;  266,712;    1,985;    0,955
1043,625;  349,621;    0,258;    0,500
1044,170;  371,076;    2,439;    1,045
1044,715;  552,621;    0,167;    0,955
1045,260;  451,258;   -0,833;   -0,955
1045,805;  318,803;    0,258;   -0,591
1046,350;  294,530;    0,530;   -0,409
1046,895;  457,530;    0,803;    1,591
1047,440;  442,439;    1,530;    0,409
1047,985;  327,167;   -1,197;   -0,955
1048,530;  300,258;    1,348;    1,227
1049,074;  346,985;    2,803;    0,318
1049,619;  293,076;   -0,924;    1,955
1050,164;  284,167;    1,076;    0,227
1050,708;  366,439;    2,621;    0,045
1051,253;  590,894;    3,258;   -2,227
1051,797;  407,258;   -0,197;   -1,318
1052,342;  260,621;    1,348;    1,045
1052,886;  335,076;    1,803;   -1,409
1053,430;  236,985;    2,167;    0,136
1053,975;  322,621;    0,894;   -0,318
1054,519;  326,985;    1,803;    3,227
1055,063;  380,712;    3,621;    1,318
1055,607;  367,894;    1,348;    0,227
1056,151;  368,803;    0,530;    1,682
1056,695;  295,621;   -1,833;   -1,136
1057,239;  288,076;   -1,197;   -0,682
1057,783;  327,439;    2,258;   -1,500
1058,327;  390,985;    3,076;    1,409
1058,871;  524,076;    3,985;    1,318
1059,415;  408,076;   -0,561;   -0,045
1059,958;  535,530;    2,985;    2,591
1060,502;  322,985;    1,348;   -0,773
1061,046;  239,348;    1,712;   -0,955
1061,589;  226,530;    2,803;   -1,136
1062,133;  203,167;    0,985;    1,864
1062,676;  237,803;    1,439;    0,864
1063,220;  267,167;    0,985;    0,500
1063,763;  293,803;    2,985;    1,136
1064,306;  307,803;    0,985;    1,864
1064,849;  307,803;    2,076;    0,591
1065,393;  288,803;    2,894;   -1,500
1065,936;  303,985;    2,530;   -0,409
1066,479;  229,258;    2,621;    1,318
1067,022;  247,803;    1,894;   -0,227
1067,565;  223,894;   -1,197;   -1,318
1068,108;  201,076;    1,258;   -0,591
1068,651;  186,076;   -2,470;    1,409
1069,194;  189,803;   -1,106;   -1,682
1069,736;  205,439;    3,803;    0,955
1070,279;  182,712;   -1,652;   -0,500
1070,822;  252,985;    1,530;   -0,318
1071,364;  363,621;    0,530;    1,318
1071,907;  244,621;    0,348;    3,227
1072,450;  123,803;    0,258;   -0,045
1072,992;  189,530;   -0,561;    3,136
1073,535;  252,076;    0,167;    2,136
1074,077;  182,076;    2,985;    2,045
1074,619;  173,348;    0,985;    0,591
1075,161;  200,894;   -0,561;    1,500
1075,704;  314,348;    0,258;    1,227
1076,246;  198,348;    1,530;    0,682
1076,788;  139,985;   -1,015;    1,773
1077,330;  146,167;   -2,106;    2,136
1077,872;  178,712;   -1,924;    0,955
1078,414;  336,167;    3,712;    0,773
1078,956;  208,439;    0,167;   -0,227
1079,498;  320,803;    0,439;    0,318
1080,040;  199,894;    0,985;   -1,318
1080,581;  163,348;    0,621;   -0,318
1081,123;  115,621;   -0,106;   -0,773
1081,665;  130,439;    3,803;   -0,955
1082,206;  294,439;    3,258;   -0,500
1082,748;  224,348;    3,258;    2,045
1083,289;  146,348;    0,167;    1,318
1083,831;  135,712;    0,258;    0,227
1084,372;  178,258;    0,894;    0,591
1084,913;  174,348;    3,348;    0,864
1085,455;  138,894;    1,530;   -2,045
1085,996;  129,803;    0,530;    0,136
1086,537;  154,530;    0,985;    0,864
1087,078;  161,167;    0,439;   -2,136
1087,619;  206,894;   -1,652;    0,227
1088,160;  172,348;    1,439;    1,318
1088,701;  156,348;   -0,742;    0,682
1089,242;  145,348;   -0,561;   -2,227
1089,783;  186,076;   -0,561;    1,409
1090,324;  165,712;   -0,833;    0,682
1090,865;  118,803;   -1,924;   -0,409
1091,405;  101,530;   -0,561;    2,227
1091,946;  136,530;   -0,197;   -0,955
1092,487;   97,712;   -1,288;   -1,409
1093,027;  191,439;    1,803;   -1,500
1093,568;  132,894;    2,258;    1,227
1094,108;  156,985;    0,621;    1,773
1094,649;  133,530;   -0,470;    0,136
1095,189;  109,894;    1,167;   -0,682
1095,729;  106,894;    0,712;    0,955
1096,269;  103,167;    1,258;   -0,955
1096,810;  231,167;   -0,197;    0,500
1097,350;  172,621;   -0,561;   -0,773
1097,890;  127,712;    2,985;    1,227
1098,430;  274,803;    4,985;    2,864
1098,970;  218,076;    1,894;    1,682
1099,510;  122,348;   -0,833;   -2,318
1100,050;  106,076;    0,258;   -1,591
1100,589;  115,258;    0,076;   -0,318
1101,129;  154,621;    0,894;   -0,955
1101,669;  227,985;    2,803;    2,136
1102,209;  164,985;    1,530;    2,227
1102,748;  129,167;    3,439;    0,955
1103,288;  136,621;    0,712;   -1,227
1103,827;  128,985;    3,530;   -2,227
1104,367;   95,712;    1,712;   -2,409
1104,906;   98,076;   -1,015;   -1,136
1105,445;  134,803;    0,985;   -1,136
1105,985;  109,530;   -0,652;    1,500
1106,524;  124,258;    1,530;   -0,682
1107,063;  114,076;    1,167;    1,409
1107,602;   90,985;    1,894;   -1,500
1108,141;   81,530;    1,621;    1,500
1108,680;  128,439;    3,985;   -0,591
1109,219;  107,348;    0,167;   -0,500
1109,758;   99,985;    4,167;    0,682
1110,297;   96,258;   -1,106;   -0,682
1110,836;   71,894;    1,439;    0,955
1111,375;   99,530;    0,348;    0,409
1111,913;  135,894;    0,985;    0,773
1112,452;  114,530;    0,894;    0,136
1112,991;   70,621;    1,076;    1,955
1113,529;   70,803;    0,167;   -0,045
1114,068;   96,712;    0,439;    2,955
1114,606;   63,167;   -0,561;   -0,955
1115,144;  117,712;    1,530;    1,045
1115,683;   97,167;    1,985;    0,318
1116,221;  120,258;    2,076;   -0,864
1116,759;   81,803;    1,621;   -0,864
1117,297;  140,348;    1,621;    1,864
1117,836;   83,712;    1,985;   -1,227
1118,374;   81,258;    0,258;   -0,682
1118,912;   87,803;    0,439;    2,682
1119,450;   82,076;    0,985;    0,864
1119,988;   84,348;    3,348;    2,136
1120,525;  320,258;    7,258;    3,318
1121,063;  171,348;    0,530;    1,864
1121,601;   82,439;    1,076;   -1,227
1122,139;   69,167;    1,076;   -2,045
1122,676;  156,621;   -1,652;    2,773
1123,214;  131,803;    0,712;    4,409
1123,751;   62,803;    0,621;    2,227
1124,289;   95,712;    0,894;   -0,409
1124,826;   67,530;   -0,379;    0,227
1125,364;   39,076;    0,712;   -0,955
1125,901;  127,167;    6,258;    1,227
1126,438;  131,803;    3,530;    0,955
1126,975;   44,167;    2,985;   -0,773
1127,513;   58,894;    2,621;    2,136
1128,050;   41,258;   -0,561;   -0,682
1128,587;   71,894;    1,348;   -0,227
1129,124;   91,439;   -0,015;    1,318
1129,661;   49,985;   -1,924;    0,227
1130,198;  109,439;    2,439;    0,773
1130,734;   83,803;   -0,379;    1,409
1131,271;   40,439;   -1,197;    0,864
1131,808;   96,712;    1,621;    3,045
1132,345;   60,621;    4,530;    0,318
1132,881;   20,076;   -0,561;   -1,864
1133,418;   62,985;    0,348;   -1,136
1133,954;   45,803;    0,712;   -2,682
1134,491;   66,621;    1,712;   -0,773
1135,027;   39,621;    2,167;    0,864
1135,564;   64,803;    1,439;    2,955
1136,100;   55,348;   -0,742;    2,136
1136,636;   32,348;   -1,015;   -1,045
1137,172;   51,439;    0,894;   -1,045
1137,708;   37,621;   -1,561;   -1,045
1138,245;   31,258;    0,803;   -1,227
1138,781;   28,348;    1,803;   -3,318
1139,317;   41,258;    1,894;   -1,409
1139,852;   44,985;    3,076;    0,136
1140,388;   67,530;    2,076;   -0,409
1140,924;   40,258;    1,076;   -2,227
1141,460;   27,258;   -0,288;    0,136
1141,996;   12,621;   -0,652;    2,682
1142,531;   22,985;    1,076;    3,318
1143,067;   88,530;    1,167;    1,045
1143,602;  113,712;    3,439;   -0,318
1144,138;   58,530;    0,803;    1,045
1144,673;   24,530;    1,621;    1,409
1145,209;   35,167;    2,894;   -0,318
1145,744;   22,803;    0,803;    0,864
1146,279;   54,348;    1,530;   -0,136
1146,815;   33,439;    1,530;   -2,682
1147,350;   46,621;   -0,924;    0,045
1147,885;   23,985;   -1,924;   -1,318
1148,420;   22,258;    2,439;    0,773
1148,955;   21,621;   -1,470;    1,864
1149,490;   28,439;   -1,106;   -1,591
1150,025;   17,530;   -1,106;   -1,773
1150,560;   48,803;   -0,288;   -0,955
1151,094;   38,621;    0,258;   -0,591
1151,629;   36,258;   -3,742;    0,864
1152,164;   23,985;   -1,288;    1,318
1152,698;   18,530;    1,258;   -0,136
1153,233;    9,530;   -1,379;   -0,682
1153,767;   18,439;   -0,288;   -2,318
1154,302;   29,712;   -0,379;    1,773
1154,836;   31,348;    0,803;   -2,136
1155,371;   39,348;    2,258;    3,682
1155,905;   28,258;    1,985;    1,682
1156,439;   26,439;    0,530;   -0,500
1156,973;   31,167;    0,439;    0,318
1157,507;   17,712;   -1,742;    0,682
1158,042;   15,076;   -0,652;    1,045
1158,576;   26,439;   -0,561;    1,773
1159,110;   30,621;    0,076;    2,409
1159,643;   23,076;   -2,470;   -0,045
1160,177;   13,167;   -2,015;    1,500

