
Integration time [ms]:   0,050
Averaging Nr. [scans]: 11
Smoothing Nr. [pixels]: 0
Data measured with spectrometer [name]: 7318044SP
Wave   ;Sample   ;Dark     ;Reference
[nm]   ;[counts] ;[counts] ;[counts] 

186,757;    0,418;   38,161;    1,318
187,357;   32,158;   26,706;    0,955
187,958;   11,271;   17,252;   -1,591
188,558;   56,298;   12,979;   -1,227
189,159;   29,382;   10,070;   -4,500
189,759;    2,697;    5,797;   -3,591
190,360;   10,137;    6,797;   -2,136
190,960;   43,493;    5,706;   -4,136
191,560;   62,399;    2,614;   -6,591
192,161;  301,515;    5,885;   -3,500
192,761;  133,767;    5,520;   -3,227
193,361;   85,258;    3,065;   -3,773
193,962;  139,230;    1,612;   -2,682
194,562;   73,565;   -0,114;   -3,955
195,162;  112,110;   -0,567;   -2,227
195,762;  278,080;    2,433;   -0,045
196,362;  213,706;    1,706;   -2,500
196,963;   82,530;    1,706;   -0,864
197,563;  157,676;    1,252;   -0,955
198,163;  101,667;   -0,111;   -0,682
198,763;  121,459;   -0,020;   -0,500
199,363;  229,194;    3,616;   -0,500
199,963;  196,924;    2,162;    0,409
200,563;  168,782;    6,344;   -1,409
201,163;  147,773;    5,435;   -0,227
201,763;  238,247;    1,435;    0,318
202,363;  175,977;    0,980;    1,500
202,963;  290,003;    1,526;    1,045
203,563;  410,427;    0,344;    0,500
204,162;  261,302;    1,889;   -1,864
204,762;  252,281;    2,071;    0,591
205,362;  219,548;    0,708;    1,955
205,962;  324,486;    3,435;    1,955
206,562;  331,454;    1,889;    2,318
207,161;  295,767;    1,708;    0,318
207,761;  440,217;    4,435;    2,409
208,361;  329,785;    1,889;    1,409
208,960;  428,726;    2,889;    1,500
209,560;  500,506;    0,435;    1,591
210,160;  483,305;    5,071;    1,864
210,759;  467,561;    0,708;    1,227
211,359;  466,811;   -0,474;    1,045
211,958;  737,166;    3,526;    2,045
212,558;  815,808;    0,799;    1,864
213,157;  654,539;   -0,929;    1,500
213,757; 1123,533;    5,617;   -0,227
214,356;  818,521;    1,708;   -0,409
214,956; 1155,980;    3,526;    0,409
215,555;  798,969;    0,617;    2,136
216,154;  722,186;   -0,292;   -0,591
216,754;  750,884;    1,253;    0,773
217,353;  901,821;   -0,383;   -1,045
217,952;  763,780;    2,072;    0,318
218,552;  984,885;    0,254;   -0,773
219,151;  895,092;   -1,110;    0,955
219,750;  912,615;    0,890;   -0,227
220,349; 1102,921;   -2,292;    1,045
220,948; 1135,394;    1,163;    1,136
221,548; 1202,253;    0,617;    1,227
222,147; 1325,672;   -1,292;   -0,409
222,746; 1619,533;    1,254;   -0,955
223,345; 1505,150;   -1,019;    0,500
223,944; 1545,025;    1,163;    0,773
224,543; 1769,748;    4,072;   -1,409
225,142; 1870,674;    1,345;    0,136
225,741; 1794,272;    1,163;    1,045
226,340; 1837,197;    1,254;   -0,955
226,939; 2327,734;    2,708;   -0,136
227,538; 2401,355;    1,163;   -0,773
228,137; 2534,857;    0,435;    0,864
228,735; 2757,115;    0,435;    1,227
229,334; 2472,269;   -0,474;   -0,227
229,933; 2868,913;    0,799;    0,591
230,532; 3006,196;   -1,201;   -0,409
231,131; 3065,844;    1,253;    0,318
231,729; 3288,841;    1,163;   -2,318
232,328; 3531,945;    0,435;   -1,500
232,927; 3660,541;    4,526;   -0,500
233,525; 3836,086;    0,981;    0,045
234,124; 4089,433;    1,890;   -1,591
234,723; 4165,639;    1,617;   -1,045
235,321; 4362,924;    1,163;    0,136
235,920; 4660,310;    2,526;   -1,227
236,518; 4972,140;    1,072;    0,318
237,117; 5268,869;    2,890;   -0,227
237,715; 5456,793;    1,163;   -0,500
238,314; 5491,148;    1,708;   -2,318
238,912; 5602,910;    0,526;   -1,409
239,510; 5734,671;    1,162;   -1,227
240,109; 5904,916;   -0,474;    3,773
240,707; 5986,952;   -0,474;    1,227
241,305; 6500,906;   -0,383;    0,136
241,904; 6735,997;   -0,292;   -2,045
242,502; 6664,494;    3,253;   -0,227
243,100; 6668,492;    3,344;   -0,955
243,698; 6987,598;    2,799;    1,682
244,297; 7207,647;   -0,656;    0,682
244,895; 7026,804;   -0,474;   -2,318
245,493; 7403,276;    2,981;   -0,591
246,091; 7479,547;    5,163;   -1,318
246,689; 7507,169;    2,163;    0,591
247,287; 7702,938;   -0,019;   -1,136
247,885; 8085,497;   -1,019;    1,227
248,483; 8242,434;   -0,201;   -0,500
249,081; 8398,643;    0,981;    1,591
249,679; 8577,530;   -1,019;    1,682
250,277; 8923,578;   -2,292;    0,864
250,875; 8934,688;    0,617;   -1,045
251,473; 8995,191;   -0,019;    0,500
252,071; 9199,616;   -0,383;    1,045
252,669; 9379,389;   -1,565;    0,318
253,267; 9726,148;    1,618;    0,773
253,864; 9707,574;    0,617;    0,682
254,462; 9552,636;    1,526;    1,591
255,060; 9572,291;    0,072;    1,318
255,658; 9960,389;   -3,292;   -0,136
256,255;10409,924;   -0,201;   -2,045
256,853;10263,860;    2,345;    1,409
257,451;10285,429;    1,981;    1,864
258,048;10547,266;    2,072;    1,864
258,646;10318,985;    0,436;   -1,045
259,243;10571,042;    2,981;    2,227
259,841;10678,732;    1,799;    0,318
260,438;10504,385;    0,254;    0,864
261,036;11402,696;    0,617;    1,409
261,633;11332,145;    1,526;    2,227
262,231;11038,290;   -0,110;   -0,045
262,828;11166,778;   -0,383;    1,136
263,425;11197,147;   -1,928;   -0,591
264,023;11519,200;    1,436;    0,045
264,620;11014,956;    1,526;   -0,318
265,217;11404,130;    2,890;    3,136
265,815;11572,978;    2,527;    2,136
266,412;11297,795;    0,072;    0,136
267,009;11372,505;    0,526;    0,773
267,606;11233,530;    0,345;   -0,955
268,203;11246,152;   -0,383;   -0,591
268,801;11569,500;   -0,474;    0,591
269,398;11937,666;   -0,564;    2,500
269,995;11930,596;    0,890;    1,591
270,592;11671,667;    0,799;   -0,500
271,189;11927,155;    1,981;    0,409
271,786;12073,469;    2,072;    1,227
272,383;11874,361;   -0,383;    0,227
272,980;12106,408;    1,617;    0,318
273,577;12676,496;    2,162;    1,227
274,174;12216,770;    1,435;    2,591
274,771;12178,934;    1,890;   -0,773
275,367;12337,118;    3,253;    1,409
275,964;12302,269;   -0,565;   -0,500
276,561;12436,886;   -2,474;   -1,045
277,158;12750,530;    1,799;   -1,773
277,755;12851,370;   -0,110;    0,409
278,351;12201,971;    0,436;   -1,500
278,948;12550,775;   -0,201;    0,045
279,545;12575,911;    0,527;    2,318
280,141;13271,735;    1,254;   -2,045
280,738;13138,360;    2,435;   -0,136
281,334;13474,302;   -0,383;    0,591
281,931;12791,103;    2,890;   -1,318
282,528;12916,248;    4,072;   -0,500
283,124;13743,272;    3,345;   -0,500
283,721;13658,227;    0,709;    1,409
284,317;13486,824;    0,163;    2,500
284,913;14086,948;   -0,110;    0,591
285,510;14302,766;    2,890;   -0,318
286,106;14356,636;    2,345;   -0,955
286,703;13894,424;    0,072;    1,955
287,299;14168,550;    1,254;   -0,591
287,895;14428,264;    0,890;   -1,045
288,491;15094,393;    0,163;    2,136
289,088;14756,578;    0,163;    2,409
289,684;14797,298;    2,890;    1,500
290,280;14882,056;    1,890;    0,682
290,876;14943,180;    0,163;    5,500
291,472;14837,928;    2,163;    2,227
292,068;14957,119;    1,254;    0,227
292,665;14706,822;   -0,564;    0,773
293,261;14217,638;   -1,292;    2,136
293,857;14605,391;    4,072;    2,136
294,453;14556,717;   -0,928;    0,955
295,049;14451,818;    0,253;    1,955
295,644;14420,820;   -1,292;    0,136
296,240;14345,360;    0,162;   -0,136
296,836;14428,681;   -0,747;    0,318
297,432;14724,823;    2,980;   -0,500
298,028;14751,893;    0,435;    0,773
298,624;15240,724;    0,889;    1,864
299,220;15579,651;    0,435;    0,591
299,815;15217,893;    0,526;   -0,409
300,411;14967,454;    0,435;    1,773
301,007;15016,850;    1,889;    0,227
301,602;15062,402;    2,071;   -2,318
302,198;15206,616;    1,435;   -0,773
302,794;15619,482;    1,526;   -0,500
303,389;15811,980;    1,071;    1,045
303,985;15883,715;    1,253;    1,409
304,580;15833,468;    0,889;    1,591
305,176;15881,510;    0,344;    0,136
305,771;15835,765;   -0,929;   -1,227
306,367;15556,012;    3,071;    0,136
306,962;16005,039;    2,889;    1,500
307,558;15702,059;    2,435;    0,136
308,153;15655,070;   -0,383;   -1,136
308,748;15925,585;    0,162;    1,682
309,344;15915,047;    0,253;   -1,318
309,939;15999,590;    2,071;   -1,318
310,534;16318,955;   -2,020;   -1,682
311,130;16311,034;   -0,656;   -2,500
311,725;16053,512;    0,526;   -0,500
312,320;16370,305;    1,253;    0,045
312,915;16191,242;    2,890;   -1,045
313,510;16256,743;    0,526;   -0,500
314,105;16865,634;   -3,565;    1,409
314,700;16197,567;   -1,656;   -1,045
315,295;15778,832;   -0,020;    0,045
315,890;15254,737;   -0,292;    0,864
316,485;15664,268;    0,253;   -0,318
317,080;15786,522;   -0,929;    1,591
317,675;16379,865;    3,071;   -0,682
318,270;15622,687;    6,889;    3,318
318,865;15714,582;    2,435;    3,045
319,460;15523,003;   -1,565;    0,591
320,055;15796,236;   -2,565;   -1,227
320,650;15406,857;   -1,838;   -0,591
321,244;15459,035;    0,889;   -1,409
321,839;16530,428;    0,980;   -0,227
322,434;16460,123;   -0,111;   -1,591
323,029;16003,430;   -0,474;    1,591
323,623;15868,040;    0,798;    0,773
324,218;15540,239;    2,707;    1,409
324,812;15437,224;    0,889;    1,591
325,407;15220,276;   -0,929;    2,045
326,002;15136,906;    0,526;   -0,409
326,596;15480,615;   -0,656;    1,318
327,191;15744,016;   -0,383;   -1,045
327,785;15247,888;   -0,747;   -0,227
328,379;15503,870;   -0,383;    0,136
328,974;15303,814;    1,798;   -3,955
329,568;15509,455;    2,889;   -2,409
330,163;15301,585;    2,435;    1,045
330,757;15761,548;    0,253;    1,591
331,351;14995,062;   -0,292;    0,682
331,945;15298,014;   -0,383;    1,409
332,540;14814,804;    1,617;   -0,591
333,134;14976,814;    3,344;    0,773
333,728;15248,405;    2,799;    0,318
334,322;15631,603;    0,889;   -0,864
334,916;14854,482;    0,344;    0,955
335,510;15196,250;   -0,111;   -0,136
336,105;15472,107;   -0,929;    1,591
336,699;15072,756;   -1,292;    0,591
337,293;14973,873;    1,071;    0,318
337,887;15191,522;    0,071;    1,955
338,481;15250,097;    2,980;    0,591
339,074;15431,650;    2,071;    2,682
339,668;15178,998;   -0,110;    1,227
340,262;15469,591;    7,708;    3,227
340,856;14987,590;    1,708;   -0,682
341,450;14252,593;    0,708;    1,864
342,044;15257,509;    1,799;    0,136
342,637;14972,189;    1,162;   -2,136
343,231;14793,408;   -1,474;    0,682
343,825;14719,651;   -0,747;   -0,591
344,419;14665,099;   -0,474;    0,500
345,012;14378,733;    2,889;    4,045
345,606;14356,703;   -0,656;    1,591
346,199;14209,279;   -0,111;   -0,227
346,793;13638,900;    2,525;    2,045
347,386;13877,993;    0,889;   -1,136
347,980;13848,036;   -0,838;   -0,045
348,573;13605,590;   -1,748;    0,409
349,167;13149,752;    6,161;    4,773
349,760;13588,270;    2,252;    2,682
350,354;13577,269;    1,616;    1,136
350,947;13228,968;    2,798;    1,682
351,540;12863,339;    0,616;   -1,409
352,134;12813,578;   -1,111;    1,136
352,727;12862,237;   -0,657;    1,136
353,320;12609,412;    2,343;    0,591
353,913;12475,897;   -1,929;    1,864
354,507;12668,241;    0,434;   -1,227
355,100;12640,791;    0,071;    0,864
355,693;11677,807;    4,798;    2,409
356,286;11752,200;    0,980;    2,773
356,879;12169,299;   -0,475;    1,227
357,472;11708,377;    0,980;    1,500
358,065;11890,022;    3,161;    2,500
358,658;11812,921;    0,798;    2,318
359,251;11422,586;    0,252;   -0,591
359,844;10804,888;    0,343;   -1,136
360,437;10909,967;    0,252;    0,045
361,030;11266,096;    0,525;   -0,682
361,623;10805,927;    0,434;    0,318
362,215;10841,378;    0,979;    2,045
362,808;10653,191;   -2,293;   -1,682
363,401;10836,323;    0,798;    0,136
363,994;10512,795;    3,252;   -1,500
364,586;10432,961;    0,888;   -1,500
365,179;10660,193;   -0,203;   -1,136
365,772;10078,131;   -0,930;    2,045
366,364;10441,371;    1,524;   -3,227
366,957;10664,986;    1,342;   -0,045
367,549;10667,940;   -0,203;   -0,864
368,142;10250,218;    0,978;   -1,500
368,734;10486,538;    2,523;   -2,136
369,327;10447,357;    2,341;   -0,500
369,919;10334,032;   -1,659;    0,409
370,512;10053,198;   -1,023;   -0,500
371,104; 9754,841;    2,704;    1,591
371,696; 9911,599;    1,703;   -0,955
372,289;10035,389;    0,157;    1,136
372,881;10228,646;    1,156;    1,318
373,473;10153,043;    4,064;    1,136
374,066; 9943,917;    1,336;    0,500
374,658; 9726,927;    0,879;    1,136
375,250;10150,731;   -1,668;   -1,409
375,842; 9973,301;   -0,124;   -0,045
376,434; 9802,399;   -2,762;   -0,409
377,026;10497,502;   -1,855;   -2,500
377,618;10397,343;    0,779;   -0,682
378,210;10211,417;    3,141;   -1,955
378,802;10026,652;    3,412;   -0,591
379,394; 9927,903;    3,411;    0,682
379,986;10653,011;    1,138;   -0,955
380,578;10795,303;    1,410;    0,773
381,170; 9964,090;    0,320;    0,045
381,762; 9947,299;   -0,224;    1,409
382,354;10241,267;   -0,223;   -1,318
382,945;10375,404;    0,870;    0,318
383,537;10554,337;    1,144;   -1,955
384,129;10513,019;    0,963;   -1,136
384,721;10719,618;    0,418;    0,955
385,312;10638,302;   -1,399;   -0,955
385,904;10736,474;   -0,945;    1,591
386,496;10027,806;    0,691;    1,045
387,087;10169,569;    0,418;    2,500
387,679;10231,063;   -0,401;    0,045
388,270;10355,098;   -2,401;    2,045
388,862;10510,271;   -0,401;   -0,318
389,453;10395,401;    1,054;    1,045
390,045;10702,184;    3,236;   -2,682
390,636;10686,671;    0,144;   -0,591
391,227;10498,249;    2,054;   -0,045
391,819;10583,856;    0,781;    0,773
392,410;10659,073;    0,600;    0,045
393,001;10585,942;    1,600;   -1,591
393,593;10914,283;    0,600;   -0,045
394,184;10731,789;    0,873;   -0,409
394,775;10710,748;    1,146;    2,136
395,366;10918,288;    1,782;    0,773
395,957;10995,591;   -2,400;    0,136
396,548;11332,782;    1,054;    2,682
397,139;11661,391;    2,236;    0,591
397,730;11332,588;    0,873;    0,955
398,321;11355,477;    0,509;    0,955
398,912;11411,081;   -0,764;    0,136
399,503;11522,542;   -1,945;   -1,409
400,094;10874,534;   -1,582;    1,682
400,685;10727,637;    3,600;    0,045
401,276;10837,341;   -0,400;   -0,955
401,867;11180,431;   -1,127;    0,773
402,458;11305,822;    1,509;   -2,318
403,048;11279,258;    0,146;    0,591
403,639;10837,905;    1,509;    0,864
404,230;11055,322;    0,691;    0,318
404,821;10993,633;   -0,127;    0,045
405,411;11104,744;   -0,763;   -2,591
406,002;10658,685;    3,237;   -1,136
406,592;10426,498;    2,691;    0,045
407,183;10766,550;    0,328;   -1,500
407,774;10725,602;    1,419;   -0,136
408,364;11122,893;    2,600;    0,409
408,954;10643,742;   -0,036;    1,227
409,545;10686,063;    1,873;    1,045
410,135;10131,736;   -1,581;    0,500
410,726;10318,305;    0,783;    0,318
411,316;10761,210;    2,237;    0,773
411,906;10416,559;    0,146;   -0,409
412,497; 9770,701;   -0,490;   -0,045
413,087;10475,709;    0,783;   -0,227
413,677;10930,886;   -2,490;    3,864
414,267;10763,157;   -1,035;    1,409
414,857;10796,788;    0,419;    4,227
415,448;11111,089;   -0,763;    0,500
416,038;10718,922;   -2,945;   -0,591
416,628;10674,388;    0,965;    0,409
417,218;10072,099;   -1,762;    3,318
417,808;10393,821;    0,965;   -0,409
418,398;10935,689;   -1,035;    2,682
418,988;10962,725;   -2,217;    0,591
419,578;11238,300;    3,601;    1,409
420,168;11661,588;    0,692;   -0,955
420,757;11150,305;    0,964;   -1,500
421,347;10780,404;    1,601;   -0,227
421,937;11004,578;    3,329;    1,409
422,527;10922,400;    2,602;   -0,773
423,116;10700,437;    2,692;   -0,045
423,706;11154,770;    2,965;    0,318
424,296;11150,195;    1,601;    0,682
424,885;11589,923;    1,510;   -3,045
425,475;11937,865;    1,147;   -2,864
426,065;11871,598;   -1,489;   -0,318
426,654;11418,164;    0,329;   -0,318
427,244;11474,230;    1,147;    1,409
427,833;10855,857;    1,056;   -0,500
428,423;11466,517;    0,147;    1,136
429,012;12350,176;    2,420;   -1,136
429,601;11771,957;    2,057;    0,136
430,191;12046,620;    2,511;    4,318
430,780;11604,329;   -1,671;   -0,409
431,369;11487,335;    1,329;   -0,045
431,959;12231,078;    1,693;    0,500
432,548;12043,611;   -1,398;   -0,045
433,137;12207,601;    0,329;   -1,318
433,726;12792,290;    0,148;    0,500
434,315;12056,020;    0,148;    2,409
434,905;12130,900;    0,693;    1,409
435,494;12010,104;    3,148;    0,955
436,083;12531,417;    1,420;   -0,955
436,672;12392,135;    1,148;    0,500
437,261;11918,414;    0,512;   -1,955
437,850;11971,145;   -1,125;    0,682
438,439;11944,912;    2,239;    1,955
439,027;11728,209;    3,421;    1,773
439,616;12187,348;    2,239;    1,227
440,205;12096,132;    0,057;   -2,136
440,794;12175,238;   -0,306;   -0,045
441,383;12496,833;    1,603;   -0,591
441,971;12367,685;   -0,306;    0,591
442,560;12196,700;    0,603;   -1,773
443,149;11968,861;    3,060;   -1,318
443,737;12108,641;    0,968;   -2,318
444,326;12352,379;    0,331;    0,318
444,915;12440,070;   -1,851;    0,864
445,503;12872,004;    0,058;   -0,318
446,092;12046,936;    7,876;    2,136
446,680;12678,787;    1,876;    0,318
447,269;12899,972;   -1,487;   -0,318
447,857;12652,531;    2,240;   -1,773
448,445;12746,757;    2,149;    1,318
449,034;13015,433;    0,876;   -1,136
449,622;13174,084;    1,240;    3,500
450,210;12182,063;    3,149;    2,227
450,799;12805,527;    2,604;   -0,591
451,387;12789,222;    1,786;   -0,591
451,975;12351,792;   -1,305;    0,864
452,563;12441,044;    0,422;    2,318
453,151;12535,550;   -1,032;   -1,227
453,739;12391,284;   -1,577;    0,136
454,328;12217,426;    0,604;   -2,136
454,916;11844,781;    1,150;   -0,136
455,504;12085,783;    3,513;    1,227
456,092;12312,360;    2,150;   -1,591
456,679;12288,095;    0,604;    0,682
457,267;12100,654;    3,604;    1,045
457,855;12332,791;    3,241;    1,409
458,443;12131,043;   -0,304;    1,682
459,031;12237,010;    1,332;    2,409
459,619;12769,698;   -3,577;    2,864
460,206;12954,498;   -0,759;    2,045
460,794;13027,188;   -0,668;   -0,227
461,382;13318,289;    0,878;   -0,864
461,970;12853,310;    0,605;    1,864
462,557;12899,316;    0,878;   -0,682
463,145;13101,124;   -0,304;   -1,682
463,732;13273,400;    2,514;   -1,045
464,320;13193,597;    1,514;   -3,045
464,907;12763,796;    0,423;   -0,773
465,495;12646,266;    2,696;   -1,227
466,082;12809,316;    2,060;   -0,045
466,670;12728,464;    2,605;    1,227
467,257;13215,244;    0,060;    2,045
467,844;13369,680;    1,514;    0,045
468,432;13359,682;   -0,031;    3,500
469,019;12790,956;    1,606;   -1,773
469,606;13309,874;    0,969;    3,682
470,193;13122,627;    2,151;    0,227
470,780;12573,086;    0,333;    0,864
471,368;13013,288;   -1,212;   -0,773
471,955;12757,613;    1,060;   -0,682
472,542;12323,021;   -0,303;   -1,136
473,129;12602,482;   -0,485;    0,136
473,716;12318,438;    0,060;    0,591
474,303;12574,103;    1,333;   -0,864
474,890;12919,538;    2,333;   -0,500
475,477;12858,234;   -0,576;    0,409
476,064;12762,377;    0,697;   -1,591
476,650;12710,095;    2,152;    0,318
477,237;12542,550;    1,879;    0,955
477,824;12755,580;    3,879;    0,864
478,411;12768,705;    0,606;   -0,318
478,997;13009,852;    0,606;   -0,773
479,584;13085,064;   -0,666;   -0,409
480,171;13838,256;    1,243;   -0,773
480,757;13485,859;   -0,848;    0,773
481,344;13860,068;    0,334;    0,409
481,931;13350,919;   -0,393;    1,045
482,517;14475,524;    0,425;    0,318
483,104;15153,757;    1,334;    2,864
483,690;15599,890;    0,243;    0,045
484,276;16104,422;    0,698;    0,227
484,863;15834,236;    2,152;    1,136
485,449;16553,771;    0,152;    0,318
486,035;16534,408;   -0,666;   -0,136
486,622;17012,017;   -2,393;    0,045
487,208;16924,819;    1,334;    1,500
487,794;16784,216;    0,971;    0,318
488,380;16898,967;    0,698;   -1,409
488,967;16924,707;   -1,120;   -0,409
489,553;16972,968;   -1,029;   -1,409
490,139;17173,961;    0,971;    0,773
490,725;16561,397;    0,789;   -0,227
491,311;16002,199;    1,516;    3,045
491,897;15105,151;   -0,665;    1,500
492,483;14841,119;    0,426;    1,227
493,069;14499,355;    5,426;    0,864
493,655;14514,935;    1,789;    0,682
494,241;14416,010;    1,517;   -0,955
494,826;14872,317;    0,335;   -1,045
495,412;14307,534;    0,335;   -0,682
495,998;14437,991;    0,971;   -0,318
496,584;14628,567;    2,244;    1,045
497,169;14616,781;    2,335;   -0,682
497,755;14552,533;    1,244;    1,227
498,341;15145,039;    2,153;    0,318
498,926;14624,597;    2,881;    1,955
499,512;14910,398;   -0,028;    2,955
500,097;15090,185;   -0,574;   -0,318
500,683;15017,831;   -0,028;    2,136
501,268;15376,168;    1,881;   -0,955
501,854;15057,759;   -0,119;    1,227
502,439;14979,796;   -0,573;   -1,773
503,024;15233,384;    1,608;    0,500
503,610;15331,558;    1,335;   -0,682
504,195;15376,386;    1,245;    1,955
504,780;15501,134;    2,335;    1,227
505,366;15249,684;    4,063;    2,864
505,951;14949,937;   -1,119;    1,045
506,536;14961,340;    1,427;   -3,682
507,121;14953,476;    1,699;   -0,318
507,706;15503,338;   -0,392;    1,045
508,291;15906,587;   -2,937;    1,136
508,876;15353,500;   -0,482;    2,591
509,461;14781,473;    1,427;   -0,773
510,046;15234,541;   -0,391;    0,318
510,631;15443,207;   -0,119;   -0,773
511,216;15114,736;   -0,664;   -0,500
511,801;15496,348;   -0,755;    2,591
512,386;15813,014;    0,972;    0,500
512,971;15748,596;    0,427;    0,955
513,555;15265,289;    1,154;   -1,500
514,140;16160,425;    1,336;   -3,136
514,725;16186,211;    1,791;   -1,136
515,309;16342,489;    1,064;    0,318
515,894;15696,530;   -0,300;   -2,227
516,479;16132,855;    1,973;   -0,955
517,063;15998,363;    0,882;    1,227
517,648;16137,329;    0,155;   -1,136
518,232;15745,338;   -1,300;   -1,409
518,817;16108,786;    1,337;    1,682
519,401;16341,029;    0,700;    0,591
519,985;15808,005;    2,700;    1,136
520,570;15672,934;   -0,118;   -1,955
521,154;16021,372;    0,064;    0,591
521,738;16242,318;    1,064;    2,409
522,323;16898,014;   -0,390;    1,682
522,907;16606,513;    2,428;   -0,136
523,491;16264,374;    1,155;    0,955
524,075;16230,095;    0,428;    0,591
524,659;16278,523;    0,973;    0,591
525,243;15690,343;    0,883;    0,409
525,827;15969,256;    0,883;   -0,045
526,411;16913,887;    1,155;   -0,136
526,995;17198,359;    0,337;    1,409
527,579;16746,433;    1,974;   -1,045
528,163;17035,152;    0,428;   -1,500
528,747;16952,262;    1,065;   -0,773
529,331;17305,226;    0,883;   -1,409
529,915;17552,852;    2,338;    0,955
530,499;17487,635;    0,247;    1,227
531,082;17154,678;    1,065;    1,591
531,666;16566,559;    0,520;    0,773
532,250;17331,529;    0,428;    2,682
532,833;17682,634;    0,610;    2,773
533,417;17579,516;    1,247;    0,864
534,001;17544,096;    0,429;   -0,318
534,584;18276,068;    1,974;    0,500
535,168;18080,585;    3,247;    1,409
535,751;18180,881;    4,520;    0,045
536,334;17596,283;    4,520;   -0,409
536,918;18310,729;    1,974;    1,591
537,501;18392,566;    1,520;    1,318
538,085;18368,848;    1,702;    1,045
538,668;18553,114;    0,883;    2,409
539,251;18900,108;    3,156;    3,773
539,834;18877,142;    0,156;    0,773
540,418;18827,850;    3,247;    4,318
541,001;19036,610;    2,702;    1,773
541,584;19021,611;    1,429;    2,227
542,167;18687,761;    0,702;    2,955
542,750;18846,197;    0,793;   -0,773
543,333;18411,634;    1,429;    2,136
543,916;19290,809;   -0,298;    2,500
544,499;19941,281;    2,520;    0,227
545,082;19954,198;    0,248;    3,591
545,665;20127,027;   -0,207;    1,500
546,248;20518,271;    0,520;   -0,318
546,830;20182,619;   -1,752;    1,955
547,413;20604,095;    0,157;   -0,773
547,996;21117,973;    0,157;    0,500
548,579;20889,363;   -0,843;    0,955
549,161;20739,007;    0,884;    2,682
549,744;20551,306;    0,612;    0,409
550,326;21125,789;    0,885;   -1,136
550,909;20820,136;    2,339;    0,591
551,492;21233,703;    0,521;    0,227
552,074;21022,195;   -0,024;   -1,318
552,657;21620,720;    2,430;    0,045
553,239;21404,700;   -3,024;   -0,773
553,821;21324,778;   -1,570;    1,045
554,404;20755,307;   -0,024;    1,136
554,986;21140,115;    2,248;    1,045
555,568;21790,277;    0,430;   -0,955
556,151;20889,725;    4,067;   -0,227
556,733;21173,134;   -1,388;   -0,864
557,315;21693,137;    4,703;    0,500
557,897;21538,227;    0,521;   -0,500
558,479;21625,836;    1,703;    1,318
559,061;21749,538;    1,067;   -0,864
559,643;22111,939;   -0,297;    0,045
560,225;22506,194;   -0,388;    2,864
560,807;22583,394;    0,340;    0,318
561,389;22052,808;   -1,206;    2,318
561,971;22805,897;   -0,660;    2,136
562,553;22647,406;    0,613;    1,591
563,135;22786,489;    1,249;    1,136
563,717;22347,985;    3,158;    1,136
564,298;23139,163;    3,976;   -0,045
564,880;22857,198;    0,340;   -1,409
565,462;23117,016;    1,977;    1,318
566,043;24356,761;   -0,933;    2,318
566,625;23890,928;    4,067;    1,227
567,207;23786,731;    0,704;    1,682
567,788;25031,621;   -0,114;    1,500
568,370;25973,216;   -1,841;   -0,500
568,951;25873,322;   -0,569;    0,227
569,533;26826,871;    0,977;   -0,500
570,114;27417,652;   -0,296;    0,682
570,695;28007,664;   -0,478;   -1,318
571,277;28660,109;   -0,205;   -1,682
571,858;29518,092;    2,704;   -1,136
572,439;30600,052;    0,795;   -1,045
573,021;30778,300;    0,432;   -2,773
573,602;31418,296;    1,795;    0,318
574,183;32495,811;   -0,114;    2,227
574,764;32791,278;    2,068;    0,409
575,345;33431,254;    0,250;   -0,136
575,926;34135,896;    2,704;    0,136
576,507;34131,464;    2,704;   -0,227
577,088;35298,520;    1,704;    1,682
577,669;35383,120;    1,704;    1,955
578,250;36264,629;   -0,750;   -1,045
578,831;37060,808;   -0,841;   -2,227
579,412;37417,477;   -1,205;    0,955
579,993;38428,030;    1,432;    0,227
580,573;38770,444;   -0,023;   -0,955
581,154;37689,169;    1,613;   -0,591
581,735;38615,798;    0,341;    0,773
582,315;38029,252;    0,523;    2,136
582,896;38388,733;   -1,750;    1,227
583,477;37899,713;    0,614;    1,227
584,057;38023,450;    1,159;    0,955
584,638;38302,303;   -2,750;    2,318
585,218;38276,876;    2,886;    2,682
585,799;38456,433;    1,977;   -0,227
586,379;38386,065;    1,250;    1,591
586,959;37035,699;    2,613;    0,318
587,540;36194,841;    0,432;    2,227
588,120;35593,641;   -1,113;   -0,045
588,700;34431,619;    2,977;    2,136
589,281;34734,101;    1,250;   -0,955
589,861;34584,494;   -0,296;   -1,682
590,441;34437,402;   -1,477;   -2,682
591,021;33328,562;    1,432;   -2,591
591,601;33507,364;    0,431;    0,500
592,181;33458,250;   -1,296;   -0,773
592,761;32659,538;    2,250;    1,409
593,341;32558,650;    1,522;    0,045
593,921;32466,030;   -0,569;    1,591
594,501;32300,461;    1,250;    1,318
595,081;32178,673;    0,522;   -0,318
595,661;32469,795;    1,068;    0,955
596,240;33008,308;   -1,023;    0,136
596,820;32660,071;    2,613;    1,955
597,400;32911,969;    1,977;    0,773
597,980;33185,956;   -0,750;    1,045
598,559;33158,290;    0,341;   -0,227
599,139;32826,921;   -0,750;   -1,227
599,718;32760,012;    0,795;   -0,409
600,298;33009,143;   -2,387;    0,682
600,877;33224,999;    4,795;    1,409
601,457;33509,307;    0,340;    1,136
602,036;33473,077;    1,795;    2,045
602,616;33701,759;    2,250;    1,682
603,195;34005,747;    0,431;    3,500
603,774;33503,889;   -0,296;    2,045
604,354;33459,064;    2,522;   -0,500
604,933;32848,866;    0,250;    1,864
605,512;32976,254;    2,340;    0,591
606,091;33010,976;    1,886;    3,773
606,671;33806,559;    0,249;    0,773
607,250;32789,951;    1,431;    3,136
607,829;33155,077;    1,158;    3,227
608,408;32952,276;    4,613;    2,591
608,987;31924,559;    2,704;    3,409
609,566;32224,991;    0,341;   -2,500
610,145;32258,763;    2,885;    0,682
610,723;32712,947;    1,613;    6,864
611,302;31844,976;    1,067;    1,682
611,881;31290,818;    5,158;   11,227
612,460;32134,917;    0,795;    3,955
613,039;32641,938;    1,703;    2,045
613,617;31321,169;    0,886;    4,773
614,196;31538,588;    1,613;    1,227
614,775;31826,420;    1,249;    2,409
615,353;31766,409;   -1,660;    0,864
615,932;31406,235;    0,249;    2,409
616,510;32004,951;    0,158;    0,591
617,089;31431,334;    8,794;   17,591
617,667;31169,431;    4,885;    6,136
618,246;30982,113;   -1,115;    1,318
618,824;31134,590;    1,612;   -0,955
619,402;30732,422;    0,431;   -1,773
619,981;31243,509;    1,067;   -1,045
620,559;31093,891;    0,794;    1,682
621,137;30580,941;    3,067;    1,864
621,715;30510,579;    3,703;   -0,682
622,293;30423,983;    1,885;   -0,773
622,871;30911,047;    0,340;    0,500
623,450;30356,354;    0,430;   -0,864
624,028;30301,729;   -0,388;   -0,955
624,606;29925,243;    2,339;    1,682
625,183;30293,463;   -0,661;   -1,136
625,761;29887,176;    1,885;    1,136
626,339;30184,098;    2,339;    2,591
626,917;30593,239;    0,339;   -0,045
627,495;30629,862;    2,794;    1,318
628,073;30034,774;    5,248;    2,864
628,650;29678,809;    3,067;    2,136
629,228;30111,150;    1,248;    4,409
629,806;29414,292;   -0,024;    1,136
630,383;29709,105;    0,066;   -0,318
630,961;29423,964;   -2,206;   -0,955
631,539;29181,950;   -2,479;    0,227
632,116;28413,055;   12,703;   15,409
632,694;29042,224;    4,885;    6,500
633,271;29346,892;    1,975;    2,682
633,848;29237,456;    1,430;    2,045
634,426;29304,442;    1,521;    1,773
635,003;28384,982;   -0,207;   -0,409
635,580;28686,016;    1,884;    3,682
636,158;29333,745;    3,793;    1,227
636,735;29252,564;    3,339;   -0,500
637,312;29400,857;    0,521;   -0,682
637,889;29500,244;    2,248;   -0,682
638,466;28923,748;    0,066;   -0,409
639,043;28947,823;    1,702;   -1,136
639,620;29274,228;    0,611;   -0,955
640,197;29615,300;    1,612;    1,682
640,774;29761,199;    1,430;    1,136
641,351;30164,189;    0,612;    1,136
641,928;29514,452;    2,794;    1,409
642,505;29127,078;    0,794;   -0,500
643,082;29226,795;    1,885;    1,227
643,658;28216,149;    1,157;    1,500
644,235;28982,139;   -2,479;    2,500
644,812;29267,675;    1,794;    0,773
645,388;29008,119;    1,612;    1,409
645,965;29073,200;    1,521;    1,682
646,542;29140,008;    3,430;   -0,227
647,118;29228,908;    3,703;   -0,955
647,695;29497,261;    0,339;    1,136
648,271;29395,160;   -2,115;    0,500
648,848;29714,787;    0,248;    2,227
649,424;29504,777;    0,976;    1,318
650,000;29290,312;   -0,388;   -1,045
650,577;29102,393;    0,158;   -0,955
651,153;29599,474;   -1,115;    0,955
651,729;30649,464;    0,521;    0,864
652,305;30973,545;    1,339;    2,773
652,881;36254,172;   -1,297;    1,136
653,458;44467,798;    0,249;    0,227
654,034;49190,515;    0,703;    1,591
654,610;51050,596;    0,339;    0,773
655,186;52579,950;    1,612;    3,045
655,762;52375,940;   -1,842;    0,409
656,338;52412,294;    0,703;    0,136
656,913;53469,466;   -0,297;    0,409
657,489;52707,456;    0,249;   -0,318
658,065;52630,537;    0,794;   -1,591
658,641;53164,981;    2,158;   -0,864
659,217;52414,517;    2,067;    0,409
659,792;51789,689;   -1,751;   -0,409
660,368;52094,042;   -0,388;   -0,682
660,944;51639,032;    1,794;    1,227
661,519;46298,113;    0,522;    0,409
662,095;38989,103;   -0,206;    0,591
662,670;33368,548;   -0,206;   -0,136
663,246;31828,720;   -0,660;   -0,409
663,821;30953,892;    0,431;    1,682
664,396;30401,700;    0,613;    1,864
664,972;30667,781;   -0,660;   -0,500
665,547;31061,407;    3,794;    0,136
666,122;30986,852;    1,340;    0,318
666,698;31286,115;    2,431;    0,318
667,273;30649,196;    0,885;    0,136
667,848;31493,913;    0,340;    1,500
668,423;31236,994;    1,795;    2,318
668,998;31892,257;    0,976;   -0,682
669,573;32458,520;    2,067;   -1,500
670,148;32249,692;    1,885;   -0,682
670,723;32099,682;   -0,024;    0,318
671,298;32520,126;   -1,296;    1,045
671,873;32646,207;   -0,296;   -0,136
672,448;32624,288;    1,704;    0,136
673,023;33003,278;    0,249;   -0,227
673,597;33287,632;    2,704;    2,318
674,172;33064,076;    2,431;    0,318
674,747;32522,157;   -0,205;   -1,045
675,321;32393,147;   -0,933;    3,318
675,896;31965,410;    2,158;    1,045
676,471;32984,400;    2,522;    1,591
677,045;32750,481;   -0,296;    0,682
677,620;32760,108;    2,158;    1,136
678,194;33136,734;    0,249;    1,136
678,769;32689,451;    0,886;   -0,318
679,343;32873,169;   -0,023;    1,773
679,917;32718,432;    0,340;    1,955
680,492;32882,149;    0,249;    3,227
681,066;33008,139;    0,613;    0,409
681,640;33047,856;    1,795;   -0,318
682,214;33909,483;    2,340;    0,500
682,788;33381,109;    0,613;   -0,773
683,363;33377,735;    1,977;    1,682
683,937;33041,907;    0,886;   -0,318
684,511;33861,716;   -1,023;   -0,591
685,085;33597,706;   -1,478;    0,318
685,659;33341,332;    1,431;    0,864
686,232;33542,231;    1,159;   -0,318
686,806;33304,858;    2,159;    0,409
687,380;33911,302;   -1,932;    0,591
687,954;34185,110;    2,432;    1,136
688,528;33837,282;    2,613;    1,955
689,101;34653,181;    0,432;    1,045
689,675;34215,535;    0,886;   -0,136
690,249;33571,798;    3,432;    0,409
690,822;33909,424;    1,159;    0,318
691,396;33947,778;    2,068;    1,227
691,969;33402,677;    2,523;    0,136
692,543;33866,667;   -0,568;   -1,955
693,116;33498,021;   -0,659;   -1,409
693,690;33312,556;   -0,296;    0,500
694,263;33883,365;    2,341;    2,955
694,836;33927,991;    2,795;    3,591
695,410;32500,981;    1,159;    1,773
695,983;33003,062;    1,614;    0,591
696,556;32950,779;   -0,750;   -1,045
697,129;33398,133;   -1,114;    1,409
697,703;33005,123;    1,341;    1,955
698,276;32996,931;    1,705;   -0,773
698,849;32784,558;   -1,023;    1,409
699,422;33139,184;    1,250;    0,591
699,995;32774,174;   -0,659;    0,136
700,568;33346,619;   -0,204;    3,045
701,140;33355,154;   -1,841;    1,682
701,713;33034,872;    0,341;    2,409
702,286;32807,135;    0,796;    0,864
702,859;32688,216;    0,614;   -0,591
703,432;31763,206;   -0,841;    0,682
704,004;32341,650;    1,978;    0,318
704,577;32203,277;    1,068;    0,136
705,150;32773,903;    0,887;    2,500
705,722;32535,348;    1,523;   -3,227
706,295;32305,156;    1,432;   -0,591
706,867;32126,964;    0,250;    1,955
707,440;32311,500;   -0,113;   -0,409
708,012;32577,399;   -0,022;    0,591
708,584;32529,025;    2,705;    0,227
709,157;32816,015;    1,160;   -0,591
709,729;32456,369;    1,069;    2,045
710,301;33384,359;   -1,204;    0,045
710,874;33370,985;    0,341;   -0,227
711,446;32198,248;   -0,295;    0,864
712,018;32078,147;   -3,022;    0,500
712,590;31763,956;   -0,204;    1,682
713,162;32326,491;   -0,477;    1,318
713,734;32641,572;    1,796;   -2,045
714,306;32528,017;    0,342;   -0,409
714,878;31155,825;   -0,295;    0,864
715,450;31941,997;   -0,113;    0,864
716,022;32216,623;    2,433;    1,318
716,593;32382,977;    0,978;    0,591
717,165;32325,785;    1,796;   -1,227
717,737;31987,139;    0,796;    0,409
718,309;31686,583;    1,160;   -0,045
718,880;31612,664;   -1,295;   -1,409
719,452;31827,109;    0,887;   -1,591
720,024;31384,917;    1,705;   -0,591
720,595;31928,362;    2,978;    0,955
721,167;31440,625;    1,160;   -2,045
721,738;30946,705;    2,069;   -1,045
722,309;30865,150;    1,251;   -1,227
722,881;30663,777;    2,705;    0,773
723,452;31379,130;    1,251;    2,864
724,023;31526,666;    1,524;    2,682
724,595;31297,383;    2,342;    0,682
725,166;31015,919;    1,524;   -0,409
725,737;30619,727;    1,887;    0,227
726,308;30737,171;    0,797;    0,318
726,879;31200,525;    1,069;    1,227
727,450;31029,242;   -2,022;   -0,045
728,021;31027,778;    1,069;    0,682
728,592;30815,859;    1,160;    0,500
729,163;31138,849;    1,433;   -0,136
729,734;31107,112;    2,160;   -0,227
730,305;31473,647;    0,615;    0,136
730,876;31886,546;    0,888;    2,955
731,447;31587,627;    0,797;    2,682
732,017;31691,890;   -0,840;    1,864
732,588;31156,335;   -0,021;    1,227
733,159;31344,688;    3,615;   -1,045
733,729;31203,588;    1,251;    0,409
734,300;30449,396;    0,160;    0,864
734,870;30875,113;   -1,385;    0,591
735,441;31502,740;    0,888;   -0,591
736,011;31217,639;    1,070;   -1,591
736,582;31166,083;    1,251;    0,045
737,152;30601,073;    0,979;   -2,045
737,722;31055,336;    1,070;   -0,682
738,293;30770,781;   -2,021;    1,318
738,863;30663,225;    1,797;    2,318
739,433;30406,215;    4,524;    0,318
740,003;31035,024;    1,524;   -0,682
740,573;30358,923;    2,252;   -1,591
741,143;30318,367;    3,615;    0,318
741,713;31073,176;    0,252;   -0,500
742,283;30763,893;    1,706;    1,591
742,853;30524,428;    0,524;    1,591
743,423;29975,600;    0,161;    0,045
743,993;30155,318;    1,070;    1,500
744,563;29388,671;    2,524;   -0,864
745,133;29371,298;   -0,112;   -0,864
745,702;30143,470;    2,797;    1,773
746,272;29233,641;    0,434;    0,591
746,842;28937,541;   -0,748;   -0,591
747,411;29428,712;   -0,839;   -0,318
747,981;29653,430;   -0,930;    0,500
748,551;29739,238;   -0,021;   -1,045
749,120;29576,955;   -0,112;   -0,227
749,690;29979,945;    2,161;    2,409
750,259;30246,663;    0,979;    2,955
750,828;30138,016;    4,070;   -1,955
751,398;30419,916;   -0,112;   -0,045
751,967;29850,542;    2,888;    0,409
752,536;30125,896;    1,161;   -0,227
753,105;30568,068;   -1,384;    0,227
753,675;30420,876;   -0,112;    1,773
754,244;30385,411;    0,888;    3,591
754,813;30375,129;    0,979;    1,227
755,382;30010,482;    0,798;    0,955
755,951;30534,654;   -0,112;    3,682
756,520;30080,008;    2,525;    1,864
757,089;30655,543;    1,888;    0,500
757,658;30846,261;    2,434;    1,227
758,227;30797,524;   -1,111;    0,318
758,795;31128,241;   -1,021;    1,136
759,364;31405,049;    0,525;   -0,591
759,933;30346,221;    1,343;   -0,045
760,501;29853,666;    0,252;   -1,318
761,070;30383,837;   -0,293;   -1,409
761,639;31098,464;    1,434;    1,318
762,207;30333,999;    0,889;   -0,955
762,776;30285,989;    2,889;    0,864
763,344;30169,343;    0,071;    0,591
763,913;29304,606;    1,616;    1,409
764,481;30021,869;    1,980;   -0,136
765,049;29819,041;    0,616;    1,409
765,618;29675,122;    1,434;    0,318
766,186;29765,566;    2,434;    0,136
766,754;29966,193;    1,798;    1,864
767,322;28864,910;    1,162;    0,409
767,890;28870,536;    0,525;   -1,773
768,459;29304,163;    2,616;   -0,318
769,027;29484,153;    2,525;    3,409
769,595;28433,506;    2,616;    2,591
770,163;28864,678;    3,344;    2,955
770,730;28537,759;    2,525;   -0,136
771,298;28472,113;    1,162;   -1,409
771,866;28475,012;    0,253;    4,955
772,434;28837,820;    1,162;   -1,864
773,002;29030,265;    2,616;    0,682
773,569;28648,528;    1,071;    1,682
774,137;28455,245;    0,889;   -0,045
774,705;29260,326;   -0,747;   -0,136
775,272;28740,407;    0,253;    0,682
775,840;28533,852;   -0,111;    2,682
776,407;27923,205;   -0,293;    1,955
776,975;27561,559;    1,162;    0,318
777,542;28642,367;    2,162;   -0,045
778,110;28420,630;    0,707;   -0,045
778,677;28112,165;    1,071;   -0,864
779,244;27808,337;   -1,020;    1,045
779,812;27975,782;    0,980;    0,864
780,379;27764,590;    2,435;    1,136
780,946;27961,580;    2,617;   -0,773
781,513;28312,479;   -0,565;    0,318
782,080;27629,106;    1,253;    2,864
782,647;28454,278;    1,708;    3,045
783,214;27981,359;   -0,201;    3,864
783,781;27557,894;    1,708;   -0,682
784,348;27463,066;    0,253;    1,500
784,915;27960,147;   -1,474;    0,318
785,482;27717,864;    2,708;    2,591
786,049;28113,127;    1,071;   -0,591
786,615;28239,026;    1,708;   -0,955
787,182;27997,653;   -3,201;   -0,682
787,749;27667,188;   -2,201;    1,409
788,315;26930,633;    0,253;   -0,409
788,882;27264,714;    0,981;   -1,227
789,448;27963,431;    1,435;   -0,955
790,015;28046,421;    1,799;    3,227
790,581;27549,320;    0,708;    0,227
791,148;27369,128;    1,344;    1,045
791,714;27623,300;   -1,019;    3,136
792,280;27283,109;    3,708;    1,591
792,847;26863,099;   -0,928;    2,500
793,413;27443,998;   -0,110;   -0,318
793,979;26865,170;    1,526;   -1,318
794,545;26944,978;    2,981;    2,682
795,111;26315,877;    2,435;    1,318
795,678;26488,231;    3,526;   -1,682
796,244;26184,857;    2,799;    0,136
796,810;26796,756;    0,799;    0,773
797,375;26409,837;   -0,292;   -2,136
797,941;26491,736;   -1,110;    0,591
798,507;26606,817;    0,254;   -0,955
799,073;26118,444;    2,708;    0,591
799,639;26195,161;    1,435;    3,136
800,205;26235,606;   -1,565;    2,682
800,770;25696,869;    1,345;    1,773
801,336;25799,404;    2,981;   -0,955
801,901;25402,394;    6,072;    3,136
802,467;25958,202;    0,526;    2,045
803,033;25294,920;   -0,019;    0,864
803,598;25514,819;    1,072;   -1,045
804,163;25593,627;    0,708;   -0,318
804,729;25469,799;   -0,110;    1,136
805,294;25904,516;    1,072;    2,227
805,859;25693,324;    0,890;   -0,409
806,425;25180,133;    3,890;    2,682
806,990;24816,123;    1,890;    4,318
807,555;25382,749;   -0,110;    2,591
808,120;25236,466;   -1,292;   -0,409
808,685;25318,729;    1,072;   -2,500
809,250;24785,447;    2,072;   -0,500
809,815;25186,073;   -0,201;    0,682
810,380;25670,154;    0,981;    1,591
810,945;26209,780;    2,890;    2,045
811,510;25377,589;   -0,200;    1,591
812,075;25045,579;    2,800;   -1,409
812,640;25085,751;    3,709;    1,409
813,204;25122,468;    2,163;   -0,227
813,769;25640,003;    0,254;   -0,045
814,334;24961,812;    0,527;    0,864
814,898;25008,893;    1,981;    0,591
815,463;24895,428;    0,981;   -0,773
816,027;24860,691;    1,345;   -2,318
816,592;24905,954;    2,163;   -2,045
817,156;24383,853;   -2,200;    1,136
817,721;24218,025;    0,982;    2,318
818,285;24150,015;    0,618;    1,500
818,849;24848,914;   -0,018;    1,682
819,414;24731,540;    0,073;    2,955
819,978;24285,439;   -0,291;    1,773
820,542;24950,611;    2,891;    0,500
821,106;24600,056;    2,800;    0,682
821,670;24686,228;    2,709;    2,591
822,234;24391,218;    1,073;    1,409
822,798;23690,753;   -0,836;    0,500
823,362;23676,562;    1,527;    4,227
823,926;22944,915;   -0,018;    1,136
824,490;23162,996;    3,527;   -0,682
825,054;23654,259;    2,527;   -1,136
825,618;23264,613;   -1,200;   -1,500
826,181;23191,603;    0,982;   -1,318
826,745;23051,593;   -0,745;   -1,045
827,309;23416,401;    2,255;    1,318
827,872;22763,573;    0,527;    0,955
828,436;23807,381;    1,982;   -0,773
828,999;23889,917;    2,436;    1,227
829,563;22659,270;   -0,654;    1,136
830,126;22443,897;   -0,018;   -0,591
830,690;22443,978;    0,709;    2,864
831,253;21948,786;   -0,473;    2,227
831,816;22088,867;   -0,018;    0,500
832,380;21979,766;    1,164;    0,864
832,943;22205,756;    3,073;   -0,500
833,506;21656,746;    0,255;   -1,227
834,069;22506,464;    2,164;   -0,955
834,632;22531,272;   -2,200;    1,318
835,195;22414,807;    1,346;    0,955
835,758;21531,525;    0,709;    1,955
836,321;21401,060;    1,073;   -1,045
836,884;21499,959;   -1,291;   -0,955
837,447;21522,586;    0,528;    1,773
838,010;21780,394;    1,800;    3,227
838,573;22134,566;    0,528;    0,773
839,135;22000,283;   -0,109;   -0,955
839,698;21423,910;    2,528;    0,409
840,261;20930,354;    0,255;   -0,227
840,823;20796,253;   -0,927;    0,864
841,386;21063,516;   -0,018;   -2,409
841,948;20922,142;    0,255;    1,773
842,511;20619,042;    0,255;    1,682
843,073;20837,123;    2,982;    0,227
843,636;20625,476;    0,619;   -0,227
844,198;20527,921;    1,255;    0,591
844,760;20646,002;    0,619;    1,955
845,322;20295,901;    0,164;    1,136
845,885;20717,618;   -0,290;    0,591
846,447;21143,699;    0,710;    0,227
847,009;20672,871;    3,983;   -0,682
847,571;21050,498;    1,346;   -2,045
848,133;21127,488;   -0,199;   -1,864
848,695;20977,660;    2,346;    1,409
849,257;20521,740;    1,346;   -1,682
849,819;20702,458;    2,983;   -0,409
850,381;20759,357;    1,801;   -0,864
850,942;21111,074;    1,892;   -0,591
851,504;21022,064;    0,983;    0,227
852,066;21111,054;    1,619;   -1,591
852,628;20670,863;    0,165;    1,955
853,189;20235,853;    0,256;    2,682
853,751;20298,025;   -0,654;    1,409
854,312;20150,469;    1,256;   -1,682
854,874;20629,550;   -0,108;   -0,773
855,435;21148,722;    0,528;   -1,682
855,997;21323,076;    3,983;   -0,136
856,558;20528,884;    0,801;    1,773
857,119;20669,783;   -0,744;    2,864
857,681;20285,228;   -0,108;    0,318
858,242;20322,309;    1,347;   -2,136
858,803;20802,753;    1,074;   -0,773
859,364;21388,016;    0,892;   -4,773
859,925;20679,279;   -0,290;   -0,955
860,486;20604,269;    0,529;   -0,955
861,047;20313,623;    0,165;   -1,227
861,608;20082,522;    0,165;   -0,773
862,169;20247,148;   -0,562;   -0,045
862,730;20017,320;   -0,290;    1,409
863,291;20264,401;    0,438;   -0,500
863,852;20598,391;   -0,926;    1,955
864,412;20018,836;   -1,835;   -0,864
864,973;18561,735;    1,892;    0,500
865,534;18352,816;    2,074;    0,227
866,094;19935,988;    2,620;    0,227
866,655;19599,432;    4,711;    3,318
867,215;19886,331;    0,074;    0,136
867,776;19740,594;   -1,199;   -0,136
868,336;19876,311;    1,529;    0,136
868,897;19269,574;    3,438;    1,682
869,457;18998,292;    3,256;    0,318
870,017;19248,645;    2,438;   -1,227
870,578;19814,817;    1,893;    0,773
871,138;19461,353;    2,620;   -0,955
871,698;18946,524;   -0,562;   -1,318
872,258;18787,696;    0,711;   -2,864
872,818;19159,414;    2,347;    0,045
873,378;19132,949;   -2,198;    1,045
873,938;18699,212;    4,984;    0,500
874,498;19016,384;    1,256;   -1,955
875,058;18869,283;    4,347;    1,773
875,618;18702,091;    1,438;   -2,682
876,177;18665,445;   -0,471;    0,136
876,737;18263,435;   -0,289;    1,955
877,297;18241,061;    2,711;    1,955
877,856;18251,779;    2,529;    0,318
878,416;18204,860;    2,438;   -0,136
878,976;18417,304;    3,438;    0,409
879,535;18637,749;    4,529;    3,136
880,095;18352,648;    1,347;    0,045
880,654;18458,002;    0,347;    1,318
881,213;18546,355;    2,347;    1,500
881,773;18191,982;    1,984;    2,682
882,332;18561,699;    6,075;    5,136
882,891;18350,689;    0,711;    2,136
883,451;18865,497;   -2,016;    1,682
884,010;18320,669;   -1,107;   -0,409
884,569;18373,023;   -2,289;   -0,045
885,128;18455,559;   -0,743;   -1,864
885,687;18608,367;   -0,743;    0,682
886,246;18266,084;    2,620;    2,136
886,805;17977,620;    1,620;    2,045
887,364;18353,882;    1,166;   -0,500
887,922;18685,418;   -0,016;    0,045
888,481;18166,408;    1,530;    0,591
889,040;18517,034;    3,711;    2,136
889,599;19211,297;    2,166;    1,409
890,157;19293,287;    2,166;    2,409
890,716;18942,732;    2,166;    0,227
891,274;18758,813;    0,075;   -1,136
891,833;19196,166;    1,166;    0,864
892,391;19071,066;    1,802;    0,500
892,950;19200,328;    0,166;   -0,773
893,508;19525,137;    0,984;   -0,409
894,067;18830,945;   -0,379;    0,136
894,625;18758,117;   -1,016;   -1,500
895,183;18997,379;   -0,198;   -0,682
895,741;18872,097;    2,257;   -1,773
896,299;18706,632;    1,621;   -2,409
896,858;18899,713;    1,530;   -1,591
897,416;19008,794;    0,166;   -1,318
897,974;18740,512;   -2,197;    0,318
898,532;18868,956;    6,530;    2,682
899,089;18770,219;    0,621;   -0,682
899,647;18863,573;    0,530;    1,318
900,205;18529,290;    0,257;    1,045
900,763;18775,371;    2,166;    0,227
901,321;18767,816;    3,530;   -1,409
901,878;18173,078;    3,257;   -0,773
902,436;18014,977;    0,257;    1,318
902,994;18386,786;    6,712;    3,682
903,551;17805,139;    1,439;    0,409
904,109;18229,311;    1,530;   -1,409
904,666;17790,483;    1,439;    1,045
905,224;17616,291;    3,894;   -0,409
905,781;17301,827;   -0,470;   -0,318
906,338;17394,453;    0,167;    1,045
906,895;17368,262;    1,894;    2,045
907,453;17252,161;    2,348;    1,136
908,010;17271,514;    3,348;    0,409
908,567;16867,504;   -0,561;    0,591
909,124;16405,676;    2,439;   -1,500
909,681;16433,303;   -1,288;    0,682
910,238;16582,929;   -0,106;   -1,318
910,795;16924,828;   -1,561;   -1,136
911,352;16580,737;   -0,379;   -2,682
911,909;15966,737;    2,803;   -0,864
912,466;16447,101;    1,985;    1,500
913,022;15947,919;   -0,924;    0,500
913,579;16323,919;   -0,470;    2,045
914,136;15995,737;   -2,561;    0,955
914,692;16378,828;    1,530;   -1,227
915,249;15914,101;    0,530;    0,409
915,806;16125,646;    1,803;    1,955
916,362;15816,374;    0,894;    1,864
916,918;15335,646;    2,439;    1,045
917,475;15338,737;    1,621;    0,955
918,031;15506,556;    0,076;   -0,045
918,587;14877,192;    0,621;   -0,318
919,144;15118,465;   -0,379;    0,227
919,700;15430,556;    0,167;    0,773
920,256;14980,192;    0,439;    0,045
920,812;14579,192;    1,439;   -1,045
921,368;14586,465;    1,348;   -1,045
921,924;14240,283;    0,439;   -0,136
922,480;13706,465;    0,076;    1,227
923,036;14366,646;   -0,652;    1,955
923,592;14308,828;    0,621;    0,318
924,148;14214,465;    1,894;   -0,955
924,704;13492,010;    0,258;   -0,409
925,259;13772,465;   -0,561;    0,591
925,815;13476,465;    3,803;    0,500
926,371;13012,646;    3,530;    1,409
926,926;12881,556;    1,621;    0,591
927,482;12455,465;    1,621;    0,773
928,037;12325,010;   -0,833;    2,045
928,593;12651,646;    0,258;    1,045
929,148;12425,010;    1,167;   -1,500
929,704;11915,010;    2,439;   -0,500
930,259;12130,465;    0,894;   -0,136
930,814;11133,737;    1,803;    1,955
931,369;10794,828;    0,258;   -0,773
931,925;10717,919;   -1,924;    0,136
932,480;10569,192;    3,076;   -2,591
933,035;10426,465;    3,985;   -0,318
933,590;10155,465;   -1,742;   -1,773
934,145; 9812,192;   -1,288;   -0,318
934,700;10206,556;    0,348;   -0,591
935,255; 9927,283;    4,803;    0,045
935,809; 9133,101;    6,258;    0,864
936,364; 8227,646;    2,167;   -0,136
936,919; 8181,101;    2,348;   -1,773
937,474; 8064,737;    1,348;    0,136
938,028; 7829,919;    3,076;    1,136
938,583; 7221,737;    6,348;    4,682
939,138; 7518,101;    0,167;    2,136
939,692; 6976,192;   -1,015;   -1,136
940,247; 6603,010;    1,167;   -1,045
940,801; 6094,556;    0,621;    0,227
941,355; 5980,010;    0,439;    2,591
941,910; 5618,283;    0,712;   -2,136
942,464; 5726,192;    2,712;   -0,318
943,018; 5481,556;    3,258;   -0,227
943,572; 5409,192;    2,803;   -0,682
944,126; 4772,283;   -0,924;   -0,409
944,681; 4655,101;    0,712;    0,227
945,235; 4666,283;    2,167;   -0,591
945,789; 4585,374;    1,258;   -1,864
946,342; 4648,010;   -0,561;   -0,591
946,896; 4467,919;    0,348;    0,955
947,450; 4209,919;   -0,561;   -0,227
948,004; 4359,283;    1,076;   -0,045
948,558; 4419,556;    1,258;   -0,864
949,111; 4357,737;   -1,197;   -0,318
949,665; 4346,556;   -0,106;   -0,682
950,219; 4184,283;    0,621;   -1,045
950,772; 4275,101;    0,258;    1,864
951,326; 4199,556;   -1,106;   -0,955
951,879; 4307,101;    1,076;   -2,318
952,433; 4343,646;    1,348;    2,227
952,986; 4163,101;    0,348;    0,682
953,539; 4099,374;    1,530;    0,591
954,093; 4043,919;    0,985;   -1,318
954,646; 4159,101;   -0,288;    1,318
955,199; 3979,465;    1,258;   -0,500
955,752; 3810,556;    1,985;    1,773
956,305; 3796,283;    0,894;    2,955
956,858; 3981,737;    0,621;   -0,318
957,411; 4178,374;    3,621;    2,136
957,964; 3978,374;    2,076;    2,136
958,517; 3996,101;    0,985;    3,136
959,070; 3810,374;   -1,197;    1,955
959,623; 3841,283;    1,076;    1,500
960,176; 3602,737;    0,712;    2,045
960,728; 3573,010;    1,712;    0,773
961,281; 3642,556;    2,258;    0,500
961,834; 3699,101;   -0,833;    0,864
962,386; 3623,192;    1,258;    1,045
962,939; 3554,192;    3,439;   -0,318
963,491; 3685,283;    2,621;    1,136
964,043; 3526,192;    0,076;    2,409
964,596; 3681,101;    1,712;    2,227
965,148; 3498,556;   -0,379;    1,773
965,700; 3427,192;   -0,015;   -0,227
966,253; 3597,374;   -0,833;    0,318
966,805; 3397,828;    1,894;    0,773
967,357; 3467,101;    0,439;   -1,500
967,909; 3398,556;    1,167;   -1,227
968,461; 3551,192;    0,894;    3,136
969,013; 3462,101;   -1,561;   -0,864
969,565; 3524,828;    1,803;   -1,136
970,117; 3561,192;    3,803;    1,045
970,669; 3410,737;    3,258;   -0,136
971,220; 3295,283;    2,167;   -1,500
971,772; 3209,101;    1,348;   -0,318
972,324; 3321,283;   -1,197;   -0,500
972,876; 3281,283;    0,167;   -0,045
973,427; 3405,465;   -1,197;   -1,045
973,979; 3372,556;    0,076;   -2,500
974,530; 3423,283;    0,803;    1,318
975,082; 3443,919;    2,167;    1,682
975,633; 3317,374;    2,894;    1,682
976,184; 3463,556;    2,076;    0,773
976,736; 3241,828;    0,348;    0,227
977,287; 2991,374;    0,258;   -0,500
977,838; 3198,646;   -0,924;   -0,318
978,389; 3280,919;    0,803;   -0,500
978,940; 3151,737;    1,258;   -0,409
979,491; 3164,101;    2,258;   -0,500
980,042; 3112,101;   -0,652;    3,045
980,593; 3175,646;    1,894;    0,227
981,144; 3218,737;    3,530;   -0,500
981,695; 3182,556;   -0,470;    1,500
982,246; 3156,192;   -1,833;    1,045
982,797; 3333,919;   -0,561;    0,682
983,347; 3462,101;    2,167;    0,591
983,898; 3601,283;    4,167;    0,409
984,449; 3405,192;    2,530;    0,773
984,999; 3347,919;    1,894;   -1,136
985,550; 3089,646;    3,167;   -0,318
986,100; 3151,828;    0,712;   -0,318
986,651; 3179,737;    0,258;    0,045
987,201; 3140,465;    0,894;   -0,591
987,751; 3241,737;   -0,288;    2,864
988,302; 3214,646;   -0,379;    1,500
988,852; 3241,556;    1,985;   -1,136
989,402; 3261,192;    0,985;    0,682
989,952; 3169,919;    1,621;    0,864
990,502; 3292,101;    1,076;    0,682
991,052; 3276,465;   -0,106;    0,045
991,602; 3138,101;    1,167;    1,318
992,152; 3112,465;    2,803;    0,682
992,702; 3094,646;    1,167;   -0,045
993,252; 3012,828;    0,076;   -0,500
993,802; 3081,101;    1,167;    1,318
994,352; 3358,828;   -0,742;    1,136
994,901; 3468,828;    1,076;    3,227
995,451; 3383,556;   -1,197;    0,318
996,000; 3475,192;    1,076;    0,318
996,550; 3155,465;    2,894;    0,227
997,100; 3169,646;   -0,561;   -0,045
997,649; 3463,465;   -0,197;    0,955
998,198; 3071,192;   -0,288;   -1,500
998,748; 3248,101;    0,348;   -2,318
999,297; 3173,465;    0,985;   -0,409
999,846; 3252,283;    1,894;   -0,773
1000,395; 3297,465;    1,530;    0,500
1000,945; 3227,101;    1,076;   -0,773
1001,494; 3295,919;    0,167;    0,682
1002,043; 3311,192;    0,712;    0,864
1002,592; 3164,192;    3,439;    1,955
1003,141; 3311,737;    2,439;   -0,682
1003,690; 3121,465;    1,258;    0,500
1004,238; 3202,646;   -0,106;   -0,045
1004,787; 2832,192;   -1,288;    1,227
1005,336; 3050,283;    1,621;    0,682
1005,885; 3235,010;   -0,197;   -2,773
1006,433; 3418,010;   -0,470;    0,955
1006,982; 3449,101;    2,167;    1,682
1007,531; 3365,192;    2,712;   -0,227
1008,079; 3316,283;    0,258;    0,500
1008,627; 3478,010;    1,621;    0,409
1009,176; 3192,465;    0,076;   -1,955
1009,724; 3238,737;   -2,742;    0,864
1010,273; 3280,465;    1,076;    0,500
1010,821; 3440,101;    1,076;    1,409
1011,369; 3143,010;    0,076;    1,318
1011,917; 3113,556;   -0,833;   -0,591
1012,465; 3409,646;    2,530;   -1,591
1013,013; 3545,283;    0,439;   -1,682
1013,561; 3380,919;   -1,288;   -0,773
1014,109; 3406,101;   -0,833;    1,682
1014,657; 3304,556;    1,348;    0,591
1015,205; 3443,010;    0,894;   -0,955
1015,753; 3482,828;    0,258;   -1,409
1016,301; 3517,646;    2,621;    3,045
1016,848; 3529,010;    2,167;    0,409
1017,396; 3567,556;    1,621;    0,045
1017,944; 3696,465;    2,621;    1,864
1018,491; 3451,283;   -0,197;    1,409
1019,039; 3570,101;   -0,652;    0,591
1019,586; 3512,828;    0,076;    1,682
1020,134; 3627,283;    0,712;    1,500
1020,681; 3620,374;    2,894;   -1,136
1021,228; 3666,556;   -0,561;   -2,227
1021,776; 3480,646;   -0,833;   -1,136
1022,323; 3684,101;    0,803;    0,773
1022,870; 3632,374;   -0,470;   -0,045
1023,417; 3540,374;    2,076;    1,864
1023,964; 3693,919;    0,621;    1,227
1024,511; 3507,737;   -0,652;    0,773
1025,058; 3293,465;    0,439;   -0,045
1025,605; 3328,192;   -1,742;    3,136
1026,152; 3537,374;   -0,106;   -0,591
1026,699; 3290,465;    0,167;    1,318
1027,245; 3467,556;    2,439;    0,318
1027,792; 3720,465;    0,712;    1,409
1028,339; 3560,283;    4,076;   -0,045
1028,885; 3404,283;    3,621;   -0,227
1029,432; 3345,646;   -0,106;    0,227
1029,978; 3399,283;    1,348;   -1,591
1030,525; 3287,192;    1,621;    0,409
1031,071; 3591,374;    0,348;    1,136
1031,618; 3662,828;    1,258;    1,682
1032,164; 3468,101;    2,076;    3,045
1032,710; 3489,646;    0,076;   -1,500
1033,256; 3415,465;    0,712;   -0,136
1033,803; 3429,556;   -0,288;    1,500
1034,349; 3151,646;    1,803;    0,136
1034,895; 3285,101;    2,621;   -0,318
1035,441; 3241,556;    0,439;    0,318
1035,987; 3250,919;   -2,288;   -0,682
1036,533; 3248,919;   -0,197;   -0,955
1037,078; 3442,556;    4,712;    1,682
1037,624; 3265,556;    2,439;   -0,955
1038,170; 3302,646;    1,712;   -0,318
1038,716; 3170,919;    2,167;   -0,409
1039,261; 3107,919;    2,167;   -0,773
1039,807; 3043,101;   -0,015;    3,409
1040,352; 3093,192;   -1,288;   -0,318
1040,898; 3139,646;    0,167;   -0,682
1041,443; 3060,374;    0,803;   -2,591
1041,989; 3061,465;    3,621;    1,591
1042,534; 2962,101;    0,985;    2,591
1043,079; 3097,465;    1,985;    0,955
1043,625; 2848,192;    0,258;    0,500
1044,170; 2891,283;    2,439;    1,045
1044,715; 3152,919;    0,167;    0,955
1045,260; 2970,919;   -0,833;   -0,955
1045,805; 3032,010;    0,258;   -0,591
1046,350; 2973,010;    0,530;   -0,409
1046,895; 2902,737;    0,803;    1,591
1047,440; 2838,465;    1,530;    0,409
1047,985; 2755,737;   -1,197;   -0,955
1048,530; 2646,737;    1,348;    1,227
1049,074; 2732,465;    2,803;    0,318
1049,619; 2715,283;   -0,924;    1,955
1050,164; 2485,646;    1,076;    0,227
1050,708; 2545,283;    2,621;    0,045
1051,253; 2901,101;    3,258;   -2,227
1051,797; 2620,737;   -0,197;   -1,318
1052,342; 2667,010;    1,348;    1,045
1052,886; 2626,101;    1,803;   -1,409
1053,430; 2502,465;    2,167;    0,136
1053,975; 2528,374;    0,894;   -0,318
1054,519; 2485,283;    1,803;    3,227
1055,063; 2483,919;    3,621;    1,318
1055,607; 2373,283;    1,348;    0,227
1056,151; 2390,010;    0,530;    1,682
1056,695; 2325,374;   -1,833;   -1,136
1057,239; 2387,919;   -1,197;   -0,682
1057,783; 2387,646;    2,258;   -1,500
1058,327; 2326,556;    3,076;    1,409
1058,871; 2535,737;    3,985;    1,318
1059,415; 2249,192;   -0,561;   -0,045
1059,958; 2489,101;    2,985;    2,591
1060,502; 2223,556;    1,348;   -0,773
1061,046; 2143,192;    1,712;   -0,955
1061,589; 2126,919;    2,803;   -1,136
1062,133; 2008,556;    0,985;    1,864
1062,676; 1930,101;    1,439;    0,864
1063,220; 1918,465;    0,985;    0,500
1063,763; 1925,646;    2,985;    1,136
1064,306; 2019,737;    0,985;    1,864
1064,849; 1912,192;    2,076;    0,591
1065,393; 1909,828;    2,894;   -1,500
1065,936; 2042,192;    2,530;   -0,409
1066,479; 1936,283;    2,621;    1,318
1067,022; 1938,828;    1,894;   -0,227
1067,565; 1825,646;   -1,197;   -1,318
1068,108; 1871,374;    1,258;   -0,591
1068,651; 1859,010;   -2,470;    1,409
1069,194; 1773,919;   -1,106;   -1,682
1069,736; 1758,737;    3,803;    0,955
1070,279; 1768,465;   -1,652;   -0,500
1070,822; 1786,465;    1,530;   -0,318
1071,364; 1838,101;    0,530;    1,318
1071,907; 1681,646;    0,348;    3,227
1072,450; 1616,556;    0,258;   -0,045
1072,992; 1592,828;   -0,561;    3,136
1073,535; 1706,465;    0,167;    2,136
1074,077; 1511,919;    2,985;    2,045
1074,619; 1471,101;    0,985;    0,591
1075,161; 1497,010;   -0,561;    1,500
1075,704; 1684,192;    0,258;    1,227
1076,246; 1499,919;    1,530;    0,682
1076,788; 1430,737;   -1,015;    1,773
1077,330; 1525,010;   -2,106;    2,136
1077,872; 1458,192;   -1,924;    0,955
1078,414; 1672,283;    3,712;    0,773
1078,956; 1399,465;    0,167;   -0,227
1079,498; 1634,010;    0,439;    0,318
1080,040; 1334,737;    0,985;   -1,318
1080,581; 1303,919;    0,621;   -0,318
1081,123; 1241,646;   -0,106;   -0,773
1081,665; 1298,828;    3,803;   -0,955
1082,206; 1571,283;    3,258;   -0,500
1082,748; 1442,374;    3,258;    2,045
1083,289; 1323,010;    0,167;    1,318
1083,831; 1219,919;    0,258;    0,227
1084,372; 1238,737;    0,894;    0,591
1084,913; 1238,828;    3,348;    0,864
1085,455; 1227,010;    1,530;   -2,045
1085,996; 1190,283;    0,530;    0,136
1086,537; 1204,828;    0,985;    0,864
1087,078; 1235,556;    0,439;   -2,136
1087,619; 1283,646;   -1,652;    0,227
1088,160; 1195,465;    1,439;    1,318
1088,701; 1176,646;   -0,742;    0,682
1089,242; 1111,646;   -0,561;   -2,227
1089,783; 1201,556;   -0,561;    1,409
1090,324; 1172,374;   -0,833;    0,682
1090,865; 1049,737;   -1,924;   -0,409
1091,405; 1041,828;   -0,561;    2,227
1091,946; 1059,465;   -0,197;   -0,955
1092,487;  994,010;   -1,288;   -1,409
1093,027; 1150,283;    1,803;   -1,500
1093,568;  998,465;    2,258;    1,227
1094,108; 1069,101;    0,621;    1,773
1094,649; 1023,192;   -0,470;    0,136
1095,189;  966,919;    1,167;   -0,682
1095,729;  904,374;    0,712;    0,955
1096,269;  929,283;    1,258;   -0,955
1096,810; 1231,374;   -0,197;    0,500
1097,350; 1058,283;   -0,561;   -0,773
1097,890;  965,919;    2,985;    1,227
1098,430; 1201,010;    4,985;    2,864
1098,970; 1087,646;    1,894;    1,682
1099,510;  958,101;   -0,833;   -2,318
1100,050;  875,828;    0,258;   -1,591
1100,589;  843,556;    0,076;   -0,318
1101,129;  945,556;    0,894;   -0,955
1101,669; 1083,101;    2,803;    2,136
1102,209;  927,374;    1,530;    2,227
1102,748;  875,737;    3,439;    0,955
1103,288;  860,465;    0,712;   -1,227
1103,827;  885,374;    3,530;   -2,227
1104,367;  766,828;    1,712;   -2,409
1104,906;  730,010;   -1,015;   -1,136
1105,445;  807,465;    0,985;   -1,136
1105,985;  746,646;   -0,652;    1,500
1106,524;  782,101;    1,530;   -0,682
1107,063;  757,737;    1,167;    1,409
1107,602;  736,828;    1,894;   -1,500
1108,141;  664,465;    1,621;    1,500
1108,680;  758,646;    3,985;   -0,591
1109,219;  696,556;    0,167;   -0,500
1109,758;  706,465;    4,167;    0,682
1110,297;  682,556;   -1,106;   -0,682
1110,836;  623,465;    1,439;    0,955
1111,375;  772,556;    0,348;    0,409
1111,913;  784,465;    0,985;    0,773
1112,452;  729,283;    0,894;    0,136
1112,991;  622,010;    1,076;    1,955
1113,529;  575,919;    0,167;   -0,045
1114,068;  646,465;    0,439;    2,955
1114,606;  538,556;   -0,561;   -0,955
1115,144;  689,556;    1,530;    1,045
1115,683;  638,465;    1,985;    0,318
1116,221;  690,101;    2,076;   -0,864
1116,759;  599,101;    1,621;   -0,864
1117,297;  785,556;    1,621;    1,864
1117,836;  596,283;    1,985;   -1,227
1118,374;  591,919;    0,258;   -0,682
1118,912;  548,010;    0,439;    2,682
1119,450;  532,556;    0,985;    0,864
1119,988;  579,374;    3,348;    2,136
1120,525; 1035,646;    7,258;    3,318
1121,063;  726,192;    0,530;    1,864
1121,601;  542,828;    1,076;   -1,227
1122,139;  501,737;    1,076;   -2,045
1122,676;  682,737;   -1,652;    2,773
1123,214;  623,646;    0,712;    4,409
1123,751;  447,737;    0,621;    2,227
1124,289;  569,646;    0,894;   -0,409
1124,826;  445,374;   -0,379;    0,227
1125,364;  365,828;    0,712;   -0,955
1125,901;  543,101;    6,258;    1,227
1126,438;  640,465;    3,530;    0,955
1126,975;  387,919;    2,985;   -0,773
1127,513;  458,556;    2,621;    2,136
1128,050;  373,374;   -0,561;   -0,682
1128,587;  450,556;    1,348;   -0,227
1129,124;  496,010;   -0,015;    1,318
1129,661;  368,556;   -1,924;    0,227
1130,198;  530,556;    2,439;    0,773
1130,734;  475,374;   -0,379;    1,409
1131,271;  339,465;   -1,197;    0,864
1131,808;  506,556;    1,621;    3,045
1132,345;  366,919;    4,530;    0,318
1132,881;  253,556;   -0,561;   -1,864
1133,418;  387,737;    0,348;   -1,136
1133,954;  341,646;    0,712;   -2,682
1134,491;  405,828;    1,712;   -0,773
1135,027;  305,465;    2,167;    0,864
1135,564;  397,465;    1,439;    2,955
1136,100;  368,010;   -0,742;    2,136
1136,636;  273,828;   -1,015;   -1,045
1137,172;  358,828;    0,894;   -1,045
1137,708;  284,828;   -1,561;   -1,045
1138,245;  281,646;    0,803;   -1,227
1138,781;  246,646;    1,803;   -3,318
1139,317;  293,465;    1,894;   -1,409
1139,852;  292,374;    3,076;    0,136
1140,388;  405,828;    2,076;   -0,409
1140,924;  286,646;    1,076;   -2,227
1141,460;  234,374;   -0,288;    0,136
1141,996;  178,192;   -0,652;    2,682
1142,531;  219,283;    1,076;    3,318
1143,067;  423,465;    1,167;    1,045
1143,602;  475,465;    3,439;   -0,318
1144,138;  321,646;    0,803;    1,045
1144,673;  193,192;    1,621;    1,409
1145,209;  258,828;    2,894;   -0,318
1145,744;  185,010;    0,803;    0,864
1146,279;  303,374;    1,530;   -0,136
1146,815;  235,192;    1,530;   -2,682
1147,350;  273,828;   -0,924;    0,045
1147,885;  183,919;   -1,924;   -1,318
1148,420;  186,737;    2,439;    0,773
1148,955;  171,192;   -1,470;    1,864
1149,490;  190,010;   -1,106;   -1,591
1150,025;  173,465;   -1,106;   -1,773
1150,560;  280,919;   -0,288;   -0,955
1151,094;  246,465;    0,258;   -0,591
1151,629;  248,010;   -3,742;    0,864
1152,164;  180,737;   -1,288;    1,318
1152,698;  154,374;    1,258;   -0,136
1153,233;  111,101;   -1,379;   -0,682
1153,767;  155,374;   -0,288;   -2,318
1154,302;  198,101;   -0,379;    1,773
1154,836;  195,556;    0,803;   -2,136
1155,371;  246,646;    2,258;    3,682
1155,905;  201,465;    1,985;    1,682
1156,439;  166,828;    0,530;   -0,500
1156,973;  197,010;    0,439;    0,318
1157,507;  139,192;   -1,742;    0,682
1158,042;  170,374;   -0,652;    1,045
1158,576;  207,646;   -0,561;    1,773
1159,110;  199,737;    0,076;    2,409
1159,643;  172,465;   -2,470;   -0,045
1160,177;  111,192;   -2,015;    1,500

