
Integration time [ms]:   0,050
Averaging Nr. [scans]: 11
Smoothing Nr. [pixels]: 0
Data measured with spectrometer [name]: 7318044SP
Wave   ;Sample   ;Dark     ;Reference
[nm]   ;[counts] ;[counts] ;[counts] 

186,757;   -9,637;   38,161;    1,318
187,357;   26,193;   26,706;    0,955
187,958;    6,943;   17,252;   -1,591
188,558;   56,152;   12,979;   -1,227
189,159;   32,691;   10,070;   -4,500
189,759;    6,187;    5,797;   -3,591
190,360;    5,082;    6,797;   -2,136
190,960;   45,530;    5,706;   -4,136
191,560;   54,800;    2,614;   -6,591
192,161;  287,917;    5,885;   -3,500
192,761;  131,444;    5,520;   -3,227
193,361;   81,480;    3,065;   -3,773
193,962;  135,634;    1,612;   -2,682
194,562;   67,330;   -0,114;   -3,955
195,162;  106,692;   -0,567;   -2,227
195,762;  270,480;    2,433;   -0,045
196,362;  213,015;    1,706;   -2,500
196,963;   84,202;    1,706;   -0,864
197,563;  157,712;    1,252;   -0,955
198,163;  108,248;   -0,111;   -0,682
198,763;  122,949;   -0,020;   -0,500
199,363;  227,047;    3,616;   -0,500
199,963;  191,596;    2,162;    0,409
200,563;  164,999;    6,344;   -1,409
201,163;  149,354;    5,435;   -0,227
201,763;  242,191;    1,435;    0,318
202,363;  185,921;    0,980;    1,500
202,963;  289,311;    1,526;    1,045
203,563;  409,371;    0,344;    0,500
204,162;  255,882;    1,889;   -1,864
204,762;  242,497;    2,071;    0,591
205,362;  212,583;    0,708;    1,955
205,962;  316,885;    3,435;    1,955
206,562;  321,035;    1,889;    2,318
207,161;  285,438;    1,708;    0,318
207,761;  436,070;    4,435;    2,409
208,361;  319,820;    1,889;    1,409
208,960;  420,670;    2,889;    1,500
209,560;  498,358;    0,435;    1,591
210,160;  478,249;    5,071;    1,864
210,759;  451,869;    0,708;    1,227
211,359;  452,300;   -0,474;    1,045
211,958;  730,747;    3,526;    2,045
212,558;  819,479;    0,799;    1,864
213,157;  651,119;   -0,929;    1,500
213,757; 1105,204;    5,617;   -0,227
214,356;  816,374;    1,708;   -0,409
214,956; 1155,288;    3,526;    0,409
215,555;  793,912;    0,617;    2,136
216,154;  714,038;   -0,292;   -0,591
216,754;  739,100;    1,253;    0,773
217,353;  902,765;   -0,383;   -1,045
217,952;  756,996;    2,072;    0,318
218,552;  992,192;    0,254;   -0,773
219,151;  900,853;   -1,110;    0,955
219,750;  915,013;    0,890;   -0,227
220,349; 1081,592;   -2,292;    1,045
220,948; 1126,428;    1,163;    1,136
221,548; 1203,379;    0,617;    1,227
222,147; 1319,797;   -1,292;   -0,409
222,746; 1618,931;    1,254;   -0,955
223,345; 1492,548;   -1,019;    0,500
223,944; 1539,605;    1,163;    0,773
224,543; 1757,237;    4,072;   -1,409
225,142; 1869,253;    1,345;    0,136
225,741; 1783,124;    1,163;    1,045
226,340; 1822,504;    1,254;   -0,955
226,939; 2330,859;    2,708;   -0,136
227,538; 2391,753;    1,163;   -0,773
228,137; 2512,619;    0,435;    0,864
228,735; 2724,786;    0,435;    1,227
229,334; 2445,848;   -0,474;   -0,227
229,933; 2834,765;    0,799;    0,591
230,532; 2986,685;   -1,201;   -0,409
231,131; 3044,333;    1,253;    0,318
231,729; 3265,330;    1,163;   -2,318
232,328; 3502,980;    0,435;   -1,500
232,927; 3634,757;    4,526;   -0,500
233,525; 3806,484;    0,981;    0,045
234,124; 4024,831;    1,890;   -1,591
234,723; 4094,219;    1,617;   -1,045
235,321; 4334,049;    1,163;    0,136
235,920; 4605,890;    2,526;   -1,227
236,518; 4935,720;    1,072;    0,318
237,117; 5224,540;    2,890;   -0,227
237,715; 5433,737;    1,163;   -0,500
238,314; 5437,273;    1,708;   -2,318
238,912; 5554,399;    0,526;   -1,409
239,510; 5657,524;    1,162;   -1,227
240,109; 5888,041;   -0,474;    3,773
240,707; 5983,805;   -0,474;    1,227
241,305; 6457,304;   -0,383;    0,136
241,904; 6691,849;   -0,292;   -2,045
242,502; 6651,165;    3,253;   -0,227
243,100; 6638,708;    3,344;   -0,955
243,698; 6952,178;    2,799;    1,682
244,297; 7181,408;   -0,656;    0,682
244,895; 6957,293;   -0,474;   -2,318
245,493; 7378,673;    2,981;   -0,591
246,091; 7464,672;    5,163;   -1,318
246,689; 7473,021;    2,163;    0,591
247,287; 7701,336;   -0,019;   -1,136
247,885; 8049,531;   -1,019;    1,227
248,483; 8197,559;   -0,201;   -0,500
249,081; 8332,949;    0,981;    1,591
249,679; 8543,927;   -1,019;    1,682
250,277; 8886,885;   -2,292;    0,864
250,875; 8855,813;    0,617;   -1,045
251,473; 8923,680;   -0,019;    0,500
252,071; 9165,832;   -0,383;    1,045
252,669; 9361,332;   -1,565;    0,318
253,267; 9717,909;    1,618;    0,773
253,864; 9665,336;    0,617;    0,682
254,462; 9440,761;    1,526;    1,591
255,060; 9487,598;    0,072;    1,318
255,658; 9895,696;   -3,292;   -0,136
256,255;10404,776;   -0,201;   -2,045
256,853;10240,804;    2,345;    1,409
257,451;10295,827;    1,981;    1,864
258,048;10545,392;    2,072;    1,864
258,646;10310,383;    0,436;   -1,045
259,243;10516,622;    2,981;    2,227
259,841;10629,766;    1,799;    0,318
260,438;10472,419;    0,254;    0,864
261,036;11347,730;    0,617;    1,409
261,633;11280,724;    1,526;    2,227
262,231;10969,415;   -0,110;   -0,045
262,828;11091,721;   -0,383;    1,136
263,425;11185,636;   -1,928;   -0,591
264,023;11465,416;    1,436;    0,045
264,620;10968,536;    1,526;   -0,318
265,217;11361,710;    2,890;    3,136
265,815;11507,557;    2,527;    2,136
266,412;11269,011;    0,072;    0,136
267,009;11319,812;    0,526;    0,773
267,606;11197,928;    0,345;   -0,955
268,203;11218,004;   -0,383;   -0,591
268,801;11531,625;   -0,474;    0,591
269,398;11882,518;   -0,564;    2,500
269,995;11893,085;    0,890;    1,591
270,592;11637,247;    0,799;   -0,500
271,189;11906,644;    1,981;    0,409
271,786;12046,231;    2,072;    1,227
272,383;11843,123;   -0,383;    0,227
272,980;12093,079;    1,617;    0,318
273,577;12655,712;    2,162;    1,227
274,174;12153,804;    1,435;    2,591
274,771;12163,241;    1,890;   -0,773
275,367;12331,698;    3,253;    1,409
275,964;12251,303;   -0,565;   -0,500
276,561;12437,375;   -2,474;   -1,045
277,158;12715,564;    1,799;   -1,773
277,755;12812,768;   -0,110;    0,409
278,351;12141,187;    0,436;   -1,500
278,948;12537,627;   -0,201;    0,045
279,545;12582,400;    0,527;    2,318
280,141;13221,224;    1,254;   -2,045
280,738;13068,122;    2,435;   -0,136
281,334;13431,245;   -0,383;    0,591
281,931;12761,773;    2,890;   -1,318
282,528;12889,009;    4,072;   -0,500
283,124;13745,942;    3,345;   -0,500
283,721;13674,443;    0,709;    1,409
284,317;13460,857;    0,163;    2,500
284,913;14039,800;   -0,110;    0,591
285,510;14261,982;    2,890;   -0,318
286,106;14339,943;    2,345;   -0,955
286,703;13865,095;    0,072;    1,955
287,299;14148,402;    1,254;   -0,591
287,895;14411,753;    0,890;   -1,045
288,491;15105,609;    0,163;    2,136
289,088;14744,339;    0,163;    2,409
289,684;14804,696;    2,890;    1,500
290,280;14829,272;    1,890;    0,682
290,876;14913,668;    0,163;    5,500
291,472;14815,144;    2,163;    2,227
292,068;14899,426;    1,254;    0,227
292,665;14630,675;   -0,564;    0,773
293,261;14151,673;   -1,292;    2,136
293,857;14619,516;    4,072;    2,136
294,453;14580,024;   -0,928;    0,955
295,049;14401,762;    0,253;    1,955
295,644;14455,945;   -1,292;    0,136
296,240;14324,576;    0,162;   -0,136
296,836;14400,807;   -0,747;    0,318
297,432;14744,948;    2,980;   -0,500
298,028;14766,473;    0,435;    0,773
298,624;15220,850;    0,889;    1,864
299,220;15583,141;    0,435;    0,591
299,815;15182,837;    0,526;   -0,409
300,411;14930,489;    0,435;    1,773
301,007;14994,612;    1,889;    0,227
301,602;15082,983;    2,071;   -2,318
302,198;15235,924;    1,435;   -0,773
302,794;15611,699;    1,526;   -0,500
303,389;15805,560;    1,071;    1,045
303,985;15860,932;    1,253;    1,409
304,580;15800,049;    0,889;    1,591
305,176;15806,818;    0,344;    0,136
305,771;15796,709;   -0,929;   -1,227
306,367;15537,137;    3,071;    0,136
306,962;16007,073;    2,889;    1,500
307,558;15646,003;    2,435;    0,136
308,153;15642,105;   -0,383;   -1,136
308,748;15934,257;    0,162;    1,682
309,344;15871,082;    0,253;   -1,318
309,939;15964,533;    2,071;   -1,318
310,534;16338,898;   -2,020;   -1,682
311,130;16316,159;   -0,656;   -2,500
311,725;16000,092;    0,526;   -0,500
312,320;16336,612;    1,253;    0,045
312,915;16138,276;    2,890;   -1,045
313,510;16220,959;    0,526;   -0,500
314,105;16808,942;   -3,565;    1,409
314,700;16163,238;   -1,656;   -1,045
315,295;15720,867;   -0,020;    0,045
315,890;15233,136;   -0,292;    0,864
316,485;15628,484;    0,253;   -0,318
317,080;15753,648;   -0,929;    1,591
317,675;16390,809;    3,071;   -0,682
318,270;15598,541;    6,889;    3,318
318,865;15663,708;    2,435;    3,045
319,460;15483,493;   -1,565;    0,591
320,055;15786,362;   -2,565;   -1,227
320,650;15412,710;   -1,838;   -0,591
321,244;15451,707;    0,889;   -1,409
321,839;16518,827;    0,980;   -0,227
322,434;16409,522;   -0,111;   -1,591
323,029;15948,465;   -0,474;    1,591
323,623;15817,257;    0,798;    0,773
324,218;15528,638;    2,707;    1,409
324,812;15416,623;    0,889;    1,591
325,407;15217,129;   -0,929;    2,045
326,002;15114,486;    0,526;   -0,409
326,596;15478,195;   -0,656;    1,318
327,191;15737,960;   -0,383;   -1,045
327,785;15216,832;   -0,747;   -0,227
328,379;15480,268;   -0,383;    0,136
328,974;15290,121;    1,798;   -3,955
329,568;15517,036;    2,889;   -2,409
330,163;15296,074;    2,435;    1,045
330,757;15683,583;    0,253;    1,591
331,351;14981,915;   -0,292;    0,682
331,945;15295,412;   -0,383;    1,409
332,540;14789,202;    1,617;   -0,591
333,134;14934,395;    3,344;    0,773
333,728;15213,258;    2,799;    0,318
334,322;15579,002;    0,889;   -0,864
334,916;14815,335;    0,344;    0,955
335,510;15147,103;   -0,111;   -0,136
336,105;15397,324;   -0,929;    1,591
336,699;15026,245;   -1,292;    0,591
337,293;15044,362;    1,071;    0,318
337,887;15182,557;    0,071;    1,955
338,481;15276,587;    2,980;    0,591
339,074;15450,684;    2,071;    2,682
339,668;15194,941;   -0,110;    1,227
340,262;15464,262;    7,708;    3,227
340,856;14989,988;    1,708;   -0,682
341,450;14214,627;    0,708;    1,864
342,044;15213,635;    1,799;    0,136
342,637;14977,223;    1,162;   -2,136
343,231;14828,079;   -1,474;    0,682
343,825;14756,140;   -0,747;   -0,591
344,419;14663,043;   -0,474;    0,500
345,012;14386,223;    2,889;    4,045
345,606;14393,374;   -0,656;    1,591
346,199;14202,314;   -0,111;   -0,227
346,793;13647,481;    2,525;    2,045
347,386;13873,119;    0,889;   -1,136
347,980;13834,253;   -0,838;   -0,045
348,573;13613,353;   -1,748;    0,409
349,167;13157,242;    6,161;    4,773
349,760;13537,579;    2,252;    2,682
350,354;13554,760;    1,616;    1,136
350,947;13210,913;    2,798;    1,682
351,540;12847,647;    0,616;   -1,409
352,134;12799,523;   -1,111;    1,136
352,727;12842,454;   -0,657;    1,136
353,320;12616,902;    2,343;    0,591
353,913;12463,387;   -1,929;    1,864
354,507;12636,458;    0,434;   -1,227
355,100;12626,372;    0,071;    0,864
355,693;11673,570;    4,798;    2,409
356,286;11747,963;    0,980;    2,773
356,879;12170,789;   -0,475;    1,227
357,472;11687,412;    0,980;    1,500
358,065;11877,785;    3,161;    2,500
358,658;11832,047;    0,798;    2,318
359,251;11416,440;    0,252;   -0,591
359,844;10788,287;    0,343;   -1,136
360,437;10905,093;    0,252;    0,045
361,030;11247,677;    0,525;   -0,682
361,623;10765,690;    0,434;    0,318
362,215;10811,413;    0,979;    2,045
362,808;10663,317;   -2,293;   -1,682
363,401;10867,631;    0,798;    0,136
363,994;10518,649;    3,252;   -1,500
364,586;10400,452;    0,888;   -1,500
365,179;10667,866;   -0,203;   -1,136
365,772;10077,258;   -0,930;    2,045
366,364;10422,407;    1,524;   -3,227
366,957;10633,840;    1,342;   -0,045
367,549;10663,067;   -0,203;   -0,864
368,142;10260,073;    0,978;   -1,500
368,734;10476,303;    2,523;   -2,136
369,327;10411,576;    2,341;   -0,500
369,919;10335,887;   -1,659;    0,409
370,512;10054,145;   -1,023;   -0,500
371,104; 9737,971;    2,704;    1,591
371,696; 9920,820;    1,703;   -0,955
372,289;10085,248;    0,157;    1,136
372,881;10209,415;    1,156;    1,318
373,473;10157,903;    4,064;    1,136
374,066; 9904,323;    1,336;    0,500
374,658; 9722,335;    0,879;    1,136
375,250;10135,596;   -1,668;   -1,409
375,842; 9946,259;   -0,124;   -0,045
376,434; 9797,450;   -2,762;   -0,409
377,026;10509,100;   -1,855;   -2,500
377,618;10375,488;    0,779;   -0,682
378,210;10202,655;    3,141;   -1,955
378,802;10022,255;    3,412;   -0,591
379,394; 9935,962;    3,411;    0,682
379,986;10673,707;    1,138;   -0,955
380,578;10836,908;    1,410;    0,773
381,170; 9978,239;    0,320;    0,045
381,762; 9965,630;   -0,224;    1,409
382,354;10241,960;   -0,223;   -1,318
382,945;10362,095;    0,870;    0,318
383,537;10521,300;    1,144;   -1,955
384,129;10489,253;    0,963;   -1,136
384,721;10716,215;    0,418;    0,955
385,312;10675,899;   -1,399;   -0,955
385,904;10707,889;   -0,945;    1,591
386,496;10018,585;    0,691;    1,045
387,087;10167,439;    0,418;    2,500
387,679;10212,025;   -0,401;    0,045
388,270;10343,878;   -2,401;    2,045
388,862;10513,051;   -0,401;   -0,318
389,453;10374,362;    1,054;    1,045
390,045;10685,145;    3,236;   -2,682
390,636;10632,179;    0,144;   -0,591
391,227;10491,483;    2,054;   -0,045
391,819;10582,635;    0,781;    0,773
392,410;10671,034;    0,600;    0,045
393,001;10581,630;    1,600;   -1,591
393,593;10908,062;    0,600;   -0,045
394,184;10729,750;    0,873;   -0,409
394,775;10685,526;    1,146;    2,136
395,366;10936,976;    1,782;    0,773
395,957;10958,098;   -2,400;    0,136
396,548;11314,652;    1,054;    2,682
397,139;11627,079;    2,236;    0,591
397,730;11294,640;    0,873;    0,955
398,321;11382,347;    0,509;    0,955
398,912;11428,133;   -0,764;    0,136
399,503;11534,230;   -1,945;   -1,409
400,094;10872,858;   -1,582;    1,682
400,685;10716,961;    3,600;    0,045
401,276;10828,847;   -0,400;   -0,955
401,867;11199,573;   -1,127;    0,773
402,458;11321,419;    1,509;   -2,318
403,048;11287,491;    0,146;    0,591
403,639;10851,684;    1,509;    0,864
404,230;11061,737;    0,691;    0,318
404,821;10999,957;   -0,127;    0,045
405,411;11088,523;   -0,763;   -2,591
406,002;10643,919;    3,237;   -1,136
406,592;10402,912;    2,691;    0,045
407,183;10783,056;    0,328;   -1,500
407,774;10712,017;    1,419;   -0,136
408,364;11085,489;    2,600;    0,409
408,954;10589,884;   -0,036;    1,227
409,545;10651,569;    1,873;    1,045
410,135;10124,424;   -1,581;    0,500
410,726;10314,719;    0,783;    0,318
411,316;10759,897;    2,237;    0,773
411,906;10376,701;    0,146;   -0,409
412,497; 9764,479;   -0,490;   -0,045
413,087;10456,487;    0,783;   -0,227
413,677;10926,027;   -2,490;    3,864
414,267;10759,117;   -1,035;    1,409
414,857;10762,657;    0,419;    4,227
415,448;11085,503;   -0,763;    0,500
416,038;10723,064;   -2,945;   -0,591
416,628;10672,620;    0,965;    0,409
417,218;10036,422;   -1,762;    3,318
417,808;10372,235;    0,965;   -0,409
418,398;10970,375;   -1,035;    2,682
418,988;10976,866;   -2,217;    0,591
419,578;11232,169;    3,601;    1,409
420,168;11668,457;    0,692;   -0,955
420,757;11186,083;    0,964;   -1,500
421,347;10799,545;    1,601;   -0,227
421,937;11003,900;    3,329;    1,409
422,527;10875,632;    2,602;   -0,773
423,116;10672,396;    2,692;   -0,045
423,706;11122,183;    2,965;    0,318
424,296;11093,882;    1,601;    0,682
424,885;11573,973;    1,510;   -3,045
425,475;11923,551;    1,147;   -2,864
426,065;11847,467;   -1,489;   -0,318
426,654;11411,669;    0,329;   -0,318
427,244;11495,189;    1,147;    1,409
427,833;10881,271;    1,056;   -0,500
428,423;11457,203;    0,147;    1,136
429,012;12374,044;    2,420;   -1,136
429,601;11779,916;    2,057;    0,136
430,191;12056,306;    2,511;    4,318
430,780;11594,924;   -1,671;   -0,409
431,369;11466,112;    1,329;   -0,045
431,959;12225,128;    1,693;    0,500
432,548;12023,660;   -1,398;   -0,045
433,137;12215,195;    0,329;   -1,318
433,726;12771,521;    0,148;    0,500
434,315;12031,342;    0,148;    2,409
434,905;12119,677;    0,693;    1,409
435,494;12015,880;    3,148;    0,955
436,083;12523,921;    1,420;   -0,955
436,672;12359,184;    1,148;    0,500
437,261;11867,372;    0,512;   -1,955
437,850;11921,558;   -1,125;    0,682
438,439;11920,143;    2,239;    1,955
439,027;11727,621;    3,421;    1,773
439,616;12169,488;    2,239;    1,227
440,205;12074,817;    0,057;   -2,136
440,794;12157,014;   -0,306;   -0,045
441,383;12476,791;    1,603;   -0,591
441,971;12311,643;   -0,306;    0,591
442,560;12160,839;    0,603;   -1,773
443,149;11949,634;    3,060;   -1,318
443,737;12120,234;    0,968;   -2,318
444,326;12339,064;    0,331;    0,318
444,915;12397,391;   -1,851;    0,864
445,503;12835,052;    0,058;   -0,318
446,092;12050,621;    7,876;    2,136
446,680;12663,017;    1,876;    0,318
447,269;12846,293;   -1,487;   -0,318
447,857;12606,851;    2,240;   -1,773
448,445;12729,168;    2,149;    1,318
449,034;12986,663;    0,876;   -1,136
449,622;13123,132;    1,240;    3,500
450,210;12153,565;    3,149;    2,227
450,799;12789,211;    2,604;   -0,591
451,387;12773,178;    1,786;   -0,591
451,975;12310,476;   -1,305;    0,864
452,563;12425,910;    0,422;    2,318
453,151;12506,780;   -1,032;   -1,227
453,739;12412,058;   -1,577;    0,136
454,328;12185,110;    0,604;   -2,136
454,916;11823,828;    1,150;   -0,136
455,504;12053,013;    3,513;    1,227
456,092;12278,589;    2,150;   -1,591
456,679;12273,233;    0,604;    0,682
457,267;12055,156;    3,604;    1,045
457,855;12307,019;    3,241;    1,409
458,443;12108,090;   -0,304;    1,682
459,031;12202,875;    1,332;    2,409
459,619;12722,654;   -3,577;    2,864
460,206;12943,545;   -0,759;    2,045
460,794;13018,235;   -0,668;   -0,227
461,382;13258,427;    0,878;   -0,864
461,970;12774,357;    0,605;    1,864
462,557;12815,908;    0,878;   -0,682
463,145;13077,080;   -0,304;   -1,682
463,732;13250,356;    2,514;   -1,045
464,320;13182,188;    1,514;   -3,045
464,907;12750,116;    0,423;   -0,773
465,495;12621,040;    2,696;   -1,227
466,082;12821,362;    2,060;   -0,045
466,670;12741,874;    2,605;    1,227
467,257;13173,744;    0,060;    2,045
467,844;13315,908;    1,514;    0,045
468,432;13360,728;   -0,031;    3,500
469,019;12757,820;    1,606;   -1,773
469,606;13274,466;    0,969;    3,682
470,193;13069,400;    2,151;    0,227
470,780;12560,405;    0,333;    0,864
471,368;12932,424;   -1,212;   -0,773
471,955;12667,841;    1,060;   -0,682
472,542;12275,612;   -0,303;   -1,136
473,129;12572,165;   -0,485;    0,136
473,716;12284,393;    0,060;    0,591
474,303;12511,603;    1,333;   -0,864
474,890;12821,765;    2,333;   -0,500
475,477;12785,189;   -0,576;    0,409
476,064;12771,422;    0,697;   -1,591
476,650;12703,595;    2,152;    0,318
477,237;12525,141;    1,879;    0,955
477,824;12723,444;    3,879;    0,864
478,411;12759,477;    0,606;   -0,318
478,997;12965,897;    0,606;   -0,773
479,584;13042,018;   -0,666;   -0,409
480,171;13832,029;    1,243;   -0,773
480,757;13483,904;   -0,848;    0,773
481,344;13797,113;    0,334;    0,409
481,931;13294,782;   -0,393;    1,045
482,517;14412,750;    0,425;    0,318
483,104;15148,256;    1,334;    2,864
483,690;15588,481;    0,243;    0,045
484,276;16082,921;    0,698;    0,227
484,863;15790,099;    2,152;    1,136
485,449;16460,542;    0,152;    0,318
486,035;16447,817;   -0,666;   -0,136
486,622;16980,334;   -2,393;    0,045
487,208;16939,772;    1,334;    1,500
487,794;16755,170;    0,971;    0,318
488,380;16876,375;    0,698;   -1,409
488,967;16913,024;   -1,120;   -0,409
489,553;16946,557;   -1,029;   -1,409
490,139;17120,824;    0,971;    0,773
490,725;16501,804;    0,789;   -0,227
491,311;15945,243;    1,516;    3,045
491,897;15099,832;   -0,665;    1,500
492,483;14829,436;    0,426;    1,227
493,069;14458,763;    5,426;    0,864
493,655;14470,251;    1,789;    0,682
494,241;14370,327;    1,517;   -0,955
494,826;14849,907;    0,335;   -1,045
495,412;14256,669;    0,335;   -0,682
495,998;14413,671;    0,971;   -0,318
496,584;14606,157;    2,244;    1,045
497,169;14581,643;    2,335;   -0,682
497,755;14473,213;    1,244;    1,227
498,341;15108,174;    2,153;    0,318
498,926;14659,095;    2,881;    1,955
499,512;14898,260;   -0,028;    2,955
500,097;15052,955;   -0,574;   -0,318
500,683;14983,420;   -0,028;    2,136
501,268;15357,575;    1,881;   -0,955
501,854;15064,529;   -0,119;    1,227
502,439;15019,475;   -0,573;   -1,773
503,024;15225,609;    1,608;    0,500
503,610;15296,510;    1,335;   -0,682
504,195;15337,430;    1,245;    1,955
504,780;15435,723;    2,335;    1,227
505,366;15204,546;    4,063;    2,864
505,951;14927,889;   -1,119;    1,045
506,536;14890,474;    1,427;   -3,682
507,121;14893,883;    1,699;   -0,318
507,706;15475,835;   -0,392;    1,045
508,291;15933,721;   -2,937;    1,136
508,876;15392,543;   -0,482;    2,591
509,461;14770,879;    1,427;   -0,773
510,046;15173,129;   -0,391;    0,318
510,631;15406,523;   -0,119;   -0,773
511,216;15081,960;   -0,664;   -0,500
511,801;15522,573;   -0,755;    2,591
512,386;15817,147;    0,972;    0,500
512,971;15760,639;    0,427;    0,955
513,555;15294,059;    1,154;   -1,500
514,140;16178,013;    1,336;   -3,136
514,725;16210,708;    1,791;   -1,136
515,309;16351,440;    1,064;    0,318
515,894;15684,845;   -0,300;   -2,227
516,479;16173,988;    1,973;   -0,955
517,063;15978,042;    0,882;    1,227
517,648;16171,008;    0,155;   -1,136
518,232;15795,926;   -1,300;   -1,409
518,817;16121,283;    1,337;    1,682
519,401;16357,525;    0,700;    0,591
519,985;15806,229;    2,700;    1,136
520,570;15663,431;   -0,118;   -1,955
521,154;15999,869;    0,064;    0,591
521,738;16222,815;    1,064;    2,409
522,323;16825,601;   -0,390;    1,682
522,907;16571,009;    2,428;   -0,136
523,491;16270,598;    1,155;    0,955
524,075;16258,046;    0,428;    0,591
524,659;16341,383;    0,973;    0,591
525,243;15705,566;    0,883;    0,409
525,827;15939,570;    0,883;   -0,045
526,411;16910,929;    1,155;   -0,136
526,995;17144,855;    0,337;    1,409
527,579;16702,929;    1,974;   -1,045
528,163;17070,648;    0,428;   -1,500
528,747;16970,031;    1,065;   -0,773
529,331;17309,540;    0,883;   -1,409
529,915;17519,257;    2,338;    0,955
530,499;17483,131;    0,247;    1,227
531,082;17140,992;    1,065;    1,591
531,666;16552,327;    0,520;    0,773
532,250;17317,388;    0,428;    2,682
532,833;17688,948;    0,610;    2,773
533,417;17558,103;    1,247;    0,864
534,001;17552,864;    0,429;   -0,318
534,584;18293,745;    1,974;    0,500
535,168;18134,262;    3,247;    1,409
535,751;18217,195;    4,520;    0,045
536,334;17569,142;    4,520;   -0,409
536,918;18255,952;    1,974;    1,591
537,501;18379,971;    1,520;    1,318
538,085;18368,162;    1,702;    1,045
538,668;18577,064;    0,883;    2,409
539,251;18918,058;    3,156;    3,773
539,834;18884,273;    0,156;    0,773
540,418;18788,891;    3,247;    4,318
541,001;19002,105;    2,702;    1,773
541,584;19034,924;    1,429;    2,227
542,167;18702,619;    0,702;    2,955
542,750;18888,329;    0,793;   -0,773
543,333;18417,311;    1,429;    2,136
543,916;19277,304;   -0,298;    2,500
544,499;19968,412;    2,520;    0,227
545,082;19990,238;    0,248;    3,591
545,665;20117,795;   -0,207;    1,500
546,248;20506,038;    0,520;   -0,318
546,830;20171,568;   -1,752;    1,955
547,413;20610,044;    0,157;   -0,773
547,996;21203,013;    0,157;    0,500
548,579;20941,584;   -0,843;    0,955
549,161;20707,683;    0,884;    2,682
549,744;20577,164;    0,612;    0,409
550,326;21109,647;    0,885;   -1,136
550,909;20804,267;    2,339;    0,591
551,492;21227,470;    0,521;    0,227
552,074;21005,234;   -0,024;   -1,318
552,657;21612,214;    2,430;    0,045
553,239;21389,285;   -3,024;   -0,773
553,821;21312,454;   -1,570;    1,045
554,404;20778,346;   -0,024;    1,136
554,986;21191,154;    2,248;    1,045
555,568;21806,044;    0,430;   -0,955
556,151;20918,765;    4,067;   -0,227
556,733;21149,901;   -1,388;   -0,864
557,315;21627,358;    4,703;    0,500
557,897;21453,812;    0,521;   -0,500
558,479;21662,966;    1,703;    1,318
559,061;21759,304;    1,067;   -0,864
559,643;22087,614;   -0,297;    0,045
560,225;22549,961;   -0,388;    2,864
560,807;22604,342;    0,340;    0,318
561,389;22041,665;   -1,206;    2,318
561,971;22862,572;   -0,660;    2,136
562,553;22630,990;    0,613;    1,591
563,135;22776,255;    1,249;    1,136
563,717;22405,478;    3,158;    1,136
564,298;23214,838;    3,976;   -0,045
564,880;22873,054;    0,340;   -1,409
565,462;23082,145;    1,977;    1,318
566,043;24362,163;   -0,933;    2,318
566,625;23926,785;    4,067;    1,227
567,207;23775,497;    0,704;    1,682
567,788;25069,205;   -0,114;    1,500
568,370;26032,437;   -1,841;   -0,500
568,951;25874,452;   -0,569;    0,227
569,533;26849,546;    0,977;   -0,500
570,114;27396,054;   -0,296;    0,682
570,695;28012,703;   -0,478;   -1,318
571,277;28616,783;   -0,205;   -1,682
571,858;29502,494;    2,704;   -1,136
572,439;30628,909;    0,795;   -1,045
573,021;30865,066;    0,432;   -2,773
573,602;31389,153;    1,795;    0,318
574,183;32455,758;   -0,114;    2,227
574,764;32745,862;    2,068;    0,409
575,345;33477,565;    0,250;   -0,136
575,926;34198,389;    2,704;    0,136
576,507;34127,956;    2,704;   -0,227
577,088;35299,740;    1,704;    1,682
577,669;35360,613;    1,704;    1,955
578,250;36269,031;   -0,750;   -1,045
578,831;37065,391;   -0,841;   -2,227
579,412;37403,152;   -1,205;    0,955
579,993;38437,159;    1,432;    0,227
580,573;38781,936;   -0,023;   -0,955
581,154;37650,207;    1,613;   -0,591
581,735;38550,563;    0,341;    0,773
582,315;38079,745;    0,523;    2,136
582,896;38440,044;   -1,750;    1,227
583,477;37818,841;    0,614;    1,227
584,057;37971,852;    1,159;    0,955
584,638;38254,705;   -2,750;    2,318
585,218;38255,459;    2,886;    2,682
585,799;38389,925;    1,977;   -0,227
586,379;38379,831;    1,250;    1,591
586,959;36994,737;    2,613;    0,318
587,540;36225,788;    0,432;    2,227
588,120;35638,497;   -1,113;   -0,045
588,700;34411,566;    2,977;    2,136
589,281;34726,411;    1,250;   -0,955
589,861;34598,532;   -0,296;   -1,682
590,441;34471,167;   -1,477;   -2,682
591,021;33296,054;    1,432;   -2,591
591,601;33490,584;    0,431;    0,500
592,181;33468,743;   -1,296;   -0,773
592,761;32672,576;    2,250;    1,409
593,341;32528,324;    1,522;    0,045
593,921;32413,432;   -0,569;    1,591
594,501;32289,318;    1,250;    1,318
595,081;32111,166;    0,522;   -0,318
595,661;32516,651;    1,068;    0,955
596,240;33114,346;   -1,023;    0,136
596,820;32706,927;    2,613;    1,955
597,400;32981,189;    1,977;    0,773
597,980;33235,267;   -0,750;    1,045
598,559;33203,237;    0,341;   -0,227
599,139;32909,232;   -0,750;   -1,227
599,718;32646,868;    0,795;   -0,409
600,298;32959,908;   -2,387;    0,682
600,877;33212,128;    4,795;    1,409
601,457;33476,709;    0,340;    1,136
602,036;33408,569;    1,795;    2,045
602,616;33698,889;    2,250;    1,682
603,195;34028,422;    0,431;    3,500
603,774;33514,382;   -0,296;    2,045
604,354;33459,648;    2,522;   -0,500
604,933;32860,813;    0,250;    1,864
605,512;32972,020;    2,340;    0,591
606,091;33008,105;    1,886;    3,773
606,671;33880,870;    0,249;    0,773
607,250;32852,172;    1,431;    3,136
607,829;33120,570;    1,158;    3,227
608,408;32978,314;    4,613;    2,591
608,987;31911,962;    2,704;    3,409
609,566;32196,484;    0,341;   -2,500
610,145;32254,802;    2,885;    0,682
610,723;32659,531;    1,613;    6,864
611,302;31825,015;    1,067;    1,682
611,881;31255,311;    5,158;   11,227
612,460;32195,137;    0,795;    3,955
613,039;32633,341;    1,703;    2,045
613,617;31270,480;    0,886;    4,773
614,196;31463,263;    1,613;    1,227
614,775;31822,095;    1,249;    2,409
615,353;31767,721;   -1,660;    0,864
615,932;31400,820;    0,249;    2,409
616,510;31999,990;    0,158;    0,591
617,089;31479,737;    8,794;   17,591
617,667;31191,289;    4,885;    6,136
618,246;30953,243;   -1,115;    1,318
618,824;31149,902;    1,612;   -0,955
619,402;30692,552;    0,431;   -1,773
619,981;31226,821;    1,067;   -1,045
620,559;31066,202;    0,794;    1,682
621,137;30584,526;    3,067;    1,864
621,715;30517,982;    3,703;   -0,682
622,293;30459,658;    1,885;   -0,773
622,871;30877,995;    0,340;    0,500
623,450;30409,848;    0,430;   -0,864
624,028;30282,314;   -0,388;   -0,955
624,606;29881,919;    2,339;    1,682
625,183;30304,957;   -0,661;   -1,136
625,761;29871,306;    1,885;    1,136
626,339;30159,501;    2,339;    2,591
626,917;30536,733;    0,339;   -0,045
627,495;30582,447;    2,794;    1,318
628,073;29983,541;    5,248;    2,864
628,650;29658,030;    3,067;    2,136
629,228;30092,007;    1,248;    4,409
629,806;29439,514;   -0,024;    1,136
630,383;29739,963;    0,066;   -0,318
630,961;29463,640;   -2,206;   -0,955
631,539;29131,717;   -2,479;    0,227
632,116;28370,549;   12,703;   15,409
632,694;29002,991;    4,885;    6,500
633,271;29321,023;    1,975;    2,682
633,848;29296,496;    1,430;    2,045
634,426;29314,391;    1,521;    1,773
635,003;28355,841;   -0,207;   -0,409
635,580;28684,693;    1,884;    3,682
636,158;29295,058;    3,793;    1,227
636,735;29266,149;    3,339;   -0,500
637,312;29413,533;    0,521;   -0,682
637,889;29443,466;    2,248;   -0,682
638,466;28872,698;    0,066;   -0,409
639,043;28905,591;    1,702;   -1,136
639,620;29298,269;    0,611;   -0,955
640,197;29567,430;    1,612;    1,682
640,774;29721,875;    1,430;    1,136
641,351;30157,865;    0,612;    1,136
641,928;29505,491;    2,794;    1,409
642,505;29118,572;    0,794;   -0,500
643,082;29189,471;    1,885;    1,227
643,658;28195,189;    1,157;    1,500
644,235;29017,906;   -2,479;    2,500
644,812;29283,987;    1,794;    0,773
645,388;29050,250;    1,612;    1,409
645,965;29122,512;    1,521;    1,682
646,542;29151,866;    3,430;   -0,227
647,118;29170,765;    3,703;   -0,955
647,695;29503,210;    0,339;    1,136
648,271;29405,200;   -2,115;    0,500
648,848;29725,372;    0,248;    2,227
649,424;29527,816;    0,976;    1,318
650,000;29300,170;   -0,388;   -1,045
650,577;29131,978;    0,158;   -0,955
651,153;29626,332;   -1,115;    0,955
651,729;30658,322;    0,521;    0,864
652,305;31009,676;    1,339;    2,773
652,881;36246,120;   -1,297;    1,136
653,458;44437,837;    0,249;    0,227
654,034;49209,100;    0,703;    1,591
654,610;51076,818;    0,339;    0,773
655,186;52573,989;    1,612;    3,045
655,762;52308,434;   -1,842;    0,409
656,338;52410,151;    0,703;    0,136
656,913;53427,050;   -0,297;    0,409
657,489;52672,404;    0,249;   -0,318
658,065;52587,303;    0,794;   -1,591
658,641;53139,930;    2,158;   -0,864
659,217;52453,556;    2,067;    0,409
659,792;51826,091;   -1,751;   -0,409
660,368;52128,172;   -0,388;   -0,682
660,944;51656,981;    1,794;    1,227
661,519;46295,334;    0,522;    0,409
662,095;38946,961;   -0,206;    0,591
662,670;33346,496;   -0,206;   -0,136
663,246;31789,577;   -0,660;   -0,409
663,821;30944,749;    0,431;    1,682
664,396;30426,921;    0,613;    1,864
664,972;30696,184;   -0,660;   -0,500
665,547;31012,719;    3,794;    0,136
666,122;31061,073;    1,340;    0,318
666,698;31370,699;    2,431;    0,318
667,273;30623,871;    0,885;    0,136
667,848;31460,588;    0,340;    1,500
668,423;31210,124;    1,795;    2,318
668,998;31888,659;    0,976;   -0,682
669,573;32450,377;    2,067;   -1,500
670,148;32240,548;    1,885;   -0,682
670,723;32082,448;   -0,024;    0,318
671,298;32586,074;   -1,296;    1,045
671,873;32713,155;   -0,296;   -0,136
672,448;32618,963;    1,704;    0,136
673,023;32988,044;    0,249;   -0,227
673,597;33302,580;    2,704;    2,318
674,172;33029,842;    2,431;    0,318
674,747;32531,832;   -0,205;   -1,045
675,321;32410,731;   -0,933;    3,318
675,896;31974,358;    2,158;    1,045
676,471;33001,257;    2,522;    1,591
677,045;32786,974;   -0,296;    0,682
677,620;32800,055;    2,158;    1,136
678,194;33107,318;    0,249;    1,136
678,769;32627,581;    0,886;   -0,318
679,343;32860,025;   -0,023;    1,773
679,917;32734,197;    0,340;    1,955
680,492;32844,187;    0,249;    3,227
681,066;33004,268;    0,613;    0,409
681,640;33042,531;    1,795;   -0,318
682,214;33885,157;    2,340;    0,500
682,788;33391,875;    0,613;   -0,773
683,363;33315,683;    1,977;    1,682
683,937;33038,764;    0,886;   -0,318
684,511;33886,845;   -1,023;   -0,591
685,085;33601,289;   -1,478;    0,318
685,659;33331,916;    1,431;    0,864
686,232;33525,269;    1,159;   -0,318
686,806;33259,532;    2,159;    0,409
687,380;33931,977;   -1,932;    0,591
687,954;34167,694;    2,432;    1,136
688,528;33820,775;    2,613;    1,955
689,101;34655,401;    0,432;    1,045
689,675;34240,846;    0,886;   -0,136
690,249;33531,927;    3,432;    0,409
690,822;33896,190;    1,159;    0,318
691,396;33952,180;    2,068;    1,227
691,969;33323,170;    2,523;    0,136
692,543;33821,796;   -0,568;   -1,955
693,116;33516,332;   -0,659;   -1,409
693,690;33308,504;   -0,296;    0,500
694,263;33852,403;    2,341;    2,955
694,836;33921,847;    2,795;    3,591
695,410;32505,201;    1,159;    1,773
695,983;33017,191;    1,614;    0,591
696,556;32973,726;   -0,750;   -1,045
697,129;33427,080;   -1,114;    1,409
697,703;32981,979;    1,341;    1,955
698,276;32983,878;    1,705;   -0,773
698,849;32728,050;   -1,023;    1,409
699,422;33170,767;    1,250;    0,591
699,995;32771,758;   -0,659;    0,136
700,568;33342,202;   -0,204;    3,045
701,140;33358,283;   -1,841;    1,682
701,713;33034,455;    0,341;    2,409
702,286;32763,809;    0,796;    0,864
702,859;32703,071;    0,614;   -0,591
703,432;31766,607;   -0,841;    0,682
704,004;32308,051;    1,978;    0,318
704,577;32182,678;    1,068;    0,136
705,150;32754,759;    0,887;    2,500
705,722;32539,294;    1,523;   -3,227
706,295;32337,830;    1,432;   -0,591
706,867;32137,183;    0,250;    1,955
707,440;32352,264;   -0,113;   -0,409
708,012;32605,073;   -0,022;    0,591
708,584;32517,426;    2,705;    0,227
709,157;32826,507;    1,160;   -0,591
709,729;32467,588;    1,069;    2,045
710,301;33329,669;   -1,204;    0,045
710,874;33291,205;    0,341;   -0,227
711,446;32125,195;   -0,295;    0,864
712,018;32078,276;   -3,022;    0,500
712,590;31792,993;   -0,204;    1,682
713,162;32338,801;   -0,477;    1,318
713,734;32615,791;    1,796;   -2,045
714,306;32531,599;    0,342;   -0,409
714,878;31161,953;   -0,295;    0,864
715,450;31956,307;   -0,113;    0,864
716,022;32209,115;    2,433;    1,318
716,593;32328,105;    0,978;    0,591
717,165;32264,186;    1,796;   -1,227
717,737;32010,267;    0,796;    0,409
718,309;31638,802;    1,160;   -0,045
718,880;31624,520;   -1,295;   -1,409
719,452;31829,419;    0,887;   -1,591
720,024;31341,136;    1,705;   -0,591
720,595;31934,762;    2,978;    0,955
721,167;31481,752;    1,160;   -2,045
721,738;30938,197;    2,069;   -1,045
722,309;30847,278;    1,251;   -1,227
722,881;30668,086;    2,705;    0,773
723,452;31337,076;    1,251;    2,864
724,023;31523,430;    1,524;    2,682
724,595;31229,420;    2,342;    0,682
725,166;30980,592;    1,524;   -0,409
725,737;30582,582;    1,887;    0,227
726,308;30711,117;    0,797;    0,318
726,879;31109,835;    1,069;    1,227
727,450;31022,552;   -2,022;   -0,045
728,021;30981,269;    1,069;    0,682
728,592;30768,714;    1,160;    0,500
729,163;31084,977;    1,433;   -0,136
729,734;31099,967;    2,160;   -0,227
730,305;31477,048;    0,615;    0,136
730,876;31841,492;    0,888;    2,955
731,447;31556,573;    0,797;    2,682
732,017;31702,472;   -0,840;    1,864
732,588;31191,099;   -0,021;    1,227
733,159;31375,998;    3,615;   -1,045
733,729;31187,624;    1,251;    0,409
734,300;30451,160;    0,160;    0,864
734,870;30922,331;   -1,385;    0,591
735,441;31506,594;    0,888;   -0,591
736,011;31120,221;    1,070;   -1,591
736,582;31141,665;    1,251;    0,045
737,152;30545,837;    0,979;   -2,045
737,722;31015,645;    1,070;   -0,682
738,293;30775,544;   -2,021;    1,318
738,863;30632,807;    1,797;    2,318
739,433;30351,979;    4,524;    0,318
740,003;31015,696;    1,524;   -0,682
740,573;30366,868;    2,252;   -1,591
741,143;30311,585;    3,615;    0,318
741,713;31093,666;    0,252;   -0,500
742,283;30755,384;    1,706;    1,591
742,853;30526,283;    0,524;    1,591
743,423;29951,546;    0,161;    0,045
743,993;30104,627;    1,070;    1,500
744,563;29394,889;    2,524;   -0,864
745,133;29345,152;   -0,112;   -0,864
745,702;30065,778;    2,797;    1,773
746,272;29252,496;    0,434;    0,591
746,842;28977,577;   -0,748;   -0,591
747,411;29458,385;   -0,839;   -0,318
747,981;29661,739;   -0,930;    0,500
748,551;29675,274;   -0,021;   -1,045
749,120;29537,264;   -0,112;   -0,227
749,690;29913,436;    2,161;    2,409
750,259;30246,426;    0,979;    2,955
750,828;30179,052;    4,070;   -1,955
751,398;30436,224;   -0,112;   -0,045
751,967;29904,032;    2,888;    0,409
752,536;30155,477;    1,161;   -0,227
753,105;30579,013;   -1,384;    0,227
753,675;30381,639;   -0,112;    1,773
754,244;30345,174;    0,888;    3,591
754,813;30398,801;    0,979;    1,227
755,382;30048,155;    0,798;    0,955
755,951;30561,054;   -0,112;    3,682
756,520;30082,953;    2,525;    1,864
757,089;30679,761;    1,888;    0,500
757,658;30831,024;    2,434;    1,227
758,227;30838,559;   -1,111;    0,318
758,795;31148,004;   -1,021;    1,136
759,364;31373,630;    0,525;   -0,591
759,933;30376,893;    1,343;   -0,045
760,501;29857,701;    0,252;   -1,318
761,070;30336,600;   -0,293;   -1,409
761,639;31111,409;    1,434;    1,318
762,207;30353,762;    0,889;   -0,955
762,776;30254,389;    2,889;    0,864
763,344;30251,470;    0,071;    0,591
763,913;29319,369;    1,616;    1,409
764,481;30055,086;    1,980;   -0,136
765,049;29831,531;    0,616;    1,409
765,618;29720,066;    1,434;    0,318
766,186;29794,783;    2,434;    0,136
766,754;29964,682;    1,798;    1,864
767,322;28850,673;    1,162;    0,409
767,890;28914,572;    0,525;   -1,773
768,459;29309,380;    2,616;   -0,318
769,027;29477,643;    2,525;    3,409
769,595;28442,269;    2,616;    2,591
770,163;28816,532;    3,344;    2,955
770,730;28572,704;    2,525;   -0,136
771,298;28467,512;    1,162;   -1,409
771,866;28556,775;    0,253;    4,955
772,434;28880,492;    1,162;   -1,864
773,002;29034,664;    2,616;    0,682
773,569;28629,654;    1,071;    1,682
774,137;28477,553;    0,889;   -0,045
774,705;29310,088;   -0,747;   -0,136
775,272;28740,078;    0,253;    0,682
775,840;28484,068;   -0,111;    2,682
776,407;27937,786;   -0,293;    1,955
776,975;27542,867;    1,162;    0,318
777,542;28539,311;    2,162;   -0,045
778,110;28429,392;    0,707;   -0,045
778,677;28083,200;    1,071;   -0,864
779,244;27839,009;   -1,020;    1,045
779,812;27914,635;    0,980;    0,864
780,379;27753,898;    2,435;    1,136
780,946;28027,252;    2,617;   -0,773
781,513;28326,787;   -0,565;    0,318
782,080;27628,141;    1,253;    2,864
782,647;28468,403;    1,708;    3,045
783,214;27947,121;   -0,201;    3,864
783,781;27538,565;    1,708;   -0,682
784,348;27484,919;    0,253;    1,500
784,915;27967,364;   -1,474;    0,318
785,482;27697,717;    2,708;    2,591
786,049;28107,616;    1,071;   -0,591
786,615;28237,788;    1,708;   -0,955
787,182;28038,687;   -3,201;   -0,682
787,749;27705,586;   -2,201;    1,409
788,315;26941,577;    0,253;   -0,409
788,882;27281,567;    0,981;   -1,227
789,448;27985,647;    1,435;   -0,955
790,015;27992,547;    1,799;    3,227
790,581;27513,718;    0,708;    0,227
791,148;27403,618;    1,344;    1,045
791,714;27685,153;   -1,019;    3,136
792,280;27299,507;    3,708;    1,591
792,847;26824,497;   -0,928;    2,500
793,413;27414,760;   -0,110;   -0,318
793,979;26881,840;    1,526;   -1,318
794,545;26979,740;    2,981;    2,682
795,111;26323,911;    2,435;    1,318
795,678;26558,538;    3,526;   -1,682
796,244;26182,255;    2,799;    0,136
796,810;26734,063;    0,799;    0,773
797,375;26482,326;   -0,292;   -2,136
797,941;26532,862;   -1,110;    0,591
798,507;26678,488;    0,254;   -0,955
799,073;26155,660;    2,708;    0,591
799,639;26219,832;    1,435;    3,136
800,205;26188,458;   -1,565;    2,682
800,770;25699,357;    1,345;    1,773
801,336;25759,438;    2,981;   -0,955
801,901;25406,519;    6,072;    3,136
802,467;26005,691;    0,526;    2,045
803,033;25274,863;   -0,019;    0,864
803,598;25491,762;    1,072;   -1,045
804,163;25533,207;    0,708;   -0,318
804,729;25496,469;   -0,110;    1,136
805,294;25965,005;    1,072;    2,227
805,859;25775,904;    0,890;   -0,409
806,425;25181,530;    3,890;    2,682
806,990;24826,520;    1,890;    4,318
807,555;25439,874;   -0,110;    2,591
808,120;25289,591;   -1,292;   -0,409
808,685;25327,309;    1,072;   -2,500
809,250;24785,753;    2,072;   -0,500
809,815;25170,834;   -0,201;    0,682
810,380;25688,006;    0,981;    1,591
810,945;26221,178;    2,890;    2,045
811,510;25438,986;   -0,200;    1,591
812,075;25079,885;    2,800;   -1,409
812,640;25095,421;    3,709;    1,409
813,204;25143,320;    2,163;   -0,227
813,769;25680,583;    0,254;   -0,045
814,334;25006,936;    0,527;    0,864
814,898;24997,290;    1,981;    0,591
815,463;24898,553;    0,981;   -0,773
816,027;24877,361;    1,345;   -2,318
816,592;24925,351;    2,163;   -2,045
817,156;24414,886;   -2,200;    1,136
817,721;24217,513;    0,982;    2,318
818,285;24155,957;    0,618;    1,500
818,849;24872,584;   -0,018;    1,682
819,414;24740,665;    0,073;    2,955
819,978;24281,928;   -0,291;    1,773
820,542;24903,190;    2,891;    0,500
821,106;24612,180;    2,800;    0,682
821,670;24684,352;    2,709;    2,591
822,234;24359,160;    1,073;    1,409
822,798;23723,514;   -0,836;    0,500
823,362;23670,322;    1,527;    4,227
823,926;22971,403;   -0,018;    1,136
824,490;23191,757;    3,527;   -0,682
825,054;23691,747;    2,527;   -1,136
825,618;23288,646;   -1,200;   -1,500
826,181;23196,818;    0,982;   -1,318
826,745;23061,353;   -0,745;   -1,045
827,309;23423,616;    2,255;    1,318
827,872;22782,697;    0,527;    0,955
828,436;23795,142;    1,982;   -0,773
828,999;23864,223;    2,436;    1,227
829,563;22606,485;   -0,654;    1,136
830,126;22470,021;   -0,018;   -0,591
830,690;22452,738;    0,709;    2,864
831,253;21924,456;   -0,473;    2,227
831,816;22041,536;   -0,018;    0,500
832,380;21955,254;    1,164;    0,864
832,943;22165,062;    3,073;   -0,500
833,506;21689,870;    0,255;   -1,227
834,069;22494,587;    2,164;   -0,955
834,632;22549,759;   -2,200;    1,318
835,195;22404,931;    1,346;    0,955
835,758;21566,012;    0,709;    1,955
836,321;21398,457;    1,073;   -1,045
836,884;21476,083;   -1,291;   -0,955
837,447;21517,891;    0,528;    1,773
838,010;21745,063;    1,800;    3,227
838,573;22116,326;    0,528;    0,773
839,135;21950,225;   -0,109;   -0,955
839,698;21428,306;    2,528;    0,409
840,261;20944,023;    0,255;   -0,227
840,823;20811,013;   -0,927;    0,864
841,386;21090,549;   -0,018;   -2,409
841,948;20945,721;    0,255;    1,773
842,511;20652,711;    0,255;    1,682
843,073;20826,519;    2,982;    0,227
843,636;20635,418;    0,619;   -0,227
844,198;20534,408;    1,255;    0,591
844,760;20675,853;    0,619;    1,955
845,322;20303,570;    0,164;    1,136
845,885;20757,015;   -0,290;    0,591
846,447;21185,459;    0,710;    0,227
847,009;20692,995;    3,983;   -0,682
847,571;21091,803;    1,346;   -2,045
848,133;21140,520;   -0,199;   -1,864
848,695;20969,965;    2,346;    1,409
849,257;20485,773;    1,346;   -1,682
849,819;20681,581;    2,983;   -0,409
850,381;20703,662;    1,801;   -0,864
850,942;21140,561;    1,892;   -0,591
851,504;21059,642;    0,983;    0,227
852,066;21075,814;    1,619;   -1,591
852,628;20667,440;    0,165;    1,955
853,189;20189,067;    0,256;    2,682
853,751;20316,239;   -0,654;    1,409
854,312;20106,047;    1,256;   -1,682
854,874;20639,310;   -0,108;   -0,773
855,435;21139,118;    0,528;   -1,682
855,997;21251,562;    3,983;   -0,136
856,558;20478,916;    0,801;    1,773
857,119;20644,179;   -0,744;    2,864
857,681;20293,623;   -0,108;    0,318
858,242;20312,341;    1,347;   -2,136
858,803;20806,876;    1,074;   -0,773
859,364;21383,230;    0,892;   -4,773
859,925;20690,311;   -0,290;   -0,955
860,486;20622,937;    0,529;   -0,955
861,047;20291,746;    0,165;   -1,227
861,608;20088,554;    0,165;   -0,773
862,169;20211,998;   -0,562;   -0,045
862,730;20011,443;   -0,290;    1,409
863,291;20252,887;    0,438;   -0,500
863,852;20573,059;   -0,926;    1,955
864,412;20023,322;   -1,835;   -0,864
864,973;18557,221;    1,892;    0,500
865,534;18394,848;    2,074;    0,227
866,094;19975,838;    2,620;    0,227
866,655;19596,555;    4,711;    3,318
867,215;19899,363;    0,074;    0,136
867,776;19794,080;   -1,199;   -0,136
868,336;19872,707;    1,529;    0,136
868,897;19256,333;    3,438;    1,682
869,457;19011,505;    3,256;    0,318
870,017;19227,222;    2,438;   -1,227
870,578;19789,849;    1,893;    0,773
871,138;19426,566;    2,620;   -0,955
871,698;18905,374;   -0,562;   -1,318
872,258;18793,455;    0,711;   -2,864
872,818;19180,900;    2,347;    0,045
873,378;19147,344;   -2,198;    1,045
873,938;18687,516;    4,984;    0,500
874,498;18999,506;    1,256;   -1,955
875,058;18844,405;    4,347;    1,773
875,618;18769,668;    1,438;   -2,682
876,177;18706,567;   -0,471;    0,136
876,737;18219,012;   -0,289;    1,955
877,297;18238,275;    2,711;    1,955
877,856;18234,537;    2,529;    0,318
878,416;18166,164;    2,438;   -0,136
878,976;18430,972;    3,438;    0,409
879,535;18665,780;    4,529;    3,136
880,095;18349,134;    1,347;    0,045
880,654;18436,488;    0,347;    1,318
881,213;18493,569;    2,347;    1,500
881,773;18169,559;    1,984;    2,682
882,332;18524,458;    6,075;    5,136
882,891;18419,811;    0,711;    2,136
883,451;18875,620;   -2,016;    1,682
884,010;18298,064;   -1,107;   -0,409
884,569;18391,782;   -2,289;   -0,045
885,128;18519,590;   -0,743;   -1,864
885,687;18602,762;   -0,743;    0,682
886,246;18280,206;    2,620;    2,136
886,805;18001,833;    1,620;    2,045
887,364;18354,459;    1,166;   -0,500
887,922;18734,722;   -0,016;    0,045
888,481;18185,439;    1,530;    0,591
889,040;18508,247;    3,711;    2,136
889,599;19229,055;    2,166;    1,409
890,157;19324,318;    2,166;    2,409
890,716;19008,581;    2,166;    0,227
891,274;18734,935;    0,075;   -1,136
891,833;19145,925;    1,166;    0,864
892,391;19049,278;    1,802;    0,500
892,950;19184,723;    0,166;   -0,773
893,508;19503,258;    0,984;   -0,409
894,067;18820,067;   -0,379;    0,136
894,625;18737,420;   -1,016;   -1,500
895,183;18946,956;   -0,198;   -0,682
895,741;18861,764;    2,257;   -1,773
896,299;18735,754;    1,621;   -2,409
896,858;18942,562;    1,530;   -1,591
897,416;18992,916;    0,166;   -1,318
897,974;18729,724;   -2,197;    0,318
898,532;18874,441;    6,530;    2,682
899,089;18710,522;    0,621;   -0,682
899,647;18832,785;    0,530;    1,318
900,205;18525,957;    0,257;    1,045
900,763;18765,856;    2,166;    0,227
901,321;18743,301;    3,530;   -1,409
901,878;18162,563;    3,257;   -0,773
902,436;17987,281;    0,257;    1,318
902,994;18393,816;    6,712;    3,682
903,551;17821,625;    1,439;    0,409
904,109;18205,251;    1,530;   -1,409
904,666;17775,877;    1,439;    1,045
905,224;17569,776;    3,894;   -0,409
905,781;17328,766;   -0,470;   -0,318
906,338;17435,575;    0,167;    1,045
906,895;17372,110;    1,894;    2,045
907,453;17240,737;    2,348;    1,136
908,010;17246,636;    3,348;    0,409
908,567;16874,171;   -0,561;    0,591
909,124;16405,707;    2,439;   -1,500
909,681;16506,606;   -1,288;    0,682
910,238;16622,414;   -0,106;   -1,318
910,795;16910,131;   -1,561;   -1,136
911,352;16522,404;   -0,379;   -2,682
911,909;15917,495;    2,803;   -0,864
912,466;16458,313;    1,985;    1,500
913,022;15968,131;   -0,924;    0,500
913,579;16331,677;   -0,470;    2,045
914,136;16023,495;   -2,561;    0,955
914,692;16379,222;    1,530;   -1,227
915,249;15906,404;    0,530;    0,409
915,806;16127,586;    1,803;    1,955
916,362;15820,040;    0,894;    1,864
916,918;15375,495;    2,439;    1,045
917,475;15361,131;    1,621;    0,955
918,031;15471,222;    0,076;   -0,045
918,587;14880,677;    0,621;   -0,318
919,144;15087,949;   -0,379;    0,227
919,700;15435,040;    0,167;    0,773
920,256;14989,495;    0,439;    0,045
920,812;14597,768;    1,439;   -1,045
921,368;14553,586;    1,348;   -1,045
921,924;14201,949;    0,439;   -0,136
922,480;13762,495;    0,076;    1,227
923,036;14406,131;   -0,652;    1,955
923,592;14346,404;    0,621;    0,318
924,148;14236,949;    1,894;   -0,955
924,704;13485,495;    0,258;   -0,409
925,259;13788,677;   -0,561;    0,591
925,815;13506,586;    3,803;    0,500
926,371;13025,949;    3,530;    1,409
926,926;12861,859;    1,621;    0,591
927,482;12477,313;    1,621;    0,773
928,037;12326,768;   -0,833;    2,045
928,593;12614,586;    0,258;    1,045
929,148;12405,404;    1,167;   -1,500
929,704;11901,586;    2,439;   -0,500
930,259;12114,222;    0,894;   -0,136
930,814;11136,313;    1,803;    1,955
931,369;10823,949;    0,258;   -0,773
931,925;10712,222;   -1,924;    0,136
932,480;10594,859;    3,076;   -2,591
933,035;10409,768;    3,985;   -0,318
933,590;10113,040;   -1,742;   -1,773
934,145; 9781,222;   -1,288;   -0,318
934,700;10160,313;    0,348;   -0,591
935,255; 9942,040;    4,803;    0,045
935,809; 9133,222;    6,258;    0,864
936,364; 8213,131;    2,167;   -0,136
936,919; 8184,040;    2,348;   -1,773
937,474; 8098,222;    1,348;    0,136
938,028; 7822,677;    3,076;    1,136
938,583; 7207,313;    6,348;    4,682
939,138; 7504,222;    0,167;    2,136
939,692; 6927,495;   -1,015;   -1,136
940,247; 6564,677;    1,167;   -1,045
940,801; 6084,859;    0,621;    0,227
941,355; 6001,859;    0,439;    2,591
941,910; 5635,768;    0,712;   -2,136
942,464; 5721,949;    2,712;   -0,318
943,018; 5447,222;    3,258;   -0,227
943,572; 5426,040;    2,803;   -0,682
944,126; 4786,677;   -0,924;   -0,409
944,681; 4653,222;    0,712;    0,227
945,235; 4660,040;    2,167;   -0,591
945,789; 4589,040;    1,258;   -1,864
946,342; 4619,677;   -0,561;   -0,591
946,896; 4483,768;    0,348;    0,955
947,450; 4244,859;   -0,561;   -0,227
948,004; 4398,313;    1,076;   -0,045
948,558; 4446,040;    1,258;   -0,864
949,111; 4337,131;   -1,197;   -0,318
949,665; 4316,404;   -0,106;   -0,682
950,219; 4191,949;    0,621;   -1,045
950,772; 4302,768;    0,258;    1,864
951,326; 4199,677;   -1,106;   -0,955
951,879; 4309,677;    1,076;   -2,318
952,433; 4327,131;    1,348;    2,227
952,986; 4152,586;    0,348;    0,682
953,539; 4097,677;    1,530;    0,591
954,093; 4046,131;    0,985;   -1,318
954,646; 4177,677;   -0,288;    1,318
955,199; 3972,404;    1,258;   -0,500
955,752; 3807,949;    1,985;    1,773
956,305; 3788,222;    0,894;    2,955
956,858; 3978,495;    0,621;   -0,318
957,411; 4180,495;    3,621;    2,136
957,964; 3986,768;    2,076;    2,136
958,517; 3962,768;    0,985;    3,136
959,070; 3802,586;   -1,197;    1,955
959,623; 3836,495;    1,076;    1,500
960,176; 3593,859;    0,712;    2,045
960,728; 3566,949;    1,712;    0,773
961,281; 3647,586;    2,258;    0,500
961,834; 3695,859;   -0,833;    0,864
962,386; 3620,313;    1,258;    1,045
962,939; 3528,495;    3,439;   -0,318
963,491; 3669,131;    2,621;    1,136
964,043; 3539,495;    0,076;    2,409
964,596; 3678,313;    1,712;    2,227
965,148; 3482,040;   -0,379;    1,773
965,700; 3429,222;   -0,015;   -0,227
966,253; 3575,313;   -0,833;    0,318
966,805; 3374,131;    1,894;    0,773
967,357; 3458,495;    0,439;   -1,500
967,909; 3388,949;    1,167;   -1,227
968,461; 3540,222;    0,894;    3,136
969,013; 3438,949;   -1,561;   -0,864
969,565; 3503,495;    1,803;   -1,136
970,117; 3543,859;    3,803;    1,045
970,669; 3405,313;    3,258;   -0,136
971,220; 3299,313;    2,167;   -1,500
971,772; 3208,859;    1,348;   -0,318
972,324; 3309,586;   -1,197;   -0,500
972,876; 3269,495;    0,167;   -0,045
973,427; 3377,131;   -1,197;   -1,045
973,979; 3369,404;    0,076;   -2,500
974,530; 3422,404;    0,803;    1,318
975,082; 3430,859;    2,167;    1,682
975,633; 3316,586;    2,894;    1,682
976,184; 3467,859;    2,076;    0,773
976,736; 3235,586;    0,348;    0,227
977,287; 3000,404;    0,258;   -0,500
977,838; 3196,768;   -0,924;   -0,318
978,389; 3252,222;    0,803;   -0,500
978,940; 3132,677;    1,258;   -0,409
979,491; 3178,040;    2,258;   -0,500
980,042; 3109,949;   -0,652;    3,045
980,593; 3180,586;    1,894;    0,227
981,144; 3230,222;    3,530;   -0,500
981,695; 3176,313;   -0,470;    1,500
982,246; 3161,131;   -1,833;    1,045
982,797; 3331,222;   -0,561;    0,682
983,347; 3459,313;    2,167;    0,591
983,898; 3597,677;    4,167;    0,409
984,449; 3389,040;    2,530;    0,773
984,999; 3313,040;    1,894;   -1,136
985,550; 3062,586;    3,167;   -0,318
986,100; 3130,222;    0,712;   -0,318
986,651; 3186,495;    0,258;    0,045
987,201; 3131,768;    0,894;   -0,591
987,751; 3221,495;   -0,288;    2,864
988,302; 3229,859;   -0,379;    1,500
988,852; 3252,040;    1,985;   -1,136
989,402; 3266,949;    0,985;    0,682
989,952; 3169,586;    1,621;    0,864
990,502; 3307,859;    1,076;    0,682
991,052; 3283,404;   -0,106;    0,045
991,602; 3119,040;    1,167;    1,318
992,152; 3091,222;    2,803;    0,682
992,702; 3093,040;    1,167;   -0,045
993,252; 2997,404;    0,076;   -0,500
993,802; 3075,313;    1,167;    1,318
994,352; 3350,222;   -0,742;    1,136
994,901; 3469,495;    1,076;    3,227
995,451; 3364,495;   -1,197;    0,318
996,000; 3473,313;    1,076;    0,318
996,550; 3171,222;    2,894;    0,227
997,100; 3166,677;   -0,561;   -0,045
997,649; 3454,222;   -0,197;    0,955
998,198; 3053,677;   -0,288;   -1,500
998,748; 3238,768;    0,348;   -2,318
999,297; 3150,313;    0,985;   -0,409
999,846; 3229,586;    1,894;   -0,773
1000,395; 3295,495;    1,530;    0,500
1000,945; 3220,495;    1,076;   -0,773
1001,494; 3307,859;    0,167;    0,682
1002,043; 3307,859;    0,712;    0,864
1002,592; 3143,768;    3,439;    1,955
1003,141; 3288,677;    2,439;   -0,682
1003,690; 3118,040;    1,258;    0,500
1004,238; 3203,313;   -0,106;   -0,045
1004,787; 2818,949;   -1,288;    1,227
1005,336; 3054,768;    1,621;    0,682
1005,885; 3244,313;   -0,197;   -2,773
1006,433; 3412,313;   -0,470;    0,955
1006,982; 3428,040;    2,167;    1,682
1007,531; 3373,404;    2,712;   -0,227
1008,079; 3339,949;    0,258;    0,500
1008,627; 3472,040;    1,621;    0,409
1009,176; 3197,586;    0,076;   -1,955
1009,724; 3230,313;   -2,742;    0,864
1010,273; 3267,495;    1,076;    0,500
1010,821; 3434,949;    1,076;    1,409
1011,369; 3146,222;    0,076;    1,318
1011,917; 3103,859;   -0,833;   -0,591
1012,465; 3398,495;    2,530;   -1,591
1013,013; 3545,313;    0,439;   -1,682
1013,561; 3365,313;   -1,288;   -0,773
1014,109; 3421,222;   -0,833;    1,682
1014,657; 3294,131;    1,348;    0,591
1015,205; 3434,404;    0,894;   -0,955
1015,753; 3474,677;    0,258;   -1,409
1016,301; 3514,949;    2,621;    3,045
1016,848; 3530,404;    2,167;    0,409
1017,396; 3556,677;    1,621;    0,045
1017,944; 3668,040;    2,621;    1,864
1018,491; 3439,222;   -0,197;    1,409
1019,039; 3554,677;   -0,652;    0,591
1019,586; 3511,768;    0,076;    1,682
1020,134; 3639,131;    0,712;    1,500
1020,681; 3621,131;    2,894;   -1,136
1021,228; 3660,586;   -0,561;   -2,227
1021,776; 3476,404;   -0,833;   -1,136
1022,323; 3683,222;    0,803;    0,773
1022,870; 3640,040;   -0,470;   -0,045
1023,417; 3505,768;    2,076;    1,864
1023,964; 3692,313;    0,621;    1,227
1024,511; 3496,222;   -0,652;    0,773
1025,058; 3277,313;    0,439;   -0,045
1025,605; 3352,131;   -1,742;    3,136
1026,152; 3537,586;   -0,106;   -0,591
1026,699; 3260,949;    0,167;    1,318
1027,245; 3459,040;    2,439;    0,318
1027,792; 3729,859;    0,712;    1,409
1028,339; 3563,131;    4,076;   -0,045
1028,885; 3401,313;    3,621;   -0,227
1029,432; 3344,677;   -0,106;    0,227
1029,978; 3381,586;    1,348;   -1,591
1030,525; 3307,040;    1,621;    0,409
1031,071; 3578,222;    0,348;    1,136
1031,618; 3635,677;    1,258;    1,682
1032,164; 3440,859;    2,076;    3,045
1032,710; 3488,404;    0,076;   -1,500
1033,256; 3417,768;    0,712;   -0,136
1033,803; 3421,768;   -0,288;    1,500
1034,349; 3161,404;    1,803;    0,136
1034,895; 3307,768;    2,621;   -0,318
1035,441; 3266,404;    0,439;    0,318
1035,987; 3259,313;   -2,288;   -0,682
1036,533; 3244,495;   -0,197;   -0,955
1037,078; 3434,768;    4,712;    1,682
1037,624; 3262,677;    2,439;   -0,955
1038,170; 3309,677;    1,712;   -0,318
1038,716; 3180,859;    2,167;   -0,409
1039,261; 3104,404;    2,167;   -0,773
1039,807; 3033,131;   -0,015;    3,409
1040,352; 3092,949;   -1,288;   -0,318
1040,898; 3152,495;    0,167;   -0,682
1041,443; 3065,404;    0,803;   -2,591
1041,989; 3055,040;    3,621;    1,591
1042,534; 2941,040;    0,985;    2,591
1043,079; 3095,949;    1,985;    0,955
1043,625; 2837,404;    0,258;    0,500
1044,170; 2888,404;    2,439;    1,045
1044,715; 3140,859;    0,167;    0,955
1045,260; 2948,677;   -0,833;   -0,955
1045,805; 3028,222;    0,258;   -0,591
1046,350; 2972,677;    0,530;   -0,409
1046,895; 2913,495;    0,803;    1,591
1047,440; 2841,404;    1,530;    0,409
1047,985; 2750,859;   -1,197;   -0,955
1048,530; 2646,040;    1,348;    1,227
1049,074; 2711,586;    2,803;    0,318
1049,619; 2699,586;   -0,924;    1,955
1050,164; 2504,313;    1,076;    0,227
1050,708; 2538,677;    2,621;    0,045
1051,253; 2885,859;    3,258;   -2,227
1051,797; 2615,313;   -0,197;   -1,318
1052,342; 2645,859;    1,348;    1,045
1052,886; 2630,040;    1,803;   -1,409
1053,430; 2524,404;    2,167;    0,136
1053,975; 2526,404;    0,894;   -0,318
1054,519; 2481,040;    1,803;    3,227
1055,063; 2480,222;    3,621;    1,318
1055,607; 2375,131;    1,348;    0,227
1056,151; 2397,040;    0,530;    1,682
1056,695; 2334,768;   -1,833;   -1,136
1057,239; 2387,222;   -1,197;   -0,682
1057,783; 2388,949;    2,258;   -1,500
1058,327; 2327,222;    3,076;    1,409
1058,871; 2559,586;    3,985;    1,318
1059,415; 2256,040;   -0,561;   -0,045
1059,958; 2490,040;    2,985;    2,591
1060,502; 2226,313;    1,348;   -0,773
1061,046; 2148,040;    1,712;   -0,955
1061,589; 2130,859;    2,803;   -1,136
1062,133; 1994,768;    0,985;    1,864
1062,676; 1925,768;    1,439;    0,864
1063,220; 1930,586;    0,985;    0,500
1063,763; 1935,586;    2,985;    1,136
1064,306; 2016,404;    0,985;    1,864
1064,849; 1894,677;    2,076;    0,591
1065,393; 1906,404;    2,894;   -1,500
1065,936; 2024,768;    2,530;   -0,409
1066,479; 1927,040;    2,621;    1,318
1067,022; 1943,131;    1,894;   -0,227
1067,565; 1844,222;   -1,197;   -1,318
1068,108; 1889,768;    1,258;   -0,591
1068,651; 1851,404;   -2,470;    1,409
1069,194; 1782,677;   -1,106;   -1,682
1069,736; 1762,586;    3,803;    0,955
1070,279; 1743,313;   -1,652;   -0,500
1070,822; 1769,222;    1,530;   -0,318
1071,364; 1837,222;    0,530;    1,318
1071,907; 1674,495;    0,348;    3,227
1072,450; 1621,404;    0,258;   -0,045
1072,992; 1597,222;   -0,561;    3,136
1073,535; 1709,677;    0,167;    2,136
1074,077; 1516,313;    2,985;    2,045
1074,619; 1493,222;    0,985;    0,591
1075,161; 1490,222;   -0,561;    1,500
1075,704; 1669,859;    0,258;    1,227
1076,246; 1495,768;    1,530;    0,682
1076,788; 1426,949;   -1,015;    1,773
1077,330; 1520,313;   -2,106;    2,136
1077,872; 1461,949;   -1,924;    0,955
1078,414; 1672,677;    3,712;    0,773
1078,956; 1396,677;    0,167;   -0,227
1079,498; 1632,677;    0,439;    0,318
1080,040; 1337,859;    0,985;   -1,318
1080,581; 1298,313;    0,621;   -0,318
1081,123; 1241,677;   -0,106;   -0,773
1081,665; 1285,768;    3,803;   -0,955
1082,206; 1551,404;    3,258;   -0,500
1082,748; 1437,040;    3,258;    2,045
1083,289; 1322,586;    0,167;    1,318
1083,831; 1226,404;    0,258;    0,227
1084,372; 1233,495;    0,894;    0,591
1084,913; 1232,949;    3,348;    0,864
1085,455; 1216,131;    1,530;   -2,045
1085,996; 1179,131;    0,530;    0,136
1086,537; 1199,131;    0,985;    0,864
1087,078; 1241,313;    0,439;   -2,136
1087,619; 1269,313;   -1,652;    0,227
1088,160; 1192,859;    1,439;    1,318
1088,701; 1182,222;   -0,742;    0,682
1089,242; 1127,222;   -0,561;   -2,227
1089,783; 1208,131;   -0,561;    1,409
1090,324; 1166,040;   -0,833;    0,682
1090,865; 1050,677;   -1,924;   -0,409
1091,405; 1042,040;   -0,561;    2,227
1091,946; 1068,222;   -0,197;   -0,955
1092,487;  998,313;   -1,288;   -1,409
1093,027; 1140,040;    1,803;   -1,500
1093,568;  985,949;    2,258;    1,227
1094,108; 1071,677;    0,621;    1,773
1094,649; 1034,949;   -0,470;    0,136
1095,189;  975,859;    1,167;   -0,682
1095,729;  902,222;    0,712;    0,955
1096,269;  929,040;    1,258;   -0,955
1096,810; 1236,677;   -0,197;    0,500
1097,350; 1058,222;   -0,561;   -0,773
1097,890;  960,040;    2,985;    1,227
1098,430; 1194,949;    4,985;    2,864
1098,970; 1064,768;    1,894;    1,682
1099,510;  955,586;   -0,833;   -2,318
1100,050;  876,495;    0,258;   -1,591
1100,589;  848,768;    0,076;   -0,318
1101,129;  958,586;    0,894;   -0,955
1101,669; 1080,677;    2,803;    2,136
1102,209;  933,949;    1,530;    2,227
1102,748;  887,768;    3,439;    0,955
1103,288;  866,949;    0,712;   -1,227
1103,827;  891,768;    3,530;   -2,227
1104,367;  780,495;    1,712;   -2,409
1104,906;  740,677;   -1,015;   -1,136
1105,445;  805,222;    0,985;   -1,136
1105,985;  744,677;   -0,652;    1,500
1106,524;  792,131;    1,530;   -0,682
1107,063;  771,222;    1,167;    1,409
1107,602;  741,222;    1,894;   -1,500
1108,141;  661,949;    1,621;    1,500
1108,680;  760,313;    3,985;   -0,591
1109,219;  698,040;    0,167;   -0,500
1109,758;  702,859;    4,167;    0,682
1110,297;  677,040;   -1,106;   -0,682
1110,836;  627,677;    1,439;    0,955
1111,375;  774,677;    0,348;    0,409
1111,913;  784,131;    0,985;    0,773
1112,452;  735,040;    0,894;    0,136
1112,991;  625,495;    1,076;    1,955
1113,529;  574,677;    0,167;   -0,045
1114,068;  639,313;    0,439;    2,955
1114,606;  540,677;   -0,561;   -0,955
1115,144;  691,768;    1,530;    1,045
1115,683;  630,586;    1,985;    0,318
1116,221;  684,677;    2,076;   -0,864
1116,759;  595,768;    1,621;   -0,864
1117,297;  774,495;    1,621;    1,864
1117,836;  596,949;    1,985;   -1,227
1118,374;  601,040;    0,258;   -0,682
1118,912;  550,768;    0,439;    2,682
1119,450;  531,131;    0,985;    0,864
1119,988;  573,131;    3,348;    2,136
1120,525; 1027,768;    7,258;    3,318
1121,063;  715,677;    0,530;    1,864
1121,601;  539,677;    1,076;   -1,227
1122,139;  491,859;    1,076;   -2,045
1122,676;  678,404;   -1,652;    2,773
1123,214;  615,404;    0,712;    4,409
1123,751;  432,949;    0,621;    2,227
1124,289;  560,768;    0,894;   -0,409
1124,826;  434,313;   -0,379;    0,227
1125,364;  371,859;    0,712;   -0,955
1125,901;  549,949;    6,258;    1,227
1126,438;  647,313;    3,530;    0,955
1126,975;  382,859;    2,985;   -0,773
1127,513;  453,222;    2,621;    2,136
1128,050;  366,859;   -0,561;   -0,682
1128,587;  455,495;    1,348;   -0,227
1129,124;  500,040;   -0,015;    1,318
1129,661;  380,949;   -1,924;    0,227
1130,198;  528,677;    2,439;    0,773
1130,734;  483,495;   -0,379;    1,409
1131,271;  334,404;   -1,197;    0,864
1131,808;  496,131;    1,621;    3,045
1132,345;  377,677;    4,530;    0,318
1132,881;  267,949;   -0,561;   -1,864
1133,418;  397,131;    0,348;   -1,136
1133,954;  343,677;    0,712;   -2,682
1134,491;  404,040;    1,712;   -0,773
1135,027;  300,677;    2,167;    0,864
1135,564;  381,677;    1,439;    2,955
1136,100;  371,859;   -0,742;    2,136
1136,636;  270,586;   -1,015;   -1,045
1137,172;  354,040;    0,894;   -1,045
1137,708;  283,313;   -1,561;   -1,045
1138,245;  284,586;    0,803;   -1,227
1138,781;  246,768;    1,803;   -3,318
1139,317;  305,040;    1,894;   -1,409
1139,852;  287,859;    3,076;    0,136
1140,388;  401,040;    2,076;   -0,409
1140,924;  299,404;    1,076;   -2,227
1141,460;  239,040;   -0,288;    0,136
1141,996;  176,677;   -0,652;    2,682
1142,531;  223,313;    1,076;    3,318
1143,067;  418,040;    1,167;    1,045
1143,602;  469,859;    3,439;   -0,318
1144,138;  324,949;    0,803;    1,045
1144,673;  202,949;    1,621;    1,409
1145,209;  263,677;    2,894;   -0,318
1145,744;  179,222;    0,803;    0,864
1146,279;  299,222;    1,530;   -0,136
1146,815;  231,859;    1,530;   -2,682
1147,350;  264,313;   -0,924;    0,045
1147,885;  188,222;   -1,924;   -1,318
1148,420;  191,677;    2,439;    0,773
1148,955;  169,859;   -1,470;    1,864
1149,490;  195,131;   -1,106;   -1,591
1150,025;  176,404;   -1,106;   -1,773
1150,560;  287,040;   -0,288;   -0,955
1151,094;  248,495;    0,258;   -0,591
1151,629;  247,949;   -3,742;    0,864
1152,164;  185,222;   -1,288;    1,318
1152,698;  147,768;    1,258;   -0,136
1153,233;  106,313;   -1,379;   -0,682
1153,767;  145,768;   -0,288;   -2,318
1154,302;  194,040;   -0,379;    1,773
1154,836;  193,859;    0,803;   -2,136
1155,371;  245,586;    2,258;    3,682
1155,905;  205,313;    1,985;    1,682
1156,439;  167,677;    0,530;   -0,500
1156,973;  198,313;    0,439;    0,318
1157,507;  138,859;   -1,742;    0,682
1158,042;  163,040;   -0,652;    1,045
1158,576;  202,768;   -0,561;    1,773
1159,110;  191,859;    0,076;    2,409
1159,643;  168,586;   -2,470;   -0,045
1160,177;  117,586;   -2,015;    1,500

