
Integration time [ms]:   0,050
Averaging Nr. [scans]: 11
Smoothing Nr. [pixels]: 0
Data measured with spectrometer [name]: 7318044SP
Wave   ;Sample   ;Dark     ;Reference
[nm]   ;[counts] ;[counts] ;[counts] 

186,757;   -8,360;   38,161;    1,318
187,357;   26,195;   26,706;    0,955
187,958;    6,581;   17,252;   -1,591
188,558;   53,793;   12,979;   -1,227
189,159;   33,056;   10,070;   -4,500
189,759;    7,098;    5,797;   -3,591
190,360;    3,079;    6,797;   -2,136
190,960;   46,339;    5,706;   -4,136
191,560;   52,961;    2,614;   -6,591
192,161;  301,418;    5,885;   -3,500
192,761;  135,285;    5,520;   -3,227
193,361;   85,773;    3,065;   -3,773
193,962;  136,304;    1,612;   -2,682
194,562;   70,213;   -0,114;   -3,955
195,162;  101,953;   -0,567;   -2,227
195,762;  271,203;    2,433;   -0,045
196,362;  215,467;    1,706;   -2,500
196,963;   82,475;    1,706;   -0,864
197,563;  151,807;    1,252;   -0,955
198,163;  104,620;   -0,111;   -0,682
198,763;  129,228;   -0,020;   -0,500
199,363;  226,782;    3,616;   -0,500
199,963;  195,789;    2,162;    0,409
200,563;  171,011;    6,344;   -1,409
201,163;  151,823;    5,435;   -0,227
201,763;  242,296;    1,435;    0,318
202,363;  185,300;    0,980;    1,500
202,963;  293,964;    1,526;    1,045
203,563;  401,023;    0,344;    0,500
204,162;  253,353;    1,889;   -1,864
204,762;  243,246;    2,071;    0,591
205,362;  229,057;    0,708;    1,955
205,962;  322,263;    3,435;    1,955
206,562;  322,144;    1,889;    2,318
207,161;  295,460;    1,708;    0,318
207,761;  447,179;    4,435;    2,409
208,361;  320,382;    1,889;    1,409
208,960;  414,505;    2,889;    1,500
209,560;  495,380;    0,435;    1,591
210,160;  481,905;    5,071;    1,864
210,759;  457,251;    0,708;    1,227
211,359;  455,505;   -0,474;    1,045
211,958;  729,494;    3,526;    2,045
212,558;  824,680;    0,799;    1,864
213,157;  657,959;   -0,929;    1,500
213,757; 1120,047;    5,617;   -0,227
214,356;  810,669;    1,708;   -0,409
214,956; 1165,670;    3,526;    0,409
215,555;  788,573;    0,617;    2,136
216,154;  720,608;   -0,292;   -0,591
216,754;  743,489;    1,253;    0,773
217,353;  894,969;   -0,383;   -1,045
217,952;  755,477;    2,072;    0,318
218,552;  984,583;    0,254;   -0,773
219,151;  908,427;   -1,110;    0,955
219,750;  918,499;    0,890;   -0,227
220,349; 1088,074;   -2,292;    1,045
220,948; 1118,185;    1,163;    1,136
221,548; 1193,496;    0,617;    1,227
222,147; 1327,732;   -1,292;   -0,409
222,746; 1619,687;    1,254;   -0,955
223,345; 1495,669;   -1,019;    0,500
223,944; 1537,269;    1,163;    0,773
224,543; 1730,627;    4,072;   -1,409
225,142; 1848,013;    1,345;    0,136
225,741; 1798,425;    1,163;    1,045
226,340; 1833,896;    1,254;   -0,955
226,939; 2317,703;    2,708;   -0,136
227,538; 2378,235;    1,163;   -0,773
228,137; 2504,643;    0,435;    0,864
228,735; 2744,993;    0,435;    1,227
229,334; 2465,509;   -0,474;   -0,227
229,933; 2862,972;    0,799;    0,591
230,532; 2983,890;   -1,201;   -0,409
231,131; 3056,355;    1,253;    0,318
231,729; 3252,900;    1,163;   -2,318
232,328; 3493,640;    0,435;   -1,500
232,927; 3625,142;    4,526;   -0,500
233,525; 3809,511;    0,981;    0,045
234,124; 4040,946;    1,890;   -1,591
234,723; 4114,334;    1,617;   -1,045
235,321; 4316,711;    1,163;    0,136
235,920; 4601,005;    2,526;   -1,227
236,518; 4949,928;    1,072;    0,318
237,117; 5235,748;    2,890;   -0,227
237,715; 5407,943;    1,163;   -0,500
238,314; 5451,115;    1,708;   -2,318
238,912; 5543,786;    0,526;   -1,409
239,510; 5666,365;    1,162;   -1,227
240,109; 5884,789;   -0,474;    3,773
240,707; 5972,281;   -0,474;    1,227
241,305; 6447,326;   -0,383;    0,136
241,904; 6698,508;   -0,292;   -2,045
242,502; 6629,733;    3,253;   -0,227
243,100; 6648,914;    3,344;   -0,955
243,698; 6929,018;    2,799;    1,682
244,297; 7174,796;   -0,656;    0,682
244,895; 6967,319;   -0,474;   -2,318
245,493; 7362,519;    2,981;   -0,591
246,091; 7504,790;    5,163;   -1,318
246,689; 7494,230;    2,163;    0,591
247,287; 7683,089;   -0,019;   -1,136
247,885; 8052,378;   -1,019;    1,227
248,483; 8192,312;   -0,201;   -0,500
249,081; 8358,344;    0,981;    1,591
249,679; 8550,503;   -1,019;    1,682
250,277; 8881,640;   -2,292;    0,864
250,875; 8881,020;    0,617;   -1,045
251,473; 8944,616;   -0,019;    0,500
252,071; 9161,221;   -0,383;    1,045
252,669; 9358,814;   -1,565;    0,318
253,267; 9695,759;    1,618;    0,773
253,864; 9683,089;    0,617;    0,682
254,462; 9467,243;    1,526;    1,591
255,060; 9531,808;    0,072;    1,318
255,658; 9933,359;   -3,292;   -0,136
256,255;10393,802;   -0,201;   -2,045
256,853;10258,469;    2,345;    1,409
257,451;10284,672;    1,981;    1,864
258,048;10540,509;    2,072;    1,864
258,646;10312,502;    0,436;   -1,045
259,243;10521,469;    2,981;    2,227
259,841;10631,975;    1,799;    0,318
260,438;10475,811;    0,254;    0,864
261,036;11356,482;    0,617;    1,409
261,633;11301,843;    1,526;    2,227
262,231;11009,169;   -0,110;   -0,045
262,828;11131,109;   -0,383;    1,136
263,425;11183,934;   -1,928;   -0,591
264,023;11469,535;    1,436;    0,045
264,620;10998,109;    1,526;   -0,318
265,217;11351,737;    2,890;    3,136
265,815;11537,406;    2,527;    2,136
266,412;11290,948;    0,072;    0,136
267,009;11337,294;    0,526;    0,773
267,606;11166,411;    0,345;   -0,955
268,203;11216,302;   -0,383;   -0,591
268,801;11565,107;   -0,474;    0,591
269,398;11919,001;   -0,564;    2,500
269,995;11899,381;    0,890;    1,591
270,592;11611,090;    0,799;   -0,500
271,189;11872,127;    1,981;    0,409
271,786;12083,802;    2,072;    1,227
272,383;11837,057;   -0,383;    0,227
272,980;12090,469;    1,617;    0,318
273,577;12677,462;    2,162;    1,227
274,174;12130,737;    1,435;    2,591
274,771;12133,541;    1,890;   -0,773
275,367;12284,175;    3,253;    1,409
275,964;12265,873;   -0,565;   -0,500
276,561;12437,403;   -2,474;   -1,045
277,158;12703,321;    1,799;   -1,773
277,755;12807,162;   -0,110;    0,409
278,351;12138,669;    0,436;   -1,500
278,948;12531,567;   -0,201;    0,045
279,545;12563,975;    0,527;    2,318
280,141;13249,250;    1,254;   -2,045
280,738;13139,603;    2,435;   -0,136
281,334;13439,274;   -0,383;    0,591
281,931;12781,897;    2,890;   -1,318
282,528;12891,496;    4,072;   -0,500
283,124;13736,789;    3,345;   -0,500
283,721;13660,839;    0,709;    1,409
284,317;13465,981;    0,163;    2,500
284,913;14038,287;   -0,110;    0,591
285,510;14298,287;    2,890;   -0,318
286,106;14297,974;    2,345;   -0,955
286,703;13864,307;    0,072;    1,955
287,299;14112,339;    1,254;   -0,591
287,895;14413,690;    0,890;   -1,045
288,491;15132,092;    0,163;    2,136
289,088;14778,187;    0,163;    2,409
289,684;14846,905;    2,890;    1,500
290,280;14844,480;    1,890;    0,682
290,876;14917,514;    0,163;    5,500
291,472;14834,447;    2,163;    2,227
292,068;14949,730;    1,254;    0,227
292,665;14663,248;   -0,564;    0,773
293,261;14158,975;   -1,292;    2,136
293,857;14642,360;    4,072;    2,136
294,453;14584,230;   -0,928;    0,955
295,049;14416,235;    0,253;    1,955
295,644;14428,149;   -1,292;    0,136
296,240;14333,687;    0,162;   -0,136
296,836;14424,733;   -0,747;    0,318
297,432;14751,509;    2,980;   -0,500
298,028;14740,942;    0,435;    0,773
298,624;15235,594;    0,889;    1,864
299,220;15598,066;    0,435;    0,591
299,815;15218,673;    0,526;   -0,409
300,411;14965,053;    0,435;    1,773
301,007;15022,808;    1,889;    0,227
301,602;15102,181;    2,071;   -2,318
302,198;15229,573;    1,435;   -0,773
302,794;15627,260;    1,526;   -0,500
303,389;15817,667;    1,071;    1,045
303,985;15888,039;    1,253;    1,409
304,580;15811,791;    0,889;    1,591
305,176;15841,381;    0,344;    0,136
305,771;15824,728;   -0,929;   -1,227
306,367;15552,794;    3,071;    0,136
306,962;15973,454;    2,889;    1,500
307,558;15722,747;    2,435;    0,136
308,153;15700,396;   -0,383;   -1,136
308,748;15944,729;    0,162;    1,682
309,344;15905,556;    0,253;   -1,318
309,939;15972,462;    2,071;   -1,318
310,534;16326,282;   -2,020;   -1,682
311,130;16316,450;   -0,656;   -2,500
311,725;16044,838;    0,526;   -0,500
312,320;16374,720;    1,253;    0,045
312,915;16181,932;    2,890;   -1,045
313,510;16260,615;    0,526;   -0,500
314,105;16844,048;   -3,565;    1,409
314,700;16178,072;   -1,656;   -1,045
315,295;15738,973;   -0,020;    0,045
315,890;15233,425;   -0,292;    0,864
316,485;15648,867;    0,253;   -0,318
317,080;15795,301;   -0,929;    1,591
317,675;16391,099;    3,071;   -0,682
318,270;15615,554;    6,889;    3,318
318,865;15691,540;    2,435;    3,045
319,460;15494,419;   -1,565;    0,591
320,055;15807,830;   -2,565;   -1,227
320,650;15427,086;   -1,838;   -0,591
321,244;15483,174;    0,889;   -1,409
321,839;16557,934;    0,980;   -0,227
322,434;16464,811;   -0,111;   -1,591
323,029;16019,480;   -0,474;    1,591
323,623;15816,729;    0,798;    0,773
324,218;15525,742;    2,707;    1,409
324,812;15476,093;    0,889;    1,591
325,407;15242,419;   -0,929;    2,045
326,002;15130,413;    0,526;   -0,409
326,596;15469,211;   -0,656;    1,318
327,191;15758,977;   -0,383;   -1,045
327,785;15250,483;   -0,747;   -0,227
328,379;15509,194;   -0,383;    0,136
328,974;15331,411;    1,798;   -3,955
329,568;15542,597;    2,889;   -2,409
330,163;15318,725;    2,435;    1,045
330,757;15770,784;    0,253;    1,591
331,351;15014,297;   -0,292;    0,682
331,945;15296,791;   -0,383;    1,409
332,540;14830,311;    1,617;   -0,591
333,134;14965,868;    3,344;    0,773
333,728;15271,730;    2,799;    0,318
334,322;15642,564;    0,889;   -0,864
334,916;14855,356;    0,344;    0,955
335,510;15184,121;   -0,111;   -0,136
336,105;15452,250;   -0,929;    1,591
336,699;15105,718;   -1,292;    0,591
337,293;15041,019;    1,071;    0,318
337,887;15196,756;    0,071;    1,955
338,481;15290,877;    2,980;    0,591
339,074;15424,250;    2,071;    2,682
339,668;15207,052;   -0,110;    1,227
340,262;15484,100;    7,708;    3,227
340,856;14970,737;    1,708;   -0,682
341,450;14238,287;    0,708;    1,864
342,044;15237,564;    1,799;    0,136
342,637;15010,244;    1,162;   -2,136
343,231;14824,106;   -1,474;    0,682
343,825;14778,794;   -0,747;   -0,591
344,419;14690,514;   -0,474;    0,500
345,012;14324,056;    2,889;    4,045
345,606;14366,752;   -0,656;    1,591
346,199;14207,236;   -0,111;   -0,227
346,793;13665,493;    2,525;    2,045
347,386;13878,952;    0,889;   -1,136
347,980;13860,355;   -0,838;   -0,045
348,573;13644,998;   -1,748;    0,409
349,167;13174,158;    6,161;    4,773
349,760;13546,040;    2,252;    2,682
350,354;13557,943;    1,616;    1,136
350,947;13261,463;    2,798;    1,682
351,540;12897,378;    0,616;   -1,409
352,134;12841,530;   -1,111;    1,136
352,727;12879,283;   -0,657;    1,136
353,320;12628,910;    2,343;    0,591
353,913;12468,395;   -1,929;    1,864
354,507;12661,103;    0,434;   -1,227
355,100;12647,199;    0,071;    0,864
355,693;11669,847;    4,798;    2,409
356,286;11723,788;    0,980;    2,773
356,879;12189,705;   -0,475;    1,227
357,472;11732,238;    0,980;    1,500
358,065;11937,791;    3,161;    2,500
358,658;11860,782;    0,798;    2,318
359,251;11440,629;    0,252;   -0,591
359,844;10798,293;    0,343;   -1,136
360,437;10931,829;    0,252;    0,045
361,030;11256,230;    0,525;   -0,682
361,623;10790,785;    0,434;    0,318
362,215;10817,419;    0,979;    2,045
362,808;10674,687;   -2,293;   -1,682
363,401;10864,180;    0,798;    0,136
363,994;10520,742;    3,252;   -1,500
364,586;10426,814;    0,888;   -1,500
365,179;10681,680;   -0,203;   -1,136
365,772;10095,444;   -0,930;    2,045
366,364;10409,950;    1,524;   -3,227
366,957;10669,287;    1,342;   -0,045
367,549;10697,422;   -0,203;   -0,864
368,142;10272,425;    0,978;   -1,500
368,734;10469,284;    2,523;   -2,136
369,327;10422,829;    2,341;   -0,500
369,919;10346,318;   -1,659;    0,409
370,512;10048,660;   -1,023;   -0,500
371,104; 9754,385;    2,704;    1,591
371,696; 9933,676;    1,703;   -0,955
372,289;10070,551;    0,157;    1,136
372,881;10250,159;    1,156;    1,318
373,473;10144,091;    4,064;    1,136
374,066; 9889,581;    1,336;    0,500
374,658; 9712,930;    0,879;    1,136
375,250;10133,800;   -1,668;   -1,409
375,842; 9953,707;   -0,124;   -0,045
376,434; 9803,783;   -2,762;   -0,409
377,026;10504,947;   -1,855;   -2,500
377,618;10367,850;    0,779;   -0,682
378,210;10223,899;    3,141;   -1,955
378,802;10059,025;    3,412;   -0,591
379,394; 9940,444;    3,411;    0,682
379,986;10661,814;    1,138;   -0,955
380,578;10788,648;    1,410;    0,773
381,170; 9996,718;    0,320;    0,045
381,762; 9986,215;   -0,224;    1,409
382,354;10233,839;   -0,223;   -1,318
382,945;10376,633;    0,870;    0,318
383,537;10533,772;    1,144;   -1,955
384,129;10517,653;    0,963;   -1,136
384,721;10741,440;    0,418;    0,955
385,312;10677,583;   -1,399;   -0,955
385,904;10734,024;   -0,945;    1,591
386,496;10025,716;    0,691;    1,045
387,087;10208,291;    0,418;    2,500
387,679;10257,236;   -0,401;    0,045
388,270;10373,086;   -2,401;    2,045
388,862;10505,989;   -0,401;   -0,318
389,453;10440,844;    1,054;    1,045
390,045;10716,173;    3,236;   -2,682
390,636;10669,567;    0,144;   -0,591
391,227;10519,148;    2,054;   -0,045
391,819;10576,484;    0,781;    0,773
392,410;10691,522;    0,600;    0,045
393,001;10572,490;    1,600;   -1,591
393,593;10902,105;    0,600;   -0,045
394,184;10722,155;    0,873;   -0,409
394,775;10701,296;    1,146;    2,136
395,366;10921,833;    1,782;    0,773
395,957;10985,950;   -2,400;    0,136
396,548;11309,143;    1,054;    2,682
397,139;11643,384;    2,236;    0,591
397,730;11338,678;    0,873;    0,955
398,321;11395,297;    0,509;    0,955
398,912;11453,538;   -0,764;    0,136
399,503;11520,362;   -1,945;   -1,409
400,094;10870,446;   -1,582;    1,682
400,685;10728,910;    3,600;    0,045
401,276;10806,795;   -0,400;   -0,955
401,867;11198,433;   -1,127;    0,773
402,458;11300,095;    1,509;   -2,318
403,048;11293,261;    0,146;    0,591
403,639;10827,905;    1,509;    0,864
404,230;11050,052;    0,691;    0,318
404,821;10976,544;   -0,127;    0,045
405,411;11093,293;   -0,763;   -2,591
406,002;10615,234;    3,237;   -1,136
406,592;10411,685;    2,691;    0,045
407,183;10786,105;    0,328;   -1,500
407,774;10715,701;    1,419;   -0,136
408,364;11083,445;    2,600;    0,409
408,954;10618,478;   -0,036;    1,227
409,545;10667,435;    1,873;    1,045
410,135;10115,929;   -1,581;    0,500
410,726;10356,049;    0,783;    0,318
411,316;10785,858;    2,237;    0,773
411,906;10412,393;    0,146;   -0,409
412,497; 9775,712;   -0,490;   -0,045
413,087;10498,811;    0,783;   -0,227
413,677;10951,811;   -2,490;    3,864
414,267;10750,264;   -1,035;    1,409
414,857;10767,896;    0,419;    4,227
415,448;11083,828;   -0,763;    0,500
416,038;10729,753;   -2,945;   -0,591
416,628;10686,859;    0,965;    0,409
417,218;10067,571;   -1,762;    3,318
417,808;10382,749;    0,965;   -0,409
418,398;10972,980;   -1,035;    2,682
418,988;10993,017;   -2,217;    0,591
419,578;11283,681;    3,601;    1,409
420,168;11681,240;    0,692;   -0,955
420,757;11162,045;    0,964;   -1,500
421,347;10802,062;    1,601;   -0,227
421,937;11036,054;    3,329;    1,409
422,527;10911,786;    2,602;   -0,773
423,116;10686,910;    2,692;   -0,045
423,706;11147,244;    2,965;    0,318
424,296;11125,033;    1,601;    0,682
424,885;11594,306;    1,510;   -3,045
425,475;11949,432;    1,147;   -2,864
426,065;11855,438;   -1,489;   -0,318
426,654;11393,281;    0,329;   -0,318
427,244;11474,979;    1,147;    1,409
427,833;10875,605;    1,056;   -0,500
428,423;11478,360;    0,147;    1,136
429,012;12347,931;    2,420;   -1,136
429,601;11775,259;    2,057;    0,136
430,191;12015,192;    2,511;    4,318
430,780;11587,899;   -1,671;   -0,409
431,369;11522,637;    1,329;   -0,045
431,959;12234,926;    1,693;    0,500
432,548;12017,823;   -1,398;   -0,045
433,137;12198,905;    0,329;   -1,318
433,726;12770,048;    0,148;    0,500
434,315;12042,234;    0,148;    2,409
434,905;12107,118;    0,693;    1,409
435,494;12007,047;    3,148;    0,955
436,083;12545,540;    1,420;   -0,955
436,672;12355,258;    1,148;    0,500
437,261;11889,086;    0,512;   -1,955
437,850;11955,815;   -1,125;    0,682
438,439;11951,496;    2,239;    1,955
439,027;11732,157;    3,421;    1,773
439,616;12190,480;    2,239;    1,227
440,205;12090,898;    0,057;   -2,136
440,794;12171,734;   -0,306;   -0,045
441,383;12476,878;    1,603;   -0,591
441,971;12322,093;   -0,306;    0,591
442,560;12175,565;    0,603;   -1,773
443,149;11977,939;    3,060;   -1,318
443,737;12119,696;    0,968;   -2,318
444,326;12350,972;    0,331;    0,318
444,915;12410,116;   -1,851;    0,864
445,503;12901,140;    0,058;   -0,318
446,092;12047,164;    7,876;    2,136
446,680;12661,471;    1,876;    0,318
447,269;12897,566;   -1,487;   -0,318
447,857;12624,400;    2,240;   -1,773
448,445;12765,991;    2,149;    1,318
449,034;12997,394;    0,876;   -1,136
449,622;13150,408;    1,240;    3,500
450,210;12187,846;    3,149;    2,227
450,799;12810,584;    2,604;   -0,591
451,387;12780,825;    1,786;   -0,591
451,975;12348,121;   -1,305;    0,864
452,563;12431,463;    0,422;    2,318
453,151;12506,608;   -1,032;   -1,227
453,739;12387,892;   -1,577;    0,136
454,328;12199,305;    0,604;   -2,136
454,916;11837,026;    1,150;   -0,136
455,504;12060,572;    3,513;    1,227
456,092;12297,147;    2,150;   -1,591
456,679;12293,519;    0,604;    0,682
457,267;12091,807;    3,604;    1,045
457,855;12324,854;    3,241;    1,409
458,443;12138,927;   -0,304;    1,682
459,031;12210,166;    1,332;    2,409
459,619;12747,761;   -3,577;    2,864
460,206;12930,562;   -0,759;    2,045
460,794;12986,072;   -0,668;   -0,227
461,382;13280,722;    0,878;   -0,864
461,970;12782,197;    0,605;    1,864
462,557;12823,567;    0,878;   -0,682
463,145;13055,828;   -0,304;   -1,682
463,732;13197,653;    2,514;   -1,045
464,320;13186,307;    1,514;   -3,045
464,907;12733,324;    0,423;   -0,773
465,495;12626,890;    2,696;   -1,227
466,082;12793,299;    2,060;   -0,045
466,670;12700,811;    2,605;    1,227
467,257;13150,500;    0,060;    2,045
467,844;13332,393;    1,514;    0,045
468,432;13358,849;   -0,031;    3,500
469,019;12836,309;    1,606;   -1,773
469,606;13302,497;    0,969;    3,682
470,193;13058,981;    2,151;    0,227
470,780;12550,074;    0,333;    0,864
471,368;12966,277;   -1,212;   -0,773
471,955;12717,057;    1,060;   -0,682
472,542;12306,012;   -0,303;   -1,136
473,129;12604,290;   -0,485;    0,136
473,716;12290,517;    0,060;    0,591
474,303;12515,910;    1,333;   -0,864
474,890;12850,532;    2,333;   -0,500
475,477;12798,957;   -0,576;    0,409
476,064;12731,284;    0,697;   -1,591
476,650;12682,637;    2,152;    0,318
477,237;12529,182;    1,879;    0,955
477,824;12735,577;    3,879;    0,864
478,411;12773,246;    0,606;   -0,318
478,997;12981,032;    0,606;   -0,773
479,584;13061,521;   -0,666;   -0,409
480,171;13847,711;    1,243;   -0,773
480,757;13470,954;   -0,848;    0,773
481,344;13826,341;    0,334;    0,409
481,931;13319,384;   -0,393;    1,045
482,517;14410,984;    0,425;    0,318
483,104;15107,940;    1,334;    2,864
483,690;15559,711;    0,243;    0,045
484,276;16003,336;    0,698;    0,227
484,863;15773,603;    2,152;    1,136
485,449;16481,686;    0,152;    0,318
486,035;16472,506;   -0,666;   -0,136
486,622;16945,840;   -2,393;    0,045
487,208;16877,825;    1,334;    1,500
487,794;16743,043;    0,971;    0,318
488,380;16863,340;    0,698;   -1,409
488,967;16937,994;   -1,120;   -0,409
489,553;16983,071;   -1,029;   -1,409
490,139;17105,337;    0,971;    0,773
490,725;16565,318;    0,789;   -0,227
491,311;15987,211;    1,516;    3,045
491,897;15095,073;   -0,665;    1,500
492,483;14829,041;    0,426;    1,227
493,069;14468,368;    5,426;    0,864
493,655;14492,950;    1,789;    0,682
494,241;14405,115;    1,517;   -0,955
494,826;14847,784;    0,335;   -1,045
495,412;14254,819;    0,335;   -0,682
495,998;14443,191;    0,971;   -0,318
496,584;14624,220;    2,244;    1,045
497,169;14563,434;    2,335;   -0,682
497,755;14557,009;    1,244;    1,227
498,341;15114,329;    2,153;    0,318
498,926;14632,252;    2,881;    1,955
499,512;14894,335;   -0,028;    2,955
500,097;15086,391;   -0,574;   -0,318
500,683;15000,763;   -0,028;    2,136
501,268;15409,282;    1,881;   -0,955
501,854;15067,238;   -0,119;    1,227
502,439;14991,551;   -0,573;   -1,773
503,024;15231,318;    1,608;    0,500
503,610;15272,946;    1,335;   -0,682
504,195;15370,413;    1,245;    1,955
504,780;15441,430;    2,335;    1,227
505,366;15219,344;    4,063;    2,864
505,951;14940,149;   -1,119;    1,045
506,536;14924,643;    1,427;   -3,682
507,121;14940,050;    1,699;   -0,318
507,706;15513,548;   -0,392;    1,045
508,291;15949,072;   -2,937;    1,136
508,876;15375,810;   -0,482;    2,591
509,461;14799,779;    1,427;   -0,773
510,046;15247,302;   -0,391;    0,318
510,631;15458,512;   -0,119;   -0,773
511,216;15133,678;   -0,664;   -0,500
511,801;15499,287;   -0,755;    2,591
512,386;15821,865;    0,972;    0,500
512,971;15798,268;    0,427;    0,955
513,555;15316,868;    1,154;   -1,500
514,140;16179,368;    1,336;   -3,136
514,725;16207,704;    1,791;   -1,136
515,309;16303,253;    1,064;    0,318
515,894;15719,749;   -0,300;   -2,227
516,479;16165,984;    1,973;   -0,955
517,063;16032,855;    0,882;    1,227
517,648;16180,821;    0,155;   -1,136
518,232;15831,018;   -1,300;   -1,409
518,817;16136,193;    1,337;    1,682
519,401;16386,072;    0,700;    0,591
519,985;15817,593;    2,700;    1,136
520,570;15715,251;   -0,118;   -1,955
521,154;16017,509;    0,064;    0,591
521,738;16218,913;    1,064;    2,409
522,323;16855,422;   -0,390;    1,682
522,907;16596,652;    2,428;   -0,136
523,491;16277,150;    1,155;    0,955
524,075;16243,144;    0,428;    0,591
524,659;16347,752;    0,973;    0,591
525,243;15697,663;    0,883;    0,409
525,827;15992,941;    0,883;   -0,045
526,411;16967,116;    1,155;   -0,136
526,995;17207,225;    0,337;    1,409
527,579;16730,667;    1,974;   -1,045
528,163;17048,933;    0,428;   -1,500
528,747;17005,498;    1,065;   -0,773
529,331;17343,461;    0,883;   -1,409
529,915;17555,997;    2,338;    0,955
530,499;17477,780;    0,247;    1,227
531,082;17181,729;    1,065;    1,591
531,666;16605,707;    0,520;    0,773
532,250;17343,582;    0,428;    2,682
532,833;17724,327;    0,610;    2,773
533,417;17628,755;    1,247;    0,864
534,001;17556,882;    0,429;   -0,318
534,584;18343,220;    1,974;    0,500
535,168;18195,282;    3,247;    1,409
535,751;18209,575;    4,520;    0,045
536,334;17609,886;    4,520;   -0,409
536,918;18297,605;    1,974;    1,591
537,501;18385,080;    1,520;    1,318
538,085;18373,181;    1,702;    1,045
538,668;18574,538;    0,883;    2,409
539,251;18942,532;    3,156;    3,773
539,834;18935,656;    0,156;    0,773
540,418;18844,368;    3,247;    4,318
541,001;19029,126;    2,702;    1,773
541,584;19046,587;    1,429;    2,227
542,167;18693,006;    0,702;    2,955
542,750;18905,353;    0,793;   -0,773
543,333;18481,794;    1,429;    2,136
543,916;19314,330;   -0,298;    2,500
544,499;20011,802;    2,520;    0,227
545,082;20003,538;    0,248;    3,591
545,665;20158,458;   -0,207;    1,500
546,248;20556,885;    0,520;   -0,318
546,830;20191,414;   -1,752;    1,955
547,413;20610,619;    0,157;   -0,773
547,996;21211,044;    0,157;    0,500
548,579;20979,073;   -0,843;    0,955
549,161;20831,081;    0,884;    2,682
549,744;20603,018;    0,612;    0,409
550,326;21154,411;    0,885;   -1,136
550,909;20850,486;    2,339;    0,591
551,492;21274,688;    0,521;    0,227
552,074;21026,092;   -0,024;   -1,318
552,657;21597,798;    2,430;    0,045
553,239;21381,325;   -3,024;   -0,773
553,821;21303,582;   -1,570;    1,045
554,404;20769,567;   -0,024;    1,136
554,986;21161,558;    2,248;    1,045
555,568;21816,176;    0,430;   -0,955
556,151;20946,169;    4,067;   -0,227
556,733;21178,577;   -1,388;   -0,864
557,315;21708,856;    4,703;    0,500
557,897;21504,673;    0,521;   -0,500
558,479;21663,555;    1,703;    1,318
559,061;21812,351;    1,067;   -0,864
559,643;22111,296;   -0,297;    0,045
560,225;22536,002;   -0,388;    2,864
560,807;22628,841;    0,340;    0,318
561,389;22072,984;   -1,206;    2,318
561,971;22849,714;   -0,660;    2,136
562,553;22649,310;    0,613;    1,591
563,135;22824,847;    1,249;    1,136
563,717;22437,434;    3,158;    1,136
564,298;23205,613;    3,976;   -0,045
564,880;22862,107;    0,340;   -1,409
565,462;23083,289;    1,977;    1,318
566,043;24387,576;   -0,933;    2,318
566,625;23937,925;    4,067;    1,227
567,207;23842,639;    0,704;    1,682
567,788;25126,075;   -0,114;    1,500
568,370;26040,946;   -1,841;   -0,500
568,951;25908,686;   -0,569;    0,227
569,533;26925,784;    0,977;   -0,500
570,114;27479,104;   -0,296;    0,682
570,695;27989,212;   -0,478;   -1,318
571,277;28694,749;   -0,205;   -1,682
571,858;29543,912;    2,704;   -1,136
572,439;30653,599;    0,795;   -1,045
573,021;30877,489;    0,432;   -2,773
573,602;31464,302;    1,795;    0,318
574,183;32478,363;   -0,114;    2,227
574,764;32764,648;    2,068;    0,409
575,345;33434,807;    0,250;   -0,136
575,926;34122,356;    2,704;    0,136
576,507;34207,378;    2,704;   -0,227
577,088;35380,161;    1,704;    1,682
577,669;35467,218;    1,704;    1,955
578,250;36304,545;   -0,750;   -1,045
578,831;37108,728;   -0,841;   -2,227
579,412;37453,667;   -1,205;    0,955
579,993;38477,311;    1,432;    0,227
580,573;38763,452;   -0,023;   -0,955
581,154;37704,632;    1,613;   -0,591
581,735;38634,442;    0,341;    0,773
582,315;38125,442;    0,523;    2,136
582,896;38520,467;   -1,750;    1,227
583,477;37946,904;    0,614;    1,227
584,057;38079,003;    1,159;    0,955
584,638;38324,766;   -2,750;    2,318
585,218;38319,065;    2,886;    2,682
585,799;38481,803;    1,977;   -0,227
586,379;38422,525;    1,250;    1,591
586,959;37022,070;    2,613;    0,318
587,540;36263,306;    0,432;    2,227
588,120;35641,381;   -1,113;   -0,045
588,700;34453,176;    2,977;    2,136
589,281;34775,290;    1,250;   -0,955
589,861;34716,230;   -0,296;   -1,682
590,441;34479,774;   -1,477;   -2,682
591,021;33340,297;    1,432;   -2,591
591,601;33521,641;    0,431;    0,500
592,181;33465,891;   -1,296;   -0,773
592,761;32701,004;    2,250;    1,409
593,341;32550,838;    1,522;    0,045
593,921;32536,853;   -0,569;    1,591
594,501;32367,923;    1,250;    1,318
595,081;32197,132;    0,522;   -0,318
595,661;32536,438;    1,068;    0,955
596,240;33129,585;   -1,023;    0,136
596,820;32760,528;    2,613;    1,955
597,400;32978,066;    1,977;    0,773
597,980;33209,687;   -0,750;    1,045
598,559;33213,205;    0,341;   -0,227
599,139;32905,927;   -0,750;   -1,227
599,718;32838,200;    0,795;   -0,409
600,298;33133,785;   -2,387;    0,682
600,877;33300,366;    4,795;    1,409
601,457;33545,582;    0,340;    1,136
602,036;33432,990;    1,795;    2,045
602,616;33686,945;    2,250;    1,682
603,195;34045,386;    0,431;    3,500
603,774;33569,892;   -0,296;    2,045
604,354;33459,795;    2,522;   -0,500
604,933;32904,870;    0,250;    1,864
605,512;33012,803;    2,340;    0,591
606,091;32978,159;    1,886;    3,773
606,671;33845,379;    0,249;    0,773
607,250;32857,772;    1,431;    3,136
607,829;33113,440;    1,158;    3,227
608,408;32978,458;    4,613;    2,591
608,987;31919,193;    2,704;    3,409
609,566;32247,725;    0,341;   -2,500
610,145;32282,761;    2,885;    0,682
610,723;32705,672;    1,613;    6,864
611,302;31912,973;    1,067;    1,682
611,881;31317,815;    5,158;   11,227
612,460;32192,641;    0,795;    3,955
613,039;32650,115;    1,703;    2,045
613,617;31306,169;    0,886;    4,773
614,196;31501,131;    1,613;    1,227
614,775;31848,688;    1,249;    2,409
615,353;31835,858;   -1,660;    0,864
615,932;31459,411;    0,249;    2,409
616,510;32052,855;    0,158;    0,591
617,089;31482,874;    8,794;   17,591
617,667;31201,880;    4,885;    6,136
618,246;30998,106;   -1,115;    1,318
618,824;31165,583;    1,612;   -0,955
619,402;30745,416;    0,431;   -1,773
619,981;31277,137;    1,067;   -1,045
620,559;31101,972;    0,794;    1,682
621,137;30579,660;    3,067;    1,864
621,715;30504,208;    3,703;   -0,682
622,293;30435,065;    1,885;   -0,773
622,871;30885,675;    0,340;    0,500
623,450;30432,797;    0,430;   -0,864
624,028;30341,266;   -0,388;   -0,955
624,606;29954,415;    2,339;    1,682
625,183;30358,996;   -0,661;   -1,136
625,761;29944,164;    1,885;    1,136
626,339;30243,452;    2,339;    2,591
626,917;30646,770;    0,339;   -0,045
627,495;30708,757;    2,794;    1,318
628,073;30071,485;    5,248;    2,864
628,650;29738,069;    3,067;    2,136
629,228;30182,502;    1,248;    4,409
629,806;29453,007;   -0,024;    1,136
630,383;29776,545;    0,066;   -0,318
630,961;29467,587;   -2,206;   -0,955
631,539;29195,844;   -2,479;    0,227
632,116;28398,224;   12,703;   15,409
632,694;29098,392;    4,885;    6,500
633,271;29368,965;    1,975;    2,682
633,848;29271,713;    1,430;    2,045
634,426;29359,422;    1,521;    1,773
635,003;28475,141;   -0,207;   -0,409
635,580;28722,356;    1,884;    3,682
636,158;29292,906;    3,793;    1,227
636,735;29297,728;    3,339;   -0,500
637,312;29443,568;    0,521;   -0,682
637,889;29526,861;    2,248;   -0,682
638,466;28949,269;    0,066;   -0,409
639,043;29009,795;    1,702;   -1,136
639,620;29335,019;    0,611;   -0,955
640,197;29695,101;    1,612;    1,682
640,774;29800,546;    1,430;    1,136
641,351;30266,172;    0,612;    1,136
641,928;29559,254;    2,794;    1,409
642,505;29167,517;    0,794;   -0,500
643,082;29293,507;    1,885;    1,227
643,658;28244,770;    1,157;    1,500
644,235;29072,397;   -2,479;    2,500
644,812;29309,296;    1,794;    0,773
645,388;29032,196;    1,612;    1,409
645,965;29146,186;    1,521;    1,682
646,542;29237,176;    3,430;   -0,227
647,118;29232,530;    3,703;   -0,955
647,695;29581,884;    0,339;    1,136
648,271;29441,875;   -2,115;    0,500
648,848;29772,319;    0,248;    2,227
649,424;29577,673;    0,976;    1,318
650,000;29298,846;   -0,388;   -1,045
650,577;29145,836;    0,158;   -0,955
651,153;29632,554;   -1,115;    0,955
651,729;30640,544;    0,521;    0,864
652,305;31039,171;    1,339;    2,773
652,881;36364,797;   -1,297;    1,136
653,458;44509,151;    0,249;    0,227
654,034;49244,869;    0,703;    1,591
654,610;51117,132;    0,339;    0,773
655,186;52647,122;    1,612;    3,045
655,762;52384,113;   -1,842;    0,409
656,338;52411,285;    0,703;    0,136
656,913;53526,639;   -0,297;    0,409
657,489;52779,902;    0,249;   -0,318
658,065;52644,438;    0,794;   -1,591
658,641;53216,337;    2,158;   -0,864
659,217;52518,145;    2,067;    0,409
659,792;51886,227;   -1,751;   -0,409
660,368;52209,490;   -0,388;   -0,682
660,944;51684,844;    1,794;    1,227
661,519;46294,470;    0,522;    0,409
662,095;38928,006;   -0,206;    0,591
662,670;33288,087;   -0,206;   -0,136
663,246;31830,441;   -0,660;   -0,409
663,821;30975,159;    0,431;    1,682
664,396;30449,786;    0,613;    1,864
664,972;30743,412;   -0,660;   -0,500
665,547;31055,312;    3,794;    0,136
666,122;31089,211;    1,340;    0,318
666,698;31365,929;    2,431;    0,318
667,273;30693,283;    0,885;    0,136
667,848;31486,728;    0,340;    1,500
668,423;31250,809;    1,795;    2,318
668,998;31865,708;    0,976;   -0,682
669,573;32474,517;    2,067;   -1,500
670,148;32280,235;    1,885;   -0,682
670,723;32102,225;   -0,024;    0,318
671,298;32590,852;   -1,296;    1,045
671,873;32745,751;   -0,296;   -0,136
672,448;32619,196;    1,704;    0,136
673,023;32999,913;    0,249;   -0,227
673,597;33371,995;    2,704;    2,318
674,172;33090,440;    2,431;    0,318
674,747;32597,157;   -0,205;   -1,045
675,321;32496,148;   -0,933;    3,318
675,896;32002,411;    2,158;    1,045
676,471;33047,946;    2,522;    1,591
677,045;32823,391;   -0,296;    0,682
677,620;32841,018;    2,158;    1,136
678,194;33113,645;    0,249;    1,136
678,769;32721,180;    0,886;   -0,318
679,343;32948,807;   -0,023;    1,773
679,917;32740,707;    0,340;    1,955
680,492;32900,606;    0,249;    3,227
681,066;33148,051;    0,613;    0,409
681,640;33137,405;    1,795;   -0,318
682,214;33948,941;    2,340;    0,500
682,788;33406,386;    0,613;   -0,773
683,363;33358,467;    1,977;    1,682
683,937;33095,457;    0,886;   -0,318
684,511;33916,720;   -1,023;   -0,591
685,085;33652,983;   -1,478;    0,318
685,659;33353,064;    1,431;    0,864
686,232;33573,600;    1,159;   -0,318
686,806;33322,045;    2,159;    0,409
687,380;34029,581;   -1,932;    0,591
687,954;34228,480;    2,432;    1,136
688,528;33863,198;    2,613;    1,955
689,101;34652,006;    0,432;    1,045
689,675;34228,451;    0,886;   -0,136
690,249;33589,623;    3,432;    0,409
690,822;33930,068;    1,159;    0,318
691,396;33981,150;    2,068;    1,227
691,969;33383,322;    2,523;    0,136
692,543;33934,221;   -0,568;   -1,955
693,116;33539,757;   -0,659;   -1,409
693,690;33351,656;   -0,296;    0,500
694,263;33886,738;    2,341;    2,955
694,836;33957,001;    2,795;    3,591
695,410;32514,173;    1,159;    1,773
695,983;33032,709;    1,614;    0,591
696,556;33063,972;   -0,750;   -1,045
697,129;33477,326;   -1,114;    1,409
697,703;33027,134;    1,341;    1,955
698,276;33047,306;    1,705;   -0,773
698,849;32785,751;   -1,023;    1,409
699,422;33154,923;    1,250;    0,591
699,995;32814,459;   -0,659;    0,136
700,568;33354,631;   -0,204;    3,045
701,140;33331,985;   -1,841;    1,682
701,713;33096,248;    0,341;    2,409
702,286;32825,148;    0,796;    0,864
702,859;32698,320;    0,614;   -0,591
703,432;31805,856;   -0,841;    0,682
704,004;32311,664;    1,978;    0,318
704,577;32222,473;    1,068;    0,136
705,150;32827,281;    0,887;    2,500
705,722;32654,362;    1,523;   -3,227
706,295;32387,989;    1,432;   -0,591
706,867;32218,616;    0,250;    1,955
707,440;32413,515;   -0,113;   -0,409
708,012;32672,597;   -0,022;    0,591
708,584;32552,951;    2,705;    0,227
709,157;32863,668;    1,160;   -0,591
709,729;32511,568;    1,069;    2,045
710,301;33393,740;   -1,204;    0,045
710,874;33332,185;    0,341;   -0,227
711,446;32218,720;   -0,295;    0,864
712,018;32139,529;   -3,022;    0,500
712,590;31792,246;   -0,204;    1,682
713,162;32357,237;   -0,477;    1,318
713,734;32621,682;    1,796;   -2,045
714,306;32507,672;    0,342;   -0,409
714,878;31132,571;   -0,295;    0,864
715,450;31946,016;   -0,113;    0,864
716,022;32228,734;    2,433;    1,318
716,593;32429,997;    0,978;    0,591
717,165;32336,624;    1,796;   -1,227
717,737;32029,887;    0,796;    0,409
718,309;31701,877;    1,160;   -0,045
718,880;31635,958;   -1,295;   -1,409
719,452;31880,221;    0,887;   -1,591
720,024;31461,848;    1,705;   -0,591
720,595;31969,111;    2,978;    0,955
721,167;31430,920;    1,160;   -2,045
721,738;30987,365;    2,069;   -1,045
722,309;30889,173;    1,251;   -1,227
722,881;30699,254;    2,705;    0,773
723,452;31420,790;    1,251;    2,864
724,023;31532,780;    1,524;    2,682
724,595;31294,225;    2,342;    0,682
725,166;31027,125;    1,524;   -0,409
725,737;30652,297;    1,887;    0,227
726,308;30741,469;    0,797;    0,318
726,879;31193,550;    1,069;    1,227
727,450;31080,450;   -2,022;   -0,045
728,021;31003,349;    1,069;    0,682
728,592;30817,339;    1,160;    0,500
729,163;31142,784;    1,433;   -0,136
729,734;31154,956;    2,160;   -0,227
730,305;31498,220;    0,615;    0,136
730,876;31871,664;    0,888;    2,955
731,447;31610,927;    0,797;    2,682
732,017;31680,918;   -0,840;    1,864
732,588;31188,635;   -0,021;    1,227
733,159;31435,080;    3,615;   -1,045
733,729;31193,162;    1,251;    0,409
734,300;30453,970;    0,160;    0,864
734,870;30915,142;   -1,385;    0,591
735,441;31506,405;    0,888;   -0,591
736,011;31226,577;    1,070;   -1,591
736,582;31179,477;    1,251;    0,045
737,152;30643,285;    0,979;   -2,045
737,722;31111,003;    1,070;   -0,682
738,293;30787,539;   -2,021;    1,318
738,863;30645,802;    1,797;    2,318
739,433;30435,338;    4,524;    0,318
740,003;31117,146;    1,524;   -0,682
740,573;30454,227;    2,252;   -1,591
741,143;30370,763;    3,615;    0,318
741,713;31136,208;    0,252;   -0,500
742,283;30778,380;    1,706;    1,591
742,853;30583,916;    0,524;    1,591
743,423;29967,088;    0,161;    0,045
743,993;30088,442;    1,070;    1,500
744,563;29436,705;    2,524;   -0,864
745,133;29391,150;   -0,112;   -0,864
745,702;30149,777;    2,797;    1,773
746,272;29268,676;    0,434;    0,591
746,842;29047,030;   -0,748;   -0,591
747,411;29524,566;   -0,839;   -0,318
747,981;29684,556;   -0,930;    0,500
748,551;29729,547;   -0,021;   -1,045
749,120;29559,719;   -0,112;   -0,227
749,690;29987,255;    2,161;    2,409
750,259;30292,063;    0,979;    2,955
750,828;30201,872;    4,070;   -1,955
751,398;30498,680;   -0,112;   -0,045
751,967;29938,216;    2,888;    0,409
752,536;30135,570;    1,161;   -0,227
753,105;30641,833;   -1,384;    0,227
753,675;30409,187;   -0,112;    1,773
754,244;30352,723;    0,888;    3,591
754,813;30432,531;    0,979;    1,227
755,382;30049,249;    0,798;    0,955
755,951;30580,330;   -0,112;    3,682
756,520;30073,320;    2,525;    1,864
757,089;30638,856;    1,888;    0,500
757,658;30813,846;    2,434;    1,227
758,227;30847,564;   -1,111;    0,318
758,795;31189,282;   -1,021;    1,136
759,364;31398,363;    0,525;   -0,591
759,933;30408,808;    1,343;   -0,045
760,501;29936,616;    0,252;   -1,318
761,070;30381,698;   -0,293;   -1,409
761,639;31123,870;    1,434;    1,318
762,207;30380,042;    0,889;   -0,955
762,776;30333,487;    2,889;    0,864
763,344;30257,295;    0,071;    0,591
763,913;29362,831;    1,616;    1,409
764,481;30086,549;    1,980;   -0,136
765,049;29843,266;    0,616;    1,409
765,618;29680,438;    1,434;    0,318
766,186;29793,883;    2,434;    0,136
766,754;29969,055;    1,798;    1,864
767,322;28868,864;    1,162;    0,409
767,890;28965,127;    0,525;   -1,773
768,459;29359,117;    2,616;   -0,318
769,027;29545,653;    2,525;    3,409
769,595;28524,553;    2,616;    2,591
770,163;28877,907;    3,344;    2,955
770,730;28629,170;    2,525;   -0,136
771,298;28499,614;    1,162;   -1,409
771,866;28577,878;    0,253;    4,955
772,434;28895,777;    1,162;   -1,864
773,002;29052,767;    2,616;    0,682
773,569;28676,303;    1,071;    1,682
774,137;28535,021;    0,889;   -0,045
774,705;29352,556;   -0,747;   -0,136
775,272;28770,365;    0,253;    0,682
775,840;28490,264;   -0,111;    2,682
776,407;27994,255;   -0,293;    1,955
776,975;27602,881;    1,162;    0,318
777,542;28577,781;    2,162;   -0,045
778,110;28424,135;    0,707;   -0,045
778,677;28121,762;    1,071;   -0,864
779,244;27829,388;   -1,020;    1,045
779,812;27968,197;    0,980;    0,864
780,379;27776,823;    2,435;    1,136
780,946;28043,632;    2,617;   -0,773
781,513;28330,804;   -0,565;    0,318
782,080;27678,431;    1,253;    2,864
782,647;28467,785;    1,708;    3,045
783,214;28012,957;   -0,201;    3,864
783,781;27592,947;    1,708;   -0,682
784,348;27499,392;    0,253;    1,500
784,915;27984,292;   -1,474;    0,318
785,482;27712,827;    2,708;    2,591
786,049;28175,545;    1,071;   -0,591
786,615;28321,990;    1,708;   -0,955
787,182;28049,071;   -3,201;   -0,682
787,749;27732,880;   -2,201;    1,409
788,315;26976,961;    0,253;   -0,409
788,882;27263,042;    0,981;   -1,227
789,448;28005,760;    1,435;   -0,955
790,015;28028,568;    1,799;    3,227
790,581;27569,740;    0,708;    0,227
791,148;27420,276;    1,344;    1,045
791,714;27692,994;   -1,019;    3,136
792,280;27390,620;    3,708;    1,591
792,847;26918,520;   -0,928;    2,500
793,413;27485,147;   -0,110;   -0,318
793,979;26989,773;    1,526;   -1,318
794,545;27013,400;    2,981;    2,682
795,111;26352,481;    2,435;    1,318
795,678;26568,472;    3,526;   -1,682
796,244;26203,916;    2,799;    0,136
796,810;26815,270;    0,799;    0,773
797,375;26477,624;   -0,292;   -2,136
797,941;26551,160;   -1,110;    0,591
798,507;26654,696;    0,254;   -0,955
799,073;26160,323;    2,708;    0,591
799,639;26189,949;    1,435;    3,136
800,205;26276,031;   -1,565;    2,682
800,770;25794,657;    1,345;    1,773
801,336;25777,829;    2,981;   -0,955
801,901;25421,911;    6,072;    3,136
802,467;26034,356;    0,526;    2,045
803,033;25322,346;   -0,019;    0,864
803,598;25572,518;    1,072;   -1,045
804,163;25616,690;    0,708;   -0,318
804,729;25518,862;   -0,110;    1,136
805,294;25922,853;    1,072;    2,227
805,859;25731,388;    0,890;   -0,409
806,425;25220,561;    3,890;    2,682
806,990;24899,824;    1,890;    4,318
807,555;25451,359;   -0,110;    2,591
808,120;25289,623;   -1,292;   -0,409
808,685;25331,704;    1,072;   -2,500
809,250;24848,330;    2,072;   -0,500
809,815;25177,139;   -0,201;    0,682
810,380;25716,766;    0,981;    1,591
810,945;26274,756;    2,890;    2,045
811,510;25419,201;   -0,200;    1,591
812,075;25124,737;    2,800;   -1,409
812,640;25106,636;    3,709;    1,409
813,204;25178,899;    2,163;   -0,227
813,769;25672,435;    0,254;   -0,045
814,334;25017,516;    0,527;    0,864
814,898;25035,325;    1,981;    0,591
815,463;24898,588;    0,981;   -0,773
816,027;24901,396;    1,345;   -2,318
816,592;24987,023;    2,163;   -2,045
817,156;24419,377;   -2,200;    1,136
817,721;24195,095;    0,982;    2,318
818,285;24151,630;    0,618;    1,500
818,849;24879,348;   -0,018;    1,682
819,414;24752,429;    0,073;    2,955
819,978;24275,692;   -0,291;    1,773
820,542;24895,319;    2,891;    0,500
821,106;24641,400;    2,800;    0,682
821,670;24739,209;    2,709;    2,591
822,234;24396,835;    1,073;    1,409
822,798;23765,644;   -0,836;    0,500
823,362;23667,543;    1,527;    4,227
823,926;22914,443;   -0,018;    1,136
824,490;23221,888;    3,527;   -0,682
825,054;23658,696;    2,527;   -1,136
825,618;23252,777;   -1,200;   -1,500
826,181;23203,677;    0,982;   -1,318
826,745;23047,031;   -0,745;   -1,045
827,309;23402,657;    2,255;    1,318
827,872;22850,375;    0,527;    0,955
828,436;23847,002;    1,982;   -0,773
828,999;23896,083;    2,436;    1,227
829,563;22659,710;   -0,654;    1,136
830,126;22431,700;   -0,018;   -0,591
830,690;22472,599;    0,709;    2,864
831,253;21983,044;   -0,473;    2,227
831,816;22122,671;   -0,018;    0,500
832,380;22006,298;    1,164;    0,864
832,943;22185,561;    3,073;   -0,500
833,506;21732,097;    0,255;   -1,227
834,069;22516,814;    2,164;   -0,955
834,632;22542,532;   -2,200;    1,318
835,195;22440,977;    1,346;    0,955
835,758;21605,694;    0,709;    1,955
836,321;21416,412;    1,073;   -1,045
836,884;21520,584;   -1,291;   -0,955
837,447;21575,756;    0,528;    1,773
838,010;21820,383;    1,800;    3,227
838,573;22147,919;    0,528;    0,773
839,135;22067,727;   -0,109;   -0,955
839,698;21452,263;    2,528;    0,409
840,261;20977,072;    0,255;   -0,227
840,823;20784,880;   -0,927;    0,864
841,386;21084,325;   -0,018;   -2,409
841,948;20925,497;    0,255;    1,773
842,511;20702,851;    0,255;    1,682
843,073;20847,569;    2,982;    0,227
843,636;20679,832;    0,619;   -0,227
844,198;20535,004;    1,255;    0,591
844,760;20670,267;    0,619;    1,955
845,322;20290,985;    0,164;    1,136
845,885;20751,884;   -0,290;    0,591
846,447;21160,965;    0,710;    0,227
847,009;20698,592;    3,983;   -0,682
847,571;21090,764;    1,346;   -2,045
848,133;21138,754;   -0,199;   -1,864
848,695;20972,199;    2,346;    1,409
849,257;20509,735;    1,346;   -1,682
849,819;20673,998;    2,983;   -0,409
850,381;20792,716;    1,801;   -0,864
850,942;21160,524;    1,892;   -0,591
851,504;21072,515;    0,983;    0,227
852,066;21142,141;    1,619;   -1,591
852,628;20620,950;    0,165;    1,955
853,189;20213,758;    0,256;    2,682
853,751;20354,203;   -0,654;    1,409
854,312;20151,648;    1,256;   -1,682
854,874;20651,547;   -0,108;   -0,773
855,435;21181,083;    0,528;   -1,682
855,997;21317,710;    3,983;   -0,136
856,558;20512,337;    0,801;    1,773
857,119;20700,418;   -0,744;    2,864
857,681;20378,226;   -0,108;    0,318
858,242;20372,217;    1,347;   -2,136
858,803;20831,207;    1,074;   -0,773
859,364;21426,743;    0,892;   -4,773
859,925;20709,370;   -0,290;   -0,955
860,486;20589,542;    0,529;   -0,955
861,047;20285,259;    0,165;   -1,227
861,608;20104,704;    0,165;   -0,773
862,169;20255,876;   -0,562;   -0,045
862,730;20018,958;   -0,290;    1,409
863,291;20252,493;    0,438;   -0,500
863,852;20645,484;   -0,926;    1,955
864,412;20075,019;   -1,835;   -0,864
864,973;18578,283;    1,892;    0,500
865,534;18458,818;    2,074;    0,227
866,094;20015,990;    2,620;    0,227
866,655;19606,072;    4,711;    3,318
867,215;19894,426;    0,074;    0,136
867,776;19781,325;   -1,199;   -0,136
868,336;19874,861;    1,529;    0,136
868,897;19311,397;    3,438;    1,682
869,457;19018,842;    3,256;    0,318
870,017;19266,559;    2,438;   -1,227
870,578;19789,186;    1,893;    0,773
871,138;19460,176;    2,620;   -0,955
871,698;18974,076;   -0,562;   -1,318
872,258;18812,430;    0,711;   -2,864
872,818;19193,693;    2,347;    0,045
873,378;19170,319;   -2,198;    1,045
873,938;18718,855;    4,984;    0,500
874,498;19042,300;    1,256;   -1,955
875,058;18917,109;    4,347;    1,773
875,618;18762,644;    1,438;   -2,682
876,177;18656,544;   -0,471;    0,136
876,737;18252,170;   -0,289;    1,955
877,297;18254,979;    2,711;    1,955
877,856;18274,606;    2,529;    0,318
878,416;18166,960;    2,438;   -0,136
878,976;18430,950;    3,438;    0,409
879,535;18655,940;    4,529;    3,136
880,095;18359,749;    1,347;    0,045
880,654;18508,376;    0,347;    1,318
881,213;18540,366;    2,347;    1,500
881,773;18186,811;    1,984;    2,682
882,332;18546,074;    6,075;    5,136
882,891;18425,337;    0,711;    2,136
883,451;18873,509;   -2,016;    1,682
884,010;18352,954;   -1,107;   -0,409
884,569;18426,035;   -2,289;   -0,045
885,128;18537,935;   -0,743;   -1,864
885,687;18611,107;   -0,743;    0,682
886,246;18288,097;    2,620;    2,136
886,805;18039,178;    1,620;    2,045
887,364;18387,714;    1,166;   -0,500
887,922;18704,886;   -0,016;    0,045
888,481;18208,058;    1,530;    0,591
889,040;18538,503;    3,711;    2,136
889,599;19268,675;    2,166;    1,409
890,157;19336,120;    2,166;    2,409
890,716;19007,383;    2,166;    0,227
891,274;18798,828;    0,075;   -1,136
891,833;19222,000;    1,166;    0,864
892,391;19080,354;    1,802;    0,500
892,950;19178,345;    0,166;   -0,773
893,508;19536,971;    0,984;   -0,409
894,067;18863,234;   -0,379;    0,136
894,625;18802,225;   -1,016;   -1,500
895,183;19013,124;   -0,198;   -0,682
895,741;18883,478;    2,257;   -1,773
896,299;18742,378;    1,621;   -2,409
896,858;18921,368;    1,530;   -1,591
897,416;19020,449;    0,166;   -1,318
897,974;18778,621;   -2,197;    0,318
898,532;18897,066;    6,530;    2,682
899,089;18821,147;    0,621;   -0,682
899,647;18880,956;    0,530;    1,318
900,205;18518,310;    0,257;    1,045
900,763;18763,028;    2,166;    0,227
901,321;18756,836;    3,530;   -1,409
901,878;18188,735;    3,257;   -0,773
902,436;17996,544;    0,257;    1,318
902,994;18421,443;    6,712;    3,682
903,551;17817,161;    1,439;    0,409
904,109;18277,788;    1,530;   -1,409
904,666;17841,142;    1,439;    1,045
905,224;17658,405;    3,894;   -0,409
905,781;17357,759;   -0,470;   -0,318
906,338;17425,022;    0,167;    1,045
906,895;17392,558;    1,894;    2,045
907,453;17282,002;    2,348;    1,136
908,010;17275,084;    3,348;    0,409
908,567;16914,801;   -0,561;    0,591
909,124;16430,883;    2,439;   -1,500
909,681;16497,964;   -1,288;    0,682
910,238;16637,136;   -0,106;   -1,318
910,795;16942,763;   -1,561;   -1,136
911,352;16560,217;   -0,379;   -2,682
911,909;15940,308;    2,803;   -0,864
912,466;16444,763;    1,985;    1,500
913,022;15973,217;   -0,924;    0,500
913,579;16361,672;   -0,470;    2,045
914,136;16032,308;   -2,561;    0,955
914,692;16341,308;    1,530;   -1,227
915,249;15919,944;    0,530;    0,409
915,806;16160,944;    1,803;    1,955
916,362;15816,217;    0,894;    1,864
916,918;15366,944;    2,439;    1,045
917,475;15393,672;    1,621;    0,955
918,031;15489,944;    0,076;   -0,045
918,587;14902,763;    0,621;   -0,318
919,144;15148,581;   -0,379;    0,227
919,700;15447,944;    0,167;    0,773
920,256;15008,672;    0,439;    0,045
920,812;14598,035;    1,439;   -1,045
921,368;14607,854;    1,348;   -1,045
921,924;14218,308;    0,439;   -0,136
922,480;13762,308;    0,076;    1,227
923,036;14412,854;   -0,652;    1,955
923,592;14337,854;    0,621;    0,318
924,148;14233,854;    1,894;   -0,955
924,704;13550,490;    0,258;   -0,409
925,259;13785,581;   -0,561;    0,591
925,815;13482,854;    3,803;    0,500
926,371;13053,308;    3,530;    1,409
926,926;12898,308;    1,621;    0,591
927,482;12480,126;    1,621;    0,773
928,037;12354,763;   -0,833;    2,045
928,593;12651,217;    0,258;    1,045
929,148;12434,126;    1,167;   -1,500
929,704;11937,854;    2,439;   -0,500
930,259;12106,763;    0,894;   -0,136
930,814;11123,672;    1,803;    1,955
931,369;10806,035;    0,258;   -0,773
931,925;10704,763;   -1,924;    0,136
932,480;10588,854;    3,076;   -2,591
933,035;10436,490;    3,985;   -0,318
933,590;10190,763;   -1,742;   -1,773
934,145; 9831,399;   -1,288;   -0,318
934,700;10165,854;    0,348;   -0,591
935,255; 9919,854;    4,803;    0,045
935,809; 9155,944;    6,258;    0,864
936,364; 8247,854;    2,167;   -0,136
936,919; 8190,672;    2,348;   -1,773
937,474; 8097,854;    1,348;    0,136
938,028; 7834,308;    3,076;    1,136
938,583; 7191,126;    6,348;    4,682
939,138; 7525,399;    0,167;    2,136
939,692; 6952,399;   -1,015;   -1,136
940,247; 6598,126;    1,167;   -1,045
940,801; 6115,763;    0,621;    0,227
941,355; 6016,490;    0,439;    2,591
941,910; 5650,763;    0,712;   -2,136
942,464; 5732,126;    2,712;   -0,318
943,018; 5481,308;    3,258;   -0,227
943,572; 5430,399;    2,803;   -0,682
944,126; 4783,035;   -0,924;   -0,409
944,681; 4648,581;    0,712;    0,227
945,235; 4650,581;    2,167;   -0,591
945,789; 4587,308;    1,258;   -1,864
946,342; 4650,035;   -0,561;   -0,591
946,896; 4485,763;    0,348;    0,955
947,450; 4232,490;   -0,561;   -0,227
948,004; 4403,854;    1,076;   -0,045
948,558; 4423,672;    1,258;   -0,864
949,111; 4329,308;   -1,197;   -0,318
949,665; 4334,490;   -0,106;   -0,682
950,219; 4186,490;    0,621;   -1,045
950,772; 4290,854;    0,258;    1,864
951,326; 4205,126;   -1,106;   -0,955
951,879; 4338,763;    1,076;   -2,318
952,433; 4339,490;    1,348;    2,227
952,986; 4170,581;    0,348;    0,682
953,539; 4095,854;    1,530;    0,591
954,093; 4038,944;    0,985;   -1,318
954,646; 4173,672;   -0,288;    1,318
955,199; 3984,217;    1,258;   -0,500
955,752; 3833,399;    1,985;    1,773
956,305; 3795,308;    0,894;    2,955
956,858; 3972,035;    0,621;   -0,318
957,411; 4168,490;    3,621;    2,136
957,964; 3973,854;    2,076;    2,136
958,517; 4001,035;    0,985;    3,136
959,070; 3824,308;   -1,197;    1,955
959,623; 3850,854;    1,076;    1,500
960,176; 3603,672;    0,712;    2,045
960,728; 3577,854;    1,712;    0,773
961,281; 3668,308;    2,258;    0,500
961,834; 3700,308;   -0,833;    0,864
962,386; 3607,490;    1,258;    1,045
962,939; 3535,308;    3,439;   -0,318
963,491; 3675,399;    2,621;    1,136
964,043; 3548,126;    0,076;    2,409
964,596; 3679,944;    1,712;    2,227
965,148; 3504,854;   -0,379;    1,773
965,700; 3439,672;   -0,015;   -0,227
966,253; 3589,126;   -0,833;    0,318
966,805; 3385,308;    1,894;    0,773
967,357; 3459,854;    0,439;   -1,500
967,909; 3374,854;    1,167;   -1,227
968,461; 3529,672;    0,894;    3,136
969,013; 3450,217;   -1,561;   -0,864
969,565; 3527,308;    1,803;   -1,136
970,117; 3559,581;    3,803;    1,045
970,669; 3414,035;    3,258;   -0,136
971,220; 3292,399;    2,167;   -1,500
971,772; 3200,035;    1,348;   -0,318
972,324; 3311,035;   -1,197;   -0,500
972,876; 3289,854;    0,167;   -0,045
973,427; 3392,126;   -1,197;   -1,045
973,979; 3374,035;    0,076;   -2,500
974,530; 3422,126;    0,803;    1,318
975,082; 3423,944;    2,167;    1,682
975,633; 3310,944;    2,894;    1,682
976,184; 3474,217;    2,076;    0,773
976,736; 3247,035;    0,348;    0,227
977,287; 3015,399;    0,258;   -0,500
977,838; 3202,126;   -0,924;   -0,318
978,389; 3254,126;    0,803;   -0,500
978,940; 3161,308;    1,258;   -0,409
979,491; 3195,217;    2,258;   -0,500
980,042; 3120,035;   -0,652;    3,045
980,593; 3198,399;    1,894;    0,227
981,144; 3226,672;    3,530;   -0,500
981,695; 3168,763;   -0,470;    1,500
982,246; 3139,854;   -1,833;    1,045
982,797; 3333,672;   -0,561;    0,682
983,347; 3456,672;    2,167;    0,591
983,898; 3586,308;    4,167;    0,409
984,449; 3398,399;    2,530;    0,773
984,999; 3344,490;    1,894;   -1,136
985,550; 3083,035;    3,167;   -0,318
986,100; 3147,490;    0,712;   -0,318
986,651; 3183,490;    0,258;    0,045
987,201; 3144,399;    0,894;   -0,591
987,751; 3256,581;   -0,288;    2,864
988,302; 3210,763;   -0,379;    1,500
988,852; 3216,126;    1,985;   -1,136
989,402; 3253,854;    0,985;    0,682
989,952; 3174,763;    1,621;    0,864
990,502; 3313,217;    1,076;    0,682
991,052; 3279,763;   -0,106;    0,045
991,602; 3129,490;    1,167;    1,318
992,152; 3115,035;    2,803;    0,682
992,702; 3098,035;    1,167;   -0,045
993,252; 3004,490;    0,076;   -0,500
993,802; 3074,399;    1,167;    1,318
994,352; 3356,035;   -0,742;    1,136
994,901; 3467,944;    1,076;    3,227
995,451; 3365,581;   -1,197;    0,318
996,000; 3474,217;    1,076;    0,318
996,550; 3145,035;    2,894;    0,227
997,100; 3152,763;   -0,561;   -0,045
997,649; 3450,944;   -0,197;    0,955
998,198; 3072,581;   -0,288;   -1,500
998,748; 3256,399;    0,348;   -2,318
999,297; 3161,854;    0,985;   -0,409
999,846; 3249,672;    1,894;   -0,773
1000,395; 3315,944;    1,530;    0,500
1000,945; 3225,581;    1,076;   -0,773
1001,494; 3302,399;    0,167;    0,682
1002,043; 3296,126;    0,712;    0,864
1002,592; 3146,490;    3,439;    1,955
1003,141; 3306,399;    2,439;   -0,682
1003,690; 3121,035;    1,258;    0,500
1004,238; 3210,308;   -0,106;   -0,045
1004,787; 2822,672;   -1,288;    1,227
1005,336; 3064,581;    1,621;    0,682
1005,885; 3235,944;   -0,197;   -2,773
1006,433; 3406,217;   -0,470;    0,955
1006,982; 3434,399;    2,167;    1,682
1007,531; 3366,399;    2,712;   -0,227
1008,079; 3321,126;    0,258;    0,500
1008,627; 3490,399;    1,621;    0,409
1009,176; 3197,581;    0,076;   -1,955
1009,724; 3244,035;   -2,742;    0,864
1010,273; 3270,672;    1,076;    0,500
1010,821; 3413,217;    1,076;    1,409
1011,369; 3145,763;    0,076;    1,318
1011,917; 3126,763;   -0,833;   -0,591
1012,465; 3421,581;    2,530;   -1,591
1013,013; 3558,854;    0,439;   -1,682
1013,561; 3373,581;   -1,288;   -0,773
1014,109; 3401,672;   -0,833;    1,682
1014,657; 3301,126;    1,348;    0,591
1015,205; 3446,490;    0,894;   -0,955
1015,753; 3479,126;    0,258;   -1,409
1016,301; 3511,581;    2,621;    3,045
1016,848; 3499,399;    2,167;    0,409
1017,396; 3553,581;    1,621;    0,045
1017,944; 3706,217;    2,621;    1,864
1018,491; 3461,944;   -0,197;    1,409
1019,039; 3594,308;   -0,652;    0,591
1019,586; 3523,581;    0,076;    1,682
1020,134; 3624,854;    0,712;    1,500
1020,681; 3618,672;    2,894;   -1,136
1021,228; 3643,217;   -0,561;   -2,227
1021,776; 3486,490;   -0,833;   -1,136
1022,323; 3682,035;    0,803;    0,773
1022,870; 3648,308;   -0,470;   -0,045
1023,417; 3526,308;    2,076;    1,864
1023,964; 3706,854;    0,621;    1,227
1024,511; 3503,035;   -0,652;    0,773
1025,058; 3292,944;    0,439;   -0,045
1025,605; 3337,944;   -1,742;    3,136
1026,152; 3548,944;   -0,106;   -0,591
1026,699; 3296,854;    0,167;    1,318
1027,245; 3479,399;    2,439;    0,318
1027,792; 3735,035;    0,712;    1,409
1028,339; 3552,581;    4,076;   -0,045
1028,885; 3403,854;    3,621;   -0,227
1029,432; 3337,581;   -0,106;    0,227
1029,978; 3390,035;    1,348;   -1,591
1030,525; 3310,672;    1,621;    0,409
1031,071; 3596,854;    0,348;    1,136
1031,618; 3633,854;    1,258;    1,682
1032,164; 3430,944;    2,076;    3,045
1032,710; 3490,672;    0,076;   -1,500
1033,256; 3414,399;    0,712;   -0,136
1033,803; 3389,399;   -0,288;    1,500
1034,349; 3136,854;    1,803;    0,136
1034,895; 3311,854;    2,621;   -0,318
1035,441; 3250,672;    0,439;    0,318
1035,987; 3267,854;   -2,288;   -0,682
1036,533; 3266,035;   -0,197;   -0,955
1037,078; 3449,399;    4,712;    1,682
1037,624; 3273,399;    2,439;   -0,955
1038,170; 3302,126;    1,712;   -0,318
1038,716; 3185,217;    2,167;   -0,409
1039,261; 3114,763;    2,167;   -0,773
1039,807; 3056,672;   -0,015;    3,409
1040,352; 3099,399;   -1,288;   -0,318
1040,898; 3144,944;    0,167;   -0,682
1041,443; 3067,672;    0,803;   -2,591
1041,989; 3048,944;    3,621;    1,591
1042,534; 2949,308;    0,985;    2,591
1043,079; 3091,126;    1,985;    0,955
1043,625; 2843,126;    0,258;    0,500
1044,170; 2882,944;    2,439;    1,045
1044,715; 3135,399;    0,167;    0,955
1045,260; 2954,581;   -0,833;   -0,955
1045,805; 3017,672;    0,258;   -0,591
1046,350; 2978,763;    0,530;   -0,409
1046,895; 2890,581;    0,803;    1,591
1047,440; 2839,217;    1,530;    0,409
1047,985; 2763,217;   -1,197;   -0,955
1048,530; 2663,035;    1,348;    1,227
1049,074; 2742,399;    2,803;    0,318
1049,619; 2725,217;   -0,924;    1,955
1050,164; 2496,581;    1,076;    0,227
1050,708; 2535,672;    2,621;    0,045
1051,253; 2890,672;    3,258;   -2,227
1051,797; 2615,763;   -0,197;   -1,318
1052,342; 2661,308;    1,348;    1,045
1052,886; 2610,035;    1,803;   -1,409
1053,430; 2516,944;    2,167;    0,136
1053,975; 2543,854;    0,894;   -0,318
1054,519; 2507,490;    1,803;    3,227
1055,063; 2495,944;    3,621;    1,318
1055,607; 2364,399;    1,348;    0,227
1056,151; 2399,672;    0,530;    1,682
1056,695; 2336,217;   -1,833;   -1,136
1057,239; 2388,672;   -1,197;   -0,682
1057,783; 2392,763;    2,258;   -1,500
1058,327; 2341,672;    3,076;    1,409
1058,871; 2550,763;    3,985;    1,318
1059,415; 2249,490;   -0,561;   -0,045
1059,958; 2476,763;    2,985;    2,591
1060,502; 2223,035;    1,348;   -0,773
1061,046; 2143,854;    1,712;   -0,955
1061,589; 2130,308;    2,803;   -1,136
1062,133; 2005,854;    0,985;    1,864
1062,676; 1920,490;    1,439;    0,864
1063,220; 1921,490;    0,985;    0,500
1063,763; 1939,672;    2,985;    1,136
1064,306; 2016,217;    0,985;    1,864
1064,849; 1903,944;    2,076;    0,591
1065,393; 1909,763;    2,894;   -1,500
1065,936; 2037,490;    2,530;   -0,409
1066,479; 1931,944;    2,621;    1,318
1067,022; 1954,126;    1,894;   -0,227
1067,565; 1849,035;   -1,197;   -1,318
1068,108; 1888,217;    1,258;   -0,591
1068,651; 1862,763;   -2,470;    1,409
1069,194; 1785,763;   -1,106;   -1,682
1069,736; 1761,763;    3,803;    0,955
1070,279; 1744,763;   -1,652;   -0,500
1070,822; 1786,854;    1,530;   -0,318
1071,364; 1840,581;    0,530;    1,318
1071,907; 1668,126;    0,348;    3,227
1072,450; 1606,763;    0,258;   -0,045
1072,992; 1596,308;   -0,561;    3,136
1073,535; 1702,672;    0,167;    2,136
1074,077; 1519,399;    2,985;    2,045
1074,619; 1479,308;    0,985;    0,591
1075,161; 1503,490;   -0,561;    1,500
1075,704; 1680,672;    0,258;    1,227
1076,246; 1498,035;    1,530;    0,682
1076,788; 1413,217;   -1,015;    1,773
1077,330; 1505,581;   -2,106;    2,136
1077,872; 1461,126;   -1,924;    0,955
1078,414; 1665,035;    3,712;    0,773
1078,956; 1394,854;    0,167;   -0,227
1079,498; 1646,490;    0,439;    0,318
1080,040; 1341,944;    0,985;   -1,318
1080,581; 1301,308;    0,621;   -0,318
1081,123; 1237,217;   -0,106;   -0,773
1081,665; 1299,308;    3,803;   -0,955
1082,206; 1569,308;    3,258;   -0,500
1082,748; 1441,672;    3,258;    2,045
1083,289; 1327,944;    0,167;    1,318
1083,831; 1230,399;    0,258;    0,227
1084,372; 1246,035;    0,894;    0,591
1084,913; 1238,763;    3,348;    0,864
1085,455; 1236,763;    1,530;   -2,045
1085,996; 1176,399;    0,530;    0,136
1086,537; 1209,672;    0,985;    0,864
1087,078; 1241,490;    0,439;   -2,136
1087,619; 1261,490;   -1,652;    0,227
1088,160; 1188,854;    1,439;    1,318
1088,701; 1183,854;   -0,742;    0,682
1089,242; 1122,944;   -0,561;   -2,227
1089,783; 1208,490;   -0,561;    1,409
1090,324; 1176,035;   -0,833;    0,682
1090,865; 1067,035;   -1,924;   -0,409
1091,405; 1050,854;   -0,561;    2,227
1091,946; 1065,854;   -0,197;   -0,955
1092,487;  997,035;   -1,288;   -1,409
1093,027; 1151,672;    1,803;   -1,500
1093,568;  999,035;    2,258;    1,227
1094,108; 1066,490;    0,621;    1,773
1094,649; 1019,217;   -0,470;    0,136
1095,189;  966,581;    1,167;   -0,682
1095,729;  908,035;    0,712;    0,955
1096,269;  933,490;    1,258;   -0,955
1096,810; 1241,490;   -0,197;    0,500
1097,350; 1060,217;   -0,561;   -0,773
1097,890;  960,035;    2,985;    1,227
1098,430; 1203,399;    4,985;    2,864
1098,970; 1077,672;    1,894;    1,682
1099,510;  953,854;   -0,833;   -2,318
1100,050;  869,217;    0,258;   -1,591
1100,589;  836,944;    0,076;   -0,318
1101,129;  953,308;    0,894;   -0,955
1101,669; 1083,035;    2,803;    2,136
1102,209;  926,944;    1,530;    2,227
1102,748;  874,854;    3,439;    0,955
1103,288;  863,308;    0,712;   -1,227
1103,827;  891,490;    3,530;   -2,227
1104,367;  775,126;    1,712;   -2,409
1104,906;  736,126;   -1,015;   -1,136
1105,445;  806,217;    0,985;   -1,136
1105,985;  747,854;   -0,652;    1,500
1106,524;  792,035;    1,530;   -0,682
1107,063;  762,490;    1,167;    1,409
1107,602;  744,308;    1,894;   -1,500
1108,141;  674,035;    1,621;    1,500
1108,680;  761,581;    3,985;   -0,591
1109,219;  703,581;    0,167;   -0,500
1109,758;  697,399;    4,167;    0,682
1110,297;  673,672;   -1,106;   -0,682
1110,836;  625,399;    1,439;    0,955
1111,375;  778,581;    0,348;    0,409
1111,913;  793,217;    0,985;    0,773
1112,452;  737,217;    0,894;    0,136
1112,991;  625,944;    1,076;    1,955
1113,529;  582,944;    0,167;   -0,045
1114,068;  641,308;    0,439;    2,955
1114,606;  535,035;   -0,561;   -0,955
1115,144;  690,490;    1,530;    1,045
1115,683;  636,217;    1,985;    0,318
1116,221;  682,399;    2,076;   -0,864
1116,759;  610,399;    1,621;   -0,864
1117,297;  792,763;    1,621;    1,864
1117,836;  603,944;    1,985;   -1,227
1118,374;  608,308;    0,258;   -0,682
1118,912;  547,854;    0,439;    2,682
1119,450;  527,126;    0,985;    0,864
1119,988;  577,308;    3,348;    2,136
1120,525; 1030,672;    7,258;    3,318
1121,063;  716,035;    0,530;    1,864
1121,601;  526,944;    1,076;   -1,227
1122,139;  497,399;    1,076;   -2,045
1122,676;  685,944;   -1,652;    2,773
1123,214;  627,854;    0,712;    4,409
1123,751;  430,217;    0,621;    2,227
1124,289;  565,763;    0,894;   -0,409
1124,826;  444,672;   -0,379;    0,227
1125,364;  372,035;    0,712;   -0,955
1125,901;  550,672;    6,258;    1,227
1126,438;  651,944;    3,530;    0,955
1126,975;  382,490;    2,985;   -0,773
1127,513;  449,035;    2,621;    2,136
1128,050;  363,854;   -0,561;   -0,682
1128,587;  461,035;    1,348;   -0,227
1129,124;  498,763;   -0,015;    1,318
1129,661;  373,217;   -1,924;    0,227
1130,198;  524,399;    2,439;    0,773
1130,734;  472,672;   -0,379;    1,409
1131,271;  342,308;   -1,197;    0,864
1131,808;  498,399;    1,621;    3,045
1132,345;  367,035;    4,530;    0,318
1132,881;  263,854;   -0,561;   -1,864
1133,418;  395,217;    0,348;   -1,136
1133,954;  334,490;    0,712;   -2,682
1134,491;  399,399;    1,712;   -0,773
1135,027;  310,217;    2,167;    0,864
1135,564;  392,308;    1,439;    2,955
1136,100;  365,581;   -0,742;    2,136
1136,636;  267,490;   -1,015;   -1,045
1137,172;  354,672;    0,894;   -1,045
1137,708;  282,126;   -1,561;   -1,045
1138,245;  289,854;    0,803;   -1,227
1138,781;  251,217;    1,803;   -3,318
1139,317;  306,672;    1,894;   -1,409
1139,852;  294,490;    3,076;    0,136
1140,388;  403,944;    2,076;   -0,409
1140,924;  291,126;    1,076;   -2,227
1141,460;  230,581;   -0,288;    0,136
1141,996;  169,763;   -0,652;    2,682
1142,531;  213,581;    1,076;    3,318
1143,067;  414,035;    1,167;    1,045
1143,602;  461,399;    3,439;   -0,318
1144,138;  320,490;    0,803;    1,045
1144,673;  195,672;    1,621;    1,409
1145,209;  263,944;    2,894;   -0,318
1145,744;  189,217;    0,803;    0,864
1146,279;  309,581;    1,530;   -0,136
1146,815;  236,581;    1,530;   -2,682
1147,350;  267,035;   -0,924;    0,045
1147,885;  187,126;   -1,924;   -1,318
1148,420;  185,308;    2,439;    0,773
1148,955;  171,672;   -1,470;    1,864
1149,490;  190,581;   -1,106;   -1,591
1150,025;  178,217;   -1,106;   -1,773
1150,560;  283,581;   -0,288;   -0,955
1151,094;  252,944;    0,258;   -0,591
1151,629;  253,581;   -3,742;    0,864
1152,164;  185,126;   -1,288;    1,318
1152,698;  149,308;    1,258;   -0,136
1153,233;  110,854;   -1,379;   -0,682
1153,767;  146,581;   -0,288;   -2,318
1154,302;  191,308;   -0,379;    1,773
1154,836;  202,581;    0,803;   -2,136
1155,371;  246,944;    2,258;    3,682
1155,905;  198,217;    1,985;    1,682
1156,439;  166,490;    0,530;   -0,500
1156,973;  202,035;    0,439;    0,318
1157,507;  144,217;   -1,742;    0,682
1158,042;  166,399;   -0,652;    1,045
1158,576;  208,217;   -0,561;    1,773
1159,110;  203,490;    0,076;    2,409
1159,643;  172,854;   -2,470;   -0,045
1160,177;  114,672;   -2,015;    1,500

