
Integration time [ms]:   0,050
Averaging Nr. [scans]: 11
Smoothing Nr. [pixels]: 0
Data measured with spectrometer [name]: 7318044SP
Wave   ;Sample   ;Dark     ;Reference
[nm]   ;[counts] ;[counts] ;[counts] 

186,757;    9,368;   38,161;    1,318
187,357;   15,877;   26,706;    0,955
187,958;    8,089;   17,252;   -1,591
188,558;   22,351;   12,979;   -1,227
189,159;   13,811;   10,070;   -4,500
189,759;    4,618;    5,797;   -3,591
190,360;    7,445;    6,797;   -2,136
190,960;   20,623;    5,706;   -4,136
191,560;   26,096;    2,614;   -6,591
192,161;  129,521;    5,885;   -3,500
192,761;   69,315;    5,520;   -3,227
193,361;   44,253;    3,065;   -3,773
193,962;   62,792;    1,612;   -2,682
194,562;   25,706;   -0,114;   -3,955
195,162;   22,382;   -0,567;   -2,227
195,762;   85,231;    2,433;   -0,045
196,362;   56,329;    1,706;   -2,500
196,963;   19,834;    1,706;   -0,864
197,563;   43,450;    1,252;   -0,955
198,163;   19,649;   -0,111;   -0,682
198,763;   27,785;   -0,020;   -0,500
199,363;   50,080;    3,616;   -0,500
199,963;   36,887;    2,162;    0,409
200,563;   34,541;    6,344;   -1,409
201,163;   22,766;    5,435;   -0,227
201,763;   41,452;    1,435;    0,318
202,363;   29,887;    0,980;    1,500
202,963;   49,478;    1,526;    1,045
203,563;   87,299;    0,344;    0,500
204,162;   43,241;    1,889;   -1,864
204,762;   36,866;    2,071;    0,591
205,362;   30,906;    0,708;    1,955
205,962;   55,394;    3,435;    1,955
206,562;   48,289;    1,889;    2,318
207,161;   36,589;    1,708;    0,318
207,761;  105,383;    4,435;    2,409
208,361;   53,712;    1,889;    1,409
208,960;   72,708;    2,889;    1,500
209,560;   72,527;    0,435;    1,591
210,160;   87,230;    5,071;    1,864
210,759;   69,878;    0,708;    1,227
211,359;   56,195;   -0,474;    1,045
211,958;  165,800;    3,526;    2,045
212,558;  177,933;    0,799;    1,864
213,157;  111,767;   -0,929;    1,500
213,757;  281,062;    5,617;   -0,227
214,356;  149,570;    1,708;   -0,409
214,956;  285,421;    3,526;    0,409
215,555;  135,285;    0,617;    2,136
216,154;   96,833;   -0,292;   -0,591
216,754;   99,907;    1,253;    0,773
217,353;  132,187;   -0,383;   -1,045
217,952;   55,726;    2,072;    0,318
218,552;  165,916;    0,254;   -0,773
219,151;  112,926;   -1,110;    0,955
219,750;   98,178;    0,890;   -0,227
220,349;   94,955;   -2,292;    1,045
220,948;  191,342;    1,163;    1,136
221,548;  124,322;    0,617;    1,227
222,147;  166,829;   -1,292;   -0,409
222,746;  299,408;    1,254;   -0,955
223,345;  205,722;   -1,019;    0,500
223,944;  221,109;    1,163;    0,773
224,543;  241,276;    4,072;   -1,409
225,142;  250,792;    1,345;    0,136
225,741;  243,709;    1,163;    1,045
226,340;  229,662;    1,254;   -0,955
226,939;  364,904;    2,708;   -0,136
227,538;  237,687;    1,163;   -0,773
228,137;  385,381;    0,435;    0,864
228,735;  335,009;    0,435;    1,227
229,334;  209,629;   -0,474;   -0,227
229,933;  431,378;    0,799;    0,591
230,532;  456,371;   -1,201;   -0,409
231,131;  529,763;    1,253;    0,318
231,729;  409,519;    1,163;   -2,318
232,328;  348,219;    0,435;   -1,500
232,927;  364,529;    4,526;   -0,500
233,525;  346,966;    0,981;    0,045
234,124;  411,096;    1,890;   -1,591
234,723;  335,070;    1,617;   -1,045
235,321;  334,471;    1,163;    0,136
235,920;  395,982;    2,526;   -1,227
236,518;  580,837;    1,072;    0,318
237,117;  413,055;    2,890;   -0,227
237,715;  429,180;    1,163;   -0,500
238,314;  492,941;    1,708;   -2,318
238,912;  658,853;    0,526;   -1,409
239,510;  526,093;    1,162;   -1,227
240,109;  665,921;   -0,474;    3,773
240,707;  620,959;   -0,474;    1,227
241,305;  464,110;   -0,383;    0,136
241,904;  599,928;   -0,292;   -2,045
242,502;  706,771;    3,253;   -0,227
243,100;  596,618;    3,344;   -0,955
243,698;  549,926;    2,799;    1,682
244,297;  591,456;   -0,656;    0,682
244,895;  583,818;   -0,474;   -2,318
245,493;  799,079;    2,981;   -0,591
246,091;  786,044;    5,163;   -1,318
246,689;  712,945;    2,163;    0,591
247,287;  672,661;   -0,019;   -1,136
247,885;  650,279;   -1,019;    1,227
248,483;  610,832;   -0,201;   -0,500
249,081;  707,886;    0,981;    1,591
249,679;  775,493;   -1,019;    1,682
250,277;  642,586;   -2,292;    0,864
250,875;  772,626;    0,617;   -1,045
251,473;  664,793;   -0,019;    0,500
252,071;  773,741;   -0,383;    1,045
252,669;  699,655;   -1,565;    0,318
253,267;  650,478;    1,618;    0,773
253,864;  681,934;    0,617;    0,682
254,462;  864,709;    1,526;    1,591
255,060;  630,850;    0,072;    1,318
255,658;  627,927;   -3,292;   -0,136
256,255;  745,380;   -0,201;   -2,045
256,853;  778,916;    2,345;    1,409
257,451;  750,790;    1,981;    1,864
258,048; 1249,931;    2,072;    1,864
258,646;  880,701;    0,436;   -1,045
259,243;  998,552;    2,981;    2,227
259,841;  874,115;    1,799;    0,318
260,438;  707,648;    0,254;    0,864
261,036;  868,921;    0,617;    1,409
261,633;  787,944;    1,526;    2,227
262,231;  728,178;   -0,110;   -0,045
262,828;  751,682;   -0,383;    1,136
263,425;  798,187;   -1,928;   -0,591
264,023;  796,941;    1,436;    0,045
264,620;  929,957;    1,526;   -0,318
265,217; 1086,663;    2,890;    3,136
265,815;  800,597;    2,527;    2,136
266,412;  922,770;    0,072;    0,136
267,009;  957,964;    0,526;    0,773
267,606; 1061,428;    0,345;   -0,955
268,203;  822,502;   -0,383;   -0,591
268,801;  887,104;   -0,474;    0,591
269,398;  826,761;   -0,564;    2,500
269,995;  964,409;    0,890;    1,591
270,592;  855,632;    0,799;   -0,500
271,189;  806,946;    1,981;    0,409
271,786;  800,016;    2,072;    1,227
272,383; 1071,119;   -0,383;    0,227
272,980;  900,614;    1,617;    0,318
273,577;  885,897;    2,162;    1,227
274,174;  800,660;    1,435;    2,591
274,771;  923,746;    1,890;   -0,773
275,367; 1379,526;    3,253;    1,409
275,964; 1181,902;   -0,565;   -0,500
276,561;  969,952;   -2,474;   -1,045
277,158;  894,493;    1,799;   -1,773
277,755; 1160,159;   -0,110;    0,409
278,351;  947,602;    0,436;   -1,500
278,948; 1050,421;   -0,201;    0,045
279,545;  960,235;    0,527;    2,318
280,141; 1262,576;    1,254;   -2,045
280,738; 1138,547;    2,435;   -0,136
281,334;  929,216;   -0,383;    0,591
281,931;  923,937;    2,890;   -1,318
282,528; 1041,263;    4,072;   -0,500
283,124; 1192,073;    3,345;   -0,500
283,721; 1152,541;    0,709;    1,409
284,317;  989,405;    0,163;    2,500
284,913; 1246,464;   -0,110;    0,591
285,510; 1562,918;    2,890;   -0,318
286,106; 1339,991;    2,345;   -0,955
286,703; 1001,575;    0,072;    1,955
287,299;  975,660;    1,254;   -0,591
287,895; 1012,869;    0,890;   -1,045
288,491; 1055,761;    0,163;    2,136
289,088; 1157,559;    0,163;    2,409
289,684; 1178,291;    2,890;    1,500
290,280; 1333,369;    1,890;    0,682
290,876; 1304,219;    0,163;    5,500
291,472; 1190,314;    2,163;    2,227
292,068; 1199,007;    1,254;    0,227
292,665; 1030,660;   -0,564;    0,773
293,261;  908,962;   -1,292;    2,136
293,857; 1124,535;    4,072;    2,136
294,453; 1046,097;   -0,928;    0,955
295,049; 1257,744;    0,253;    1,955
295,644; 1062,152;   -1,292;    0,136
296,240;  937,919;    0,162;   -0,136
296,836; 1091,467;   -0,747;    0,318
297,432; 1261,413;    2,980;   -0,500
298,028; 1329,509;    0,435;    0,773
298,624; 1161,764;    0,889;    1,864
299,220; 1154,960;    0,435;    0,591
299,815; 1099,973;    0,526;   -0,409
300,411; 1202,653;    0,435;    1,773
301,007; 1339,303;    1,889;    0,227
301,602; 1154,298;    2,071;   -2,318
302,198; 1284,676;    1,435;   -0,773
302,794; 1136,660;    1,526;   -0,500
303,389; 1134,685;    1,071;    1,045
303,985; 1192,343;    1,253;    1,409
304,580; 1291,016;    0,889;    1,591
305,176; 1172,196;    0,344;    0,136
305,771; 1058,545;   -0,929;   -1,227
306,367; 1463,690;    3,071;    0,136
306,962; 1262,753;    2,889;    1,500
307,558; 1227,111;    2,435;    0,136
308,153; 1338,386;   -0,383;   -1,136
308,748; 1140,243;    0,162;    1,682
309,344; 1536,329;    0,253;   -1,318
309,939; 1575,895;    2,071;   -1,318
310,534; 1254,748;   -2,020;   -1,682
311,130; 1179,348;   -0,656;   -2,500
311,725; 1084,868;    0,526;   -0,500
312,320; 1195,948;    1,253;    0,045
312,915; 1341,302;    2,890;   -1,045
313,510; 1561,424;    0,526;   -0,500
314,105; 1357,245;   -3,565;    1,409
314,700; 1102,674;   -1,656;   -1,045
315,295; 1155,652;   -0,020;    0,045
315,890; 1037,646;   -0,292;    0,864
316,485; 1173,975;    0,253;   -0,318
317,080; 1133,497;   -0,929;    1,591
317,675; 1477,593;    3,071;   -0,682
318,270; 1641,262;    6,889;    3,318
318,865; 1561,163;    2,435;    3,045
319,460; 1320,296;   -1,565;    0,591
320,055; 1218,541;   -2,565;   -1,227
320,650; 1163,589;   -1,838;   -0,591
321,244; 1172,855;    0,889;   -1,409
321,839; 1334,244;    0,980;   -0,227
322,434; 1357,221;   -0,111;   -1,591
323,029; 1224,033;   -0,474;    1,591
323,623; 1167,788;    0,798;    0,773
324,218; 1310,067;    2,707;    1,409
324,812; 1252,487;    0,889;    1,591
325,407; 1248,387;   -0,929;    2,045
326,002; 1341,400;    0,526;   -0,409
326,596; 1315,468;   -0,656;    1,318
327,191; 1176,723;   -0,383;   -1,045
327,785; 1098,013;   -0,747;   -0,227
328,379; 1209,726;   -0,383;    0,136
328,974; 1204,638;    1,798;   -3,955
329,568; 1274,952;    2,889;   -2,409
330,163; 1329,325;    2,435;    1,045
330,757; 1215,997;    0,253;    1,591
331,351; 1117,818;   -0,292;    0,682
331,945; 1119,834;   -0,383;    1,409
332,540; 1244,281;    1,617;   -0,591
333,134; 1211,828;    3,344;    0,773
333,728; 1191,733;    2,799;    0,318
334,322; 1156,258;    0,889;   -0,864
334,916; 1057,007;    0,344;    0,955
335,510; 1261,532;   -0,111;   -0,136
336,105; 1296,541;   -0,929;    1,591
336,699; 1120,488;   -1,292;    0,591
337,293; 1160,260;    1,071;    0,318
337,887; 1092,951;    0,071;    1,955
338,481; 1270,821;    2,980;    0,591
339,074; 1407,089;    2,071;    2,682
339,668; 1359,227;   -0,110;    1,227
340,262; 2020,112;    7,708;    3,227
340,856; 1535,813;    1,708;   -0,682
341,450; 1117,338;    0,708;    1,864
342,044; 1248,987;    1,799;    0,136
342,637; 1385,557;    1,162;   -2,136
343,231; 1397,886;   -1,474;    0,682
343,825; 1193,298;   -0,747;   -0,591
344,419; 1178,519;   -0,474;    0,500
345,012; 1788,812;    2,889;    4,045
345,606; 1555,215;   -0,656;    1,591
346,199; 1204,657;   -0,111;   -0,227
346,793; 1335,613;    2,525;    2,045
347,386; 1162,658;    0,889;   -1,136
347,980; 1011,245;   -0,838;   -0,045
348,573; 1124,202;   -1,748;    0,409
349,167; 1384,961;    6,161;    4,773
349,760; 1356,526;    2,252;    2,682
350,354; 1267,599;    1,616;    1,136
350,947; 1309,864;    2,798;    1,682
351,540; 1101,578;    0,616;   -1,409
352,134;  954,620;   -1,111;    1,136
352,727; 1008,477;   -0,657;    1,136
353,320; 1046,572;    2,343;    0,591
353,913;  927,079;   -1,929;    1,864
354,507; 1175,301;    0,434;   -1,227
355,100; 1094,525;    0,071;    0,864
355,693; 1459,950;    4,798;    2,409
356,286; 1182,339;    0,980;    2,773
356,879; 1047,542;   -0,475;    1,227
357,472;  982,388;    0,980;    1,500
358,065; 1072,072;    3,161;    2,500
358,658;  939,989;    0,798;    2,318
359,251;  841,369;    0,252;   -0,591
359,844; 1018,502;    0,343;   -1,136
360,437; 1140,357;    0,252;    0,045
361,030; 1000,911;    0,525;   -0,682
361,623;  953,875;    0,434;    0,318
362,215; 1196,687;    0,979;    2,045
362,808; 1036,372;   -2,293;   -1,682
363,401;  953,534;    0,798;    0,136
363,994; 1204,094;    3,252;   -1,500
364,586;  963,042;    0,888;   -1,500
365,179;  907,624;   -0,203;   -1,136
365,772;  710,541;   -0,930;    2,045
366,364;  881,891;    1,524;   -3,227
366,957; 1018,969;    1,342;   -0,045
367,549;  920,964;   -0,203;   -0,864
368,142;  912,033;    0,978;   -1,500
368,734;  887,445;    2,523;   -2,136
369,327;  806,471;    2,341;   -0,500
369,919;  852,198;   -1,659;    0,409
370,512;  890,990;   -1,023;   -0,500
371,104; 1139,102;    2,704;    1,591
371,696; 1196,634;    1,703;   -0,955
372,289; 1055,843;    0,157;    1,136
372,881;  988,735;    1,156;    1,318
373,473;  846,519;    4,064;    1,136
374,066;  963,369;    1,336;    0,500
374,658;  917,504;    0,879;    1,136
375,250;  861,274;   -1,668;   -1,409
375,842;  916,080;   -0,124;   -0,045
376,434;  862,218;   -2,762;   -0,409
377,026;  931,042;   -1,855;   -2,500
377,618;  939,595;    0,779;   -0,682
378,210;  852,840;    3,141;   -1,955
378,802;  795,628;    3,412;   -0,591
379,394; 1281,559;    3,411;    0,682
379,986; 1049,937;    1,138;   -0,955
380,578;  956,432;    1,410;    0,773
381,170; 1178,047;    0,320;    0,045
381,762; 1042,920;   -0,224;    1,409
382,354; 1009,681;   -0,223;   -1,318
382,945;  908,016;    0,870;    0,318
383,537;  865,511;    1,144;   -1,955
384,129;  889,108;    0,963;   -1,136
384,721; 1011,208;    0,418;    0,955
385,312;  893,621;   -1,399;   -0,955
385,904; 1045,373;   -0,945;    1,591
386,496;  877,913;    0,691;    1,045
387,087; 1055,414;    0,418;    2,500
387,679;  981,449;   -0,401;    0,045
388,270; 1002,625;   -2,401;    2,045
388,862;  954,940;   -0,401;   -0,318
389,453;  870,768;    1,054;    1,045
390,045;  938,947;    3,236;   -2,682
390,636;  856,178;    0,144;   -0,591
391,227;  881,456;    2,054;   -0,045
391,819;  895,504;    0,781;    0,773
392,410; 1172,970;    0,600;    0,045
393,001;  963,917;    1,600;   -1,591
393,593; 1058,588;    0,600;   -0,045
394,184; 1094,752;    0,873;   -0,409
394,775;  911,126;    1,146;    2,136
395,366;  907,647;    1,782;    0,773
395,957; 1121,080;   -2,400;    0,136
396,548; 1006,475;    1,054;    2,682
397,139; 1185,966;    2,236;    0,591
397,730; 1025,447;    0,873;    0,955
398,321; 1025,916;    0,509;    0,955
398,912;  965,711;   -0,764;    0,136
399,503; 1018,152;   -1,945;   -1,409
400,094; 1006,195;   -1,582;    1,682
400,685;  990,886;    3,600;    0,045
401,276;  891,457;   -0,400;   -0,955
401,867;  915,430;   -1,127;    0,773
402,458;  890,983;    1,509;   -2,318
403,048; 1082,487;    0,146;    0,591
403,639;  944,688;    1,509;    0,864
404,230; 1150,688;    0,691;    0,318
404,821; 1217,243;   -0,127;    0,045
405,411; 1086,666;   -0,763;   -2,591
406,002;  919,870;    3,237;   -1,136
406,592; 1212,802;    2,691;    0,045
407,183; 1046,347;    0,328;   -1,500
407,774;  985,784;    1,419;   -0,136
408,364; 1002,435;    2,600;    0,409
408,954; 1114,158;   -0,036;    1,227
409,545; 1113,770;    1,873;    1,045
410,135;  996,272;   -1,581;    0,500
410,726;  965,593;    0,783;    0,318
411,316; 1217,841;    2,237;    0,773
411,906;  975,296;    0,146;   -0,409
412,497;  954,087;   -0,490;   -0,045
413,087;  931,291;    0,783;   -0,227
413,677;  919,686;   -2,490;    3,864
414,267;  882,833;   -1,035;    1,409
414,857;  851,245;    0,419;    4,227
415,448;  883,062;   -0,763;    0,500
416,038;  897,378;   -2,945;   -0,591
416,628;  938,662;    0,965;    0,409
417,218; 1017,501;   -1,762;    3,318
417,808; 1225,277;    0,965;   -0,409
418,398; 1061,470;   -1,035;    2,682
418,988;  912,872;   -2,217;    0,591
419,578; 1023,642;    3,601;    1,409
420,168; 1042,494;    0,692;   -0,955
420,757; 1179,519;    0,964;   -1,500
421,347; 1002,506;    1,601;   -0,227
421,937;  959,848;    3,329;    1,409
422,527; 1125,409;    2,602;   -0,773
423,116; 1279,919;    2,692;   -0,045
423,706;  980,023;    2,965;    0,318
424,296;  878,733;    1,601;    0,682
424,885; 1138,552;    1,510;   -3,045
425,475; 1086,947;    1,147;   -2,864
426,065;  946,297;   -1,489;   -0,318
426,654;  914,729;    0,329;   -0,318
427,244; 1295,073;    1,147;    1,409
427,833; 1200,925;    1,056;   -0,500
428,423; 1028,454;    0,147;    1,136
429,012; 1129,039;    2,420;   -1,136
429,601; 1226,520;    2,057;    0,136
430,191; 1091,310;    2,511;    4,318
430,780;  906,013;   -1,671;   -0,409
431,369; 1211,801;    1,329;   -0,045
431,959; 1162,390;    1,693;    0,500
432,548; 1012,053;   -1,398;   -0,045
433,137;  929,788;    0,329;   -1,318
433,726; 1106,805;    0,148;    0,500
434,315; 1057,603;    0,148;    2,409
434,905; 1203,933;    0,693;    1,409
435,494; 1261,500;    3,148;    0,955
436,083; 1094,116;    1,420;   -0,955
436,672; 1133,760;    1,148;    0,500
437,261; 1072,846;    0,512;   -1,955
437,850; 1464,489;   -1,125;    0,682
438,439; 1488,061;    2,239;    1,955
439,027; 1598,854;    3,421;    1,773
439,616; 1569,838;    2,239;    1,227
440,205; 1232,044;    0,057;   -2,136
440,794; 1118,879;   -0,306;   -0,045
441,383; 1049,081;    1,603;   -0,591
441,971;  946,321;   -0,306;    0,591
442,560;  964,157;    0,603;   -1,773
443,149;  836,284;    3,060;   -1,318
443,737;  950,417;    0,968;   -2,318
444,326;  969,727;    0,331;    0,318
444,915; 1037,961;   -1,851;    0,864
445,503; 1082,598;    0,058;   -0,318
446,092; 1395,937;    7,876;    2,136
446,680; 1361,059;    1,876;    0,318
447,269; 1265,948;   -1,487;   -0,318
447,857; 1188,566;    2,240;   -1,773
448,445; 1125,899;    2,149;    1,318
449,034; 1094,580;    0,876;   -1,136
449,622; 1066,497;    1,240;    3,500
450,210; 1497,304;    3,149;    2,227
450,799; 1410,906;    2,604;   -0,591
451,387; 1256,702;    1,786;   -0,591
451,975; 1238,248;   -1,305;    0,864
452,563; 1399,553;    0,422;    2,318
453,151; 1091,335;   -1,032;   -1,227
453,739; 1158,032;   -1,577;    0,136
454,328; 1363,832;    0,604;   -2,136
454,916; 1212,329;    1,150;   -0,136
455,504; 1214,118;    3,513;    1,227
456,092; 1093,833;    2,150;   -1,591
456,679;  992,491;    0,604;    0,682
457,267; 1684,836;    3,604;    1,045
457,855; 1174,114;    3,241;    1,409
458,443;  897,219;   -0,304;    1,682
459,031; 1251,460;    1,332;    2,409
459,619; 1208,169;   -3,577;    2,864
460,206; 1041,700;   -0,759;    2,045
460,794; 1062,999;   -0,668;   -0,227
461,382; 1163,247;    0,878;   -0,864
461,970; 1079,514;    0,605;    1,864
462,557; 1027,137;    0,878;   -0,682
463,145; 1247,499;   -0,304;   -1,682
463,732; 1580,397;    2,514;   -1,045
464,320; 1226,505;    1,514;   -3,045
464,907; 1431,065;    0,423;   -0,773
465,495; 1290,364;    2,696;   -1,227
466,082; 1158,120;    2,060;   -0,045
466,670; 1130,425;    2,605;    1,227
467,257; 1038,507;    0,060;    2,045
467,844; 1240,947;    1,514;    0,045
468,432; 1216,619;   -0,031;    3,500
469,019; 1087,754;    1,606;   -1,773
469,606; 1203,711;    0,969;    3,682
470,193; 1257,730;    2,151;    0,227
470,780; 1204,036;    0,333;    0,864
471,368; 1101,640;   -1,212;   -0,773
471,955; 1251,749;    1,060;   -0,682
472,542; 1137,964;   -0,303;   -1,136
473,129;  963,068;   -0,485;    0,136
473,716;  948,917;    0,060;    0,591
474,303; 1016,933;    1,333;   -0,864
474,890; 1057,411;    2,333;   -0,500
475,477; 1217,424;   -0,576;    0,409
476,064; 1061,752;    0,697;   -1,591
476,650; 1209,267;    2,152;    0,318
477,237; 1101,358;    1,879;    0,955
477,824; 1062,773;    3,879;    0,864
478,411;  918,831;    0,606;   -0,318
478,997;  931,656;    0,606;   -0,773
479,584;  836,171;   -0,666;   -0,409
480,171; 1232,073;    1,243;   -0,773
480,757; 1326,660;   -0,848;    0,773
481,344; 1142,359;    0,334;    0,409
481,931;  914,656;   -0,393;    1,045
482,517; 1256,559;    0,425;    0,318
483,104; 1419,805;    1,334;    2,864
483,690; 1279,738;    0,243;    0,045
484,276; 1239,648;    0,698;    0,227
484,863; 1586,906;    2,152;    1,136
485,449; 1368,523;    0,152;    0,318
486,035; 1258,467;   -0,666;   -0,136
486,622; 1487,750;   -2,393;    0,045
487,208; 1332,862;    1,334;    1,500
487,794; 1222,656;    0,971;    0,318
488,380; 1257,995;    0,698;   -1,409
488,967; 1243,950;   -1,120;   -0,409
489,553; 1266,367;   -1,029;   -1,409
490,139; 1407,381;    0,971;    0,773
490,725; 1226,604;    0,789;   -0,227
491,311; 1249,924;    1,516;    3,045
491,897; 1075,585;   -0,665;    1,500
492,483; 1108,925;    0,426;    1,227
493,069; 1879,342;    5,426;    0,864
493,655; 1344,864;    1,789;    0,682
494,241; 1144,184;    1,517;   -0,955
494,826; 1228,359;    0,335;   -1,045
495,412; 1283,635;    0,335;   -0,682
495,998; 1164,961;    0,971;   -0,318
496,584; 1236,494;    2,244;    1,045
497,169; 1182,217;    2,335;   -0,682
497,755; 1059,782;    1,244;    1,227
498,341; 1420,209;    2,153;    0,318
498,926; 1590,155;    2,881;    1,955
499,512; 1200,259;   -0,028;    2,955
500,097; 1132,253;   -0,574;   -0,318
500,683; 1163,428;   -0,028;    2,136
501,268; 1124,720;    1,881;   -0,955
501,854; 1157,906;   -0,119;    1,227
502,439; 1083,590;   -0,573;   -1,773
503,024; 1194,242;    1,608;    0,500
503,610; 1254,493;    1,335;   -0,682
504,195; 1070,131;    1,245;    1,955
504,780; 1237,934;    2,335;    1,227
505,366; 1396,703;    4,063;    2,864
505,951; 1235,610;   -1,119;    1,045
506,536; 1143,291;    1,427;   -3,682
507,121; 1193,013;    1,699;   -0,318
507,706; 1177,583;   -0,392;    1,045
508,291; 1092,436;   -2,937;    1,136
508,876; 1051,525;   -0,482;    2,591
509,461; 1096,808;    1,427;   -0,773
510,046; 1205,051;   -0,391;    0,318
510,631; 1183,639;   -0,119;   -0,773
511,216; 1065,387;   -0,664;   -0,500
511,801; 1216,312;   -0,755;    2,591
512,386; 1241,974;    0,972;    0,500
512,971; 1258,749;    0,427;    0,955
513,555; 1307,045;    1,154;   -1,500
514,140; 1310,196;    1,336;   -3,136
514,725; 1423,000;    1,791;   -1,136
515,309; 1311,860;    1,064;    0,318
515,894; 1155,304;   -0,300;   -2,227
516,479; 1197,659;    1,973;   -0,955
517,063; 1178,403;    0,882;    1,227
517,648; 1163,618;    0,155;   -1,136
518,232; 1055,658;   -1,300;   -1,409
518,817; 1189,217;    1,337;    1,682
519,401; 1391,619;    0,700;    0,591
519,985; 1201,463;    2,700;    1,136
520,570; 1054,431;   -0,118;   -1,955
521,154; 1247,907;    0,064;    0,591
521,738; 1506,863;    1,064;    2,409
522,323; 1372,858;   -0,390;    1,682
522,907; 1296,745;    2,428;   -0,136
523,491; 1180,769;    1,155;    0,955
524,075; 1121,056;    0,428;    0,591
524,659; 1336,465;    0,973;    0,591
525,243; 1198,318;    0,883;    0,409
525,827; 1132,061;    0,883;   -0,045
526,411; 1212,828;    1,155;   -0,136
526,995; 1391,180;    0,337;    1,409
527,579; 1402,392;    1,974;   -1,045
528,163; 1337,707;    0,428;   -1,500
528,747; 1508,939;    1,065;   -0,773
529,331; 1451,992;    0,883;   -1,409
529,915; 1212,817;    2,338;    0,955
530,499; 1319,360;    0,247;    1,227
531,082; 1451,921;    1,065;    1,591
531,666; 1494,105;    0,520;    0,773
532,250; 1427,498;    0,428;    2,682
532,833; 1586,516;    0,610;    2,773
533,417; 1377,444;    1,247;    0,864
534,001; 1489,693;    0,429;   -0,318
534,584; 1431,595;    1,974;    0,500
535,168; 1243,396;    3,247;    1,409
535,751; 1639,934;    4,520;    0,045
536,334; 1272,007;    4,520;   -0,409
536,918; 1260,167;    1,974;    1,591
537,501; 1239,373;    1,520;    1,318
538,085; 1287,066;    1,702;    1,045
538,668; 1307,444;    0,883;    2,409
539,251; 1690,275;    3,156;    3,773
539,834; 1429,425;    0,156;    0,773
540,418; 1536,202;    3,247;    4,318
541,001; 1706,861;    2,702;    1,773
541,584; 1453,061;    1,429;    2,227
542,167; 1514,874;    0,702;    2,955
542,750; 1380,132;    0,793;   -0,773
543,333; 1160,672;    1,429;    2,136
543,916; 1493,313;   -0,298;    2,500
544,499; 1396,301;    2,520;    0,227
545,082; 1496,504;    0,248;    3,591
545,665; 1404,714;   -0,207;    1,500
546,248; 1545,490;    0,520;   -0,318
546,830; 1497,901;   -1,752;    1,955
547,413; 1517,904;    0,157;   -0,773
547,996; 1584,735;    0,157;    0,500
548,579; 1404,417;   -0,843;    0,955
549,161; 1671,621;    0,884;    2,682
549,744; 1556,121;    0,612;    0,409
550,326; 1498,592;    0,885;   -1,136
550,909; 1946,158;    2,339;    0,591
551,492; 1653,179;    0,521;    0,227
552,074; 1706,499;   -0,024;   -1,318
552,657; 1766,777;    2,430;    0,045
553,239; 1594,454;   -3,024;   -0,773
553,821; 1514,382;   -1,570;    1,045
554,404; 1704,039;   -0,024;    1,136
554,986; 1835,228;    2,248;    1,045
555,568; 1729,269;    0,430;   -0,955
556,151; 1900,464;    4,067;   -0,227
556,733; 1583,096;   -1,388;   -0,864
557,315; 1610,631;    4,703;    0,500
557,897; 1418,413;    0,521;   -0,500
558,479; 1429,432;    1,703;    1,318
559,061; 1564,769;    1,067;   -0,864
559,643; 1692,106;   -0,297;    0,045
560,225; 1721,563;   -0,388;    2,864
560,807; 1619,288;    0,340;    0,318
561,389; 1531,607;   -1,206;    2,318
561,971; 1574,554;   -0,660;    2,136
562,553; 1584,961;    0,613;    1,591
563,135; 1674,030;    1,249;    1,136
563,717; 2012,747;    3,158;    1,136
564,298; 1921,104;    3,976;   -0,045
564,880; 1634,999;    0,340;   -1,409
565,462; 1520,271;    1,977;    1,318
566,043; 1845,550;   -0,933;    2,318
566,625; 2003,632;    4,067;    1,227
567,207; 1772,416;    0,704;    1,682
567,788; 1763,911;   -0,114;    1,500
568,370; 1906,386;   -1,841;   -0,500
568,951; 1753,148;   -0,569;    0,227
569,533; 1938,591;    0,977;   -0,500
570,114; 2069,899;   -0,296;    0,682
570,695; 2087,490;   -0,478;   -1,318
571,277; 2043,316;   -0,205;   -1,682
571,858; 2287,964;    2,704;   -1,136
572,439; 2303,037;    0,795;   -1,045
573,021; 2278,564;    0,432;   -2,773
573,602; 2399,821;    1,795;    0,318
574,183; 2423,834;   -0,114;    2,227
574,764; 2459,079;    2,068;    0,409
575,345; 2559,533;    0,250;   -0,136
575,926; 2546,328;    2,704;    0,136
576,507; 2634,268;    2,704;   -0,227
577,088; 2729,083;    1,704;    1,682
577,669; 2887,417;    1,704;    1,955
578,250; 3107,652;   -0,750;   -1,045
578,831; 2952,109;   -0,841;   -2,227
579,412; 2810,795;   -1,205;    0,955
579,993; 3110,817;    1,432;    0,227
580,573; 3126,827;   -0,023;   -0,955
581,154; 2822,701;    1,613;   -0,591
581,735; 2999,588;    0,341;    0,773
582,315; 2877,134;    0,523;    2,136
582,896; 3055,534;   -1,750;    1,227
583,477; 2889,821;    0,614;    1,227
584,057; 2979,996;    1,159;    0,955
584,638; 3033,726;   -2,750;    2,318
585,218; 3236,797;    2,886;    2,682
585,799; 3125,917;    1,977;   -0,227
586,379; 3036,901;    1,250;    1,591
586,959; 2896,567;    2,613;    0,318
587,540; 2762,895;    0,432;    2,227
588,120; 2661,854;   -1,113;   -0,045
588,700; 2524,305;    2,977;    2,136
589,281; 2776,095;    1,250;   -0,955
589,861; 2667,783;   -0,296;   -1,682
590,441; 2589,475;   -1,477;   -2,682
591,021; 2383,081;    1,432;   -2,591
591,601; 2489,938;    0,431;    0,500
592,181; 2593,362;   -1,296;   -0,773
592,761; 2278,089;    2,250;    1,409
593,341; 2417,374;    1,522;    0,045
593,921; 2401,717;   -0,569;    1,591
594,501; 2274,478;    1,250;    1,318
595,081; 2258,248;    0,522;   -0,318
595,661; 2491,336;    1,068;    0,955
596,240; 2544,668;   -1,023;    0,136
596,820; 2661,969;    2,613;    1,955
597,400; 2395,587;    1,977;    0,773
597,980; 2426,787;   -0,750;    1,045
598,559; 2435,471;    0,341;   -0,227
599,139; 2375,793;   -0,750;   -1,227
599,718; 2375,520;    0,795;   -0,409
600,298; 2451,656;   -2,387;    0,682
600,877; 2801,902;    4,795;    1,409
601,457; 2701,295;    0,340;    1,136
602,036; 2557,475;    1,795;    2,045
602,616; 2511,233;    2,250;    1,682
603,195; 2657,105;    0,431;    3,500
603,774; 2576,606;   -0,296;    2,045
604,354; 2517,074;    2,522;   -0,500
604,933; 2390,277;    0,250;    1,864
605,512; 2597,005;    2,340;    0,591
606,091; 2577,409;    1,886;    3,773
606,671; 2640,937;    0,249;    0,773
607,250; 2626,317;    1,431;    3,136
607,829; 2655,401;    1,158;    3,227
608,408; 2545,571;    4,613;    2,591
608,987; 2496,227;    2,704;    3,409
609,566; 2369,344;    0,341;   -2,500
610,145; 2454,529;    2,885;    0,682
610,723; 2603,656;    1,613;    6,864
611,302; 2351,880;    1,067;    1,682
611,881; 2465,128;    5,158;   11,227
612,460; 2362,513;    0,795;    3,955
613,039; 2429,807;    1,703;    2,045
613,617; 2178,164;    0,886;    4,773
614,196; 2203,879;    1,613;    1,227
614,775; 2362,424;    1,249;    2,409
615,353; 2372,240;   -1,660;    0,864
615,932; 2273,262;    0,249;    2,409
616,510; 2423,870;    0,158;    0,591
617,089; 2808,920;    8,794;   17,591
617,667; 2459,725;    4,885;    6,136
618,246; 2091,084;   -1,115;    1,318
618,824; 2244,478;    1,612;   -0,955
619,402; 2204,122;    0,431;   -1,773
619,981; 2352,107;    1,067;   -1,045
620,559; 2340,849;    0,794;    1,682
621,137; 2342,804;    3,067;    1,864
621,715; 2028,385;    3,703;   -0,682
622,293; 2086,157;    1,885;   -0,773
622,871; 2352,449;    0,340;    0,500
623,450; 2175,715;    0,430;   -0,864
624,028; 2315,752;   -0,388;   -0,955
624,606; 2210,756;    2,339;    1,682
625,183; 2144,002;   -0,661;   -1,136
625,761; 2149,721;    1,885;    1,136
626,339; 2525,976;    2,339;    2,591
626,917; 2270,277;    0,339;   -0,045
627,495; 2283,759;    2,794;    1,318
628,073; 2238,548;    5,248;    2,864
628,650; 2188,378;    3,067;    2,136
629,228; 2272,321;    1,248;    4,409
629,806; 2002,303;   -0,024;    1,136
630,383; 2100,434;    0,066;   -0,318
630,961; 2067,215;   -2,206;   -0,955
631,539; 2027,597;   -2,479;    0,227
632,116; 2715,579;   12,703;   15,409
632,694; 2378,360;    4,885;    6,500
633,271; 2173,464;    1,975;    2,682
633,848; 2297,579;    1,430;    2,045
634,426; 2111,380;    1,521;    1,773
635,003; 1952,628;   -0,207;   -0,409
635,580; 2295,686;    1,884;    3,682
636,158; 2135,185;    3,793;    1,227
636,735; 1994,831;    3,339;   -0,500
637,312; 1999,162;    0,521;   -0,682
637,889; 2009,700;    2,248;   -0,682
638,466; 1992,183;    0,066;   -0,409
639,043; 1978,312;    1,702;   -1,136
639,620; 1966,119;    0,611;   -0,955
640,197; 2114,084;    1,612;    1,682
640,774; 2119,377;    1,430;    1,136
641,351; 2181,488;    0,612;    1,136
641,928; 2207,236;    2,794;    1,409
642,505; 2325,620;    0,794;   -0,500
643,082; 2228,459;    1,885;    1,227
643,658; 1886,115;    1,157;    1,500
644,235; 1993,681;   -2,479;    2,500
644,812; 2146,338;    1,794;    0,773
645,388; 2106,995;    1,612;    1,409
645,965; 1910,561;    1,521;    1,682
646,542; 1916,945;    3,430;   -0,227
647,118; 2364,965;    3,703;   -0,955
647,695; 2201,349;    0,339;    1,136
648,271; 1991,643;   -2,115;    0,500
648,848; 2125,572;    0,248;    2,227
649,424; 2230,320;    0,976;    1,318
650,000; 1935,795;   -0,388;   -1,045
650,577; 2034,452;    0,158;   -0,955
651,153; 2147,199;   -1,115;    0,955
651,729; 2148,583;    0,521;    0,864
652,305; 2403,422;    1,339;    2,773
652,881; 2737,351;   -1,297;    1,136
653,458; 3480,736;    0,249;    0,227
654,034; 3996,210;    0,703;    1,591
654,610; 4085,776;    0,339;    0,773
655,186; 4527,160;    1,612;    3,045
655,762; 4261,908;   -1,842;    0,409
656,338; 4243,747;    0,703;    0,136
656,913; 4547,040;   -0,297;    0,409
657,489; 4305,424;    0,249;   -0,318
658,065; 4421,990;    0,794;   -1,591
658,641; 4684,192;    2,158;   -0,864
659,217; 4418,576;    2,067;    0,409
659,792; 4197,233;   -1,751;   -0,409
660,368; 4295,708;   -0,388;   -0,682
660,944; 4505,547;    1,794;    1,227
661,519; 3952,658;    0,522;    0,409
662,095; 3123,769;   -0,206;    0,591
662,670; 2414,062;   -0,206;   -0,136
663,246; 2358,083;   -0,660;   -0,409
663,821; 2364,649;    0,431;    1,682
664,396; 2112,760;    0,613;    1,864
664,972; 2161,326;   -0,660;   -0,500
665,547; 2295,892;    3,794;    0,136
666,122; 2221,458;    1,340;    0,318
666,698; 2393,569;    2,431;    0,318
667,273; 2043,499;    0,885;    0,136
667,848; 2216,973;    0,340;    1,500
668,423; 2293,630;    1,795;    2,318
668,998; 2231,469;    0,976;   -0,682
669,573; 2305,853;    2,067;   -1,500
670,148; 2428,510;    1,885;   -0,682
670,723; 2160,439;   -0,024;    0,318
671,298; 2525,096;   -1,296;    1,045
671,873; 2399,480;   -0,296;   -0,136
672,448; 2393,228;    1,704;    0,136
673,023; 2430,521;    0,249;   -0,227
673,597; 2599,541;    2,704;    2,318
674,172; 2542,016;    2,431;    0,318
674,747; 2419,946;   -0,205;   -1,045
675,321; 2216,239;   -0,933;    3,318
675,896; 2086,714;    2,158;    1,045
676,471; 2340,189;    2,522;    1,591
677,045; 2243,755;   -0,296;    0,682
677,620; 2272,775;    2,158;    1,136
678,194; 2290,250;    0,249;    1,136
678,769; 2274,543;    0,886;   -0,318
679,343; 2351,200;   -0,023;    1,773
679,917; 2411,584;    0,340;    1,955
680,492; 2257,877;    0,249;    3,227
681,066; 2303,716;    0,613;    0,409
681,640; 2284,646;    1,795;   -0,318
682,214; 2410,939;    2,340;    0,500
682,788; 2340,777;    0,613;   -0,773
683,363; 2382,343;    1,977;    1,682
683,937; 2209,182;    0,886;   -0,318
684,511; 2437,566;   -1,023;   -0,591
685,085; 2390,314;   -1,478;    0,318
685,659; 2257,516;    1,431;    0,864
686,232; 2487,900;    1,159;   -0,318
686,806; 2372,102;    2,159;    0,409
687,380; 2433,850;   -1,932;    0,591
687,954; 2485,416;    2,432;    1,136
688,528; 2584,800;    2,613;    1,955
689,101; 2645,548;    0,432;    1,045
689,675; 2414,568;    0,886;   -0,136
690,249; 2479,861;    3,432;    0,409
690,822; 2542,791;    1,159;    0,318
691,396; 2425,538;    2,068;    1,227
691,969; 2309,195;    2,523;    0,136
692,543; 2422,579;   -0,568;   -1,955
693,116; 2230,145;   -0,659;   -1,409
693,690; 2286,256;   -0,296;    0,500
694,263; 2414,004;    2,341;    2,955
694,836; 2645,934;    2,795;    3,591
695,410; 2353,863;    1,159;    1,773
695,983; 2390,975;    1,614;    0,591
696,556; 2290,359;   -0,750;   -1,045
697,129; 2357,106;   -1,114;    1,409
697,703; 2324,309;    1,341;    1,955
698,276; 2343,147;    1,705;   -0,773
698,849; 2380,531;   -1,023;    1,409
699,422; 2259,188;    1,250;    0,591
699,995; 2142,027;   -0,659;    0,136
700,568; 2327,683;   -0,204;    3,045
701,140; 2335,431;   -1,841;    1,682
701,713; 2438,815;    0,341;    2,409
702,286; 2340,563;    0,796;    0,864
702,859; 2331,311;    0,614;   -0,591
703,432; 2282,695;   -0,841;    0,682
704,004; 2262,170;    1,978;    0,318
704,577; 2092,190;    1,068;    0,136
705,150; 2192,483;    0,887;    2,500
705,722; 2299,776;    1,523;   -3,227
706,295; 2321,342;    1,432;   -0,591
706,867; 2114,363;    0,250;    1,955
707,440; 2334,747;   -0,113;   -0,409
708,012; 2405,040;   -0,022;    0,591
708,584; 2264,697;    2,705;    0,227
709,157; 2258,899;    1,160;   -0,591
709,729; 2383,828;    1,069;    2,045
710,301; 2502,849;   -1,204;    0,045
710,874; 2442,506;    0,341;   -0,227
711,446; 2079,253;   -0,295;    0,864
712,018; 2175,001;   -3,022;    0,500
712,590; 2109,112;   -0,204;    1,682
713,162; 2422,496;   -0,477;    1,318
713,734; 2309,881;    1,796;   -2,045
714,306; 2260,719;    0,342;   -0,409
714,878; 2080,194;   -0,295;    0,864
715,450; 2221,033;   -0,113;    0,864
716,022; 2270,235;    2,433;    1,318
716,593; 2290,619;    0,978;    0,591
717,165; 2327,549;    1,796;   -1,227
717,737; 2463,024;    0,796;    0,409
718,309; 2285,771;    1,160;   -0,045
718,880; 2236,246;   -1,295;   -1,409
719,452; 2331,358;    0,887;   -1,591
720,024; 2267,742;    1,705;   -0,591
720,595; 2300,944;    2,978;    0,955
721,167; 2172,419;    1,160;   -2,045
721,738; 2171,348;    2,069;   -1,045
722,309; 2210,914;    1,251;   -1,227
722,881; 2056,753;    2,705;    0,773
723,452; 2272,591;    1,251;    2,864
724,023; 2325,521;    1,524;    2,682
724,595; 2359,996;    2,342;    0,682
725,166; 2150,925;    1,524;   -0,409
725,737; 2298,400;    1,887;    0,227
726,308; 2209,966;    0,797;    0,318
726,879; 2127,441;    1,069;    1,227
727,450; 2276,098;   -2,022;   -0,045
728,021; 2158,300;    1,069;    0,682
728,592; 2294,321;    1,160;    0,500
729,163; 2440,432;    1,433;   -0,136
729,734; 2412,816;    2,160;   -0,227
730,305; 2285,018;    0,615;    0,136
730,876; 2291,766;    0,888;    2,955
731,447; 2587,968;    0,797;    2,682
732,017; 2478,625;   -0,840;    1,864
732,588; 2341,827;   -0,021;    1,227
733,159; 2513,302;    3,615;   -1,045
733,729; 2253,505;    1,251;    0,409
734,300; 2291,252;    0,160;    0,864
734,870; 2227,455;   -1,385;    0,591
735,441; 2272,293;    0,888;   -0,591
736,011; 2136,223;    1,070;   -1,591
736,582; 2166,061;    1,251;    0,045
737,152; 2138,082;    0,979;   -2,045
737,722; 2224,557;    1,070;   -0,682
738,293; 2084,213;   -2,021;    1,318
738,863; 2244,507;    1,797;    2,318
739,433; 2499,618;    4,524;    0,318
740,003; 2365,184;    1,524;   -0,682
740,573; 2376,659;    2,252;   -1,591
741,143; 2318,497;    3,615;    0,318
741,713; 2294,245;    0,252;   -0,500
742,283; 2274,811;    1,706;    1,591
742,853; 2189,286;    0,524;    1,591
743,423; 2033,670;    0,161;    0,045
743,993; 2105,781;    1,070;    1,500
744,563; 1985,984;    2,524;   -0,864
745,133; 2031,186;   -0,112;   -0,864
745,702; 2136,934;    2,797;    1,773
746,272; 2158,318;    0,434;    0,591
746,842; 2172,247;   -0,748;   -0,591
747,411; 2086,904;   -0,839;   -0,318
747,981; 2016,743;   -0,930;    0,500
748,551; 2050,036;   -0,021;   -1,045
749,120; 2119,602;   -0,112;   -0,227
749,690; 2145,713;    2,161;    2,409
750,259; 2275,552;    0,979;    2,955
750,828; 2300,299;    4,070;   -1,955
751,398; 2148,956;   -0,112;   -0,045
751,967; 2476,249;    2,888;    0,409
752,536; 2212,179;    1,161;   -0,227
753,105; 2364,290;   -1,384;    0,227
753,675; 2156,765;   -0,112;    1,773
754,244; 2170,422;    0,888;    3,591
754,813; 2197,715;    0,979;    1,227
755,382; 2102,099;    0,798;    0,955
755,951; 2254,483;   -0,112;    3,682
756,520; 2309,413;    2,525;    1,864
757,089; 2551,160;    1,888;    0,500
757,658; 2266,726;    2,434;    1,227
758,227; 2118,110;   -1,111;    0,318
758,795; 2211,131;   -1,021;    1,136
759,364; 2356,242;    0,525;   -0,591
759,933; 2069,535;    1,343;   -0,045
760,501; 2017,647;    0,252;   -1,318
761,070; 2164,122;   -0,293;   -1,409
761,639; 2393,142;    1,434;    1,318
762,207; 2223,890;    0,889;   -0,955
762,776; 2290,183;    2,889;    0,864
763,344; 2148,658;    0,071;    0,591
763,913; 1836,496;    1,616;    1,409
764,481; 2466,153;    1,980;   -0,136
765,049; 2419,446;    0,616;    1,409
765,618; 2291,376;    1,434;    0,318
766,186; 2197,396;    2,434;    0,136
766,754; 2227,962;    1,798;    1,864
767,322; 1926,528;    1,162;    0,409
767,890; 1897,276;    0,525;   -1,773
768,459; 2072,933;    2,616;   -0,318
769,027; 2283,044;    2,525;    3,409
769,595; 1999,610;    2,616;    2,591
770,163; 2046,357;    3,344;    2,955
770,730; 2026,560;    2,525;   -0,136
771,298; 2024,671;    1,162;   -1,409
771,866; 2018,419;    0,253;    4,955
772,434; 2044,621;    1,162;   -1,864
773,002; 2294,005;    2,616;    0,682
773,569; 2151,662;    1,071;    1,682
774,137; 2237,228;    0,889;   -0,045
774,705; 2208,521;   -0,747;   -0,136
775,272; 2041,814;    0,253;    0,682
775,840; 2158,016;   -0,111;    2,682
776,407; 2113,582;   -0,293;    1,955
776,975; 1873,421;    1,162;    0,318
777,542; 2038,623;    2,162;   -0,045
778,110; 2070,825;    0,707;   -0,045
778,677; 1904,391;    1,071;   -0,864
779,244; 1938,412;   -1,020;    1,045
779,812; 2096,614;    0,980;    0,864
780,379; 2126,180;    2,435;    1,136
780,946; 2008,473;    2,617;   -0,773
781,513; 2041,312;   -0,565;    0,318
782,080; 1873,605;    1,253;    2,864
782,647; 2004,080;    1,708;    3,045
783,214; 1943,373;   -0,201;    3,864
783,781; 2046,030;    1,708;   -0,682
784,348; 2036,050;    0,253;    1,500
784,915; 1906,525;   -1,474;    0,318
785,482; 2051,727;    2,708;    2,591
786,049; 2113,657;    1,071;   -0,591
786,615; 2030,859;    1,708;   -0,955
787,182; 1972,516;   -3,201;   -0,682
787,749; 1936,354;   -2,201;    1,409
788,315; 1951,829;    0,253;   -0,409
788,882; 1970,577;    0,981;   -1,227
789,448; 2264,870;    1,435;   -0,955
790,015; 2075,345;    1,799;    3,227
790,581; 2176,366;    0,708;    0,227
791,148; 1967,477;    1,344;    1,045
791,714; 1945,316;   -1,019;    3,136
792,280; 1925,427;    3,708;    1,591
792,847; 1844,811;   -0,928;    2,500
793,413; 1939,377;   -0,110;   -0,318
793,979; 2026,943;    1,526;   -1,318
794,545; 2349,509;    2,981;    2,682
795,111; 2139,893;    2,435;    1,318
795,678; 2022,822;    3,526;   -1,682
796,244; 2194,752;    2,799;    0,136
796,810; 2139,045;    0,799;    0,773
797,375; 2091,338;   -0,292;   -2,136
797,941; 1763,268;   -1,110;    0,591
798,507; 1733,924;    0,254;   -0,955
799,073; 1741,945;    2,708;    0,591
799,639; 1822,147;    1,435;    3,136
800,205; 1762,349;   -1,565;    2,682
800,770; 1708,279;    1,345;    1,773
801,336; 1669,390;    2,981;   -0,955
801,901; 2290,774;    6,072;    3,136
802,467; 2029,886;    0,526;    2,045
803,033; 1698,906;   -0,019;    0,864
803,598; 1682,654;    1,072;   -1,045
804,163; 1757,220;    0,708;   -0,318
804,729; 1837,604;   -0,110;    1,136
805,294; 1773,715;    1,072;    2,227
805,859; 1683,190;    0,890;   -0,409
806,425; 2030,938;    3,890;    2,682
806,990; 1991,867;    1,890;    4,318
807,555; 1819,251;   -0,110;    2,591
808,120; 1952,453;   -1,292;   -0,409
808,685; 1693,928;    1,072;   -2,500
809,250; 1554,131;    2,072;   -0,500
809,815; 1647,969;   -0,201;    0,682
810,380; 1851,444;    0,981;    1,591
810,945; 2003,919;    2,890;    2,045
811,510; 1837,576;   -0,200;    1,591
812,075; 1769,415;    2,800;   -1,409
812,640; 2040,981;    3,709;    1,409
813,204; 1836,365;    2,163;   -0,227
813,769; 2053,294;    0,254;   -0,045
814,334; 1974,405;    0,527;    0,864
814,898; 1756,790;    1,981;    0,591
815,463; 1756,810;    0,981;   -0,773
816,027; 1696,194;    1,345;   -2,318
816,592; 1743,396;    2,163;   -2,045
817,156; 1765,053;   -2,200;    1,136
817,721; 1801,346;    0,982;    2,318
818,285; 1608,639;    0,618;    1,500
818,849; 1756,023;   -0,018;    1,682
819,414; 1640,135;    0,073;    2,955
819,978; 1568,519;   -0,291;    1,773
820,542; 1985,357;    2,891;    0,500
821,106; 1813,196;    2,800;    0,682
821,670; 1968,489;    2,709;    2,591
822,234; 1721,237;    1,073;    1,409
822,798; 1574,439;   -0,836;    0,500
823,362; 1889,551;    1,527;    4,227
823,926; 1598,753;   -0,018;    1,136
824,490; 1789,955;    3,527;   -0,682
825,054; 1730,794;    2,527;   -1,136
825,618; 1580,359;   -1,200;   -1,500
826,181; 1604,744;    0,982;   -1,318
826,745; 1664,946;   -0,745;   -1,045
827,309; 1940,330;    2,255;    1,318
827,872; 1790,805;    0,527;    0,955
828,436; 1766,189;    1,982;   -0,773
828,999; 1732,391;    2,436;    1,227
829,563; 1648,957;   -0,654;    1,136
830,126; 1595,796;   -0,018;   -0,591
830,690; 1614,998;    0,709;    2,864
831,253; 1489,291;   -0,473;    2,227
831,816; 1542,130;   -0,018;    0,500
832,380; 1465,968;    1,164;    0,864
832,943; 1486,898;    3,073;   -0,500
833,506; 1511,373;    0,255;   -1,227
834,069; 1736,939;    2,164;   -0,955
834,632; 1633,959;   -2,200;    1,318
835,195; 1624,707;    1,346;    0,955
835,758; 1528,000;    0,709;    1,955
836,321; 1455,475;    1,073;   -1,045
836,884; 1475,132;   -1,291;   -0,955
837,447; 1473,425;    0,528;    1,773
838,010; 1602,991;    1,800;    3,227
838,573; 1686,284;    0,528;    0,773
839,135; 1595,850;   -0,109;   -0,955
839,698; 1526,052;    2,528;    0,409
840,261; 1457,254;    0,255;   -0,227
840,823; 1412,275;   -0,927;    0,864
841,386; 1393,931;   -0,018;   -2,409
841,948; 1744,225;    0,255;    1,773
842,511; 1445,609;    0,255;    1,682
843,073; 1709,266;    2,982;    0,227
843,636; 1455,650;    0,619;   -0,227
844,198; 1668,125;    1,255;    0,591
844,760; 1638,690;    0,619;    1,955
845,322; 1390,256;    0,164;    1,136
845,885; 1559,640;   -0,290;    0,591
846,447; 1537,570;    0,710;    0,227
847,009; 1841,681;    3,983;   -0,682
847,571; 1574,065;    1,346;   -2,045
848,133; 1525,904;   -0,199;   -1,864
848,695; 1386,652;    2,346;    1,409
849,257; 1440,581;    1,346;   -1,682
849,819; 1620,874;    2,983;   -0,409
850,381; 1476,077;    1,801;   -0,864
850,942; 1558,915;    1,892;   -0,591
851,504; 1568,390;    0,983;    0,227
852,066; 1508,865;    1,619;   -1,591
852,628; 1494,613;    0,165;    1,955
853,189; 1322,633;    0,256;    2,682
853,751; 1397,381;   -0,654;    1,409
854,312; 1550,947;    1,256;   -1,682
854,874; 1713,967;   -0,108;   -0,773
855,435; 1539,715;    0,528;   -1,682
855,997; 1634,554;    3,983;   -0,136
856,558; 1631,029;    0,801;    1,773
857,119; 1514,322;   -0,744;    2,864
857,681; 1364,978;   -0,108;    0,318
858,242; 1596,908;    1,347;   -2,136
858,803; 1661,565;    1,074;   -0,773
859,364; 1596,494;    0,892;   -4,773
859,925; 1623,697;   -0,290;   -0,955
860,486; 1533,535;    0,529;   -0,955
861,047; 1403,283;    0,165;   -1,227
861,608; 1418,031;    0,165;   -0,773
862,169; 1380,596;   -0,562;   -0,045
862,730; 1412,799;   -0,290;    1,409
863,291; 1479,546;    0,438;   -0,500
863,852; 1459,930;   -0,926;    1,955
864,412; 1418,315;   -1,835;   -0,864
864,973; 1557,608;    1,892;    0,500
865,534; 1702,446;    2,074;    0,227
866,094; 1552,194;    2,620;    0,227
866,655; 1644,851;    4,711;    3,318
867,215; 1515,689;    0,074;    0,136
867,776; 1410,255;   -1,199;   -0,136
868,336; 1471,185;    1,529;    0,136
868,897; 1810,933;    3,438;    1,682
869,457; 1589,771;    3,256;    0,318
870,017; 1427,155;    2,438;   -1,227
870,578; 1462,448;    1,893;    0,773
871,138; 1417,741;    2,620;   -0,955
871,698; 1288,853;   -0,562;   -1,318
872,258; 1406,964;    0,711;   -2,864
872,818; 1638,530;    2,347;    0,045
873,378; 1441,278;   -2,198;    1,045
873,938; 1374,662;    4,984;    0,500
874,498; 1301,864;    1,256;   -1,955
875,058; 1365,612;    4,347;    1,773
875,618; 1366,996;    1,438;   -2,682
876,177; 1411,744;   -0,471;    0,136
876,737; 1176,491;   -0,289;    1,955
877,297; 1610,421;    2,711;    1,955
877,856; 1525,896;    2,529;    0,318
878,416; 1270,371;    2,438;   -0,136
878,976; 1270,300;    3,438;    0,409
879,535; 1351,139;    4,529;    3,136
880,095; 1319,705;    1,347;    0,045
880,654; 1207,089;    0,347;    1,318
881,213; 1550,291;    2,347;    1,500
881,773; 1353,221;    1,984;    2,682
882,332; 1976,241;    6,075;    5,136
882,891; 1392,170;    0,711;    2,136
883,451; 1403,645;   -2,016;    1,682
884,010; 1292,302;   -1,107;   -0,409
884,569; 1272,505;   -2,289;   -0,045
885,128; 1481,707;   -0,743;   -1,864
885,687; 1775,636;   -0,743;    0,682
886,246; 1928,020;    2,620;    2,136
886,805; 1633,859;    1,620;    2,045
887,364; 1314,607;    1,166;   -0,500
887,922; 1228,718;   -0,016;    0,045
888,481; 1370,193;    1,530;    0,591
889,040; 1518,668;    3,711;    2,136
889,599; 1402,779;    2,166;    1,409
890,157; 1421,254;    2,166;    2,409
890,716; 1326,002;    2,166;    0,227
891,274; 1424,841;    0,075;   -1,136
891,833; 1504,588;    1,166;    0,864
892,391; 1335,609;    1,802;    0,500
892,950; 1528,811;    0,166;   -0,773
893,508; 1333,468;    0,984;   -0,409
894,067; 1185,397;   -0,379;    0,136
894,625; 1287,054;   -1,016;   -1,500
895,183; 1265,074;   -0,198;   -0,682
895,741; 1571,095;    2,257;   -1,773
896,299; 1358,206;    1,621;   -2,409
896,858; 1270,136;    1,530;   -1,591
897,416; 1407,520;    0,166;   -1,318
897,974; 1330,540;   -2,197;    0,318
898,532; 1830,470;    6,530;    2,682
899,089; 1467,127;    0,621;   -0,682
899,647; 1346,511;    0,530;    1,318
900,205; 1400,531;    0,257;    1,045
900,763; 1400,006;    2,166;    0,227
901,321; 1367,481;    3,530;   -1,409
901,878; 1191,774;    3,257;   -0,773
902,436; 1229,249;    0,257;    1,318
902,994; 2037,088;    6,712;    3,682
903,551; 1505,745;    1,439;    0,409
904,109; 1402,856;    1,530;   -1,409
904,666; 1346,513;    1,439;    1,045
905,224; 1225,897;    3,894;   -0,409
905,781; 1362,917;   -0,470;   -0,318
906,338; 1279,210;    0,167;    1,045
906,895; 1167,685;    1,894;    2,045
907,453; 1461,342;    2,348;    1,136
908,010; 1305,363;    3,348;    0,409
908,567; 1227,837;   -0,561;    0,591
909,124; 1054,403;    2,439;   -1,500
909,681; 1108,969;   -1,288;    0,682
910,238; 1190,535;   -0,106;   -1,318
910,795; 1185,646;   -1,561;   -1,136
911,352; 1163,646;   -0,379;   -2,682
911,909; 1148,192;    2,803;   -0,864
912,466; 1203,101;    1,985;    1,500
913,022; 1221,192;   -0,924;    0,500
913,579; 1339,101;   -0,470;    2,045
914,136; 1181,374;   -2,561;    0,955
914,692; 1257,465;    1,530;   -1,227
915,249; 1187,374;    0,530;    0,409
915,806; 1285,556;    1,803;    1,955
916,362; 1167,737;    0,894;    1,864
916,918; 1066,465;    2,439;    1,045
917,475; 1297,101;    1,621;    0,955
918,031; 1123,556;    0,076;   -0,045
918,587; 1178,374;    0,621;   -0,318
919,144; 1087,556;   -0,379;    0,227
919,700; 1058,646;    0,167;    0,773
920,256; 1016,646;    0,439;    0,045
920,812; 1045,010;    1,439;   -1,045
921,368; 1004,283;    1,348;   -1,045
921,924; 1000,101;    0,439;   -0,136
922,480; 1089,919;    0,076;    1,227
923,036; 1135,283;   -0,652;    1,955
923,592; 1039,646;    0,621;    0,318
924,148; 1053,919;    1,894;   -0,955
924,704; 1190,919;    0,258;   -0,409
925,259; 1046,646;   -0,561;    0,591
925,815;  985,010;    3,803;    0,500
926,371;  943,646;    3,530;    1,409
926,926; 1102,919;    1,621;    0,591
927,482; 1051,010;    1,621;    0,773
928,037;  983,101;   -0,833;    2,045
928,593; 1190,556;    0,258;    1,045
929,148;  945,828;    1,167;   -1,500
929,704; 1014,101;    2,439;   -0,500
930,259;  893,737;    0,894;   -0,136
930,814; 1071,010;    1,803;    1,955
931,369;  999,828;    0,258;   -0,773
931,925;  802,465;   -1,924;    0,136
932,480;  897,283;    3,076;   -2,591
933,035; 1284,010;    3,985;   -0,318
933,590; 1155,465;   -1,742;   -1,773
934,145;  754,737;   -1,288;   -0,318
934,700;  684,374;    0,348;   -0,591
935,255;  750,737;    4,803;    0,045
935,809; 1065,374;    6,258;    0,864
936,364;  673,374;    2,167;   -0,136
936,919;  686,737;    2,348;   -1,773
937,474;  615,465;    1,348;    0,136
938,028;  631,283;    3,076;    1,136
938,583; 1011,192;    6,348;    4,682
939,138;  688,283;    0,167;    2,136
939,692;  540,556;   -1,015;   -1,136
940,247;  567,919;    1,167;   -1,045
940,801;  626,101;    0,621;    0,227
941,355;  543,101;    0,439;    2,591
941,910;  433,646;    0,712;   -2,136
942,464;  472,101;    2,712;   -0,318
943,018;  718,374;    3,258;   -0,227
943,572;  548,919;    2,803;   -0,682
944,126;  589,101;   -0,924;   -0,409
944,681;  466,828;    0,712;    0,227
945,235;  417,646;    2,167;   -0,591
945,789;  376,646;    1,258;   -1,864
946,342;  659,737;   -0,561;   -0,591
946,896;  427,465;    0,348;    0,955
947,450;  398,919;   -0,561;   -0,227
948,004;  637,737;    1,076;   -0,045
948,558;  464,737;    1,258;   -0,864
949,111;  449,010;   -1,197;   -0,318
949,665;  636,465;   -0,106;   -0,682
950,219;  591,556;    0,621;   -1,045
950,772;  513,192;    0,258;    1,864
951,326;  518,646;   -1,106;   -0,955
951,879;  447,919;    1,076;   -2,318
952,433;  575,556;    1,348;    2,227
952,986;  415,101;    0,348;    0,682
953,539;  369,465;    1,530;    0,591
954,093;  326,283;    0,985;   -1,318
954,646;  455,465;   -0,288;    1,318
955,199;  370,283;    1,258;   -0,500
955,752;  584,465;    1,985;    1,773
956,305;  429,828;    0,894;    2,955
956,858;  489,010;    0,621;   -0,318
957,411;  553,828;    3,621;    2,136
957,964;  452,828;    2,076;    2,136
958,517;  373,283;    0,985;    3,136
959,070;  336,283;   -1,197;    1,955
959,623;  595,192;    1,076;    1,500
960,176;  541,101;    0,712;    2,045
960,728;  501,192;    1,712;    0,773
961,281;  448,737;    2,258;    0,500
961,834;  377,646;   -0,833;    0,864
962,386;  384,556;    1,258;    1,045
962,939;  350,283;    3,439;   -0,318
963,491;  395,374;    2,621;    1,136
964,043;  334,828;    0,076;    2,409
964,596;  509,192;    1,712;    2,227
965,148;  408,556;   -0,379;    1,773
965,700;  336,828;   -0,015;   -0,227
966,253;  496,556;   -0,833;    0,318
966,805;  447,646;    1,894;    0,773
967,357;  374,374;    0,439;   -1,500
967,909;  479,646;    1,167;   -1,227
968,461;  377,737;    0,894;    3,136
969,013;  330,646;   -1,561;   -0,864
969,565;  482,556;    1,803;   -1,136
970,117;  713,101;    3,803;    1,045
970,669;  484,737;    3,258;   -0,136
971,220;  289,010;    2,167;   -1,500
971,772;  372,737;    1,348;   -0,318
972,324;  461,283;   -1,197;   -0,500
972,876;  369,283;    0,167;   -0,045
973,427;  484,737;   -1,197;   -1,045
973,979;  552,374;    0,076;   -2,500
974,530;  364,465;    0,803;    1,318
975,082;  425,010;    2,167;    1,682
975,633;  372,737;    2,894;    1,682
976,184;  431,919;    2,076;    0,773
976,736;  418,010;    0,348;    0,227
977,287;  424,737;    0,258;   -0,500
977,838;  391,465;   -0,924;   -0,318
978,389;  398,646;    0,803;   -0,500
978,940;  285,465;    1,258;   -0,409
979,491;  280,192;    2,258;   -0,500
980,042;  359,556;   -0,652;    3,045
980,593;  380,737;    1,894;    0,227
981,144;  465,374;    3,530;   -0,500
981,695;  495,919;   -0,470;    1,500
982,246;  440,101;   -1,833;    1,045
982,797;  328,919;   -0,561;    0,682
983,347;  472,192;    2,167;    0,591
983,898;  652,556;    4,167;    0,409
984,449;  611,192;    2,530;    0,773
984,999;  458,374;    1,894;   -1,136
985,550;  416,192;    3,167;   -0,318
986,100;  292,010;    0,712;   -0,318
986,651;  286,374;    0,258;    0,045
987,201;  319,646;    0,894;   -0,591
987,751;  336,283;   -0,288;    2,864
988,302;  374,101;   -0,379;    1,500
988,852;  416,737;    1,985;   -1,136
989,402;  466,465;    0,985;    0,682
989,952;  488,919;    1,621;    0,864
990,502;  361,101;    1,076;    0,682
991,052;  272,374;   -0,106;    0,045
991,602;  305,556;    1,167;    1,318
992,152;  356,556;    2,803;    0,682
992,702;  387,737;    1,167;   -0,045
993,252;  335,828;    0,076;   -0,500
993,802;  424,374;    1,167;    1,318
994,352;  385,556;   -0,742;    1,136
994,901;  309,828;    1,076;    3,227
995,451;  294,374;   -1,197;    0,318
996,000;  329,192;    1,076;    0,318
996,550;  328,556;    2,894;    0,227
997,100;  363,919;   -0,561;   -0,045
997,649;  501,283;   -0,197;    0,955
998,198;  332,374;   -0,288;   -1,500
998,748;  429,374;    0,348;   -2,318
999,297;  369,646;    0,985;   -0,409
999,846;  494,737;    1,894;   -0,773
1000,395;  408,828;    1,530;    0,500
1000,945;  510,101;    1,076;   -0,773
1001,494;  514,192;    0,167;    0,682
1002,043;  497,737;    0,712;    0,864
1002,592;  330,919;    3,439;    1,955
1003,141;  323,828;    2,439;   -0,682
1003,690;  468,646;    1,258;    0,500
1004,238;  356,010;   -0,106;   -0,045
1004,787;  274,283;   -1,288;    1,227
1005,336;  444,828;    1,621;    0,682
1005,885;  401,192;   -0,197;   -2,773
1006,433;  392,828;   -0,470;    0,955
1006,982;  577,010;    2,167;    1,682
1007,531;  434,192;    2,712;   -0,227
1008,079;  388,010;    0,258;    0,500
1008,627;  337,919;    1,621;    0,409
1009,176;  353,010;    0,076;   -1,955
1009,724;  305,828;   -2,742;    0,864
1010,273;  446,556;    1,076;    0,500
1010,821;  347,465;    1,076;    1,409
1011,369;  297,465;    0,076;    1,318
1011,917;  312,374;   -0,833;   -0,591
1012,465;  394,465;    2,530;   -1,591
1013,013;  390,101;    0,439;   -1,682
1013,561;  484,919;   -1,288;   -0,773
1014,109;  568,374;   -0,833;    1,682
1014,657;  448,374;    1,348;    0,591
1015,205;  356,010;    0,894;   -0,955
1015,753;  315,101;    0,258;   -1,409
1016,301;  381,828;    2,621;    3,045
1016,848;  452,919;    2,167;    0,409
1017,396;  445,646;    1,621;    0,045
1017,944;  444,010;    2,621;    1,864
1018,491;  359,828;   -0,197;    1,409
1019,039;  660,828;   -0,652;    0,591
1019,586;  423,919;    0,076;    1,682
1020,134;  401,919;    0,712;    1,500
1020,681;  470,010;    2,894;   -1,136
1021,228;  391,646;   -0,561;   -2,227
1021,776;  374,737;   -0,833;   -1,136
1022,323;  584,465;    0,803;    0,773
1022,870;  491,192;   -0,470;   -0,045
1023,417;  534,283;    2,076;    1,864
1023,964;  382,828;    0,621;    1,227
1024,511;  363,646;   -0,652;    0,773
1025,058;  389,192;    0,439;   -0,045
1025,605;  346,828;   -1,742;    3,136
1026,152;  551,556;   -0,106;   -0,591
1026,699;  413,556;    0,167;    1,318
1027,245;  399,283;    2,439;    0,318
1027,792;  351,465;    0,712;    1,409
1028,339;  547,283;    4,076;   -0,045
1028,885;  411,192;    3,621;   -0,227
1029,432;  360,010;   -0,106;    0,227
1029,978;  465,737;    1,348;   -1,591
1030,525;  455,465;    1,621;    0,409
1031,071;  345,556;    0,348;    1,136
1031,618;  606,556;    1,258;    1,682
1032,164;  447,374;    2,076;    3,045
1032,710;  490,010;    0,076;   -1,500
1033,256;  454,646;    0,712;   -0,136
1033,803;  322,465;   -0,288;    1,500
1034,349;  205,374;    1,803;    0,136
1034,895;  257,283;    2,621;   -0,318
1035,441;  321,010;    0,439;    0,318
1035,987;  361,374;   -2,288;   -0,682
1036,533;  430,010;   -0,197;   -0,955
1037,078;  614,465;    4,712;    1,682
1037,624;  473,283;    2,439;   -0,955
1038,170;  353,283;    1,712;   -0,318
1038,716;  424,283;    2,167;   -0,409
1039,261;  319,010;    2,167;   -0,773
1039,807;  326,465;   -0,015;    3,409
1040,352;  356,737;   -1,288;   -0,318
1040,898;  353,192;    0,167;   -0,682
1041,443;  278,737;    0,803;   -2,591
1041,989;  556,737;    3,621;    1,591
1042,534;  370,465;    0,985;    2,591
1043,079;  274,283;    1,985;    0,955
1043,625;  360,646;    0,258;    0,500
1044,170;  385,192;    2,439;    1,045
1044,715;  568,737;    0,167;    0,955
1045,260;  469,010;   -0,833;   -0,955
1045,805;  332,283;    0,258;   -0,591
1046,350;  296,737;    0,530;   -0,409
1046,895;  464,465;    0,803;    1,591
1047,440;  453,010;    1,530;    0,409
1047,985;  340,192;   -1,197;   -0,955
1048,530;  308,374;    1,348;    1,227
1049,074;  358,010;    2,803;    0,318
1049,619;  300,556;   -0,924;    1,955
1050,164;  291,646;    1,076;    0,227
1050,708;  376,465;    2,621;    0,045
1051,253;  605,556;    3,258;   -2,227
1051,797;  415,010;   -0,197;   -1,318
1052,342;  271,828;    1,348;    1,045
1052,886;  345,737;    1,803;   -1,409
1053,430;  247,283;    2,167;    0,136
1053,975;  338,919;    0,894;   -0,318
1054,519;  347,101;    1,803;    3,227
1055,063;  399,192;    3,621;    1,318
1055,607;  372,646;    1,348;    0,227
1056,151;  375,737;    0,530;    1,682
1056,695;  301,010;   -1,833;   -1,136
1057,239;  290,737;   -1,197;   -0,682
1057,783;  339,919;    2,258;   -1,500
1058,327;  403,101;    3,076;    1,409
1058,871;  533,283;    3,985;    1,318
1059,415;  407,374;   -0,561;   -0,045
1059,958;  543,283;    2,985;    2,591
1060,502;  331,646;    1,348;   -0,773
1061,046;  242,192;    1,712;   -0,955
1061,589;  233,101;    2,803;   -1,136
1062,133;  203,465;    0,985;    1,864
1062,676;  244,010;    1,439;    0,864
1063,220;  276,101;    0,985;    0,500
1063,763;  301,919;    2,985;    1,136
1064,306;  323,101;    0,985;    1,864
1064,849;  316,465;    2,076;    0,591
1065,393;  298,737;    2,894;   -1,500
1065,936;  307,101;    2,530;   -0,409
1066,479;  236,737;    2,621;    1,318
1067,022;  258,737;    1,894;   -0,227
1067,565;  229,828;   -1,197;   -1,318
1068,108;  217,374;    1,258;   -0,591
1068,651;  186,646;   -2,470;    1,409
1069,194;  194,556;   -1,106;   -1,682
1069,736;  211,828;    3,803;    0,955
1070,279;  184,556;   -1,652;   -0,500
1070,822;  262,374;    1,530;   -0,318
1071,364;  372,646;    0,530;    1,318
1071,907;  246,010;    0,348;    3,227
1072,450;  127,192;    0,258;   -0,045
1072,992;  194,192;   -0,561;    3,136
1073,535;  254,192;    0,167;    2,136
1074,077;  183,374;    2,985;    2,045
1074,619;  177,646;    0,985;    0,591
1075,161;  208,646;   -0,561;    1,500
1075,704;  322,283;    0,258;    1,227
1076,246;  202,737;    1,530;    0,682
1076,788;  145,374;   -1,015;    1,773
1077,330;  148,828;   -2,106;    2,136
1077,872;  187,192;   -1,924;    0,955
1078,414;  342,737;    3,712;    0,773
1078,956;  207,010;    0,167;   -0,227
1079,498;  329,283;    0,439;    0,318
1080,040;  207,556;    0,985;   -1,318
1080,581;  175,465;    0,621;   -0,318
1081,123;  126,010;   -0,106;   -0,773
1081,665;  136,192;    3,803;   -0,955
1082,206;  301,919;    3,258;   -0,500
1082,748;  226,192;    3,258;    2,045
1083,289;  152,646;    0,167;    1,318
1083,831;  139,101;    0,258;    0,227
1084,372;  177,192;    0,894;    0,591
1084,913;  171,828;    3,348;    0,864
1085,455;  138,374;    1,530;   -2,045
1085,996;  131,192;    0,530;    0,136
1086,537;  159,101;    0,985;    0,864
1087,078;  170,919;    0,439;   -2,136
1087,619;  210,737;   -1,652;    0,227
1088,160;  177,010;    1,439;    1,318
1088,701;  161,374;   -0,742;    0,682
1089,242;  145,192;   -0,561;   -2,227
1089,783;  187,192;   -0,561;    1,409
1090,324;  171,192;   -0,833;    0,682
1090,865;  127,192;   -1,924;   -0,409
1091,405;  107,737;   -0,561;    2,227
1091,946;  146,101;   -0,197;   -0,955
1092,487;  100,101;   -1,288;   -1,409
1093,027;  195,646;    1,803;   -1,500
1093,568;  133,828;    2,258;    1,227
1094,108;  167,465;    0,621;    1,773
1094,649;  140,556;   -0,470;    0,136
1095,189;  116,465;    1,167;   -0,682
1095,729;  108,283;    0,712;    0,955
1096,269;   99,737;    1,258;   -0,955
1096,810;  230,374;   -0,197;    0,500
1097,350;  180,101;   -0,561;   -0,773
1097,890;  138,374;    2,985;    1,227
1098,430;  280,283;    4,985;    2,864
1098,970;  224,283;    1,894;    1,682
1099,510;  126,828;   -0,833;   -2,318
1100,050;  107,374;    0,258;   -1,591
1100,589;  116,010;    0,076;   -0,318
1101,129;  159,010;    0,894;   -0,955
1101,669;  230,101;    2,803;    2,136
1102,209;  161,283;    1,530;    2,227
1102,748;  133,465;    3,439;    0,955
1103,288;  138,556;    0,712;   -1,227
1103,827;  131,010;    3,530;   -2,227
1104,367;   99,465;    1,712;   -2,409
1104,906;  102,556;   -1,015;   -1,136
1105,445;  141,556;    0,985;   -1,136
1105,985;  112,192;   -0,652;    1,500
1106,524;  124,828;    1,530;   -0,682
1107,063;  113,646;    1,167;    1,409
1107,602;   98,374;    1,894;   -1,500
1108,141;   82,283;    1,621;    1,500
1108,680;  128,283;    3,985;   -0,591
1109,219;  108,919;    0,167;   -0,500
1109,758;  104,010;    4,167;    0,682
1110,297;   98,919;   -1,106;   -0,682
1110,836;   76,192;    1,439;    0,955
1111,375;   99,374;    0,348;    0,409
1111,913;  135,192;    0,985;    0,773
1112,452;  112,192;    0,894;    0,136
1112,991;   75,374;    1,076;    1,955
1113,529;   71,283;    0,167;   -0,045
1114,068;   90,192;    0,439;    2,955
1114,606;   67,828;   -0,561;   -0,955
1115,144;  126,283;    1,530;    1,045
1115,683;  100,737;    1,985;    0,318
1116,221;  124,283;    2,076;   -0,864
1116,759;   85,919;    1,621;   -0,864
1117,297;  145,101;    1,621;    1,864
1117,836;   90,192;    1,985;   -1,227
1118,374;   92,465;    0,258;   -0,682
1118,912;   90,192;    0,439;    2,682
1119,450;   84,283;    0,985;    0,864
1119,988;   85,374;    3,348;    2,136
1120,525;  325,465;    7,258;    3,318
1121,063;  170,737;    0,530;    1,864
1121,601;   88,737;    1,076;   -1,227
1122,139;   67,828;    1,076;   -2,045
1122,676;  154,465;   -1,652;    2,773
1123,214;  134,919;    0,712;    4,409
1123,751;   66,192;    0,621;    2,227
1124,289;   97,010;    0,894;   -0,409
1124,826;   71,010;   -0,379;    0,227
1125,364;   40,465;    0,712;   -0,955
1125,901;  125,465;    6,258;    1,227
1126,438;  130,010;    3,530;    0,955
1126,975;   41,192;    2,985;   -0,773
1127,513;   60,737;    2,621;    2,136
1128,050;   44,192;   -0,561;   -0,682
1128,587;   67,192;    1,348;   -0,227
1129,124;   90,646;   -0,015;    1,318
1129,661;   54,465;   -1,924;    0,227
1130,198;  110,283;    2,439;    0,773
1130,734;   81,010;   -0,379;    1,409
1131,271;   39,374;   -1,197;    0,864
1131,808;   99,465;    1,621;    3,045
1132,345;   57,646;    4,530;    0,318
1132,881;   23,737;   -0,561;   -1,864
1133,418;   68,283;    0,348;   -1,136
1133,954;   43,828;    0,712;   -2,682
1134,491;   70,556;    1,712;   -0,773
1135,027;   43,101;    2,167;    0,864
1135,564;   64,919;    1,439;    2,955
1136,100;   60,283;   -0,742;    2,136
1136,636;   40,737;   -1,015;   -1,045
1137,172;   57,101;    0,894;   -1,045
1137,708;   43,283;   -1,561;   -1,045
1138,245;   36,101;    0,803;   -1,227
1138,781;   26,465;    1,803;   -3,318
1139,317;   41,919;    1,894;   -1,409
1139,852;   49,283;    3,076;    0,136
1140,388;   72,556;    2,076;   -0,409
1140,924;   42,283;    1,076;   -2,227
1141,460;   29,010;   -0,288;    0,136
1141,996;   15,010;   -0,652;    2,682
1142,531;   25,101;    1,076;    3,318
1143,067;   88,737;    1,167;    1,045
1143,602;  114,010;    3,439;   -0,318
1144,138;   56,465;    0,803;    1,045
1144,673;   24,465;    1,621;    1,409
1145,209;   38,192;    2,894;   -0,318
1145,744;   17,919;    0,803;    0,864
1146,279;   52,101;    1,530;   -0,136
1146,815;   33,828;    1,530;   -2,682
1147,350;   46,737;   -0,924;    0,045
1147,885;   22,828;   -1,924;   -1,318
1148,420;   22,010;    2,439;    0,773
1148,955;   23,374;   -1,470;    1,864
1149,490;   23,919;   -1,106;   -1,591
1150,025;   17,556;   -1,106;   -1,773
1150,560;   49,283;   -0,288;   -0,955
1151,094;   39,919;    0,258;   -0,591
1151,629;   38,283;   -3,742;    0,864
1152,164;   28,101;   -1,288;    1,318
1152,698;   19,646;    1,258;   -0,136
1153,233;   10,101;   -1,379;   -0,682
1153,767;   19,465;   -0,288;   -2,318
1154,302;   31,556;   -0,379;    1,773
1154,836;   27,465;    0,803;   -2,136
1155,371;   34,556;    2,258;    3,682
1155,905;   24,828;    1,985;    1,682
1156,439;   26,010;    0,530;   -0,500
1156,973;   32,192;    0,439;    0,318
1157,507;   15,919;   -1,742;    0,682
1158,042;   23,737;   -0,652;    1,045
1158,576;   30,828;   -0,561;    1,773
1159,110;   27,374;    0,076;    2,409
1159,643;   23,828;   -2,470;   -0,045
1160,177;    9,556;   -2,015;    1,500

