
Integration time [ms]:   0,050
Averaging Nr. [scans]: 11
Smoothing Nr. [pixels]: 0
Data measured with spectrometer [name]: 7318044SP
Wave   ;Sample   ;Dark     ;Reference
[nm]   ;[counts] ;[counts] ;[counts] 

186,757;    6,498;   38,161;    1,318
187,357;    7,858;   26,706;    0,955
187,958;    3,598;   17,252;   -1,591
188,558;   14,491;   12,979;   -1,227
189,159;    3,232;   10,070;   -4,500
189,759;   -1,864;    5,797;   -3,591
190,360;    0,254;    6,797;   -2,136
190,960;    7,639;    5,706;   -4,136
191,560;   13,927;    2,614;   -6,591
192,161;   76,474;    5,885;   -3,500
192,761;   42,971;    5,520;   -3,227
193,361;   24,268;    3,065;   -3,773
193,962;   36,388;    1,612;   -2,682
194,562;   14,757;   -0,114;   -3,955
195,162;   13,847;   -0,567;   -2,227
195,762;   50,967;    2,433;   -0,045
196,362;   29,465;    1,706;   -2,500
196,963;   10,436;    1,706;   -0,864
197,563;   21,858;    1,252;   -0,955
198,163;    7,439;   -0,111;   -0,682
198,763;   11,289;   -0,020;   -0,500
199,363;   24,934;    3,616;   -0,500
199,963;   18,958;    2,162;    0,409
200,563;   15,823;    6,344;   -1,409
201,163;    8,609;    5,435;   -0,227
201,763;   18,318;    1,435;    0,318
202,363;   11,349;    0,980;    1,500
202,963;   20,863;    1,526;    1,045
203,563;   42,734;    0,344;    0,500
204,162;   21,385;    1,889;   -1,864
204,762;   17,357;    2,071;    0,591
205,362;   11,204;    0,708;    1,955
205,962;   19,151;    3,435;    1,955
206,562;   17,264;    1,889;    2,318
207,161;   10,485;    1,708;    0,318
207,761;   51,083;    4,435;    2,409
208,361;   24,665;    1,889;    1,409
208,960;   26,612;    2,889;    1,500
209,560;   23,913;    0,435;    1,591
210,160;   34,954;    5,071;    1,864
210,759;   28,828;    0,708;    1,227
211,359;   20,239;   -0,474;    1,045
211,958;   85,419;    3,526;    2,045
212,558;   88,761;    0,799;    1,864
213,157;   44,080;   -0,929;    1,500
213,757;  139,988;    5,617;   -0,227
214,356;   66,932;    1,708;   -0,409
214,956;  136,373;    3,526;    0,409
215,555;   56,460;    0,617;    2,136
216,154;   36,825;   -0,292;   -0,591
216,754;   34,999;    1,253;    0,773
217,353;   48,832;   -0,383;   -1,045
217,952;   17,443;    2,072;    0,318
218,552;   66,901;    0,254;   -0,773
219,151;   43,036;   -1,110;    0,955
219,750;   38,197;    0,890;   -0,227
220,349;   34,099;   -2,292;    1,045
220,948;   90,240;    1,163;    1,136
221,548;   47,698;    0,617;    1,227
222,147;   63,772;   -1,292;   -0,409
222,746;  133,593;    1,254;   -0,955
223,345;   84,066;   -1,019;    0,500
223,944;   89,633;    1,163;    0,773
224,543;   98,132;    4,072;   -1,409
225,142;   85,045;    1,345;    0,136
225,741;   93,020;    1,163;    1,045
226,340;   88,039;    1,254;   -0,955
226,939;  162,856;    2,708;   -0,136
227,538;   88,556;    1,163;   -0,773
228,137;  178,826;    0,435;    0,864
228,735;  150,368;    0,435;    1,227
229,334;   68,906;   -0,474;   -0,227
229,933;  196,370;    0,799;    0,591
230,532;  203,691;   -1,201;   -0,409
231,131;  258,300;    1,253;    0,318
231,729;  173,352;    1,163;   -2,318
232,328;  132,068;    0,435;   -1,500
232,927;  142,914;    4,526;   -0,500
233,525;  141,974;    0,981;    0,045
234,124;  175,508;    1,890;   -1,591
234,723;  126,628;    1,617;   -1,045
235,321;  118,138;    1,163;    0,136
235,920;  150,083;    2,526;   -1,227
236,518;  267,957;    1,072;    0,318
237,117;  150,518;    2,890;   -0,227
237,715;  174,636;    1,163;   -0,500
238,314;  204,884;    1,708;   -2,318
238,912;  305,612;    0,526;   -1,409
239,510;  229,416;    1,162;   -1,227
240,109;  315,796;   -0,474;    3,773
240,707;  289,267;   -0,474;    1,227
241,305;  174,475;   -0,383;    0,136
241,904;  252,566;   -0,292;   -2,045
242,502;  350,485;    3,253;   -0,227
243,100;  264,447;    3,344;   -0,955
243,698;  206,837;    2,799;    1,682
244,297;  242,364;   -0,656;    0,682
244,895;  238,404;   -0,474;   -2,318
245,493;  384,347;    2,981;   -0,591
246,091;  386,604;    5,163;   -1,318
246,689;  321,237;    2,163;    0,591
247,287;  300,505;   -0,019;   -1,136
247,885;  267,395;   -1,019;    1,227
248,483;  243,228;   -0,201;   -0,500
249,081;  313,916;    0,981;    1,591
249,679;  343,812;   -1,019;    1,682
250,277;  238,642;   -2,292;    0,864
250,875;  347,450;    0,617;   -1,045
251,473;  258,432;   -0,019;    0,500
252,071;  347,591;   -0,383;    1,045
252,669;  273,178;   -1,565;    0,318
253,267;  230,663;    1,618;    0,773
253,864;  280,596;    0,617;    0,682
254,462;  407,839;    1,526;    1,591
255,060;  243,002;    0,072;    1,318
255,658;  229,633;   -3,292;   -0,136
256,255;  295,229;   -0,201;   -2,045
256,853;  333,122;    2,345;    1,409
257,451;  307,431;    1,981;    1,864
258,048;  668,686;    2,072;    1,864
258,646;  412,017;    0,436;   -1,045
259,243;  494,486;    2,981;    2,227
259,841;  393,817;    1,799;    0,318
260,438;  270,124;    0,254;    0,864
261,036;  385,824;    0,617;    1,409
261,633;  298,913;    1,526;    2,227
262,231;  257,532;   -0,110;   -0,045
262,828;  261,617;   -0,383;    1,136
263,425;  306,860;   -1,928;   -0,591
264,023;  307,730;    1,436;    0,045
264,620;  425,828;    1,526;   -0,318
265,217;  536,909;    2,890;    3,136
265,815;  318,090;    2,527;    2,136
266,412;  414,280;    0,072;    0,136
267,009;  426,609;    0,526;    0,773
267,606;  500,926;    0,345;   -0,955
268,203;  337,748;   -0,383;   -0,591
268,801;  368,540;   -0,474;    0,591
269,398;  301,497;   -0,564;    2,500
269,995;  429,708;    0,890;    1,591
270,592;  369,180;    0,799;   -0,500
271,189;  302,771;    1,981;    0,409
271,786;  279,229;    2,072;    1,227
272,383;  487,649;   -0,383;    0,227
272,980;  359,888;    1,617;    0,318
273,577;  328,955;    2,162;    1,227
274,174;  294,335;    1,435;    2,591
274,771;  414,997;    1,890;   -0,773
275,367;  761,316;    3,253;    1,409
275,964;  576,543;   -0,565;   -0,500
276,561;  394,825;   -2,474;   -1,045
277,158;  323,903;    1,799;   -1,773
277,755;  542,189;   -0,110;    0,409
278,351;  432,286;    0,436;   -1,500
278,948;  493,275;   -0,201;    0,045
279,545;  431,324;    0,527;    2,318
280,141;  607,144;    1,254;   -2,045
280,738;  569,353;    2,435;   -0,136
281,334;  385,043;   -0,383;    0,591
281,931;  399,250;    2,890;   -1,318
282,528;  491,325;    4,072;   -0,500
283,124;  567,111;    3,345;   -0,500
283,721;  559,236;    0,709;    1,409
284,317;  426,347;    0,163;    2,500
284,913;  596,787;   -0,110;    0,591
285,510;  827,697;    2,890;   -0,318
286,106;  645,922;    2,345;   -0,955
286,703;  449,081;    0,072;    1,955
287,299;  400,272;    1,254;   -0,591
287,895;  393,920;    0,890;   -1,045
288,491;  388,407;    0,163;    2,136
289,088;  491,347;    0,163;    2,409
289,684;  533,178;    2,890;    1,500
290,280;  663,224;    1,890;    0,682
290,876;  619,641;    0,163;    5,500
291,472;  535,540;    2,163;    2,227
292,068;  542,656;    1,254;    0,227
292,665;  427,999;   -0,564;    0,773
293,261;  335,233;   -1,292;    2,136
293,857;  513,490;    4,072;    2,136
294,453;  435,003;   -0,928;    0,955
295,049;  631,173;    0,253;    1,955
295,644;  479,544;   -1,292;    0,136
296,240;  353,664;    0,162;   -0,136
296,836;  466,677;   -0,747;    0,318
297,432;  588,886;    2,980;   -0,500
298,028;  631,343;    0,435;    0,773
298,624;  495,960;    0,889;    1,864
299,220;  478,745;    0,435;    0,591
299,815;  461,972;    0,526;   -0,409
300,411;  553,809;    0,435;    1,773
301,007;  651,696;    1,889;    0,227
301,602;  498,046;    2,071;   -2,318
302,198;  613,570;    1,435;   -0,773
302,794;  476,642;    1,526;   -0,500
303,389;  428,835;    1,071;    1,045
303,985;  474,844;    1,253;    1,409
304,580;  590,548;    0,889;    1,591
305,176;  507,899;    0,344;    0,136
305,771;  391,296;   -0,929;   -1,227
306,367;  754,229;    3,071;    0,136
306,962;  538,501;    2,889;    1,500
307,558;  582,589;    2,435;    0,136
308,153;  638,357;   -0,383;   -1,136
308,748;  443,334;    0,162;    1,682
309,344;  789,684;    0,253;   -1,318
309,939;  797,835;    2,071;   -1,318
310,534;  511,669;   -2,020;   -1,682
311,130;  480,704;   -0,656;   -2,500
311,725;  437,278;    0,526;   -0,500
312,320;  490,325;    1,253;    0,045
312,915;  597,127;    2,890;   -1,045
313,510;  797,828;    0,526;   -0,500
314,105;  541,983;   -3,565;    1,409
314,700;  392,194;   -1,656;   -1,045
315,295;  469,366;   -0,020;    0,045
315,890;  407,312;   -0,292;    0,864
316,485;  508,740;    0,253;   -0,318
317,080;  438,781;   -0,929;    1,591
317,675;  721,783;    3,071;   -0,682
318,270;  923,315;    6,889;    3,318
318,865;  818,220;    2,435;    3,045
319,460;  647,409;   -1,565;    0,591
320,055;  500,551;   -2,565;   -1,227
320,650;  491,077;   -1,838;   -0,591
321,244;  500,387;    0,889;   -1,409
321,839;  531,750;    0,980;   -0,227
322,434;  573,325;   -0,111;   -1,591
323,029;  496,607;   -0,474;    1,591
323,623;  462,062;    0,798;    0,773
324,218;  634,672;    2,707;    1,409
324,812;  568,737;    0,889;    1,591
325,407;  566,772;   -0,929;    2,045
326,002;  677,324;    0,526;   -0,409
326,596;  624,183;   -0,656;    1,318
327,191;  473,760;   -0,383;   -1,045
327,785;  458,001;   -0,747;   -0,227
328,379;  491,671;   -0,383;    0,136
328,974;  527,490;    1,798;   -3,955
329,568;  559,923;    2,889;   -2,409
330,163;  631,433;    2,435;    1,045
330,757;  477,386;    0,253;    1,591
331,351;  420,348;   -0,292;    0,682
331,945;  411,275;   -0,383;    1,409
332,540;  547,715;    1,617;   -0,591
333,134;  527,028;    3,344;    0,773
333,728;  516,804;    2,799;    0,318
334,322;  432,119;    0,889;   -0,864
334,916;  414,975;    0,344;    0,955
335,510;  580,069;   -0,111;   -0,136
336,105;  576,942;   -0,929;    1,591
336,699;  453,635;   -1,292;    0,591
337,293;  495,694;    1,071;    0,318
337,887;  432,417;    0,071;    1,955
338,481;  573,167;    2,980;    0,591
339,074;  683,062;    2,071;    2,682
339,668;  658,498;   -0,110;    1,227
340,262; 1215,396;    7,708;    3,227
340,856;  811,555;    1,708;   -0,682
341,450;  479,495;    0,708;    1,864
342,044;  553,239;    1,799;    0,136
342,637;  675,796;    1,162;   -2,136
343,231;  659,524;   -1,474;    0,682
343,825;  546,358;   -0,747;   -0,591
344,419;  525,205;   -0,474;    0,500
345,012; 1046,447;    2,889;    4,045
345,606;  836,061;   -0,656;    1,591
346,199;  534,652;   -0,111;   -0,227
346,793;  655,724;    2,525;    2,045
347,386;  479,186;    0,889;   -1,136
347,980;  367,955;   -0,838;   -0,045
348,573;  469,442;   -1,748;    0,409
349,167;  746,741;    6,161;    4,773
349,760;  635,840;    2,252;    2,682
350,354;  589,492;    1,616;    1,136
350,947;  634,750;    2,798;    1,682
351,540;  503,289;    0,616;   -1,409
352,134;  376,841;   -1,111;    1,136
352,727;  397,210;   -0,657;    1,136
353,320;  421,678;    2,343;    0,591
353,913;  356,428;   -1,929;    1,864
354,507;  556,901;    0,434;   -1,227
355,100;  449,788;    0,071;    0,864
355,693;  835,111;    4,798;    2,409
356,286;  600,838;    0,980;    2,773
356,879;  457,847;   -0,475;    1,227
357,472;  440,859;    0,980;    1,500
358,065;  493,437;    3,161;    2,500
358,658;  356,843;    0,798;    2,318
359,251;  319,942;    0,252;   -0,591
359,844;  495,063;    0,343;   -1,136
360,437;  575,885;    0,252;    0,045
361,030;  420,577;    0,525;   -0,682
361,623;  423,118;    0,434;    0,318
362,215;  644,791;    0,979;    2,045
362,808;  496,903;   -2,293;   -1,682
363,401;  424,815;    0,798;    0,136
363,994;  643,782;    3,252;   -1,500
364,586;  435,225;    0,888;   -1,500
365,179;  392,708;   -0,203;   -1,136
365,772;  254,404;   -0,930;    2,045
366,364;  396,199;    1,524;   -3,227
366,957;  465,581;    1,342;   -0,045
367,549;  407,812;   -0,203;   -0,864
368,142;  413,995;    0,978;   -1,500
368,734;  383,545;    2,523;   -2,136
369,327;  315,387;    2,341;   -0,500
369,919;  357,995;   -1,659;    0,409
370,512;  384,370;   -1,023;   -0,500
371,104;  638,881;    2,704;    1,591
371,696;  671,518;    1,703;   -0,955
372,289;  518,474;    0,157;    1,136
372,881;  468,070;    1,156;    1,318
373,473;  357,374;    4,064;    1,136
374,066;  447,663;    1,336;    0,500
374,658;  425,940;    0,879;    1,136
375,250;  362,257;   -1,668;   -1,409
375,842;  410,107;   -0,124;   -0,045
376,434;  377,232;   -2,762;   -0,409
377,026;  384,010;   -1,855;   -2,500
377,618;  422,102;    0,779;   -0,682
378,210;  360,933;    3,141;   -1,955
378,802;  343,183;    3,412;   -0,591
379,394;  736,717;    3,411;    0,682
379,986;  505,275;    1,138;   -0,955
380,578;  407,992;    1,410;    0,773
381,170;  639,703;    0,320;    0,045
381,762;  532,345;   -0,224;    1,409
382,354;  487,540;   -0,223;   -1,318
382,945;  401,746;    0,870;    0,318
383,537;  347,841;    1,144;   -1,955
384,129;  345,237;    0,963;   -1,136
384,721;  465,621;    0,418;    0,955
385,312;  394,943;   -1,399;   -0,955
385,904;  492,108;   -0,945;    1,591
386,496;  406,896;    0,691;    1,045
387,087;  549,405;    0,418;    2,500
387,679;  491,120;   -0,401;    0,045
388,270;  472,584;   -2,401;    2,045
388,862;  441,460;   -0,401;   -0,318
389,453;  409,697;    1,054;    1,045
390,045;  430,241;    3,236;   -2,682
390,636;  335,053;    0,144;   -0,591
391,227;  386,538;    2,054;   -0,045
391,819;  373,235;    0,781;    0,773
392,410;  633,774;    0,600;    0,045
393,001;  441,846;    1,600;   -1,591
393,593;  503,992;    0,600;   -0,045
394,184;  547,945;    0,873;   -0,409
394,775;  418,677;    1,146;    2,136
395,366;  358,638;    1,782;    0,773
395,957;  551,873;   -2,400;    0,136
396,548;  440,693;    1,054;    2,682
397,139;  578,096;    2,236;    0,591
397,730;  471,084;    0,873;    0,955
398,321;  486,715;    0,509;    0,955
398,912;  419,381;   -0,764;    0,136
399,503;  425,648;   -1,945;   -1,409
400,094;  469,706;   -1,582;    1,682
400,685;  458,884;    3,600;    0,045
401,276;  394,855;   -0,400;   -0,955
401,867;  379,287;   -1,127;    0,773
402,458;  351,574;    1,509;   -2,318
403,048;  518,403;    0,146;    0,591
403,639;  434,928;    1,509;    0,864
404,230;  567,684;    0,691;    0,318
404,821;  626,921;   -0,127;    0,045
405,411;  523,077;   -0,763;   -2,591
406,002;  421,775;    3,237;   -1,136
406,592;  668,955;    2,691;    0,045
407,183;  512,983;    0,328;   -1,500
407,774;  477,026;    1,419;   -0,136
408,364;  450,356;    2,600;    0,409
408,954;  572,667;   -0,036;    1,227
409,545;  572,293;    1,873;    1,045
410,135;  511,665;   -1,581;    0,500
410,726;  461,754;    0,783;    0,318
411,316;  667,079;    2,237;    0,773
411,906;  478,886;    0,146;   -0,409
412,497;  483,210;   -0,490;   -0,045
413,087;  433,310;    0,783;   -0,227
413,677;  373,392;   -2,490;    3,864
414,267;  357,194;   -1,035;    1,409
414,857;  331,670;    0,419;    4,227
415,448;  339,784;   -0,763;    0,500
416,038;  374,530;   -2,945;   -0,591
416,628;  422,654;    0,965;    0,409
417,218;  495,157;   -1,762;    3,318
417,808;  670,633;    0,965;   -0,409
418,398;  524,638;   -1,035;    2,682
418,988;  394,563;   -2,217;    0,591
419,578;  499,139;    3,601;    1,409
420,168;  456,984;    0,692;   -0,955
420,757;  612,421;    0,964;   -1,500
421,347;  482,733;    1,601;   -0,227
421,937;  445,814;    3,329;    1,409
422,527;  592,497;    2,602;   -0,773
423,116;  753,090;    2,692;   -0,045
423,706;  446,771;    2,965;    0,318
424,296;  383,673;    1,601;    0,682
424,885;  554,673;    1,510;   -3,045
425,475;  521,454;    1,147;   -2,864
426,065;  395,812;   -1,489;   -0,318
426,654;  375,324;    0,329;   -0,318
427,244;  702,197;    1,147;    1,409
427,833;  648,081;    1,056;   -0,500
428,423;  494,647;    0,147;    1,136
429,012;  514,107;    2,420;   -1,136
429,601;  652,340;    2,057;    0,136
430,191;  532,249;    2,511;    4,318
430,780;  396,290;   -1,671;   -0,409
431,369;  630,616;    1,329;   -0,045
431,959;  525,999;    1,693;    0,500
432,548;  433,466;   -1,398;   -0,045
433,137;  355,417;    0,329;   -1,318
433,726;  471,931;    0,148;    0,500
434,315;  481,325;    0,148;    2,409
434,905;  608,651;    0,693;    1,409
435,494;  628,399;    3,148;    0,955
436,083;  463,584;    1,420;   -0,955
436,672;  560,081;    1,148;    0,500
437,261;  497,249;    0,512;   -1,955
437,850;  800,667;   -1,125;    0,682
438,439;  846,980;    2,239;    1,955
439,027;  973,463;    3,421;    1,773
439,616;  896,172;    2,239;    1,227
440,205;  621,103;    0,057;   -2,136
440,794;  543,462;   -0,306;   -0,045
441,383;  458,096;    1,603;   -0,591
441,971;  408,354;   -0,306;    0,591
442,560;  429,077;    0,603;   -1,773
443,149;  293,357;    3,060;   -1,318
443,737;  384,713;    0,968;   -2,318
444,326;  412,997;    0,331;    0,318
444,915;  481,889;   -1,851;    0,864
445,503;  498,759;    0,058;   -0,318
446,092;  809,061;    7,876;    2,136
446,680;  741,478;    1,876;    0,318
447,269;  637,872;   -1,487;   -0,318
447,857;  600,035;    2,240;   -1,773
448,445;  534,788;    2,149;    1,318
449,034;  475,495;    0,876;   -1,136
449,622;  474,680;    1,240;    3,500
450,210;  853,561;    3,149;    2,227
450,799;  760,495;    2,604;   -0,591
451,387;  669,889;    1,786;   -0,591
451,975;  643,940;   -1,305;    0,864
452,563;  755,693;    0,422;    2,318
453,151;  509,524;   -1,032;   -1,227
453,739;  576,487;   -1,577;    0,136
454,328;  737,439;    0,604;   -2,136
454,916;  624,407;    1,150;   -0,136
455,504;  634,991;    3,513;    1,227
456,092;  505,309;    2,150;   -1,591
456,679;  439,773;    0,604;    0,682
457,267; 1022,754;    3,604;    1,045
457,855;  583,159;    3,241;    1,409
458,443;  360,426;   -0,304;    1,682
459,031;  614,464;    1,332;    2,409
459,619;  574,507;   -3,577;    2,864
460,206;  428,268;   -0,759;    2,045
460,794;  438,046;   -0,668;   -0,227
461,382;  509,700;    0,878;   -0,864
461,970;  490,334;    0,605;    1,864
462,557;  397,782;    0,878;   -0,682
463,145;  591,015;   -0,304;   -1,682
463,732;  904,674;    2,514;   -1,045
464,320;  586,397;    1,514;   -3,045
464,907;  785,819;    0,423;   -0,773
465,495;  656,171;    2,696;   -1,227
466,082;  545,842;    2,060;   -0,045
466,670;  561,220;    2,605;    1,227
467,257;  419,620;    0,060;    2,045
467,844;  582,198;    1,514;    0,045
468,432;  557,578;   -0,031;    3,500
469,019;  483,313;    1,606;   -1,773
469,606;  590,072;    0,969;    3,682
470,193;  637,927;    2,151;    0,227
470,780;  583,095;    0,333;    0,864
471,368;  481,979;   -1,212;   -0,773
471,955;  618,037;    1,060;   -0,682
472,542;  556,859;   -0,303;   -1,136
473,129;  397,421;   -0,485;    0,136
473,716;  405,850;    0,060;    0,591
474,303;  457,402;    1,333;   -0,864
474,890;  473,753;    2,333;   -0,500
475,477;  609,525;   -0,576;    0,409
476,064;  467,265;    0,697;   -1,591
476,650;  624,082;    2,152;    0,318
477,237;  519,082;    1,879;    0,955
477,824;  494,104;    3,879;    0,864
478,411;  361,181;    0,606;   -0,318
478,997;  357,990;    0,606;   -0,773
479,584;  280,914;   -0,666;   -0,409
480,171;  572,599;    1,243;   -0,773
480,757;  663,514;   -0,848;    0,773
481,344;  496,332;    0,334;    0,409
481,931;  340,801;   -0,393;    1,045
482,517;  584,589;    0,425;    0,318
483,104;  729,731;    1,334;    2,864
483,690;  557,742;    0,243;    0,045
484,276;  518,094;    0,698;    0,227
484,863;  857,321;    2,152;    1,136
485,449;  613,886;    0,152;    0,318
486,035;  535,992;   -0,666;   -0,136
486,622;  718,008;   -2,393;    0,045
487,208;  578,602;    1,334;    1,500
487,794;  448,398;    0,971;    0,318
488,380;  455,609;    0,698;   -1,409
488,967;  474,930;   -1,120;   -0,409
489,553;  489,874;   -1,029;   -1,409
490,139;  624,880;    0,971;    0,773
490,725;  480,170;    0,789;   -0,227
491,311;  533,515;    1,516;    3,045
491,897;  446,798;   -0,665;    1,500
492,483;  452,374;    0,426;    1,227
493,069; 1121,175;    5,426;    0,864
493,655;  672,608;    1,789;    0,682
494,241;  492,680;    1,517;   -0,955
494,826;  531,598;    0,335;   -1,045
495,412;  624,962;    0,335;   -0,682
495,998;  485,781;    0,971;   -0,318
496,584;  573,736;    2,244;    1,045
497,169;  563,228;    2,335;   -0,682
497,755;  462,628;    1,244;    1,227
498,341;  712,406;    2,153;    0,318
498,926;  875,462;    2,881;    1,955
499,512;  496,563;   -0,028;    2,955
500,097;  482,897;   -0,574;   -0,318
500,683;  511,308;   -0,028;    2,136
501,268;  435,771;    1,881;   -0,955
501,854;  475,995;   -0,119;    1,227
502,439;  432,367;   -0,573;   -1,773
503,024;  514,022;    1,608;    0,500
503,610;  555,194;    1,335;   -0,682
504,195;  438,326;    1,245;    1,955
504,780;  575,604;    2,335;    1,227
505,366;  703,764;    4,063;    2,864
505,951;  588,274;   -1,119;    1,045
506,536;  482,162;    1,427;   -3,682
507,121;  553,484;    1,699;   -0,318
507,706;  488,404;   -0,392;    1,045
508,291;  410,459;   -2,937;    1,136
508,876;  406,384;   -0,482;    2,591
509,461;  483,763;    1,427;   -0,773
510,046;  536,477;   -0,391;    0,318
510,631;  536,144;   -0,119;   -0,773
511,216;  427,556;   -0,664;   -0,500
511,801;  520,717;   -0,755;    2,591
512,386;  554,717;    0,972;    0,500
512,971;  563,362;    0,427;    0,955
513,555;  615,111;    1,154;   -1,500
514,140;  569,319;    1,336;   -3,136
514,725;  706,160;    1,791;   -1,136
515,309;  583,956;    1,064;    0,318
515,894;  453,224;   -0,300;   -2,227
516,479;  490,805;    1,973;   -0,955
517,063;  491,592;    0,882;    1,227
517,648;  444,060;    0,155;   -1,136
518,232;  392,782;   -1,300;   -1,409
518,817;  507,515;    1,337;    1,682
519,401;  660,220;    0,700;    0,591
519,985;  586,464;    2,700;    1,136
520,570;  422,802;   -0,118;   -1,955
521,154;  556,487;    0,064;    0,591
521,738;  762,951;    1,064;    2,409
522,323;  581,011;   -0,390;    1,682
522,907;  561,757;    2,428;   -0,136
523,491;  467,131;    1,155;    0,955
524,075;  412,501;    0,428;    0,591
524,659;  630,260;    0,973;    0,591
525,243;  550,093;    0,883;    0,409
525,827;  479,776;    0,883;   -0,045
526,411;  494,441;    1,155;   -0,136
526,995;  609,567;    0,337;    1,409
527,579;  668,335;    1,974;   -1,045
528,163;  593,393;    0,428;   -1,500
528,747;  701,194;    1,065;   -0,773
529,331;  646,904;    0,883;   -1,409
529,915;  464,220;    2,338;    0,955
530,499;  558,310;    0,247;    1,227
531,082;  714,328;    1,065;    1,591
531,666;  803,487;    0,520;    0,773
532,250;  678,563;    0,428;    2,682
532,833;  788,105;    0,610;    2,773
533,417;  626,204;    1,247;    0,864
534,001;  738,546;    0,429;   -0,318
534,584;  663,167;    1,974;    0,500
535,168;  485,978;    3,247;    1,409
535,751;  855,401;    4,520;    0,045
536,334;  564,433;    4,520;   -0,409
536,918;  428,242;    1,974;    1,591
537,501;  434,928;    1,520;    1,318
538,085;  491,771;    1,702;    1,045
538,668;  558,232;    0,883;    2,409
539,251;  858,420;    3,156;    3,773
539,834;  575,133;    0,156;    0,773
540,418;  694,325;    3,247;    4,318
541,001;  879,386;    2,702;    1,773
541,584;  642,098;    1,429;    2,227
542,167;  745,976;    0,702;    2,955
542,750;  573,464;    0,793;   -0,773
543,333;  419,126;    1,429;    2,136
543,916;  671,504;   -0,298;    2,500
544,499;  594,811;    2,520;    0,227
545,082;  678,548;    0,248;    3,591
545,665;  589,793;   -0,207;    1,500
546,248;  721,763;    0,520;   -0,318
546,830;  695,198;   -1,752;    1,955
547,413;  652,643;    0,157;   -0,773
547,996;  627,415;    0,157;    0,500
548,579;  577,293;   -0,843;    0,955
549,161;  822,575;    0,884;    2,682
549,744;  705,453;    0,612;    0,409
550,326;  575,278;    0,885;   -1,136
550,909; 1038,963;    2,339;    0,591
551,492;  684,438;    0,521;    0,227
552,074;  799,266;   -0,024;   -1,318
552,657;  839,268;    2,430;    0,045
553,239;  699,468;   -3,024;   -0,773
553,821;  573,487;   -1,570;    1,045
554,404;  819,899;   -0,024;    1,136
554,986;  929,215;    2,248;    1,045
555,568;  774,869;    0,430;   -0,955
556,151;  975,966;    4,067;   -0,227
556,733;  643,561;   -1,388;   -0,864
557,315;  661,584;    4,703;    0,500
557,897;  538,205;    0,521;   -0,500
558,479;  539,031;    1,703;    1,318
559,061;  637,866;    1,067;   -0,864
559,643;  701,906;   -0,297;    0,045
560,225;  745,515;   -0,388;    2,864
560,807;  592,724;    0,340;    0,318
561,389;  573,562;   -1,206;    2,318
561,971;  647,152;   -0,660;    2,136
562,553;  585,325;    0,613;    1,591
563,135;  671,952;    1,249;    1,136
563,717; 1058,402;    3,158;    1,136
564,298;  955,893;    3,976;   -0,045
564,880;  704,318;    0,340;   -1,409
565,462;  535,500;    1,977;    1,318
566,043;  710,565;   -0,933;    2,318
566,625;  990,925;    4,067;    1,227
567,207;  790,989;    0,704;    1,682
567,788;  659,189;   -0,114;    1,500
568,370;  686,732;   -1,841;   -0,500
568,951;  650,395;   -0,569;    0,227
569,533;  767,600;    0,977;   -0,500
570,114;  812,326;   -0,296;    0,682
570,695;  828,465;   -0,478;   -1,318
571,277;  805,689;   -0,205;   -1,682
571,858; 1014,291;    2,704;   -1,136
572,439;  885,244;    0,795;   -1,045
573,021;  913,616;    0,432;   -2,773
573,602; 1022,751;    1,795;    0,318
574,183;  970,342;   -0,114;    2,227
574,764;  945,694;    2,068;    0,409
575,345; 1132,642;    0,250;   -0,136
575,926;  968,462;    2,704;    0,136
576,507; 1046,293;    2,704;   -0,227
577,088; 1034,201;    1,704;    1,682
577,669; 1216,813;    1,704;    1,955
578,250; 1397,706;   -0,750;   -1,045
578,831; 1184,462;   -0,841;   -2,227
579,412; 1131,001;   -1,205;    0,955
579,993; 1184,010;    1,432;    0,227
580,573; 1122,924;   -0,023;   -0,955
581,154; 1164,636;    1,613;   -0,591
581,735; 1198,627;    0,341;    0,773
582,315; 1309,627;    0,523;    2,136
582,896; 1194,057;   -1,750;    1,227
583,477; 1053,325;    0,614;    1,227
584,057; 1154,464;    1,159;    0,955
584,638; 1253,647;   -2,750;    2,318
585,218; 1520,002;    2,886;    2,682
585,799; 1314,157;    1,977;   -0,227
586,379; 1194,928;    1,250;    1,591
586,959; 1144,799;    2,613;    0,318
587,540; 1054,539;    0,432;    2,227
588,120; 1048,367;   -1,113;   -0,045
588,700; 1033,832;    2,977;    2,136
589,281; 1231,286;    1,250;   -0,955
589,861; 1080,308;   -0,296;   -1,682
590,441;  959,384;   -1,477;   -2,682
591,021; 1006,007;    1,432;   -2,591
591,601;  972,723;    0,431;    0,500
592,181;  995,164;   -1,296;   -0,773
592,761;  850,766;    2,250;    1,409
593,341;  976,521;    1,522;    0,045
593,921;  981,473;   -0,569;    1,591
594,501;  858,527;    1,250;    1,318
595,081;  877,103;    0,522;   -0,318
595,661;  977,777;    1,068;    0,955
596,240;  925,815;   -1,023;    0,136
596,820; 1302,112;    2,613;    1,955
597,400; 1023,677;    1,977;    0,773
597,980;  937,242;   -0,750;    1,045
598,559;  890,666;    0,341;   -0,227
599,139;  872,324;   -0,750;   -1,227
599,718;  871,960;    0,795;   -0,409
600,298;  874,122;   -2,387;    0,682
600,877; 1355,344;    4,795;    1,409
601,457; 1080,823;    0,340;    1,136
602,036;  943,537;    1,795;    2,045
602,616;  975,238;    2,250;    1,682
603,195; 1108,637;    0,431;    3,500
603,774; 1147,021;   -0,296;    2,045
604,354; 1069,936;    2,522;   -0,500
604,933;  991,985;    0,250;    1,864
605,512; 1121,946;    2,340;    0,591
606,091; 1117,338;    1,886;    3,773
606,671; 1076,189;    0,249;    0,773
607,250; 1229,468;    1,431;    3,136
607,829; 1174,750;    1,158;    3,227
608,408; 1022,694;    4,613;    2,591
608,987; 1128,038;    2,704;    3,409
609,566;  941,508;    0,341;   -2,500
610,145; 1045,142;    2,885;    0,682
610,723; 1109,521;    1,613;    6,864
611,302;  984,096;    1,067;    1,682
611,881; 1266,034;    5,158;   11,227
612,460;  978,589;    0,795;    3,955
613,039;  890,428;    1,703;    2,045
613,617;  840,038;    0,886;    4,773
614,196;  863,136;    1,613;    1,227
614,775;  949,420;    1,249;    2,409
615,353; 1011,561;   -1,660;    0,864
615,932;  952,661;    0,249;    2,409
616,510;  969,416;    0,158;    0,591
617,089; 1486,035;    8,794;   17,591
617,667; 1061,847;    4,885;    6,136
618,246;  785,714;   -1,115;    1,318
618,824;  887,364;    1,612;   -0,955
619,402;  895,549;    0,431;   -1,773
619,981;  974,594;    1,067;   -1,045
620,559;  906,197;    0,794;    1,682
621,137;  950,035;    3,067;    1,864
621,715;  784,687;    3,703;   -0,682
622,293;  810,394;    1,885;   -0,773
622,871;  886,130;    0,340;    0,500
623,450;  790,411;    0,430;   -0,864
624,028;  998,467;   -0,388;   -0,955
624,606;  931,702;    2,339;    1,682
625,183;  763,196;   -0,661;   -1,136
625,761;  887,920;    1,885;    1,136
626,339; 1225,627;    2,339;    2,591
626,917;  868,390;    0,339;   -0,045
627,495;  836,402;    2,794;    1,318
628,073;  932,623;    5,248;    2,864
628,650;  930,071;    3,067;    2,136
629,228;  944,580;    1,248;    4,409
629,806;  741,714;   -0,024;    1,136
630,383;  801,834;    0,066;   -0,318
630,961;  794,079;   -2,206;   -0,955
631,539;  838,735;   -2,479;    0,227
632,116; 1603,352;   12,703;   15,409
632,694; 1181,750;    4,885;    6,500
633,271;  991,819;    1,975;    2,682
633,848; 1113,596;    1,430;    2,045
634,426;  844,964;    1,521;    1,773
635,003;  706,380;   -0,207;   -0,409
635,580; 1118,820;    1,884;    3,682
636,158;  965,555;    3,793;    1,227
636,735;  778,093;    3,339;   -0,500
637,312;  772,431;    0,521;   -0,682
637,889;  785,127;    2,248;   -0,682
638,466;  773,617;    0,066;   -0,409
639,043;  809,969;    1,702;   -1,136
639,620;  738,055;    0,611;   -0,955
640,197;  872,761;    1,612;    1,682
640,774;  723,588;    1,430;    1,136
641,351;  799,233;    0,612;    1,136
641,928;  968,969;    2,794;    1,409
642,505; 1100,069;    0,794;   -0,500
643,082;  926,351;    1,885;    1,227
643,658;  750,541;    1,157;    1,500
644,235;  745,459;   -2,479;    2,500
644,812;  937,650;    1,794;    0,773
645,388;  922,023;    1,612;    1,409
645,965;  687,941;    1,521;    1,682
646,542;  695,495;    3,430;   -0,227
647,118; 1121,867;    3,703;   -0,955
647,695;  902,785;    0,339;    1,136
648,271;  695,976;   -2,115;    0,500
648,848;  874,076;    0,248;    2,227
649,424; 1011,539;    0,976;    1,318
650,000;  795,821;   -0,388;   -1,045
650,577;  838,921;    0,158;   -0,955
651,153;  874,021;   -1,115;    0,955
651,729;  817,575;    0,521;    0,864
652,305; 1169,584;    1,339;    2,773
652,881; 1162,684;   -1,297;    1,136
653,458; 1385,056;    0,249;    0,227
654,034; 1558,974;    0,703;    1,591
654,610; 1694,165;    0,339;    0,773
655,186; 2199,629;    1,612;    3,045
655,762; 1760,910;   -1,842;    0,409
656,338; 1708,192;    0,703;    0,136
656,913; 1835,564;   -0,297;    0,409
657,489; 1605,391;    0,249;   -0,318
658,065; 1726,128;    0,794;   -1,591
658,641; 1826,500;    2,158;   -0,864
659,217; 1694,873;    2,067;    0,409
659,792; 1752,882;   -1,751;   -0,409
660,368; 1633,527;   -0,388;   -0,682
660,944; 1715,354;    1,794;    1,227
661,519; 1550,181;    0,522;    0,409
662,095; 1165,554;   -0,206;    0,591
662,670;  908,835;   -0,206;   -0,136
663,246;  830,117;   -0,660;   -0,409
663,821;  978,399;    0,431;    1,682
664,396;  889,589;    0,613;    1,864
664,972;  799,871;   -0,660;   -0,500
665,547;  876,516;    3,794;    0,136
666,122;  835,798;    1,340;    0,318
666,698; 1045,079;    2,431;    0,318
667,273;  783,270;    0,885;    0,136
667,848;  846,915;    0,340;    1,500
668,423; 1012,197;    1,795;    2,318
668,998;  876,388;    0,976;   -0,682
669,573;  835,942;    2,067;   -1,500
670,148; 1030,497;    1,885;   -0,682
670,723;  793,324;   -0,024;    0,318
671,298; 1118,060;   -1,296;    1,045
671,873; 1001,978;   -0,296;   -0,136
672,448;  992,169;    1,704;    0,136
673,023;  987,450;    0,249;   -0,227
673,597; 1102,732;    2,704;    2,318
674,172; 1130,286;    2,431;    0,318
674,747; 1033,113;   -0,205;   -1,045
675,321;  795,759;   -0,933;    3,318
675,896;  724,404;    2,158;    1,045
676,471;  949,140;    2,522;    1,591
677,045;  870,149;   -0,296;    0,682
677,620;  954,340;    2,158;    1,136
678,194;  819,621;    0,249;    1,136
678,769;  884,357;    0,886;   -0,318
679,343;  935,275;   -0,023;    1,773
679,917; 1054,284;    0,340;    1,955
680,492;  892,021;    0,249;    3,227
681,066;  939,666;    0,613;    0,409
681,640;  864,311;    1,795;   -0,318
682,214;  902,775;    2,340;    0,500
682,788;  890,147;    0,613;   -0,773
683,363; 1031,792;    1,977;    1,682
683,937;  884,710;    0,886;   -0,318
684,511;  959,810;   -1,023;   -0,591
685,085;  959,001;   -1,478;    0,318
685,659;  850,283;    1,431;    0,864
686,232; 1101,473;    1,159;   -0,318
686,806;  980,028;    2,159;    0,409
687,380;  893,582;   -1,932;    0,591
687,954;  861,045;    2,432;    1,136
688,528; 1152,509;    2,613;    1,955
689,101; 1009,700;    0,432;    1,045
689,675;  878,436;    0,886;   -0,136
690,249; 1093,263;    3,432;    0,409
690,822; 1090,363;    1,159;    0,318
691,396;  970,099;    2,068;    1,227
691,969;  887,290;    2,523;    0,136
692,543;  849,208;   -0,568;   -1,955
693,116;  766,489;   -0,659;   -1,409
693,690;  863,316;   -0,296;    0,500
694,263;  830,325;    2,341;    2,955
694,836; 1185,789;    2,795;    3,591
695,410; 1033,161;    1,159;    1,773
695,983; 1053,261;    1,614;    0,591
696,556;  862,179;   -0,750;   -1,045
697,129;  805,733;   -1,114;    1,409
697,703;  999,742;    1,341;    1,955
698,276;  905,297;    1,705;   -0,773
698,849; 1046,669;   -1,023;    1,409
699,422;  823,678;    1,250;    0,591
699,995;  710,778;   -0,659;    0,136
700,568;  870,969;   -0,204;    3,045
701,140;  890,432;   -1,841;    1,682
701,713; 1052,896;    0,341;    2,409
702,286;  943,723;    0,796;    0,864
702,859; 1018,732;    0,614;   -0,591
703,432; 1082,741;   -0,841;    0,682
704,004;  982,386;    1,978;    0,318
704,577;  823,940;    1,068;    0,136
705,150;  886,495;    0,887;    2,500
705,722;  967,867;    1,523;   -3,227
706,295; 1028,967;    1,432;   -0,591
706,867;  872,612;    0,250;    1,955
707,440;  994,894;   -0,113;   -0,409
708,012; 1072,085;   -0,022;    0,591
708,584;  968,639;    2,705;    0,227
709,157;  790,830;    1,160;   -0,591
709,729; 1008,384;    1,069;    2,045
710,301;  905,938;   -1,204;    0,045
710,874;  897,129;    0,341;   -0,227
711,446;  746,138;   -0,295;    0,864
712,018;  826,238;   -3,022;    0,500
712,590;  762,156;   -0,204;    1,682
713,162; 1074,801;   -0,477;    1,318
713,734;  872,628;    1,796;   -2,045
714,306;  773,273;    0,342;   -0,409
714,878;  792,555;   -0,295;    0,864
715,450;  790,019;   -0,113;    0,864
716,022;  805,755;    2,433;    1,318
716,593;  794,400;    0,978;    0,591
717,165;  848,863;    1,796;   -1,227
717,737; 1099,418;    0,796;    0,409
718,309;  880,881;    1,160;   -0,045
718,880;  803,617;   -1,295;   -1,409
719,452;  881,354;    0,887;   -1,591
720,024;  950,090;    1,705;   -0,591
720,595;  846,917;    2,978;    0,955
721,167;  813,744;    1,160;   -2,045
721,738;  931,844;    2,069;   -1,045
722,309; 1063,671;    1,251;   -1,227
722,881;  806,862;    2,705;    0,773
723,452;  922,780;    1,251;    2,864
724,023;  931,879;    1,524;    2,682
724,595; 1004,070;    2,342;    0,682
725,166;  847,443;    1,524;   -0,409
725,737; 1043,724;    1,887;    0,227
726,308;  856,006;    0,797;    0,318
726,879;  759,651;    1,069;    1,227
727,450;  943,387;   -2,022;   -0,045
728,021;  860,578;    1,069;    0,682
728,592; 1030,405;    1,160;    0,500
729,163; 1128,141;    1,433;   -0,136
729,734; 1098,878;    2,160;   -0,227
730,305;  949,705;    0,615;    0,136
730,876;  909,714;    0,888;    2,955
731,447; 1237,541;    0,797;    2,682
732,017; 1140,277;   -0,840;    1,864
732,588;  950,286;   -0,021;    1,227
733,159; 1207,204;    3,615;   -1,045
733,729;  924,940;    1,251;    0,409
734,300; 1074,767;    0,160;    0,864
734,870;  896,412;   -1,385;    0,591
735,441;  883,421;    0,888;   -0,591
736,011;  843,976;    1,070;   -1,591
736,582;  856,075;    1,251;    0,045
737,152;  969,266;    0,979;   -2,045
737,722;  960,184;    1,070;   -0,682
738,293;  815,739;   -2,021;    1,318
738,863; 1008,384;    1,797;    2,318
739,433; 1272,302;    4,524;    0,318
740,003;  994,765;    1,524;   -0,682
740,573; 1114,865;    2,252;   -1,591
741,143; 1002,692;    3,615;    0,318
741,713;  899,065;    0,252;   -0,500
742,283;  955,892;    1,706;    1,591
742,853;  878,537;    0,524;    1,591
743,423;  712,728;    0,161;    0,045
743,993;  812,646;    1,070;    1,500
744,563;  836,382;    2,524;   -0,864
745,133;  876,936;   -0,112;   -0,864
745,702;  793,854;    2,797;    1,773
746,272;  978,681;    0,434;    0,591
746,842; 1003,145;   -0,748;   -0,591
747,411;  810,063;   -0,839;   -0,318
747,981;  710,526;   -0,930;    0,500
748,551;  709,990;   -0,021;   -1,045
749,120;  894,181;   -0,112;   -0,227
749,690;  849,644;    2,161;    2,409
750,259;  970,471;    0,979;    2,955
750,828; 1016,025;    4,070;   -1,955
751,398;  799,034;   -0,112;   -0,045
751,967; 1280,680;    2,888;    0,409
752,536;  910,779;    1,161;   -0,227
753,105; 1028,061;   -1,384;    0,227
753,675;  862,434;   -0,112;    1,773
754,244;  876,533;    0,888;    3,591
754,813;  904,997;    0,979;    1,227
755,382;  863,460;    0,798;    0,955
755,951;  994,106;   -0,112;    3,682
756,520; 1097,569;    2,525;    1,864
757,089; 1231,305;    1,888;    0,500
757,658;  943,769;    2,434;    1,227
758,227;  776,959;   -1,111;    0,318
758,795;  838,241;   -1,021;    1,136
759,364;  882,614;    0,525;   -0,591
759,933;  778,350;    1,343;   -0,045
760,501;  708,631;    0,252;   -1,318
761,070;  874,913;   -0,293;   -1,409
761,639;  889,377;    1,434;    1,318
762,207;  967,658;    0,889;   -0,955
762,776; 1001,849;    2,889;    0,864
763,344;  843,949;    0,071;    0,591
763,913;  646,958;    1,616;    1,409
764,481; 1217,239;    1,980;   -0,136
765,049; 1203,612;    0,616;    1,409
765,618; 1110,439;    1,434;    0,318
766,186;  916,266;    2,434;    0,136
766,754;  974,093;    1,798;    1,864
767,322;  817,375;    1,162;    0,409
767,890;  769,475;    0,525;   -1,773
768,459;  802,665;    2,616;   -0,318
769,027; 1032,492;    2,525;    3,409
769,595;  836,410;    2,616;    2,591
770,163;  925,783;    3,344;    2,955
770,730;  888,246;    2,525;   -0,136
771,298;  878,801;    1,162;   -1,409
771,866;  816,628;    0,253;    4,955
772,434;  844,000;    1,162;   -1,864
773,002; 1064,555;    2,616;    0,682
773,569;  933,745;    1,071;    1,682
774,137; 1048,027;    0,889;   -0,045
774,705;  863,400;   -0,747;   -0,136
775,272;  805,954;    0,253;    0,682
775,840;  851,417;   -0,111;    2,682
776,407;  932,517;   -0,293;    1,955
776,975;  784,799;    1,162;    0,318
777,542;  768,444;    2,162;   -0,045
778,110;  810,999;    0,707;   -0,045
778,677;  679,371;    1,071;   -0,864
779,244;  754,471;   -1,020;    1,045
779,812;  909,116;    0,980;    0,864
780,379;  983,398;    2,435;    1,136
780,946;  848,134;    2,617;   -0,773
781,513;  776,961;   -0,565;    0,318
782,080;  719,879;    1,253;    2,864
782,647;  765,706;    1,708;    3,045
783,214;  743,533;   -0,201;    3,864
783,781;  936,179;    1,708;   -0,682
784,348;  881,460;    0,253;    1,500
784,915;  677,469;   -1,474;    0,318
785,482;  907,296;    2,708;    2,591
786,049;  849,760;    1,071;   -0,591
786,615;  734,587;    1,708;   -0,955
787,182;  696,414;   -3,201;   -0,682
787,749;  670,968;   -2,201;    1,409
788,315;  872,250;    0,253;   -0,409
788,882;  768,986;    0,981;   -1,227
789,448; 1067,722;    1,435;   -0,955
790,015;  838,731;    1,799;    3,227
790,581; 1011,649;    0,708;    0,227
791,148;  816,931;    1,344;    1,045
791,714;  724,394;   -1,019;    3,136
792,280;  731,767;    3,708;    1,591
792,847;  671,685;   -0,928;    2,500
793,413;  759,875;   -0,110;   -0,318
793,979;  964,339;    1,526;   -1,318
794,545; 1246,621;    2,981;    2,682
795,111; 1119,720;    2,435;    1,318
795,678;  967,729;    3,526;   -1,682
796,244; 1136,738;    2,799;    0,136
796,810;  992,838;    0,799;    0,773
797,375;  974,211;   -0,292;   -2,136
797,941;  643,219;   -1,110;    0,591
798,507;  645,410;    0,254;   -0,955
799,073;  679,965;    2,708;    0,591
799,639;  692,792;    1,435;    3,136
800,205;  648,437;   -1,565;    2,682
800,770;  661,991;    1,345;    1,773
801,336;  665,546;    2,981;   -0,955
801,901; 1290,918;    6,072;    3,136
802,467;  941,563;    0,526;    2,045
803,033;  695,118;   -0,019;    0,864
803,598;  697,763;    1,072;   -1,045
804,163;  710,045;    0,708;   -0,318
804,729;  812,872;   -0,110;    1,136
805,294;  708,153;    1,072;    2,227
805,859;  653,526;    0,890;   -0,409
806,425; 1049,444;    3,890;    2,682
806,990; 1020,544;    1,890;    4,318
807,555;  770,735;   -0,110;    2,591
808,120;  920,380;   -1,292;   -0,409
808,685;  701,298;    1,072;   -2,500
809,250;  606,307;    2,072;   -0,500
809,815;  619,588;   -0,201;    0,682
810,380;  760,870;    0,981;    1,591
810,945;  934,061;    2,890;    2,045
811,510;  764,433;   -0,200;    1,591
812,075;  811,351;    2,800;   -1,409
812,640; 1044,451;    3,709;    1,409
813,204;  804,278;    2,163;   -0,227
813,769;  963,287;    0,254;   -0,045
814,334;  946,569;    0,527;    0,864
814,898;  672,305;    1,981;    0,591
815,463;  763,405;    0,981;   -0,773
816,027;  701,414;    1,345;   -2,318
816,592;  642,513;    2,163;   -2,045
817,156;  802,341;   -2,200;    1,136
817,721;  902,986;    0,982;    2,318
818,285;  636,449;    0,618;    1,500
818,849;  713,822;   -0,018;    1,682
819,414;  642,467;    0,073;    2,955
819,978;  594,385;   -0,291;    1,773
820,542;  910,667;    2,891;    0,500
821,106;  738,948;    2,800;    0,682
821,670;  938,230;    2,709;    2,591
822,234;  709,512;    1,073;    1,409
822,798;  591,248;   -0,836;    0,500
823,362;  842,711;    1,527;    4,227
823,926;  672,629;   -0,018;    1,136
824,490;  868,820;    3,527;   -0,682
825,054;  751,283;    2,527;   -1,136
825,618;  628,292;   -1,200;   -1,500
826,181;  685,392;    0,982;   -1,318
826,745;  797,946;   -0,745;   -1,045
827,309; 1014,137;    2,255;    1,318
827,872;  871,055;    0,527;    0,955
828,436;  773,610;    1,982;   -0,773
828,999;  667,800;    2,436;    1,227
829,563;  653,627;   -0,654;    1,136
830,126;  617,000;   -0,018;   -0,591
830,690;  733,554;    0,709;    2,864
831,253;  634,109;   -0,473;    2,227
831,816;  674,027;   -0,018;    0,500
832,380;  629,763;    1,164;    0,864
832,943;  607,135;    3,073;   -0,500
833,506;  627,599;    0,255;   -1,227
834,069;  790,971;    2,164;   -0,955
834,632;  644,071;   -2,200;    1,318
835,195;  680,080;    1,346;    0,955
835,758;  614,544;    0,709;    1,955
836,321;  613,280;    1,073;   -1,045
836,884;  592,107;   -1,291;   -0,955
837,447;  535,207;    0,528;    1,773
838,010;  719,943;    1,800;    3,227
838,573;  737,861;    0,528;    0,773
839,135;  604,779;   -0,109;   -0,955
839,698;  648,606;    2,528;    0,409
840,261;  596,888;    0,255;   -0,227
840,823;  551,078;   -0,927;    0,864
841,386;  530,905;   -0,018;   -2,409
841,948;  857,187;    0,255;    1,773
842,511;  617,105;    0,255;    1,682
843,073;  828,659;    2,982;    0,227
843,636;  588,759;    0,619;   -0,227
844,198;  808,314;    1,255;    0,591
844,760;  760,322;    0,619;    1,955
845,322;  552,877;    0,164;    1,136
845,885;  698,613;   -0,290;    0,591
846,447;  633,713;    0,710;    0,227
847,009;  980,449;    3,983;   -0,682
847,571;  691,185;    1,346;   -2,045
848,133;  634,649;   -0,199;   -1,864
848,695;  491,112;    2,346;    1,409
849,257;  573,121;    1,346;   -1,682
849,819;  720,403;    2,983;   -0,409
850,381;  600,502;    1,801;   -0,864
850,942;  667,511;    1,892;   -0,591
851,504;  729,429;    0,983;    0,227
852,066;  597,711;    1,619;   -1,591
852,628;  622,356;    0,165;    1,955
853,189;  518,911;    0,256;    2,682
853,751;  534,829;   -0,654;    1,409
854,312;  695,747;    1,256;   -1,682
854,874;  839,301;   -0,108;   -0,773
855,435;  640,583;    0,528;   -1,682
855,997;  685,773;    3,983;   -0,136
856,558;  788,964;    0,801;    1,773
857,119;  690,428;   -0,744;    2,864
857,681;  531,164;   -0,108;    0,318
858,242;  796,900;    1,347;   -2,136
858,803;  771,727;    1,074;   -0,773
859,364;  656,100;    0,892;   -4,773
859,925;  740,290;   -0,290;   -0,955
860,486;  615,754;    0,529;   -0,955
861,047;  534,581;    0,165;   -1,227
861,608;  581,044;    0,165;   -0,773
862,169;  460,053;   -0,562;   -0,045
862,730;  579,789;   -0,290;    1,409
863,291;  631,707;    0,438;   -0,500
863,852;  607,080;   -0,926;    1,955
864,412;  600,634;   -1,835;   -0,864
864,973;  825,280;    1,892;    0,500
865,534;  931,743;    2,074;    0,227
866,094;  722,752;    2,620;    0,227
866,655;  856,670;    4,711;    3,318
867,215;  673,315;    0,074;    0,136
867,776;  547,415;   -1,199;   -0,136
868,336;  626,878;    1,529;    0,136
868,897;  996,615;    3,438;    1,682
869,457;  780,442;    3,256;    0,318
870,017;  576,087;    2,438;   -1,227
870,578;  575,550;    1,893;    0,773
871,138;  645,559;    2,620;   -0,955
871,698;  549,750;   -0,562;   -1,318
872,258;  662,486;    0,711;   -2,864
872,818;  819,677;    2,347;    0,045
873,378;  633,504;   -2,198;    1,045
873,938;  616,604;    4,984;    0,500
874,498;  520,976;    1,256;   -1,955
875,058;  628,622;    4,347;    1,773
875,618;  621,994;    1,438;   -2,682
876,177;  664,367;   -0,471;    0,136
876,737;  484,739;   -0,289;    1,955
877,297;  867,566;    2,711;    1,955
877,856;  783,303;    2,529;    0,318
878,416;  546,130;    2,438;   -0,136
878,976;  515,048;    3,438;    0,409
879,535;  562,329;    4,529;    3,136
880,095;  554,066;    1,347;    0,045
880,654;  490,074;    0,347;    1,318
881,213;  799,174;    2,347;    1,500
881,773;  631,001;    1,984;    2,682
882,332; 1143,374;    6,075;    5,136
882,891;  617,474;    0,711;    2,136
883,451;  611,210;   -2,016;    1,682
884,010;  567,492;   -1,107;   -0,409
884,569;  506,682;   -2,289;   -0,045
885,128;  687,873;   -0,743;   -1,864
885,687;  931,336;   -0,743;    0,682
886,246; 1104,436;    2,620;    2,136
886,805;  892,445;    1,620;    2,045
887,364;  557,000;    1,166;   -0,500
887,922;  479,372;   -0,016;    0,045
888,481;  671,654;    1,530;    0,591
889,040;  752,844;    3,711;    2,136
889,599;  628,490;    2,166;    1,409
890,157;  627,135;    2,166;    2,409
890,716;  556,962;    2,166;    0,227
891,274;  676,426;    0,075;   -1,136
891,833;  732,434;    1,166;    0,864
892,391;  627,534;    1,802;    0,500
892,950;  735,998;    0,166;   -0,773
893,508;  530,734;    0,984;   -0,409
894,067;  448,743;   -0,379;    0,136
894,625;  559,843;   -1,016;   -1,500
895,183;  507,670;   -0,198;   -0,682
895,741;  795,497;    2,257;   -1,773
896,299;  586,051;    1,621;   -2,409
896,858;  529,969;    1,530;   -1,591
897,416;  665,978;    0,166;   -1,318
897,974;  589,078;   -2,197;    0,318
898,532; 1048,178;    6,530;    2,682
899,089;  735,732;    0,621;   -0,682
899,647;  628,650;    0,530;    1,318
900,205;  635,477;    0,257;    1,045
900,763;  624,395;    2,166;    0,227
901,321;  573,222;    3,530;   -1,409
901,878;  425,322;    3,257;   -0,773
902,436;  496,786;    0,257;    1,318
902,994; 1208,249;    6,712;    3,682
903,551;  759,531;    1,439;    0,409
904,109;  624,994;    1,530;   -1,409
904,666;  585,094;    1,439;    1,045
905,224;  478,376;    3,894;   -0,409
905,781;  624,657;   -0,470;   -0,318
906,338;  560,939;    0,167;    1,045
906,895;  465,675;    1,894;    2,045
907,453;  733,320;    2,348;    1,136
908,010;  580,966;    3,348;    0,409
908,567;  565,884;   -0,561;    0,591
909,124;  414,165;    2,439;   -1,500
909,681;  473,447;   -1,288;    0,682
910,238;  513,183;   -0,106;   -1,318
910,795;  436,283;   -1,561;   -1,136
911,352;  457,374;   -0,379;   -2,682
911,909;  487,374;    2,803;   -0,864
912,466;  496,010;    1,985;    1,500
913,022;  585,101;   -0,924;    0,500
913,579;  657,374;   -0,470;    2,045
914,136;  541,374;   -2,561;    0,955
914,692;  547,465;    1,530;   -1,227
915,249;  560,828;    0,530;    0,409
915,806;  629,283;    1,803;    1,955
916,362;  521,828;    0,894;    1,864
916,918;  492,465;    2,439;    1,045
917,475;  634,556;    1,621;    0,955
918,031;  491,192;    0,076;   -0,045
918,587;  545,556;    0,621;   -0,318
919,144;  456,737;   -0,379;    0,227
919,700;  395,283;    0,167;    0,773
920,256;  398,737;    0,439;    0,045
920,812;  457,374;    1,439;   -1,045
921,368;  416,465;    1,348;   -1,045
921,924;  442,192;    0,439;   -0,136
922,480;  520,010;    0,076;    1,227
923,036;  529,556;   -0,652;    1,955
923,592;  443,828;    0,621;    0,318
924,148;  462,192;    1,894;   -0,955
924,704;  587,646;    0,258;   -0,409
925,259;  424,374;   -0,561;    0,591
925,815;  413,556;    3,803;    0,500
926,371;  393,374;    3,530;    1,409
926,926;  540,465;    1,621;    0,591
927,482;  513,192;    1,621;    0,773
928,037;  438,465;   -0,833;    2,045
928,593;  619,919;    0,258;    1,045
929,148;  403,283;    1,167;   -1,500
929,704;  476,283;    2,439;   -0,500
930,259;  398,646;    0,894;   -0,136
930,814;  563,465;    1,803;    1,955
931,369;  501,556;    0,258;   -0,773
931,925;  347,101;   -1,924;    0,136
932,480;  435,828;    3,076;   -2,591
933,035;  736,919;    3,985;   -0,318
933,590;  655,919;   -1,742;   -1,773
934,145;  349,010;   -1,288;   -0,318
934,700;  264,646;    0,348;   -0,591
935,255;  330,828;    4,803;    0,045
935,809;  610,192;    6,258;    0,864
936,364;  316,192;    2,167;   -0,136
936,919;  308,465;    2,348;   -1,773
937,474;  249,192;    1,348;    0,136
938,028;  268,192;    3,076;    1,136
938,583;  605,646;    6,348;    4,682
939,138;  333,646;    0,167;    2,136
939,692;  228,192;   -1,015;   -1,136
940,247;  264,828;    1,167;   -1,045
940,801;  297,556;    0,621;    0,227
941,355;  234,374;    0,439;    2,591
941,910;  171,465;    0,712;   -2,136
942,464;  204,646;    2,712;   -0,318
943,018;  372,192;    3,258;   -0,227
943,572;  257,556;    2,803;   -0,682
944,126;  310,828;   -0,924;   -0,409
944,681;  222,465;    0,712;    0,227
945,235;  176,646;    2,167;   -0,591
945,789;  153,192;    1,258;   -1,864
946,342;  359,828;   -0,561;   -0,591
946,896;  198,101;    0,348;    0,955
947,450;  169,556;   -0,561;   -0,227
948,004;  343,010;    1,076;   -0,045
948,558;  220,101;    1,258;   -0,864
949,111;  212,646;   -1,197;   -0,318
949,665;  339,919;   -0,106;   -0,682
950,219;  317,283;    0,621;   -1,045
950,772;  257,101;    0,258;    1,864
951,326;  242,828;   -1,106;   -0,955
951,879;  207,737;    1,076;   -2,318
952,433;  298,374;    1,348;    2,227
952,986;  189,465;    0,348;    0,682
953,539;  166,283;    1,530;    0,591
954,093;  136,010;    0,985;   -1,318
954,646;  214,010;   -0,288;    1,318
955,199;  159,919;    1,258;   -0,500
955,752;  328,646;    1,985;    1,773
956,305;  215,283;    0,894;    2,955
956,858;  247,556;    0,621;   -0,318
957,411;  282,283;    3,621;    2,136
957,964;  229,374;    2,076;    2,136
958,517;  176,374;    0,985;    3,136
959,070;  144,646;   -1,197;    1,955
959,623;  328,010;    1,076;    1,500
960,176;  295,101;    0,712;    2,045
960,728;  256,828;    1,712;    0,773
961,281;  221,010;    2,258;    0,500
961,834;  173,465;   -0,833;    0,864
962,386;  179,283;    1,258;    1,045
962,939;  155,465;    3,439;   -0,318
963,491;  192,919;    2,621;    1,136
964,043;  153,192;    0,076;    2,409
964,596;  269,010;    1,712;    2,227
965,148;  202,374;   -0,379;    1,773
965,700;  149,919;   -0,015;   -0,227
966,253;  259,010;   -0,833;    0,318
966,805;  221,465;    1,894;    0,773
967,357;  174,646;    0,439;   -1,500
967,909;  249,556;    1,167;   -1,227
968,461;  181,919;    0,894;    3,136
969,013;  146,010;   -1,561;   -0,864
969,565;  257,646;    1,803;   -1,136
970,117;  413,828;    3,803;    1,045
970,669;  259,919;    3,258;   -0,136
971,220;  127,919;    2,167;   -1,500
971,772;  183,828;    1,348;   -0,318
972,324;  244,556;   -1,197;   -0,500
972,876;  175,283;    0,167;   -0,045
973,427;  249,919;   -1,197;   -1,045
973,979;  303,828;    0,076;   -2,500
974,530;  178,101;    0,803;    1,318
975,082;  219,374;    2,167;    1,682
975,633;  184,192;    2,894;    1,682
976,184;  209,192;    2,076;    0,773
976,736;  205,101;    0,348;    0,227
977,287;  220,192;    0,258;   -0,500
977,838;  193,737;   -0,924;   -0,318
978,389;  189,010;    0,803;   -0,500
978,940;  115,556;    1,258;   -0,409
979,491;  117,192;    2,258;   -0,500
980,042;  173,374;   -0,652;    3,045
980,593;  188,010;    1,894;    0,227
981,144;  240,828;    3,530;   -0,500
981,695;  249,192;   -0,470;    1,500
982,246;  223,646;   -1,833;    1,045
982,797;  143,828;   -0,561;    0,682
983,347;  238,101;    2,167;    0,591
983,898;  375,101;    4,167;    0,409
984,449;  351,737;    2,530;    0,773
984,999;  242,828;    1,894;   -1,136
985,550;  213,465;    3,167;   -0,318
986,100;  131,374;    0,712;   -0,318
986,651;  130,192;    0,258;    0,045
987,201;  144,101;    0,894;   -0,591
987,751;  153,101;   -0,288;    2,864
988,302;  171,646;   -0,379;    1,500
988,852;  209,828;    1,985;   -1,136
989,402;  245,101;    0,985;    0,682
989,952;  267,283;    1,621;    0,864
990,502;  165,737;    1,076;    0,682
991,052;  106,737;   -0,106;    0,045
991,602;  141,192;    1,167;    1,318
992,152;  170,192;    2,803;    0,682
992,702;  195,737;    1,167;   -0,045
993,252;  156,828;    0,076;   -0,500
993,802;  216,010;    1,167;    1,318
994,352;  183,828;   -0,742;    1,136
994,901;  131,192;    1,076;    3,227
995,451;  125,010;   -1,197;    0,318
996,000;  146,101;    1,076;    0,318
996,550;  148,374;    2,894;    0,227
997,100;  172,192;   -0,561;   -0,045
997,649;  261,919;   -0,197;    0,955
998,198;  152,737;   -0,288;   -1,500
998,748;  216,465;    0,348;   -2,318
999,297;  177,646;    0,985;   -0,409
999,846;  252,283;    1,894;   -0,773
1000,395;  196,465;    1,530;    0,500
1000,945;  273,283;    1,076;   -0,773
1001,494;  270,192;    0,167;    0,682
1002,043;  265,828;    0,712;    0,864
1002,592;  154,010;    3,439;    1,955
1003,141;  142,465;    2,439;   -0,682
1003,690;  252,101;    1,258;    0,500
1004,238;  171,828;   -0,106;   -0,045
1004,787;  121,556;   -1,288;    1,227
1005,336;  230,101;    1,621;    0,682
1005,885;  193,465;   -0,197;   -2,773
1006,433;  192,556;   -0,470;    0,955
1006,982;  300,556;    2,167;    1,682
1007,531;  209,374;    2,712;   -0,227
1008,079;  189,465;    0,258;    0,500
1008,627;  152,192;    1,621;    0,409
1009,176;  169,828;    0,076;   -1,955
1009,724;  134,465;   -2,742;    0,864
1010,273;  228,465;    1,076;    0,500
1010,821;  155,374;    1,076;    1,409
1011,369;  131,828;    0,076;    1,318
1011,917;  136,919;   -0,833;   -0,591
1012,465;  192,919;    2,530;   -1,591
1013,013;  181,465;    0,439;   -1,682
1013,561;  256,101;   -1,288;   -0,773
1014,109;  314,283;   -0,833;    1,682
1014,657;  223,465;    1,348;    0,591
1015,205;  164,919;    0,894;   -0,955
1015,753;  133,101;    0,258;   -1,409
1016,301;  174,192;    2,621;    3,045
1016,848;  232,465;    2,167;    0,409
1017,396;  219,737;    1,621;    0,045
1017,944;  215,101;    2,621;    1,864
1018,491;  162,465;   -0,197;    1,409
1019,039;  361,465;   -0,652;    0,591
1019,586;  204,010;    0,076;    1,682
1020,134;  188,101;    0,712;    1,500
1020,681;  244,465;    2,894;   -1,136
1021,228;  195,374;   -0,561;   -2,227
1021,776;  176,828;   -0,833;   -1,136
1022,323;  319,283;    0,803;    0,773
1022,870;  244,192;   -0,470;   -0,045
1023,417;  279,646;    2,076;    1,864
1023,964;  185,646;    0,621;    1,227
1024,511;  163,556;   -0,652;    0,773
1025,058;  193,010;    0,439;   -0,045
1025,605;  160,010;   -1,742;    3,136
1026,152;  296,101;   -0,106;   -0,591
1026,699;  201,556;    0,167;    1,318
1027,245;  190,556;    2,439;    0,318
1027,792;  152,192;    0,712;    1,409
1028,339;  302,101;    4,076;   -0,045
1028,885;  203,556;    3,621;   -0,227
1029,432;  172,737;   -0,106;    0,227
1029,978;  230,374;    1,348;   -1,591
1030,525;  237,192;    1,621;    0,409
1031,071;  159,828;    0,348;    1,136
1031,618;  335,919;    1,258;    1,682
1032,164;  231,828;    2,076;    3,045
1032,710;  255,828;    0,076;   -1,500
1033,256;  231,283;    0,712;   -0,136
1033,803;  146,101;   -0,288;    1,500
1034,349;   66,192;    1,803;    0,136
1034,895;   99,556;    2,621;   -0,318
1035,441;  139,919;    0,439;    0,318
1035,987;  168,465;   -2,288;   -0,682
1036,533;  217,010;   -0,197;   -0,955
1037,078;  351,465;    4,712;    1,682
1037,624;  247,283;    2,439;   -0,955
1038,170;  163,556;    1,712;   -0,318
1038,716;  214,192;    2,167;   -0,409
1039,261;  144,919;    2,167;   -0,773
1039,807;  155,283;   -0,015;    3,409
1040,352;  166,737;   -1,288;   -0,318
1040,898;  158,919;    0,167;   -0,682
1041,443;  121,101;    0,803;   -2,591
1041,989;  323,283;    3,621;    1,591
1042,534;  196,465;    0,985;    2,591
1043,079;  118,192;    1,985;    0,955
1043,625;  175,101;    0,258;    0,500
1044,170;  183,646;    2,439;    1,045
1044,715;  313,556;    0,167;    0,955
1045,260;  250,374;   -0,833;   -0,955
1045,805;  151,192;    0,258;   -0,591
1046,350;  135,283;    0,530;   -0,409
1046,895;  247,192;    0,803;    1,591
1047,440;  228,828;    1,530;    0,409
1047,985;  158,556;   -1,197;   -0,955
1048,530;  144,101;    1,348;    1,227
1049,074;  172,101;    2,803;    0,318
1049,619;  135,283;   -0,924;    1,955
1050,164;  132,737;    1,076;    0,227
1050,708;  195,919;    2,621;    0,045
1051,253;  350,556;    3,258;   -2,227
1051,797;  215,101;   -0,197;   -1,318
1052,342;  116,192;    1,348;    1,045
1052,886;  162,737;    1,803;   -1,409
1053,430;  106,828;    2,167;    0,136
1053,975;  170,556;    0,894;   -0,318
1054,519;  163,556;    1,803;    3,227
1055,063;  206,465;    3,621;    1,318
1055,607;  195,646;    1,348;    0,227
1056,151;  195,646;    0,530;    1,682
1056,695;  144,737;   -1,833;   -1,136
1057,239;  140,465;   -1,197;   -0,682
1057,783;  165,646;    2,258;   -1,500
1058,327;  214,828;    3,076;    1,409
1058,871;  309,374;    3,985;    1,318
1059,415;  222,010;   -0,561;   -0,045
1059,958;  309,646;    2,985;    2,591
1060,502;  151,192;    1,348;   -0,773
1061,046;  103,465;    1,712;   -0,955
1061,589;  105,010;    2,803;   -1,136
1062,133;   88,101;    0,985;    1,864
1062,676;  113,556;    1,439;    0,864
1063,220;  134,465;    0,985;    0,500
1063,763;  148,919;    2,985;    1,136
1064,306;  156,919;    0,985;    1,864
1064,849;  160,465;    2,076;    0,591
1065,393;  146,556;    2,894;   -1,500
1065,936;  149,465;    2,530;   -0,409
1066,479;  103,374;    2,621;    1,318
1067,022;  120,556;    1,894;   -0,227
1067,565;  105,192;   -1,197;   -1,318
1068,108;   95,919;    1,258;   -0,591
1068,651;   80,283;   -2,470;    1,409
1069,194;   84,192;   -1,106;   -1,682
1069,736;   93,374;    3,803;    0,955
1070,279;   84,283;   -1,652;   -0,500
1070,822;  127,010;    1,530;   -0,318
1071,364;  209,556;    0,530;    1,318
1071,907;  125,192;    0,348;    3,227
1072,450;   46,919;    0,258;   -0,045
1072,992;   84,737;   -0,561;    3,136
1073,535;  118,010;    0,167;    2,136
1074,077;   81,556;    2,985;    2,045
1074,619;   73,465;    0,985;    0,591
1075,161;   96,374;   -0,561;    1,500
1075,704;  174,646;    0,258;    1,227
1076,246;   99,465;    1,530;    0,682
1076,788;   65,465;   -1,015;    1,773
1077,330;   66,374;   -2,106;    2,136
1077,872;   88,101;   -1,924;    0,955
1078,414;  189,283;    3,712;    0,773
1078,956;  105,646;    0,167;   -0,227
1079,498;  175,010;    0,439;    0,318
1080,040;  100,010;    0,985;   -1,318
1080,581;   81,828;    0,621;   -0,318
1081,123;   48,101;   -0,106;   -0,773
1081,665;   55,192;    3,803;   -0,955
1082,206;  164,646;    3,258;   -0,500
1082,748;  108,283;    3,258;    2,045
1083,289;   68,192;    0,167;    1,318
1083,831;   60,010;    0,258;    0,227
1084,372;   84,010;    0,894;    0,591
1084,913;   81,919;    3,348;    0,864
1085,455;   60,465;    1,530;   -2,045
1085,996;   47,919;    0,530;    0,136
1086,537;   63,192;    0,985;    0,864
1087,078;   73,919;    0,439;   -2,136
1087,619;  106,465;   -1,652;    0,227
1088,160;   85,374;    1,439;    1,318
1088,701;   78,101;   -0,742;    0,682
1089,242;   69,283;   -0,561;   -2,227
1089,783;   88,737;   -0,561;    1,409
1090,324;   73,192;   -0,833;    0,682
1090,865;   53,737;   -1,924;   -0,409
1091,405;   44,010;   -0,561;    2,227
1091,946;   64,374;   -0,197;   -0,955
1092,487;   40,919;   -1,288;   -1,409
1093,027;  102,374;    1,803;   -1,500
1093,568;   62,919;    2,258;    1,227
1094,108;   77,828;    0,621;    1,773
1094,649;   66,828;   -0,470;    0,136
1095,189;   50,919;    1,167;   -0,682
1095,729;   46,192;    0,712;    0,955
1096,269;   44,737;    1,258;   -0,955
1096,810;  122,919;   -0,197;    0,500
1097,350;   85,828;   -0,561;   -0,773
1097,890;   65,010;    2,985;    1,227
1098,430;  162,283;    4,985;    2,864
1098,970;  118,828;    1,894;    1,682
1099,510;   60,374;   -0,833;   -2,318
1100,050;   48,828;    0,258;   -1,591
1100,589;   58,919;    0,076;   -0,318
1101,129;   78,646;    0,894;   -0,955
1101,669;  117,192;    2,803;    2,136
1102,209;   81,919;    1,530;    2,227
1102,748;   61,374;    3,439;    0,955
1103,288;   67,010;    0,712;   -1,227
1103,827;   58,283;    3,530;   -2,227
1104,367;   38,192;    1,712;   -2,409
1104,906;   41,283;   -1,015;   -1,136
1105,445;   73,010;    0,985;   -1,136
1105,985;   53,465;   -0,652;    1,500
1106,524;   60,101;    1,530;   -0,682
1107,063;   51,919;    1,167;    1,409
1107,602;   43,101;    1,894;   -1,500
1108,141;   36,646;    1,621;    1,500
1108,680;   62,828;    3,985;   -0,591
1109,219;   51,374;    0,167;   -0,500
1109,758;   46,283;    4,167;    0,682
1110,297;   45,737;   -1,106;   -0,682
1110,836;   32,283;    1,439;    0,955
1111,375;   35,919;    0,348;    0,409
1111,913;   69,646;    0,985;    0,773
1112,452;   55,465;    0,894;    0,136
1112,991;   32,101;    1,076;    1,955
1113,529;   31,828;    0,167;   -0,045
1114,068;   43,010;    0,439;    2,955
1114,606;   28,828;   -0,561;   -0,955
1115,144;   59,646;    1,530;    1,045
1115,683;   48,101;    1,985;    0,318
1116,221;   64,283;    2,076;   -0,864
1116,759;   36,374;    1,621;   -0,864
1117,297;   73,101;    1,621;    1,864
1117,836;   43,010;    1,985;   -1,227
1118,374;   41,374;    0,258;   -0,682
1118,912;   45,465;    0,439;    2,682
1119,450;   40,556;    0,985;    0,864
1119,988;   41,010;    3,348;    2,136
1120,525;  199,646;    7,258;    3,318
1121,063;   93,919;    0,530;    1,864
1121,601;   38,101;    1,076;   -1,227
1122,139;   30,737;    1,076;   -2,045
1122,676;   84,101;   -1,652;    2,773
1123,214;   72,192;    0,712;    4,409
1123,751;   30,828;    0,621;    2,227
1124,289;   47,556;    0,894;   -0,409
1124,826;   34,737;   -0,379;    0,227
1125,364;   19,374;    0,712;   -0,955
1125,901;   76,556;    6,258;    1,227
1126,438;   69,374;    3,530;    0,955
1126,975;   17,828;    2,985;   -0,773
1127,513;   26,465;    2,621;    2,136
1128,050;   19,646;   -0,561;   -0,682
1128,587;   33,192;    1,348;   -0,227
1129,124;   47,374;   -0,015;    1,318
1129,661;   26,283;   -1,924;    0,227
1130,198;   60,737;    2,439;    0,773
1130,734;   38,010;   -0,379;    1,409
1131,271;   17,010;   -1,197;    0,864
1131,808;   49,646;    1,621;    3,045
1132,345;   28,192;    4,530;    0,318
1132,881;    9,828;   -0,561;   -1,864
1133,418;   30,374;    0,348;   -1,136
1133,954;   21,374;    0,712;   -2,682
1134,491;   35,374;    1,712;   -0,773
1135,027;   19,465;    2,167;    0,864
1135,564;   35,283;    1,439;    2,955
1136,100;   30,828;   -0,742;    2,136
1136,636;   14,465;   -1,015;   -1,045
1137,172;   23,192;    0,894;   -1,045
1137,708;   14,919;   -1,561;   -1,045
1138,245;   15,646;    0,803;   -1,227
1138,781;   13,283;    1,803;   -3,318
1139,317;   19,828;    1,894;   -1,409
1139,852;   26,556;    3,076;    0,136
1140,388;   35,828;    2,076;   -0,409
1140,924;   18,374;    1,076;   -2,227
1141,460;   12,374;   -0,288;    0,136
1141,996;    2,919;   -0,652;    2,682
1142,531;   13,192;    1,076;    3,318
1143,067;   46,010;    1,167;    1,045
1143,602;   66,101;    3,439;   -0,318
1144,138;   31,828;    0,803;    1,045
1144,673;   10,465;    1,621;    1,409
1145,209;   16,192;    2,894;   -0,318
1145,744;    6,101;    0,803;    0,864
1146,279;   26,374;    1,530;   -0,136
1146,815;   14,101;    1,530;   -2,682
1147,350;   24,192;   -0,924;    0,045
1147,885;   13,010;   -1,924;   -1,318
1148,420;   12,556;    2,439;    0,773
1148,955;   11,192;   -1,470;    1,864
1149,490;   12,556;   -1,106;   -1,591
1150,025;    6,737;   -1,106;   -1,773
1150,560;   22,646;   -0,288;   -0,955
1151,094;   18,737;    0,258;   -0,591
1151,629;   16,737;   -3,742;    0,864
1152,164;   12,646;   -1,288;    1,318
1152,698;    6,646;    1,258;   -0,136
1153,233;    2,556;   -1,379;   -0,682
1153,767;    7,374;   -0,288;   -2,318
1154,302;   14,283;   -0,379;    1,773
1154,836;   15,556;    0,803;   -2,136
1155,371;   15,374;    2,258;    3,682
1155,905;   13,646;    1,985;    1,682
1156,439;   11,010;    0,530;   -0,500
1156,973;   12,919;    0,439;    0,318
1157,507;   10,374;   -1,742;    0,682
1158,042;   13,283;   -0,652;    1,045
1158,576;   15,919;   -0,561;    1,773
1159,110;   14,010;    0,076;    2,409
1159,643;   11,919;   -2,470;   -0,045
1160,177;    5,737;   -2,015;    1,500

