
Integration time [ms]:   0,050
Averaging Nr. [scans]: 11
Smoothing Nr. [pixels]: 0
Data measured with spectrometer [name]: 7318044SP
Wave   ;Sample   ;Dark     ;Reference
[nm]   ;[counts] ;[counts] ;[counts] 

186,757;    4,023;   38,161;    1,318
187,357;    5,584;   26,706;    0,955
187,958;    3,789;   17,252;   -1,591
188,558;   18,920;   12,979;   -1,227
189,159;    6,512;   10,070;   -4,500
189,759;   -1,133;    5,797;   -3,591
190,360;    0,325;    6,797;   -2,136
190,960;    9,136;    5,706;   -4,136
191,560;   12,528;    2,614;   -6,591
192,161;  106,260;    5,885;   -3,500
192,761;   56,792;    5,520;   -3,227
193,361;   33,494;    3,065;   -3,773
193,962;   50,363;    1,612;   -2,682
194,562;   17,231;   -0,114;   -3,955
195,162;   18,476;   -0,567;   -2,227
195,762;   65,118;    2,433;   -0,045
196,362;   40,193;    1,706;   -2,500
196,963;   10,483;    1,706;   -0,864
197,563;   30,471;    1,252;   -0,955
198,163;    7,691;   -0,111;   -0,682
198,763;   16,860;   -0,020;   -0,500
199,363;   35,331;    3,616;   -0,500
199,963;   24,440;    2,162;    0,409
200,563;   22,886;    6,344;   -1,409
201,163;   15,806;    5,435;   -0,227
201,763;   29,320;    1,435;    0,318
202,363;   20,102;    0,980;    1,500
202,963;   35,114;    1,526;    1,045
203,563;   64,866;    0,344;    0,500
204,162;   28,528;    1,889;   -1,864
204,762;   27,250;    2,071;    0,591
205,362;   17,596;    0,708;    1,955
205,962;   33,345;    3,435;    1,955
206,562;   31,452;    1,889;    2,318
207,161;   24,407;    1,708;    0,318
207,761;   78,999;    4,435;    2,409
208,361;   38,085;    1,889;    1,409
208,960;   49,606;    2,889;    1,500
209,560;   47,814;    0,435;    1,591
210,160;   61,181;    5,071;    1,864
210,759;   48,303;    0,708;    1,227
211,359;   39,089;   -0,474;    1,045
211,958;  132,018;    3,526;    2,045
212,558;  135,708;    0,799;    1,864
213,157;   82,062;   -0,929;    1,500
213,757;  219,581;    5,617;   -0,227
214,356;  114,211;    1,708;   -0,409
214,956;  215,392;    3,526;    0,409
215,555;   97,794;    0,617;    2,136
216,154;   69,069;   -0,292;   -0,591
216,754;   76,056;    1,253;    0,773
217,353;   95,923;   -0,383;   -1,045
217,952;   36,923;    2,072;    0,318
218,552;  122,656;    0,254;   -0,773
219,151;   79,733;   -1,110;    0,955
219,750;   70,673;    0,890;   -0,227
220,349;   70,685;   -2,292;    1,045
220,948;  145,045;    1,163;    1,136
221,548;   92,255;    0,617;    1,227
222,147;  115,590;   -1,292;   -0,409
222,746;  225,299;    1,254;   -0,955
223,345;  151,876;   -1,019;    0,500
223,944;  162,937;    1,163;    0,773
224,543;  176,038;    4,072;   -1,409
225,142;  180,362;    1,345;    0,136
225,741;  179,524;    1,163;    1,045
226,340;  170,194;    1,254;   -0,955
226,939;  276,032;    2,708;   -0,136
227,538;  171,416;    1,163;   -0,773
228,137;  291,707;    0,435;    0,864
228,735;  257,519;    0,435;    1,227
229,334;  150,961;   -0,474;   -0,227
229,933;  339,705;    0,799;    0,591
230,532;  353,358;   -1,201;   -0,409
231,131;  414,764;    1,253;    0,318
231,729;  309,856;    1,163;   -2,318
232,328;  248,108;    0,435;   -1,500
232,927;  270,543;    4,526;   -0,500
233,525;  259,716;    0,981;    0,045
234,124;  309,356;    1,890;   -1,591
234,723;  250,769;    1,617;   -1,045
235,321;  239,957;    1,163;    0,136
235,920;  289,317;    2,526;   -1,227
236,518;  448,232;    1,072;    0,318
237,117;  301,623;    2,890;   -0,227
237,715;  322,420;    1,163;   -0,500
238,314;  373,104;    1,708;   -2,318
238,912;  511,742;    0,526;   -1,409
239,510;  401,172;    1,162;   -1,227
240,109;  524,768;   -0,474;    3,773
240,707;  482,706;   -0,474;    1,227
241,305;  346,025;   -0,383;    0,136
241,904;  454,207;   -0,292;   -2,045
242,502;  562,771;    3,253;   -0,227
243,100;  455,135;    3,344;   -0,955
243,698;  401,295;    2,799;    1,682
244,297;  431,695;   -0,656;    0,682
244,895;  432,400;   -0,474;   -2,318
245,493;  628,369;    2,981;   -0,591
246,091;  620,887;    5,163;   -1,318
246,689;  547,699;    2,163;    0,591
247,287;  515,964;   -0,019;   -1,136
247,885;  498,088;   -1,019;    1,227
248,483;  467,774;   -0,201;   -0,500
249,081;  547,477;    0,981;    1,591
249,679;  591,545;   -1,019;    1,682
250,277;  472,135;   -2,292;    0,864
250,875;  605,141;    0,617;   -1,045
251,473;  490,813;   -0,019;    0,500
252,071;  590,592;   -0,383;    1,045
252,669;  519,846;   -1,565;    0,318
253,267;  478,058;    1,618;    0,773
253,864;  511,691;    0,617;    0,682
254,462;  672,888;    1,526;    1,591
255,060;  469,584;    0,072;    1,318
255,658;  463,301;   -3,292;   -0,136
256,255;  554,594;   -0,201;   -2,045
256,853;  594,815;    2,345;    1,409
257,451;  570,720;    1,981;    1,864
258,048; 1011,871;    2,072;    1,864
258,646;  691,791;    0,436;   -1,045
259,243;  795,270;    2,981;    2,227
259,841;  674,941;    1,799;    0,318
260,438;  525,547;    0,254;    0,864
261,036;  670,885;    0,617;    1,409
261,633;  582,859;    1,526;    2,227
262,231;  534,557;   -0,110;   -0,045
262,828;  548,569;   -0,383;    1,136
263,425;  594,313;   -1,928;   -0,591
264,023;  598,947;    1,436;    0,045
264,620;  719,414;    1,526;   -0,318
265,217;  856,398;    2,890;    3,136
265,815;  594,192;    2,527;    2,136
266,412;  709,592;    0,072;    0,136
267,009;  737,714;    0,526;    0,773
267,606;  832,245;    0,345;   -0,955
268,203;  626,821;   -0,383;   -0,591
268,801;  676,115;   -0,474;    0,591
269,398;  609,836;   -0,564;    2,500
269,995;  748,841;    0,890;    1,591
270,592;  658,327;    0,799;   -0,500
271,189;  599,384;    1,981;    0,409
271,786;  586,321;    2,072;    1,227
272,383;  835,715;   -0,383;    0,227
272,980;  681,997;    1,617;    0,318
273,577;  655,889;    2,162;    1,227
274,174;  591,552;    1,435;    2,591
274,771;  717,301;    1,890;   -0,773
275,367; 1124,155;    3,253;    1,409
275,964;  937,870;   -0,565;   -0,500
276,561;  730,228;   -2,474;   -1,045
277,158;  655,363;    1,799;   -1,773
277,755;  898,204;   -0,110;    0,409
278,351;  733,602;    0,436;   -1,500
278,948;  827,741;   -0,201;    0,045
279,545;  744,487;    0,527;    2,318
280,141;  999,422;    1,254;   -2,045
280,738;  897,288;    2,435;   -0,136
281,334;  696,382;   -0,383;    0,591
281,931;  701,949;    2,890;   -1,318
282,528;  813,465;    4,072;   -0,500
283,124;  931,160;    3,345;   -0,500
283,721;  899,378;    0,709;    1,409
284,317;  757,141;    0,163;    2,500
284,913;  977,298;   -0,110;    0,591
285,510; 1262,298;    2,890;   -0,318
286,106; 1050,487;    2,345;   -0,955
286,703;  766,903;    0,072;    1,955
287,299;  735,214;    1,254;   -0,591
287,895;  751,416;    0,890;   -1,045
288,491;  779,654;    0,163;    2,136
289,088;  882,345;    0,163;    2,409
289,684;  915,210;    2,890;    1,500
290,280; 1064,495;    1,890;    0,682
290,876; 1020,224;    0,163;    5,500
291,472;  917,638;    2,163;    2,227
292,068;  938,500;    1,254;    0,227
292,665;  782,487;   -0,564;    0,773
293,261;  665,123;   -1,292;    2,136
293,857;  875,391;    4,072;    2,136
294,453;  797,699;   -0,928;    0,955
295,049; 1004,997;    0,253;    1,955
295,644;  824,987;   -1,292;    0,136
296,240;  700,516;    0,162;   -0,136
296,836;  847,015;   -0,747;    0,318
297,432;  996,360;    2,980;   -0,500
298,028; 1042,455;    0,435;    0,773
298,624;  882,579;    0,889;    1,864
299,220;  879,158;    0,435;    0,591
299,815;  829,782;    0,526;   -0,409
300,411;  930,179;    0,435;    1,773
301,007; 1066,436;    1,889;    0,227
301,602;  891,207;    2,071;   -2,318
302,198; 1004,374;    1,435;   -0,773
302,794;  865,410;    1,526;   -0,500
303,389;  832,156;    1,071;    1,045
303,985;  897,718;    1,253;    1,409
304,580; 1002,676;    0,889;    1,591
305,176;  895,540;    0,344;    0,136
305,771;  772,598;   -0,929;   -1,227
306,367; 1167,822;    3,071;    0,136
306,962;  958,935;    2,889;    1,500
307,558;  958,294;    2,435;    0,136
308,153; 1042,728;   -0,383;   -1,136
308,748;  848,325;    0,162;    1,682
309,344; 1232,460;    0,253;   -1,318
309,939; 1247,861;    2,071;   -1,318
310,534;  941,797;   -2,020;   -1,682
311,130;  890,518;   -0,656;   -2,500
311,725;  821,113;    0,526;   -0,500
312,320;  896,581;    1,253;    0,045
312,915; 1030,803;    2,890;   -1,045
313,510; 1244,757;    0,526;   -0,500
314,105; 1018,098;   -3,565;    1,409
314,700;  811,056;   -1,656;   -1,045
315,295;  876,858;   -0,020;    0,045
315,890;  775,195;   -0,292;    0,864
316,485;  887,125;    0,253;   -0,318
317,080;  846,038;   -0,929;    1,591
317,675; 1170,224;    3,071;   -0,682
318,270; 1339,223;    6,889;    3,318
318,865; 1246,217;    2,435;    3,045
319,460; 1039,842;   -1,565;    0,591
320,055;  914,523;   -2,565;   -1,227
320,650;  885,489;   -1,838;   -0,591
321,244;  887,099;    0,889;   -1,409
321,839;  994,802;    0,980;   -0,227
322,434; 1029,672;   -0,111;   -1,591
323,029;  926,802;   -0,474;    1,591
323,623;  879,689;    0,798;    0,773
324,218; 1024,395;    2,707;    1,409
324,812;  965,143;    0,889;    1,591
325,407;  960,660;   -0,929;    2,045
326,002; 1064,761;    0,526;   -0,409
326,596; 1021,583;   -0,656;    1,318
327,191;  889,548;   -0,383;   -1,045
327,785;  830,492;   -0,747;   -0,227
328,379;  916,005;   -0,383;    0,136
328,974;  928,098;    1,798;   -3,955
329,568;  974,151;    2,889;   -2,409
330,163; 1035,180;    2,435;    1,045
330,757;  907,960;    0,253;    1,591
331,351;  822,530;   -0,292;    0,682
331,945;  828,676;   -0,383;    1,409
332,540;  956,082;    1,617;   -0,591
333,134;  926,152;    3,344;    0,773
333,728;  920,534;    2,799;    0,318
334,322;  863,358;    0,889;   -0,864
334,916;  790,855;    0,344;    0,955
335,510;  985,611;   -0,111;   -0,136
336,105;  986,912;   -0,929;    1,591
336,699;  841,282;   -1,292;    0,591
337,293;  876,113;    1,071;    0,318
337,887;  816,311;    0,071;    1,955
338,481;  983,714;    2,980;    0,591
339,074; 1108,121;    2,071;    2,682
339,668; 1067,634;   -0,110;    1,227
340,262; 1685,524;    7,708;    3,227
340,856; 1225,097;    1,708;   -0,682
341,450;  850,696;    0,708;    1,864
342,044;  946,022;    1,799;    0,136
342,637; 1100,950;    1,162;   -2,136
343,231; 1096,633;   -1,474;    0,682
343,825;  917,821;   -0,747;   -0,591
344,419;  909,259;   -0,474;    0,500
345,012; 1486,114;    2,889;    4,045
345,606; 1272,529;   -0,656;    1,591
346,199;  930,269;   -0,111;   -0,227
346,793; 1045,963;    2,525;    2,045
347,386;  870,317;    0,889;   -1,136
347,980;  736,345;   -0,838;   -0,045
348,573;  857,334;   -1,748;    0,409
349,167; 1137,583;    6,161;    4,773
349,760; 1060,871;    2,252;    2,682
350,354;  997,216;    1,616;    1,136
350,947; 1026,531;    2,798;    1,682
351,540;  855,248;    0,616;   -1,409
352,134;  713,236;   -1,111;    1,136
352,727;  765,223;   -0,657;    1,136
353,320;  797,179;    2,343;    0,591
353,913;  697,127;   -1,929;    1,864
354,507;  916,522;    0,434;   -1,227
355,100;  808,666;    0,071;    0,864
355,693; 1188,254;    4,798;    2,409
356,286;  939,048;    0,980;    2,773
356,879;  801,610;   -0,475;    1,227
357,472;  750,086;    0,980;    1,500
358,065;  822,984;    3,161;    2,500
358,658;  688,968;    0,798;    2,318
359,251;  625,707;    0,252;   -0,591
359,844;  794,420;    0,343;   -1,136
360,437;  898,949;    0,252;    0,045
361,030;  765,524;    0,525;   -0,682
361,623;  735,812;    0,434;    0,318
362,215;  972,876;    0,979;    2,045
362,808;  810,550;   -2,293;   -1,682
363,401;  736,488;    0,798;    0,136
363,994;  977,157;    3,252;   -1,500
364,586;  747,978;    0,888;   -1,500
365,179;  696,777;   -0,203;   -1,136
365,772;  521,926;   -0,930;    2,045
366,364;  681,205;    1,524;   -3,227
366,957;  786,101;    1,342;   -0,045
367,549;  707,119;   -0,203;   -0,864
368,142;  711,509;    0,978;   -1,500
368,734;  681,382;    2,523;   -2,136
369,327;  601,354;    2,341;   -0,500
369,919;  646,692;   -1,659;    0,409
370,512;  675,032;   -1,023;   -0,500
371,104;  930,676;    2,704;    1,591
371,696;  980,771;    1,703;   -0,955
372,289;  832,013;    0,157;    1,136
372,881;  769,944;    1,156;    1,318
373,473;  635,001;    4,064;    1,136
374,066;  755,009;    1,336;    0,500
374,658;  712,408;    0,879;    1,136
375,250;  653,966;   -1,668;   -1,409
375,842;  706,526;   -0,124;   -0,045
376,434;  650,862;   -2,762;   -0,409
377,026;  709,206;   -1,855;   -2,500
377,618;  735,257;    0,779;   -0,682
378,210;  648,944;    3,141;   -1,955
378,802;  606,952;    3,412;   -0,591
379,394; 1057,229;    3,411;    0,682
379,986;  825,526;    1,138;   -0,955
380,578;  726,714;    1,410;    0,773
381,170;  957,956;    0,320;    0,045
381,762;  832,213;   -0,224;    1,409
382,354;  790,801;   -0,223;   -1,318
382,945;  688,773;    0,870;    0,318
383,537;  640,503;    1,144;   -1,955
384,129;  652,512;    0,963;   -1,136
384,721;  788,410;    0,418;    0,955
385,312;  692,291;   -1,399;   -0,955
385,904;  820,739;   -0,945;    1,591
386,496;  676,527;    0,691;    1,045
387,087;  852,511;    0,418;    2,500
387,679;  784,058;   -0,401;    0,045
388,270;  785,733;   -2,401;    2,045
388,862;  743,198;   -0,401;   -0,318
389,453;  680,863;    1,054;    1,045
390,045;  725,315;    3,236;   -2,682
390,636;  634,054;    0,144;   -0,591
391,227;  678,539;    2,054;   -0,045
391,819;  679,190;    0,781;    0,773
392,410;  957,701;    0,600;    0,045
393,001;  746,054;    1,600;   -1,591
393,593;  825,331;    0,600;   -0,045
394,184;  877,521;    0,873;   -0,409
394,775;  704,166;    1,146;    2,136
395,366;  676,576;    1,782;    0,773
395,957;  884,170;   -2,400;    0,136
396,548;  768,968;    1,054;    2,682
397,139;  934,537;    2,236;    0,591
397,730;  795,471;    0,873;    0,955
398,321;  797,074;    0,509;    0,955
398,912;  734,763;   -0,764;    0,136
399,503;  768,934;   -1,945;   -1,409
400,094;  791,581;   -1,582;    1,682
400,685;  767,961;    3,600;    0,045
401,276;  680,275;   -0,400;   -0,955
401,867;  693,120;   -1,127;    0,773
402,458;  668,260;    1,509;   -2,318
403,048;  844,255;    0,146;    0,591
403,639;  729,880;    1,509;    0,864
404,230;  914,360;    0,691;    0,318
404,821;  958,480;   -0,127;    0,045
405,411;  850,685;   -0,763;   -2,591
406,002;  722,269;    3,237;   -1,136
406,592;  991,879;    2,691;    0,045
407,183;  826,359;    0,328;   -1,500
407,774;  774,458;    1,419;   -0,136
408,364;  760,673;    2,600;    0,409
408,954;  888,376;   -0,036;    1,227
409,545;  892,175;    1,873;    1,045
410,135;  794,804;   -1,581;    0,500
410,726;  755,299;    0,783;    0,318
411,316;  997,528;    2,237;    0,773
411,906;  772,121;    0,146;   -0,409
412,497;  760,529;   -0,490;   -0,045
413,087;  725,273;    0,783;   -0,227
413,677;  694,210;   -2,490;    3,864
414,267;  665,183;   -1,035;    1,409
414,857;  642,675;    0,419;    4,227
415,448;  656,761;   -0,763;    0,500
416,038;  677,340;   -2,945;   -0,591
416,628;  717,555;    0,965;    0,409
417,218;  798,368;   -1,762;    3,318
417,808;  994,405;    0,965;   -0,409
418,398;  845,141;   -1,035;    2,682
418,988;  705,988;   -2,217;    0,591
419,578;  798,518;    3,601;    1,409
420,168;  799,497;    0,692;   -0,955
420,757;  944,036;    0,964;   -1,500
421,347;  786,852;    1,601;   -0,227
421,937;  749,654;    3,329;    1,409
422,527;  903,825;    2,602;   -0,773
423,116; 1061,773;    2,692;   -0,045
423,706;  756,579;    2,965;    0,318
424,296;  673,203;    1,601;    0,682
424,885;  895,385;    1,510;   -3,045
425,475;  846,478;    1,147;   -2,864
426,065;  711,013;   -1,489;   -0,318
426,654;  689,272;    0,329;   -0,318
427,244; 1054,687;    1,147;    1,409
427,833;  985,007;    1,056;   -0,500
428,423;  810,838;    0,147;    1,136
429,012;  876,461;    2,420;   -1,136
429,601;  990,368;    2,057;    0,136
430,191;  854,027;    2,511;    4,318
430,780;  689,849;   -1,671;   -0,409
431,369;  968,374;    1,329;   -0,045
431,959;  888,499;    1,693;    0,500
432,548;  771,156;   -1,398;   -0,045
433,137;  694,958;    0,329;   -1,318
433,726;  838,265;    0,148;    0,500
434,315;  812,046;    0,148;    2,409
434,905;  963,025;    0,693;    1,409
435,494; 1006,266;    3,148;    0,955
436,083;  835,022;    1,420;   -0,955
436,672;  892,460;    1,148;    0,500
437,261;  845,686;    0,512;   -1,955
437,850; 1193,712;   -1,125;    0,682
438,439; 1216,941;    2,239;    1,955
439,027; 1342,172;    3,421;    1,773
439,616; 1290,844;    2,239;    1,227
440,205;  985,087;    0,057;   -2,136
440,794;  885,784;   -0,306;   -0,045
441,383;  793,392;    1,603;   -0,591
441,971;  713,004;   -0,306;    0,591
442,560;  734,701;    0,603;   -1,773
443,149;  606,549;    3,060;   -1,318
443,737;  718,085;    0,968;   -2,318
444,326;  734,810;    0,331;    0,318
444,915;  805,600;   -1,851;    0,864
445,503;  829,531;    0,058;   -0,318
446,092; 1153,035;    7,876;    2,136
446,680; 1101,765;    1,876;    0,318
447,269; 1008,365;   -1,487;   -0,318
447,857;  937,762;    2,240;   -1,773
448,445;  882,717;    2,149;    1,318
449,034;  839,136;    0,876;   -1,136
449,622;  821,869;    1,240;    3,500
450,210; 1226,955;    3,149;    2,227
450,799; 1136,999;    2,604;   -0,591
451,387; 1013,596;    1,786;   -0,591
451,975;  995,437;   -1,305;    0,864
452,563; 1138,504;    0,422;    2,318
453,151;  854,230;   -1,032;   -1,227
453,739;  919,120;   -1,577;    0,136
454,328; 1099,037;    0,604;   -2,136
454,916;  972,593;    1,150;   -0,136
455,504;  967,956;    3,513;    1,227
456,092;  851,423;    2,150;   -1,591
456,679;  765,712;    0,604;    0,682
457,267; 1412,200;    3,604;    1,045
457,855;  931,455;    3,241;    1,409
458,443;  680,786;   -0,304;    1,682
459,031;  989,329;    1,332;    2,409
459,619;  946,337;   -3,577;    2,864
460,206;  781,486;   -0,759;    2,045
460,794;  799,030;   -0,668;   -0,227
461,382;  891,491;    0,878;   -0,864
461,970;  830,396;    0,605;    1,864
462,557;  756,022;    0,878;   -0,682
463,145;  983,952;   -0,304;   -1,682
463,732; 1309,060;    2,514;   -1,045
464,320;  965,393;    1,514;   -3,045
464,907; 1155,244;    0,423;   -0,773
465,495; 1025,359;    2,696;   -1,227
466,082;  901,467;    2,060;   -0,045
466,670;  885,856;    2,605;    1,227
467,257;  777,373;    0,060;    2,045
467,844;  958,249;    1,514;    0,045
468,432;  944,912;   -0,031;    3,500
469,019;  835,903;    1,606;   -1,773
469,606;  950,710;    0,969;    3,682
470,193;  995,296;    2,151;    0,227
470,780;  940,841;    0,333;    0,864
471,368;  848,227;   -1,212;   -0,773
471,955;  985,535;    1,060;   -0,682
472,542;  905,335;   -0,303;   -1,136
473,129;  732,298;   -0,485;    0,136
473,716;  731,252;    0,060;    0,591
474,303;  787,264;    1,333;   -0,864
474,890;  811,104;    2,333;   -0,500
475,477;  962,365;   -0,576;    0,409
476,064;  805,455;    0,697;   -1,591
476,650;  963,020;    2,152;    0,318
477,237;  859,838;    1,879;    0,955
477,824;  813,696;    3,879;    0,864
478,411;  689,944;    0,606;   -0,318
478,997;  699,541;    0,606;   -0,773
479,584;  604,908;   -0,666;   -0,409
480,171;  963,742;    1,243;   -0,773
480,757; 1052,094;   -0,848;    0,773
481,344;  860,571;    0,334;    0,409
481,931;  667,528;   -0,393;    1,045
482,517;  970,770;    0,425;    0,318
483,104; 1137,269;    1,334;    2,864
483,690;  980,743;    0,243;    0,045
484,276;  929,609;    0,698;    0,227
484,863; 1280,164;    2,152;    1,136
485,449; 1056,994;    0,152;    0,318
486,035;  960,566;   -0,666;   -0,136
486,622; 1176,526;   -2,393;    0,045
487,208; 1027,248;    1,334;    1,500
487,794;  902,823;    0,971;    0,318
488,380;  923,054;    0,698;   -1,409
488,967;  922,752;   -1,120;   -0,409
489,553;  935,290;   -1,029;   -1,409
490,139; 1079,210;    0,971;    0,773
490,725;  919,514;    0,789;   -0,227
491,311;  958,844;    1,516;    3,045
491,897;  815,772;   -0,665;    1,500
492,483;  830,642;    0,426;    1,227
493,069; 1569,068;    5,426;    0,864
493,655; 1066,915;    1,789;    0,682
494,241;  882,427;    1,517;   -0,955
494,826;  947,739;    0,335;   -1,045
495,412; 1002,650;    0,335;   -0,682
495,998;  878,604;    0,971;   -0,318
496,584;  953,525;    2,244;    1,045
497,169;  916,410;    2,335;   -0,682
497,755;  801,450;    1,244;    1,227
498,341; 1127,949;    2,153;    0,318
498,926; 1288,683;    2,881;    1,955
499,512;  907,813;   -0,028;    2,955
500,097;  864,238;   -0,574;   -0,318
500,683;  888,617;   -0,028;    2,136
501,268;  842,086;    1,881;   -0,955
501,854;  869,068;   -0,119;    1,227
502,439;  815,970;   -0,573;   -1,773
503,024;  915,298;    1,608;    0,500
503,610;  956,190;    1,335;   -0,682
504,195;  808,533;    1,245;    1,955
504,780;  960,020;    2,335;    1,227
505,366; 1106,256;    4,063;    2,864
505,951;  965,396;   -1,119;    1,045
506,536;  865,543;    1,427;   -3,682
507,121;  919,652;    1,699;   -0,318
507,706;  894,489;   -0,392;    1,045
508,291;  805,311;   -2,937;    1,136
508,876;  772,474;   -0,482;    2,591
509,461;  834,434;    1,427;   -0,773
510,046;  922,229;   -0,391;    0,318
510,631;  912,669;   -0,119;   -0,773
511,216;  797,936;   -0,664;   -0,500
511,801;  928,195;   -0,755;    2,591
512,386;  947,808;    0,972;    0,500
512,971;  961,437;    0,427;    0,955
513,555; 1018,680;    1,154;   -1,500
514,140;  997,089;    1,336;   -3,136
514,725; 1115,650;    1,791;   -1,136
515,309;  996,613;    1,064;    0,318
515,894;  861,150;   -0,300;   -2,227
516,479;  897,394;    1,973;   -0,955
517,063;  888,156;    0,882;    1,227
517,648;  862,454;    0,155;   -1,136
518,232;  790,033;   -1,300;   -1,409
518,817;  913,680;    1,337;    1,682
519,401; 1087,004;    0,700;    0,591
519,985;  951,136;    2,700;    1,136
520,570;  785,614;   -0,118;   -1,955
521,154;  951,336;    0,064;    0,591
521,738; 1200,328;    1,064;    2,409
522,323; 1041,025;   -0,390;    1,682
522,907;  980,671;    2,428;   -0,136
523,491;  873,508;    1,155;    0,955
524,075;  811,518;    0,428;    0,591
524,659; 1029,323;    0,973;    0,591
525,243;  922,805;    0,883;    0,409
525,827;  864,613;    0,883;   -0,045
526,411;  916,960;    1,155;   -0,136
526,995; 1069,656;    0,337;    1,409
527,579; 1103,341;    1,974;   -1,045
528,163; 1026,534;    0,428;   -1,500
528,747; 1183,775;    1,065;   -0,773
529,331; 1121,383;    0,883;   -1,409
529,915;  901,003;    2,338;    0,955
530,499; 1005,364;    0,247;    1,227
531,082; 1145,238;    1,065;    1,591
531,666; 1206,789;    0,520;    0,773
532,250; 1112,877;    0,428;    2,682
532,833; 1253,755;    0,610;    2,773
533,417; 1058,315;    1,247;    0,864
534,001; 1173,890;    0,429;   -0,318
534,584; 1119,841;    1,974;    0,500
535,168;  920,465;    3,247;    1,409
535,751; 1315,888;    4,520;    0,045
536,334;  974,217;    4,520;   -0,409
536,918;  906,200;    1,974;    1,591
537,501;  905,923;    1,520;    1,318
538,085;  955,694;    1,702;    1,045
538,668;  993,886;    0,883;    2,409
539,251; 1349,261;    3,156;    3,773
539,834; 1070,690;    0,156;    0,773
540,418; 1175,321;    3,247;    4,318
541,001; 1348,906;    2,702;    1,773
541,584; 1110,196;    1,429;    2,227
542,167; 1191,348;    0,702;    2,955
542,750; 1048,861;    0,793;   -0,773
543,333;  851,882;    1,429;    2,136
543,916; 1149,566;   -0,298;    2,500
544,499; 1052,717;    2,520;    0,227
545,082; 1153,824;    0,248;    3,591
545,665; 1059,504;   -0,207;    1,500
546,248; 1195,882;    0,520;   -0,318
546,830; 1150,031;   -1,752;    1,955
547,413; 1152,717;    0,157;   -0,773
547,996; 1195,160;    0,157;    0,500
548,579; 1062,718;   -0,843;    0,955
549,161; 1318,826;    0,884;    2,682
549,744; 1200,202;    0,612;    0,409
550,326; 1114,124;    0,885;   -1,136
550,909; 1564,300;    2,339;    0,591
551,492; 1244,723;    0,521;    0,227
552,074; 1326,715;   -0,024;   -1,318
552,657; 1385,537;    2,430;    0,045
553,239; 1218,296;   -3,024;   -0,773
553,821; 1118,535;   -1,570;    1,045
554,404; 1328,166;   -0,024;    1,136
554,986; 1448,604;    2,248;    1,045
555,568; 1325,726;    0,430;   -0,955
556,151; 1520,918;    4,067;   -0,227
556,733; 1204,845;   -1,388;   -0,864
557,315; 1218,136;    4,703;    0,500
557,897; 1040,381;    0,521;   -0,500
558,479; 1065,487;    1,703;    1,318
559,061; 1173,128;    1,067;   -0,864
559,643; 1271,312;   -0,297;    0,045
560,225; 1308,470;   -0,388;    2,864
560,807; 1169,312;    0,340;    0,318
561,389; 1125,347;   -1,206;    2,318
561,971; 1189,129;   -0,660;    2,136
562,553; 1165,500;    0,613;    1,591
563,135; 1243,938;    1,249;    1,136
563,717; 1623,566;    3,158;    1,136
564,298; 1508,812;    3,976;   -0,045
564,880; 1235,896;    0,340;   -1,409
565,462; 1103,350;    1,977;    1,318
566,043; 1373,783;   -0,933;    2,318
566,625; 1572,232;    4,067;    1,227
567,207; 1361,071;    0,704;    1,682
567,788; 1301,102;   -0,114;    1,500
568,370; 1388,347;   -1,841;   -0,500
568,951; 1288,235;   -0,569;    0,227
569,533; 1439,888;    0,977;   -0,500
570,114; 1535,569;   -0,296;    0,682
570,695; 1556,448;   -0,478;   -1,318
571,277; 1534,341;   -0,205;   -1,682
571,858; 1757,462;    2,704;   -1,136
572,439; 1715,925;    0,795;   -1,045
573,021; 1708,893;    0,432;   -2,773
573,602; 1818,721;    1,795;    0,318
574,183; 1827,073;   -0,114;    2,227
574,764; 1816,689;    2,068;    0,409
575,345; 1953,757;    0,250;   -0,136
575,926; 1889,238;    2,704;    0,136
576,507; 1970,533;    2,704;   -0,227
577,088; 2009,349;    1,704;    1,682
577,669; 2172,920;    1,704;    1,955
578,250; 2383,800;   -0,750;   -1,045
578,831; 2195,010;   -0,841;   -2,227
579,412; 2091,385;   -1,205;    0,955
579,993; 2296,856;    1,432;    0,227
580,573; 2282,683;   -0,023;   -0,955
581,154; 2130,747;    1,613;   -0,591
581,735; 2231,003;    0,341;    0,773
582,315; 2199,094;    0,523;    2,136
582,896; 2267,961;   -1,750;    1,227
583,477; 2125,020;    0,614;    1,227
584,057; 2205,400;    1,159;    0,955
584,638; 2270,765;   -2,750;    2,318
585,218; 2509,569;    2,886;    2,682
585,799; 2357,158;    1,977;   -0,227
586,379; 2251,986;    1,250;    1,591
586,959; 2159,259;    2,613;    0,318
587,540; 2018,894;    0,432;    2,227
588,120; 1979,343;   -1,113;   -0,045
588,700; 1891,475;    2,977;    2,136
589,281; 2123,497;    1,250;   -0,955
589,861; 1983,082;   -0,296;   -1,682
590,441; 1906,873;   -1,477;   -2,682
591,021; 1802,759;    1,432;   -2,591
591,601; 1847,308;    0,431;    0,500
592,181; 1909,558;   -1,296;   -0,773
592,761; 1682,155;    2,250;    1,409
593,341; 1822,887;    1,522;    0,045
593,921; 1793,711;   -0,569;    1,591
594,501; 1684,534;    1,250;    1,318
595,081; 1682,973;    0,522;   -0,318
595,661; 1860,494;    1,068;    0,955
596,240; 1856,219;   -1,023;    0,136
596,820; 2098,194;    2,613;    1,955
597,400; 1823,114;    1,977;    0,773
597,980; 1818,353;   -0,750;    1,045
598,559; 1793,732;    0,341;   -0,227
599,139; 1748,224;   -0,750;   -1,227
599,718; 1727,406;    0,795;   -0,409
600,298; 1775,098;   -2,387;    0,682
600,877; 2182,190;    4,795;    1,409
601,457; 2033,165;    0,340;    1,136
602,036; 1883,302;    1,795;    2,045
602,616; 1865,074;    2,250;    1,682
603,195; 1993,522;    0,431;    3,500
603,774; 1966,194;   -0,296;    2,045
604,354; 1896,204;    2,522;   -0,500
604,933; 1801,471;    0,250;    1,864
605,512; 1977,221;    2,340;    0,591
606,091; 1969,840;    1,886;    3,773
606,671; 1968,351;    0,249;    0,773
607,250; 2038,363;    1,431;    3,136
607,829; 2033,947;    1,158;    3,227
608,408; 1892,917;    4,613;    2,591
608,987; 1913,815;    2,704;    3,409
609,566; 1758,864;    0,341;   -2,500
610,145; 1852,656;    2,885;    0,682
610,723; 1969,592;    1,613;    6,864
611,302; 1768,031;    1,067;    1,682
611,881; 1971,263;    5,158;   11,227
612,460; 1776,279;    0,795;    3,955
613,039; 1781,975;    1,703;    2,045
613,617; 1614,247;    0,886;    4,773
614,196; 1635,736;    1,613;    1,227
614,775; 1760,779;    1,249;    2,409
615,353; 1790,254;   -1,660;    0,864
615,932; 1710,907;    0,249;    2,409
616,510; 1807,682;    0,158;    0,591
617,089; 2260,196;    8,794;   17,591
617,667; 1866,004;    4,885;    6,136
618,246; 1544,022;   -1,115;    1,318
618,824; 1671,863;    1,612;   -0,955
619,402; 1648,597;    0,431;   -1,773
619,981; 1773,607;    1,067;   -1,045
620,559; 1733,094;    0,794;    1,682
621,137; 1750,948;    3,067;    1,864
621,715; 1506,611;    3,703;   -0,682
622,293; 1556,303;    1,885;   -0,773
622,871; 1732,499;    0,340;    0,500
623,450; 1598,629;    0,430;   -0,864
624,028; 1766,999;   -0,388;   -0,955
624,606; 1679,205;    2,339;    1,682
625,183; 1562,662;   -0,661;   -1,136
625,761; 1619,474;    1,885;    1,136
626,339; 1981,053;    2,339;    2,591
626,917; 1688,616;    0,339;   -0,045
627,495; 1676,364;    2,794;    1,318
628,073; 1691,818;    5,248;    2,864
628,650; 1660,965;    3,067;    2,136
629,228; 1712,333;    1,248;    4,409
629,806; 1458,068;   -0,024;    1,136
630,383; 1531,870;    0,066;   -0,318
630,961; 1538,252;   -2,206;   -0,955
631,539; 1528,037;   -2,479;    0,227
632,116; 2251,980;   12,703;   15,409
632,694; 1870,155;    4,885;    6,500
633,271; 1681,685;    1,975;    2,682
633,848; 1797,863;    1,430;    2,045
634,426; 1583,348;    1,521;    1,773
635,003; 1422,940;   -0,207;   -0,409
635,580; 1788,915;    1,884;    3,682
636,158; 1645,633;    3,793;    1,227
636,735; 1471,960;    3,339;   -0,500
637,312; 1477,892;    0,521;   -0,682
637,889; 1487,496;    2,248;   -0,682
638,466; 1479,423;    0,066;   -0,409
639,043; 1483,336;    1,702;   -1,136
639,620; 1456,691;    0,611;   -0,955
640,197; 1593,469;    1,612;    1,682
640,774; 1539,848;    1,430;    1,136
641,351; 1599,045;    0,612;    1,136
641,928; 1684,879;    2,794;    1,409
642,505; 1815,531;    0,794;   -0,500
643,082; 1673,364;    1,885;    1,227
643,658; 1402,380;    1,157;    1,500
644,235; 1476,396;   -2,479;    2,500
644,812; 1648,502;    1,794;    0,773
645,388; 1610,427;    1,612;    1,409
645,965; 1388,533;    1,521;    1,682
646,542; 1407,821;    3,430;   -0,227
647,118; 1840,564;    3,703;   -0,955
647,695; 1652,125;    0,339;    1,136
648,271; 1436,413;   -2,115;    0,500
648,848; 1597,793;    0,248;    2,227
649,424; 1719,263;    0,976;    1,318
650,000; 1461,096;   -0,388;   -1,045
650,577; 1524,748;    0,158;   -0,955
651,153; 1615,946;   -1,115;    0,955
651,729; 1594,598;    0,521;    0,864
652,305; 1885,977;    1,339;    2,773
652,881; 2059,901;   -1,297;    1,136
653,458; 2584,281;    0,249;    0,227
654,034; 2952,751;    0,703;    1,591
654,610; 3076,766;    0,339;    0,773
655,186; 3542,509;    1,612;    3,045
655,762; 3213,797;   -1,842;    0,409
656,338; 3144,086;    0,703;    0,136
656,913; 3372,647;   -0,297;    0,409
657,489; 3158,844;    0,249;   -0,318
658,065; 3271,678;    0,794;   -1,591
658,641; 3437,602;    2,158;   -0,864
659,217; 3252,618;    2,067;    0,409
659,792; 3137,997;   -1,751;   -0,409
660,368; 3147,013;   -0,388;   -0,682
660,944; 3321,392;    1,794;    1,227
661,519; 2939,135;    0,522;    0,409
662,095; 2290,787;   -0,206;    0,591
662,670; 1775,620;   -0,206;   -0,136
663,246; 1721,272;   -0,660;   -0,409
663,821; 1783,197;    0,431;    1,682
664,396; 1607,667;    0,613;    1,864
664,972; 1579,319;   -0,660;   -0,500
665,547; 1700,880;    3,794;    0,136
666,122; 1639,168;    1,340;    0,318
666,698; 1835,911;    2,431;    0,318
667,273; 1520,017;    0,885;    0,136
667,848; 1653,306;    0,340;    1,500
668,423; 1742,685;    1,795;    2,318
668,998; 1659,428;    0,976;   -0,682
669,573; 1689,625;    2,067;   -1,500
670,148; 1844,731;    1,885;   -0,682
670,723; 1589,929;   -0,024;    0,318
671,298; 1936,126;   -1,296;    1,045
671,873; 1816,414;   -0,296;   -0,136
672,448; 1815,794;    1,704;    0,136
673,023; 1813,718;    0,249;   -0,227
673,597; 1949,825;    2,704;    2,318
674,172; 1941,931;    2,431;    0,318
674,747; 1833,856;   -0,205;   -1,045
675,321; 1618,053;   -0,933;    3,318
675,896; 1505,978;    2,158;    1,045
676,471; 1737,084;    2,522;    1,591
677,045; 1671,554;   -0,296;    0,682
677,620; 1704,206;    2,158;    1,136
678,194; 1670,131;    0,249;    1,136
678,769; 1683,601;    0,886;   -0,318
679,343; 1743,526;   -0,023;    1,773
679,917; 1832,178;    0,340;    1,955
680,492; 1682,829;    0,249;    3,227
681,066; 1710,663;    0,613;    0,409
681,640; 1677,770;    1,795;   -0,318
682,214; 1770,422;    2,340;    0,500
682,788; 1715,619;    0,613;   -0,773
683,363; 1814,362;    1,977;    1,682
683,937; 1658,741;    0,886;   -0,318
684,511; 1824,393;   -1,023;   -0,591
685,085; 1789,045;   -1,478;    0,318
685,659; 1657,788;    1,431;    0,864
686,232; 1908,076;    1,159;   -0,318
686,806; 1784,273;    2,159;    0,409
687,380; 1795,834;   -1,932;    0,591
687,954; 1805,395;    2,432;    1,136
688,528; 1966,411;    2,613;    1,955
689,101; 1950,699;    0,432;    1,045
689,675; 1770,896;    0,886;   -0,136
690,249; 1895,912;    3,432;    0,409
690,822; 1932,473;    1,159;    0,318
691,396; 1799,034;    2,068;    1,227
691,969; 1696,322;    2,523;    0,136
692,543; 1733,065;   -0,568;   -1,955
693,116; 1596,171;   -0,659;   -1,409
693,690; 1676,369;   -0,296;    0,500
694,263; 1739,657;    2,341;    2,955
694,836; 2032,673;    2,795;    3,591
695,410; 1791,779;    1,159;    1,773
695,983; 1823,158;    1,614;    0,591
696,556; 1678,628;   -0,750;   -1,045
697,129; 1695,826;   -1,114;    1,409
697,703; 1769,932;    1,341;    1,955
698,276; 1736,493;    1,705;   -0,773
698,849; 1807,872;   -1,023;    1,409
699,422; 1646,433;    1,250;    0,591
699,995; 1527,994;   -0,659;    0,136
700,568; 1713,010;   -0,204;    3,045
701,140; 1724,935;   -1,841;    1,682
701,713; 1857,041;    0,341;    2,409
702,286; 1754,238;    0,796;    0,864
702,859; 1779,436;    0,614;   -0,591
703,432; 1770,542;   -0,841;    0,682
704,004; 1724,194;    1,978;    0,318
704,577; 1549,482;    1,068;    0,136
705,150; 1646,589;    0,887;    2,500
705,722; 1734,786;    1,523;   -3,227
706,295; 1778,984;    1,432;   -0,591
706,867; 1603,181;    0,250;    1,955
707,440; 1770,651;   -0,113;   -0,409
708,012; 1849,939;   -0,022;    0,591
708,584; 1717,409;    2,705;    0,227
709,157; 1634,243;    1,160;   -0,591
709,729; 1786,531;    1,069;    2,045
710,301; 1821,820;   -1,204;    0,045
710,874; 1796,290;    0,341;   -0,227
711,446; 1511,487;   -0,295;    0,864
712,018; 1608,503;   -3,022;    0,500
712,590; 1531,700;   -0,204;    1,682
713,162; 1849,079;   -0,477;    1,318
713,734; 1696,004;    1,796;   -2,045
714,306; 1639,201;    0,342;   -0,409
714,878; 1541,308;   -0,295;    0,864
715,450; 1613,505;   -0,113;    0,864
716,022; 1650,066;    2,433;    1,318
716,593; 1644,082;    0,978;    0,591
717,165; 1698,370;    1,796;   -1,227
717,737; 1889,476;    0,796;    0,409
718,309; 1700,401;    1,160;   -0,045
718,880; 1625,053;   -1,295;   -1,409
719,452; 1719,977;    0,887;   -1,591
720,024; 1718,084;    1,705;   -0,591
720,595; 1683,827;    2,978;    0,955
721,167; 1605,024;    1,160;   -2,045
721,738; 1644,949;    2,069;   -1,045
722,309; 1736,510;    1,251;   -1,227
722,881; 1542,071;    2,705;    0,773
723,452; 1696,904;    1,251;    2,864
724,023; 1743,193;    1,524;    2,682
724,595; 1782,208;    2,342;    0,682
725,166; 1604,587;    1,524;   -0,409
725,737; 1780,785;    1,887;    0,227
726,308; 1640,437;    0,797;    0,318
726,879; 1551,725;    1,069;    1,227
727,450; 1702,559;   -2,022;   -0,045
728,021; 1598,302;    1,069;    0,682
728,592; 1769,135;    1,160;    0,500
729,163; 1880,787;    1,433;   -0,136
729,734; 1855,530;    2,160;   -0,227
730,305; 1722,364;    0,615;    0,136
730,876; 1707,743;    0,888;    2,955
731,447; 2012,849;    0,797;    2,682
732,017; 1913,319;   -0,840;    1,864
732,588; 1740,880;   -0,021;    1,227
733,159; 1950,351;    3,615;   -1,045
733,729; 1683,548;    1,251;    0,409
734,300; 1775,836;    0,160;    0,864
734,870; 1667,670;   -1,385;    0,591
735,441; 1681,867;    0,888;   -0,591
736,011; 1578,610;    1,070;   -1,591
736,582; 1616,717;    1,251;    0,045
737,152; 1644,096;    0,979;   -2,045
737,722; 1688,293;    1,070;   -0,682
738,293; 1552,309;   -2,021;    1,318
738,863; 1729,506;    1,797;    2,318
739,433; 1973,067;    4,524;    0,318
740,003; 1781,083;    1,524;   -0,682
740,573; 1854,825;    2,252;   -1,591
741,143; 1771,659;    3,615;    0,318
741,713; 1708,311;    0,252;   -0,500
742,283; 1713,599;    1,706;    1,591
742,853; 1624,888;    0,524;    1,591
743,423; 1475,812;    0,161;    0,045
743,993; 1559,191;    1,070;    1,500
744,563; 1497,116;    2,524;   -0,864
745,133; 1543,677;   -0,112;   -0,864
745,702; 1567,147;    2,797;    1,773
746,272; 1661,799;    0,434;    0,591
746,842; 1678,087;   -0,748;   -0,591
747,411; 1530,194;   -0,839;   -0,318
747,981; 1461,755;   -0,930;    0,500
748,551; 1486,770;   -0,021;   -1,045
749,120; 1593,604;   -0,112;   -0,227
749,690; 1586,892;    2,161;    2,409
750,259; 1718,817;    0,979;    2,955
750,828; 1749,469;    4,070;   -1,955
751,398; 1581,575;   -0,112;   -0,045
751,967; 1976,591;    2,888;    0,409
752,536; 1672,788;    1,161;   -0,227
753,105; 1800,986;   -1,384;    0,227
753,675; 1612,274;   -0,112;    1,773
754,244; 1613,380;    0,888;    3,591
754,813; 1647,305;    0,979;    1,227
755,382; 1572,048;    0,798;    0,955
755,951; 1722,518;   -0,112;    3,682
756,520; 1777,624;    2,525;    1,864
757,089; 1982,640;    1,888;    0,500
757,658; 1692,201;    2,434;    1,227
758,227; 1548,944;   -1,111;    0,318
758,795; 1625,232;   -1,021;    1,136
759,364; 1724,157;    0,525;   -0,591
759,933; 1511,718;    1,343;   -0,045
760,501; 1452,006;    0,252;   -1,318
761,070; 1620,840;   -0,293;   -1,409
761,639; 1750,582;    1,434;    1,318
762,207; 1684,962;    0,889;   -0,955
762,776; 1739,886;    2,889;    0,864
763,344; 1586,629;    0,071;    0,591
763,913; 1326,190;    1,616;    1,409
764,481; 1923,751;    1,980;   -0,136
765,049; 1884,948;    0,616;    1,409
765,618; 1781,328;    1,434;    0,318
766,186; 1641,343;    2,434;    0,136
766,754; 1679,359;    1,798;    1,864
767,322; 1455,283;    1,162;    0,409
767,890; 1420,117;    0,525;   -1,773
768,459; 1533,769;    2,616;   -0,318
769,027; 1755,330;    2,525;    3,409
769,595; 1507,073;    2,616;    2,591
770,163; 1568,452;    3,344;    2,955
770,730; 1551,377;    2,525;   -0,136
771,298; 1544,847;    1,162;   -1,409
771,866; 1507,044;    0,253;    4,955
772,434; 1536,332;    1,162;   -1,864
773,002; 1782,621;    2,616;    0,682
773,569; 1624,182;    1,071;    1,682
774,137; 1729,652;    0,889;   -0,045
774,705; 1640,304;   -0,747;   -0,136
775,272; 1512,592;    0,253;    0,682
775,840; 1604,971;   -0,111;    2,682
776,407; 1609,987;   -0,293;    1,955
776,975; 1397,911;    1,162;    0,318
777,542; 1493,472;    2,162;   -0,045
778,110; 1532,397;    0,707;   -0,045
778,677; 1392,412;    1,071;   -0,864
779,244; 1433,610;   -1,020;    1,045
779,812; 1592,171;    0,980;    0,864
780,379; 1645,823;    2,435;    1,136
780,946; 1526,475;    2,617;   -0,773
781,513; 1505,854;   -0,565;    0,318
782,080; 1384,960;    1,253;    2,864
782,647; 1475,067;    1,708;    3,045
783,214; 1423,810;   -0,201;    3,864
783,781; 1574,825;    1,708;   -0,682
784,348; 1538,113;    0,253;    1,500
784,915; 1367,311;   -1,474;    0,318
785,482; 1557,144;    2,708;    2,591
786,049; 1572,796;    1,071;   -0,591
786,615; 1480,812;    1,708;   -0,955
787,182; 1432,555;   -3,201;   -0,682
787,749; 1416,570;   -2,201;    1,409
788,315; 1500,222;    0,253;   -0,409
788,882; 1466,874;    0,981;   -1,227
789,448; 1751,708;    1,435;   -0,955
790,015; 1542,087;    1,799;    3,227
790,581; 1675,739;    0,708;    0,227
791,148; 1489,845;    1,344;    1,045
791,714; 1433,952;   -1,019;    3,136
792,280; 1425,967;    3,708;    1,591
792,847; 1360,710;   -0,928;    2,500
793,413; 1449,998;   -0,110;   -0,318
793,979; 1568,196;    1,526;   -1,318
794,545; 1877,666;    2,981;    2,682
795,111; 1706,500;    2,435;    1,318
795,678; 1563,970;    3,526;   -1,682
796,244; 1725,803;    2,799;    0,136
796,810; 1638,546;    0,799;    0,773
797,375; 1609,925;   -0,292;   -2,136
797,941; 1285,305;   -1,110;    0,591
798,507; 1270,229;    0,254;   -0,955
799,073; 1291,699;    2,708;    0,591
799,639; 1340,624;    1,435;    3,136
800,205; 1287,912;   -1,565;    2,682
800,770; 1258,655;    1,345;    1,773
801,336; 1241,580;    2,981;   -0,955
801,901; 1874,323;    6,072;    3,136
802,467; 1560,611;    0,526;    2,045
803,033; 1272,172;   -0,019;    0,864
803,598; 1270,369;    1,072;   -1,045
804,163; 1316,385;    0,708;   -0,318
804,729; 1402,855;   -0,110;    1,136
805,294; 1318,598;    1,072;    2,227
805,859; 1234,250;    0,890;   -0,409
806,425; 1629,538;    3,890;    2,682
806,990; 1584,462;    1,890;    4,318
807,555; 1368,660;   -0,110;    2,591
808,120; 1519,584;   -1,292;   -0,409
808,685; 1278,327;    1,072;   -2,500
809,250; 1155,525;    2,072;   -0,500
809,815; 1201,086;   -0,201;    0,682
810,380; 1390,374;    0,981;    1,591
810,945; 1553,208;    2,890;    2,045
811,510; 1374,223;   -0,200;    1,591
812,075; 1357,239;    2,800;   -1,409
812,640; 1622,436;    3,709;    1,409
813,204; 1399,179;    2,163;   -0,227
813,769; 1583,831;    0,254;   -0,045
814,334; 1533,846;    0,527;    0,864
814,898; 1292,680;    1,981;    0,591
815,463; 1338,241;    0,981;   -0,773
816,027; 1281,802;    1,345;   -2,318
816,592; 1274,090;    2,163;   -2,045
817,156; 1348,833;   -2,200;    1,136
817,721; 1420,212;    0,982;    2,318
818,285; 1200,046;    0,618;    1,500
818,849; 1306,062;   -0,018;    1,682
819,414; 1220,623;    0,073;    2,955
819,978; 1152,638;   -0,291;    1,773
820,542; 1525,017;    2,891;    0,500
821,106; 1365,397;    2,800;    0,682
821,670; 1550,048;    2,709;    2,591
822,234; 1297,155;    1,073;    1,409
822,798; 1154,080;   -0,836;    0,500
823,362; 1441,913;    1,527;    4,227
823,926; 1211,929;   -0,018;    1,136
824,490; 1412,217;    3,527;   -0,682
825,054; 1322,687;    2,527;   -1,136
825,618; 1171,975;   -1,200;   -1,500
826,181; 1213,718;    0,982;   -1,318
826,745; 1302,007;   -0,745;   -1,045
827,309; 1558,204;    2,255;    1,318
827,872; 1405,219;    0,527;    0,955
828,436; 1351,508;    1,982;   -0,773
828,999; 1283,796;    2,436;    1,227
829,563; 1223,175;   -0,654;    1,136
830,126; 1182,009;   -0,018;   -0,591
830,690; 1235,934;    0,709;    2,864
831,253; 1128,949;   -0,473;    2,227
831,816; 1180,328;   -0,018;    0,500
832,380; 1122,617;    1,164;    0,864
832,943; 1113,996;    3,073;   -0,500
833,506; 1144,284;    0,255;   -1,227
834,069; 1339,118;    2,164;   -0,955
834,632; 1214,770;   -2,200;    1,318
835,195; 1218,603;    1,346;    0,955
835,758; 1137,619;    0,709;    1,955
836,321; 1095,725;    1,073;   -1,045
836,884; 1108,105;   -1,291;   -0,955
837,447; 1079,938;    0,528;    1,773
838,010; 1240,954;    1,800;    3,227
838,573; 1293,060;    0,528;    0,773
839,135; 1180,439;   -0,109;   -0,955
839,698; 1152,819;    2,528;    0,409
840,261; 1087,380;    0,255;   -0,227
840,823; 1044,850;   -0,927;    0,864
841,386; 1030,320;   -0,018;   -2,409
841,948; 1354,972;    0,255;    1,773
842,511; 1093,987;    0,255;    1,682
843,073; 1343,730;    2,982;    0,227
843,636; 1089,291;    0,619;   -0,227
844,198; 1303,125;    1,255;    0,591
844,760; 1264,686;    0,619;    1,955
845,322; 1043,520;    0,164;    1,136
845,885; 1190,081;   -0,290;    0,591
846,447; 1147,187;    0,710;    0,227
847,009; 1481,475;    3,983;   -0,682
847,571; 1186,400;    1,346;   -2,045
848,133; 1151,415;   -0,199;   -1,864
848,695; 1012,795;    2,346;    1,409
849,257; 1068,628;    1,346;   -1,682
849,819; 1233,280;    2,983;   -0,409
850,381; 1096,296;    1,801;   -0,864
850,942; 1172,311;    1,892;   -0,591
851,504; 1208,327;    0,983;    0,227
852,066; 1108,615;    1,619;   -1,591
852,628; 1119,722;    0,165;    1,955
853,189;  981,555;    0,256;    2,682
853,751; 1033,389;   -0,654;    1,409
854,312; 1195,859;    1,256;   -1,682
854,874; 1344,329;   -0,108;   -0,773
855,435; 1155,890;    0,528;   -1,682
855,997; 1238,269;    3,983;   -0,136
856,558; 1279,921;    0,801;    1,773
857,119; 1165,573;   -0,744;    2,864
857,681; 1014,771;   -0,108;    0,318
858,242; 1244,786;    1,347;   -2,136
858,803; 1287,529;    1,074;   -0,773
859,364; 1196,545;    0,892;   -4,773
859,925; 1243,287;   -0,290;   -0,955
860,486; 1122,212;    0,529;   -0,955
861,047; 1033,137;    0,165;   -1,227
861,608; 1070,061;    0,165;   -0,773
862,169;  988,440;   -0,562;   -0,045
862,730; 1068,911;   -0,290;    1,409
863,291; 1124,926;    0,438;   -0,500
863,852; 1102,760;   -0,926;    1,955
864,412; 1063,866;   -1,835;   -0,864
864,973; 1251,700;    1,892;    0,500
865,534; 1380,079;    2,074;    0,227
866,094; 1201,004;    2,620;    0,227
866,655; 1318,110;    4,711;    3,318
867,215; 1162,217;    0,074;    0,136
867,776; 1048,050;   -1,199;   -0,136
868,336; 1112,248;    1,529;    0,136
868,897; 1468,263;    3,438;    1,682
869,457; 1254,279;    3,256;    0,318
870,017; 1074,749;    2,438;   -1,227
870,578; 1078,583;    1,893;    0,773
871,138; 1088,326;    2,620;   -0,955
871,698;  975,341;   -0,562;   -1,318
872,258; 1084,629;    0,711;   -2,864
872,818; 1305,099;    2,347;    0,045
873,378; 1109,751;   -2,198;    1,045
873,938; 1056,585;    4,984;    0,500
874,498;  972,237;    1,256;   -1,955
875,058; 1058,616;    4,347;    1,773
875,618; 1053,632;    1,438;   -2,682
876,177; 1093,556;   -0,471;    0,136
876,737;  882,481;   -0,289;    1,955
877,297; 1291,497;    2,711;    1,955
877,856; 1214,785;    2,529;    0,318
878,416;  965,528;    2,438;   -0,136
878,976;  947,089;    3,438;    0,409
879,535; 1006,195;    4,529;    3,136
880,095;  980,938;    1,347;    0,045
880,654;  907,044;    0,347;    1,318
881,213; 1231,969;    2,347;    1,500
881,773; 1045,439;    1,984;    2,682
882,332; 1615,727;    6,075;    5,136
882,891; 1071,016;    0,711;    2,136
883,451; 1070,940;   -2,016;    1,682
884,010;  974,138;   -1,107;   -0,409
884,569;  937,699;   -2,289;   -0,045
885,128; 1139,805;   -0,743;   -1,864
885,687; 1414,366;   -0,743;    0,682
886,246; 1572,200;    2,620;    2,136
886,805; 1317,761;    1,620;    2,045
887,364;  991,958;    1,166;   -0,500
887,922;  912,883;   -0,016;    0,045
888,481; 1070,080;    1,530;    0,591
889,040; 1203,732;    3,711;    2,136
889,599; 1085,566;    2,166;    1,409
890,157; 1081,218;    2,166;    2,409
890,716;  993,779;    2,166;    0,227
891,274; 1094,431;    0,075;   -1,136
891,833; 1178,173;    1,166;    0,864
892,391; 1028,644;    1,802;    0,500
892,950; 1185,932;    0,166;   -0,773
893,508;  991,584;    0,984;   -0,409
894,067;  879,145;   -0,379;    0,136
894,625;  982,615;   -1,016;   -1,500
895,183;  940,176;   -0,198;   -0,682
895,741; 1241,555;    2,257;   -1,773
896,299; 1026,661;    1,621;   -2,409
896,858;  951,859;    1,530;   -1,591
897,416; 1089,511;    0,166;   -1,318
897,974; 1019,708;   -2,197;    0,318
898,532; 1501,542;    6,530;    2,682
899,089; 1156,466;    0,621;   -0,682
899,647; 1055,482;    0,530;    1,318
900,205; 1068,679;    0,257;    1,045
900,763; 1073,422;    2,166;    0,227
901,321; 1023,983;    3,530;   -1,409
901,878;  858,817;    3,257;   -0,773
902,436;  909,742;    0,257;    1,318
902,994; 1688,939;    6,712;    3,682
903,551; 1189,682;    1,439;    0,409
904,109; 1073,243;    1,530;   -1,409
904,666; 1019,349;    1,439;    1,045
905,224;  900,274;    3,894;   -0,409
905,781; 1047,108;   -0,470;   -0,318
906,338;  972,850;    0,167;    1,045
906,895;  862,139;    1,894;    2,045
907,453; 1147,063;    2,348;    1,136
908,010;  994,261;    3,348;    0,409
908,567;  941,458;   -0,561;    0,591
909,124;  778,201;    2,439;   -1,500
909,681;  839,216;   -1,288;    0,682
910,238;  899,868;   -0,106;   -1,318
910,795;  862,520;   -1,561;   -1,136
911,352;  863,793;   -0,379;   -2,682
911,909;  865,247;    2,803;   -0,864
912,466;  901,793;    1,985;    1,500
913,022;  945,247;   -0,924;    0,500
913,579; 1051,611;   -0,470;    2,045
914,136;  914,066;   -2,561;    0,955
914,692;  962,611;    1,530;   -1,227
915,249;  924,247;    0,530;    0,409
915,806; 1000,975;    1,803;    1,955
916,362;  889,975;    0,894;    1,864
916,918;  821,520;    2,439;    1,045
917,475; 1017,793;    1,621;    0,955
918,031;  847,338;    0,076;   -0,045
918,587;  905,884;    0,621;   -0,318
919,144;  822,975;   -0,379;    0,227
919,700;  770,793;    0,167;    0,773
920,256;  760,793;    0,439;    0,045
920,812;  799,975;    1,439;   -1,045
921,368;  750,793;    1,348;   -1,045
921,924;  763,066;    0,439;   -0,136
922,480;  847,702;    0,076;    1,227
923,036;  875,066;   -0,652;    1,955
923,592;  780,793;    0,621;    0,318
924,148;  795,793;    1,894;   -0,955
924,704;  928,884;    0,258;   -0,409
925,259;  785,429;   -0,561;    0,591
925,815;  745,247;    3,803;    0,500
926,371;  701,338;    3,530;    1,409
926,926;  861,157;    1,621;    0,591
927,482;  821,702;    1,621;    0,773
928,037;  752,066;   -0,833;    2,045
928,593;  951,157;    0,258;    1,045
929,148;  719,247;    1,167;   -1,500
929,704;  778,975;    2,439;   -0,500
930,259;  689,793;    0,894;   -0,136
930,814;  857,975;    1,803;    1,955
931,369;  791,975;    0,258;   -0,773
931,925;  607,429;   -1,924;    0,136
932,480;  701,975;    3,076;   -2,591
933,035; 1063,338;    3,985;   -0,318
933,590;  943,247;   -1,742;   -1,773
934,145;  592,247;   -1,288;   -0,318
934,700;  509,611;    0,348;   -0,591
935,255;  573,247;    4,803;    0,045
935,809;  874,429;    6,258;    0,864
936,364;  524,157;    2,167;   -0,136
936,919;  524,975;    2,348;   -1,773
937,474;  460,247;    1,348;    0,136
938,028;  480,975;    3,076;    1,136
938,583;  846,611;    6,348;    4,682
939,138;  538,520;    0,167;    2,136
939,692;  413,247;   -1,015;   -1,136
940,247;  447,338;    1,167;   -1,045
940,801;  489,429;    0,621;    0,227
941,355;  410,338;    0,439;    2,591
941,910;  326,338;    0,712;   -2,136
942,464;  360,793;    2,712;   -0,318
943,018;  577,247;    3,258;   -0,227
943,572;  426,611;    2,803;   -0,682
944,126;  474,702;   -0,924;   -0,409
944,681;  371,793;    0,712;    0,227
945,235;  312,520;    2,167;   -0,591
945,789;  282,520;    1,258;   -1,864
946,342;  533,066;   -0,561;   -0,591
946,896;  331,066;    0,348;    0,955
947,450;  301,247;   -0,561;   -0,227
948,004;  512,702;    1,076;   -0,045
948,558;  359,157;    1,258;   -0,864
949,111;  351,157;   -1,197;   -0,318
949,665;  512,157;   -0,106;   -0,682
950,219;  474,702;    0,621;   -1,045
950,772;  405,975;    0,258;    1,864
951,326;  397,157;   -1,106;   -0,955
951,879;  348,702;    1,076;   -2,318
952,433;  459,793;    1,348;    2,227
952,986;  320,338;    0,348;    0,682
953,539;  281,975;    1,530;    0,591
954,093;  244,157;    0,985;   -1,318
954,646;  353,157;   -0,288;    1,318
955,199;  283,429;    1,258;   -0,500
955,752;  480,338;    1,985;    1,773
956,305;  340,702;    0,894;    2,955
956,858;  383,338;    0,621;   -0,318
957,411;  440,793;    3,621;    2,136
957,964;  354,793;    2,076;    2,136
958,517;  291,793;    0,985;    3,136
959,070;  250,884;   -1,197;    1,955
959,623;  486,520;    1,076;    1,500
960,176;  447,066;    0,712;    2,045
960,728;  399,611;    1,712;    0,773
961,281;  355,884;    2,258;    0,500
961,834;  297,520;   -0,833;    0,864
962,386;  303,066;    1,258;    1,045
962,939;  274,611;    3,439;   -0,318
963,491;  315,157;    2,621;    1,136
964,043;  256,338;    0,076;    2,409
964,596;  404,157;    1,712;    2,227
965,148;  321,793;   -0,379;    1,773
965,700;  251,975;   -0,015;   -0,227
966,253;  387,975;   -0,833;    0,318
966,805;  356,793;    1,894;    0,773
967,357;  297,338;    0,439;   -1,500
967,909;  382,975;    1,167;   -1,227
968,461;  296,611;    0,894;    3,136
969,013;  255,702;   -1,561;   -0,864
969,565;  392,520;    1,803;   -1,136
970,117;  588,338;    3,803;    1,045
970,669;  388,975;    3,258;   -0,136
971,220;  221,611;    2,167;   -1,500
971,772;  293,247;    1,348;   -0,318
972,324;  369,520;   -1,197;   -0,500
972,876;  289,884;    0,167;   -0,045
973,427;  384,793;   -1,197;   -1,045
973,979;  449,247;    0,076;   -2,500
974,530;  289,520;    0,803;    1,318
975,082;  340,611;    2,167;    1,682
975,633;  295,157;    2,894;    1,682
976,184;  338,975;    2,076;    0,773
976,736;  330,066;    0,348;    0,227
977,287;  339,975;    0,258;   -0,500
977,838;  307,066;   -0,924;   -0,318
978,389;  315,520;    0,803;   -0,500
978,940;  209,520;    1,258;   -0,409
979,491;  207,975;    2,258;   -0,500
980,042;  282,066;   -0,652;    3,045
980,593;  298,793;    1,894;    0,227
981,144;  368,702;    3,530;   -0,500
981,695;  390,429;   -0,470;    1,500
982,246;  348,429;   -1,833;    1,045
982,797;  249,520;   -0,561;    0,682
983,347;  375,157;    2,167;    0,591
983,898;  536,793;    4,167;    0,409
984,449;  500,611;    2,530;    0,773
984,999;  371,247;    1,894;   -1,136
985,550;  328,975;    3,167;   -0,318
986,100;  225,247;    0,712;   -0,318
986,651;  219,157;    0,258;    0,045
987,201;  241,157;    0,894;   -0,591
987,751;  254,793;   -0,288;    2,864
988,302;  283,975;   -0,379;    1,500
988,852;  330,338;    1,985;   -1,136
989,402;  374,157;    0,985;    0,682
989,952;  399,157;    1,621;    0,864
990,502;  277,520;    1,076;    0,682
991,052;  196,793;   -0,106;    0,045
991,602;  237,066;    1,167;    1,318
992,152;  272,793;    2,803;    0,682
992,702;  300,157;    1,167;   -0,045
993,252;  251,702;    0,076;   -0,500
993,802;  329,247;    1,167;    1,318
994,352;  301,975;   -0,742;    1,136
994,901;  233,611;    1,076;    3,227
995,451;  222,157;   -1,197;    0,318
996,000;  250,429;    1,076;    0,318
996,550;  252,247;    2,894;    0,227
997,100;  280,884;   -0,561;   -0,045
997,649;  396,066;   -0,197;    0,955
998,198;  253,066;   -0,288;   -1,500
998,748;  343,429;    0,348;   -2,318
999,297;  290,520;    0,985;   -0,409
999,846;  396,520;    1,894;   -0,773
1000,395;  324,884;    1,530;    0,500
1000,945;  415,702;    1,076;   -0,773
1001,494;  410,338;    0,167;    0,682
1002,043;  399,520;    0,712;    0,864
1002,592;  253,702;    3,439;    1,955
1003,141;  248,520;    2,439;   -0,682
1003,690;  375,884;    1,258;    0,500
1004,238;  277,611;   -0,106;   -0,045
1004,787;  210,157;   -1,288;    1,227
1005,336;  350,611;    1,621;    0,682
1005,885;  313,702;   -0,197;   -2,773
1006,433;  308,884;   -0,470;    0,955
1006,982;  461,066;    2,167;    1,682
1007,531;  343,247;    2,712;   -0,227
1008,079;  307,611;    0,258;    0,500
1008,627;  259,520;    1,621;    0,409
1009,176;  274,975;    0,076;   -1,955
1009,724;  233,066;   -2,742;    0,864
1010,273;  359,066;    1,076;    0,500
1010,821;  264,066;    1,076;    1,409
1011,369;  225,793;    0,076;    1,318
1011,917;  239,338;   -0,833;   -0,591
1012,465;  310,884;    2,530;   -1,591
1013,013;  296,429;    0,439;   -1,682
1013,561;  385,884;   -1,288;   -0,773
1014,109;  459,429;   -0,833;    1,682
1014,657;  354,429;    1,348;    0,591
1015,205;  269,429;    0,894;   -0,955
1015,753;  232,429;    0,258;   -1,409
1016,301;  293,247;    2,621;    3,045
1016,848;  352,611;    2,167;    0,409
1017,396;  338,520;    1,621;    0,045
1017,944;  340,338;    2,621;    1,864
1018,491;  273,884;   -0,197;    1,409
1019,039;  534,975;   -0,652;    0,591
1019,586;  332,520;    0,076;    1,682
1020,134;  311,702;    0,712;    1,500
1020,681;  372,702;    2,894;   -1,136
1021,228;  307,884;   -0,561;   -2,227
1021,776;  290,520;   -0,833;   -1,136
1022,323;  475,702;    0,803;    0,773
1022,870;  393,975;   -0,470;   -0,045
1023,417;  434,157;    2,076;    1,864
1023,964;  297,520;    0,621;    1,227
1024,511;  282,247;   -0,652;    0,773
1025,058;  306,247;    0,439;   -0,045
1025,605;  272,702;   -1,742;    3,136
1026,152;  446,429;   -0,106;   -0,591
1026,699;  316,247;    0,167;    1,318
1027,245;  307,702;    2,439;    0,318
1027,792;  266,611;    0,712;    1,409
1028,339;  447,702;    4,076;   -0,045
1028,885;  321,338;    3,621;   -0,227
1029,432;  281,066;   -0,106;    0,227
1029,978;  367,975;    1,348;   -1,591
1030,525;  363,702;    1,621;    0,409
1031,071;  265,884;    0,348;    1,136
1031,618;  492,975;    1,258;    1,682
1032,164;  356,157;    2,076;    3,045
1032,710;  387,157;    0,076;   -1,500
1033,256;  357,884;    0,712;   -0,136
1033,803;  249,793;   -0,288;    1,500
1034,349;  146,247;    1,803;    0,136
1034,895;  187,066;    2,621;   -0,318
1035,441;  240,975;    0,439;    0,318
1035,987;  279,247;   -2,288;   -0,682
1036,533;  342,247;   -0,197;   -0,955
1037,078;  500,247;    4,712;    1,682
1037,624;  374,066;    2,439;   -0,955
1038,170;  270,247;    1,712;   -0,318
1038,716;  335,429;    2,167;   -0,409
1039,261;  240,338;    2,167;   -0,773
1039,807;  254,702;   -0,015;    3,409
1040,352;  273,338;   -1,288;   -0,318
1040,898;  265,429;    0,167;   -0,682
1041,443;  212,247;    0,803;   -2,591
1041,989;  456,157;    3,621;    1,591
1042,534;  293,066;    0,985;    2,591
1043,079;  206,884;    1,985;    0,955
1043,625;  283,702;    0,258;    0,500
1044,170;  298,066;    2,439;    1,045
1044,715;  461,429;    0,167;    0,955
1045,260;  371,975;   -0,833;   -0,955
1045,805;  258,338;    0,258;   -0,591
1046,350;  233,975;    0,530;   -0,409
1046,895;  375,793;    0,803;    1,591
1047,440;  355,157;    1,530;    0,409
1047,985;  257,884;   -1,197;   -0,955
1048,530;  235,702;    1,348;    1,227
1049,074;  283,793;    2,803;    0,318
1049,619;  235,066;   -0,924;    1,955
1050,164;  221,702;    1,076;    0,227
1050,708;  301,338;    2,621;    0,045
1051,253;  498,247;    3,258;   -2,227
1051,797;  332,884;   -0,197;   -1,318
1052,342;  205,975;    1,348;    1,045
1052,886;  271,702;    1,803;   -1,409
1053,430;  191,520;    2,167;    0,136
1053,975;  271,247;    0,894;   -0,318
1054,519;  269,884;    1,803;    3,227
1055,063;  309,338;    3,621;    1,318
1055,607;  303,247;    1,348;    0,227
1056,151;  299,884;    0,530;    1,682
1056,695;  234,611;   -1,833;   -1,136
1057,239;  229,157;   -1,197;   -0,682
1057,783;  266,611;    2,258;   -1,500
1058,327;  323,247;    3,076;    1,409
1058,871;  433,520;    3,985;    1,318
1059,415;  331,247;   -0,561;   -0,045
1059,958;  442,066;    2,985;    2,591
1060,502;  255,884;    1,348;   -0,773
1061,046;  183,520;    1,712;   -0,955
1061,589;  177,247;    2,803;   -1,136
1062,133;  152,702;    0,985;    1,864
1062,676;  190,247;    1,439;    0,864
1063,220;  207,884;    0,985;    0,500
1063,763;  233,611;    2,985;    1,136
1064,306;  252,884;    0,985;    1,864
1064,849;  251,793;    2,076;    0,591
1065,393;  230,520;    2,894;   -1,500
1065,936;  236,247;    2,530;   -0,409
1066,479;  177,520;    2,621;    1,318
1067,022;  197,157;    1,894;   -0,227
1067,565;  175,793;   -1,197;   -1,318
1068,108;  162,975;    1,258;   -0,591
1068,651;  142,157;   -2,470;    1,409
1069,194;  146,702;   -1,106;   -1,682
1069,736;  158,975;    3,803;    0,955
1070,279;  144,975;   -1,652;   -0,500
1070,822;  211,157;    1,530;   -0,318
1071,364;  308,157;    0,530;    1,318
1071,907;  197,884;    0,348;    3,227
1072,450;   94,247;    0,258;   -0,045
1072,992;  148,975;   -0,561;    3,136
1073,535;  205,702;    0,167;    2,136
1074,077;  149,702;    2,985;    2,045
1074,619;  133,793;    0,985;    0,591
1075,161;  160,793;   -0,561;    1,500
1075,704;  259,066;    0,258;    1,227
1076,246;  153,975;    1,530;    0,682
1076,788;  110,157;   -1,015;    1,773
1077,330;  113,247;   -2,106;    2,136
1077,872;  139,975;   -1,924;    0,955
1078,414;  274,157;    3,712;    0,773
1078,956;  166,884;    0,167;   -0,227
1079,498;  262,702;    0,439;    0,318
1080,040;  159,975;    0,985;   -1,318
1080,581;  131,338;    0,621;   -0,318
1081,123;   89,611;   -0,106;   -0,773
1081,665;  102,429;    3,803;   -0,955
1082,206;  246,520;    3,258;   -0,500
1082,748;  180,611;    3,258;    2,045
1083,289;  114,793;    0,167;    1,318
1083,831;  103,066;    0,258;    0,227
1084,372;  138,429;    0,894;    0,591
1084,913;  133,611;    3,348;    0,864
1085,455;  104,611;    1,530;   -2,045
1085,996;   97,429;    0,530;    0,136
1086,537;  121,702;    0,985;    0,864
1087,078;  128,793;    0,439;   -2,136
1087,619;  167,338;   -1,652;    0,227
1088,160;  137,247;    1,439;    1,318
1088,701;  124,157;   -0,742;    0,682
1089,242;  113,247;   -0,561;   -2,227
1089,783;  147,066;   -0,561;    1,409
1090,324;  127,338;   -0,833;    0,682
1090,865;   94,611;   -1,924;   -0,409
1091,405;   82,338;   -0,561;    2,227
1091,946;  115,520;   -0,197;   -0,955
1092,487;   75,793;   -1,288;   -1,409
1093,027;  155,429;    1,803;   -1,500
1093,568;  102,702;    2,258;    1,227
1094,108;  124,429;    0,621;    1,773
1094,649;  107,975;   -0,470;    0,136
1095,189;   86,520;    1,167;   -0,682
1095,729;   85,702;    0,712;    0,955
1096,269;   74,429;    1,258;   -0,955
1096,810;  182,975;   -0,197;    0,500
1097,350;  135,793;   -0,561;   -0,773
1097,890;  105,520;    2,985;    1,227
1098,430;  228,520;    4,985;    2,864
1098,970;  175,611;    1,894;    1,682
1099,510;   96,066;   -0,833;   -2,318
1100,050;   78,157;    0,258;   -1,591
1100,589;   89,793;    0,076;   -0,318
1101,129;  124,429;    0,894;   -0,955
1101,669;  182,338;    2,803;    2,136
1102,209;  129,884;    1,530;    2,227
1102,748;   99,157;    3,439;    0,955
1103,288;  108,247;    0,712;   -1,227
1103,827;  103,247;    3,530;   -2,227
1104,367;   75,884;    1,712;   -2,409
1104,906;   79,520;   -1,015;   -1,136
1105,445;  110,247;    0,985;   -1,136
1105,985;   86,429;   -0,652;    1,500
1106,524;   97,338;    1,530;   -0,682
1107,063;   87,157;    1,167;    1,409
1107,602;   68,793;    1,894;   -1,500
1108,141;   59,429;    1,621;    1,500
1108,680;  101,066;    3,985;   -0,591
1109,219;   81,975;    0,167;   -0,500
1109,758;   79,884;    4,167;    0,682
1110,297;   78,066;   -1,106;   -0,682
1110,836;   58,793;    1,439;    0,955
1111,375;   74,429;    0,348;    0,409
1111,913;  109,338;    0,985;    0,773
1112,452;   88,975;    0,894;    0,136
1112,991;   57,157;    1,076;    1,955
1113,529;   52,066;    0,167;   -0,045
1114,068;   71,975;    0,439;    2,955
1114,606;   50,338;   -0,561;   -0,955
1115,144;   90,520;    1,530;    1,045
1115,683;   76,520;    1,985;    0,318
1116,221;   97,793;    2,076;   -0,864
1116,759;   63,429;    1,621;   -0,864
1117,297;  110,611;    1,621;    1,864
1117,836;   68,338;    1,985;   -1,227
1118,374;   69,702;    0,258;   -0,682
1118,912;   74,793;    0,439;    2,682
1119,450;   66,247;    0,985;    0,864
1119,988;   64,157;    3,348;    2,136
1120,525;  274,066;    7,258;    3,318
1121,063;  136,975;    0,530;    1,864
1121,601;   68,429;    1,076;   -1,227
1122,139;   56,338;    1,076;   -2,045
1122,676;  125,975;   -1,652;    2,773
1123,214;  105,975;    0,712;    4,409
1123,751;   49,793;    0,621;    2,227
1124,289;   79,157;    0,894;   -0,409
1124,826;   57,066;   -0,379;    0,227
1125,364;   27,975;    0,712;   -0,955
1125,901;  104,066;    6,258;    1,227
1126,438;  105,520;    3,530;    0,955
1126,975;   31,429;    2,985;   -0,773
1127,513;   49,793;    2,621;    2,136
1128,050;   37,702;   -0,561;   -0,682
1128,587;   56,884;    1,348;   -0,227
1129,124;   68,884;   -0,015;    1,318
1129,661;   38,157;   -1,924;    0,227
1130,198;   89,429;    2,439;    0,773
1130,734;   62,429;   -0,379;    1,409
1131,271;   30,884;   -1,197;    0,864
1131,808;   79,702;    1,621;    3,045
1132,345;   48,066;    4,530;    0,318
1132,881;   21,066;   -0,561;   -1,864
1133,418;   50,793;    0,348;   -1,136
1133,954;   37,247;    0,712;   -2,682
1134,491;   51,611;    1,712;   -0,773
1135,027;   33,520;    2,167;    0,864
1135,564;   54,702;    1,439;    2,955
1136,100;   47,793;   -0,742;    2,136
1136,636;   26,338;   -1,015;   -1,045
1137,172;   39,884;    0,894;   -1,045
1137,708;   30,975;   -1,561;   -1,045
1138,245;   28,066;    0,803;   -1,227
1138,781;   17,066;    1,803;   -3,318
1139,317;   33,702;    1,894;   -1,409
1139,852;   42,157;    3,076;    0,136
1140,388;   58,520;    2,076;   -0,409
1140,924;   34,975;    1,076;   -2,227
1141,460;   19,157;   -0,288;    0,136
1141,996;   10,429;   -0,652;    2,682
1142,531;   20,520;    1,076;    3,318
1143,067;   71,611;    1,167;    1,045
1143,602;   90,338;    3,439;   -0,318
1144,138;   46,429;    0,803;    1,045
1144,673;   20,247;    1,621;    1,409
1145,209;   27,338;    2,894;   -0,318
1145,744;   11,793;    0,803;    0,864
1146,279;   41,702;    1,530;   -0,136
1146,815;   29,702;    1,530;   -2,682
1147,350;   35,066;   -0,924;    0,045
1147,885;   19,702;   -1,924;   -1,318
1148,420;   18,338;    2,439;    0,773
1148,955;   20,975;   -1,470;    1,864
1149,490;   22,520;   -1,106;   -1,591
1150,025;   17,247;   -1,106;   -1,773
1150,560;   39,793;   -0,288;   -0,955
1151,094;   29,520;    0,258;   -0,591
1151,629;   28,611;   -3,742;    0,864
1152,164;   18,247;   -1,288;    1,318
1152,698;   14,611;    1,258;   -0,136
1153,233;    7,429;   -1,379;   -0,682
1153,767;   12,975;   -0,288;   -2,318
1154,302;   23,793;   -0,379;    1,773
1154,836;   20,793;    0,803;   -2,136
1155,371;   25,884;    2,258;    3,682
1155,905;   19,520;    1,985;    1,682
1156,439;   17,429;    0,530;   -0,500
1156,973;   22,975;    0,439;    0,318
1157,507;    9,975;   -1,742;    0,682
1158,042;   12,793;   -0,652;    1,045
1158,576;   23,611;   -0,561;    1,773
1159,110;   20,975;    0,076;    2,409
1159,643;   18,793;   -2,470;   -0,045
1160,177;    9,884;   -2,015;    1,500

