
Integration time [ms]:   0,050
Averaging Nr. [scans]: 11
Smoothing Nr. [pixels]: 0
Data measured with spectrometer [name]: 7318044SP
Wave   ;Sample   ;Dark     ;Reference
[nm]   ;[counts] ;[counts] ;[counts] 

186,757;    6,982;   38,161;    1,318
187,357;   14,516;   26,706;    0,955
187,958;    8,361;   17,252;   -1,591
188,558;   18,058;   12,979;   -1,227
189,159;   10,902;   10,070;   -4,500
189,759;    6,256;    5,797;   -3,591
190,360;    5,124;    6,797;   -2,136
190,960;   16,981;    5,706;   -4,136
191,560;   18,366;    2,614;   -6,591
192,161;  117,166;    5,885;   -3,500
192,761;   66,323;    5,520;   -3,227
193,361;   39,097;    3,065;   -3,773
193,962;   61,349;    1,612;   -2,682
194,562;   25,839;   -0,114;   -3,955
195,162;   19,575;   -0,567;   -2,227
195,762;   78,277;    2,433;   -0,045
196,362;   54,546;    1,706;   -2,500
196,963;   18,126;    1,706;   -0,864
197,563;   36,793;    1,252;   -0,955
198,163;   16,957;   -0,111;   -0,682
198,763;   24,473;   -0,020;   -0,500
199,363;   47,038;    3,616;   -0,500
199,963;   35,542;    2,162;    0,409
200,563;   33,366;    6,344;   -1,409
201,163;   17,575;    5,435;   -0,227
201,763;   39,993;    1,435;    0,318
202,363;   22,420;    0,980;    1,500
202,963;   41,995;    1,526;    1,045
203,563;   82,008;    0,344;    0,500
204,162;   37,765;    1,889;   -1,864
204,762;   35,530;    2,071;    0,591
205,362;   23,586;    0,708;    1,955
205,962;   44,022;    3,435;    1,955
206,562;   41,524;    1,889;    2,318
207,161;   31,062;    1,708;    0,318
207,761;  102,344;    4,435;    2,409
208,361;   45,324;    1,889;    1,409
208,960;   64,220;    2,889;    1,500
209,560;   57,279;    0,435;    1,591
210,160;   75,723;    5,071;    1,864
210,759;   60,199;    0,708;    1,227
211,359;   45,933;   -0,474;    1,045
211,958;  153,018;    3,526;    2,045
212,558;  169,156;    0,799;    1,864
213,157;  102,341;   -0,929;    1,500
213,757;  253,885;    5,617;   -0,227
214,356;  132,681;    1,708;   -0,409
214,956;  258,469;    3,526;    0,409
215,555;  118,103;    0,617;    2,136
216,154;   86,197;   -0,292;   -0,591
216,754;   89,637;    1,253;    0,773
217,353;  112,028;   -0,383;   -1,045
217,952;   45,889;    2,072;    0,318
218,552;  142,442;    0,254;   -0,773
219,151;   97,622;   -1,110;    0,955
219,750;   93,219;    0,890;   -0,227
220,349;   85,657;   -2,292;    1,045
220,948;  174,759;    1,163;    1,136
221,548;  114,489;    0,617;    1,227
222,147;  146,365;   -1,292;   -0,409
222,746;  271,373;    1,254;   -0,955
223,345;  182,500;   -1,019;    0,500
223,944;  195,997;    1,163;    0,773
224,543;  210,630;    4,072;   -1,409
225,142;  223,188;    1,345;    0,136
225,741;  215,136;    1,163;    1,045
226,340;  205,720;    1,254;   -0,955
226,939;  328,168;    2,708;   -0,136
227,538;  207,753;    1,163;   -0,773
228,137;  349,472;    0,435;    0,864
228,735;  302,555;    0,435;    1,227
229,334;  185,905;   -0,474;   -0,227
229,933;  390,651;    0,799;    0,591
230,532;  412,292;   -1,201;   -0,409
231,131;  477,964;    1,253;    0,318
231,729;  361,979;    1,163;   -2,318
232,328;  301,045;    0,435;   -1,500
232,927;  323,554;    4,526;   -0,500
233,525;  309,133;    0,981;    0,045
234,124;  360,017;    1,890;   -1,591
234,723;  288,983;    1,617;   -1,045
235,321;  286,733;    1,163;    0,136
235,920;  352,350;    2,526;   -1,227
236,518;  529,372;    1,072;    0,318
237,117;  366,494;    2,890;   -0,227
237,715;  383,637;    1,163;   -0,500
238,314;  442,586;    1,708;   -2,318
238,912;  595,225;    0,526;   -1,409
239,510;  467,287;    1,162;   -1,227
240,109;  601,953;   -0,474;    3,773
240,707;  558,532;   -0,474;    1,227
241,305;  407,676;   -0,383;    0,136
241,904;  532,767;   -0,292;   -2,045
242,502;  642,698;    3,253;   -0,227
243,100;  530,350;    3,344;   -0,955
243,698;  478,310;    2,799;    1,682
244,297;  522,730;   -0,656;    0,682
244,895;  516,446;   -0,474;   -2,318
245,493;  722,879;    2,981;   -0,591
246,091;  712,030;    5,163;   -1,318
246,689;  642,568;    2,163;    0,591
247,287;  602,740;   -0,019;   -1,136
247,885;  583,430;   -1,019;    1,227
248,483;  548,549;   -0,201;   -0,500
249,081;  639,020;    0,981;    1,591
249,679;  692,902;   -1,019;    1,682
250,277;  555,743;   -2,292;    0,864
250,875;  697,902;    0,617;   -1,045
251,473;  580,504;   -0,019;    0,500
252,071;  682,367;   -0,383;    1,045
252,669;  610,997;   -1,565;    0,318
253,267;  566,152;    1,618;    0,773
253,864;  609,286;    0,617;    0,682
254,462;  784,136;    1,526;    1,591
255,060;  551,554;    0,072;    1,318
255,658;  550,815;   -3,292;   -0,136
256,255;  657,915;   -0,201;   -2,045
256,853;  689,430;    2,345;    1,409
257,451;  672,047;    1,981;    1,864
258,048; 1149,920;    2,072;    1,864
258,646;  794,220;    0,436;   -1,045
259,243;  907,521;    2,981;    2,227
259,841;  781,183;    1,799;    0,318
260,438;  621,708;    0,254;    0,864
261,036;  775,103;    0,617;    1,409
261,633;  682,829;    1,526;    2,227
262,231;  629,705;   -0,110;   -0,045
262,828;  651,235;   -0,383;    1,136
263,425;  692,451;   -1,928;   -0,591
264,023;  694,100;    1,436;    0,045
264,620;  831,842;    1,526;   -0,318
265,217;  984,277;    2,890;    3,136
265,815;  700,824;    2,527;    2,136
266,412;  829,382;    0,072;    0,136
267,009;  859,858;    0,526;    0,773
267,606;  959,129;    0,345;   -0,955
268,203;  726,589;   -0,383;   -0,591
268,801;  786,447;   -0,474;    0,591
269,398;  710,091;   -0,564;    2,500
269,995;  878,053;    0,890;    1,591
270,592;  758,362;    0,799;   -0,500
271,189;  707,275;    1,981;    0,409
271,786;  700,369;    2,072;    1,227
272,383;  961,845;   -0,383;    0,227
272,980;  801,324;    1,617;    0,318
273,577;  773,184;    2,162;    1,227
274,174;  696,397;    1,435;    2,591
274,771;  827,815;    1,890;   -0,773
275,367; 1264,540;    3,253;    1,409
275,964; 1066,723;   -0,565;   -0,500
276,561;  853,200;   -2,474;   -1,045
277,158;  778,993;    1,799;   -1,773
277,755; 1040,929;   -0,110;    0,409
278,351;  850,940;    0,436;   -1,500
278,948;  952,101;   -0,201;    0,045
279,545;  858,653;    0,527;    2,318
280,141; 1135,109;    1,254;   -2,045
280,738; 1026,346;    2,435;   -0,136
281,334;  816,636;   -0,383;    0,591
281,931;  817,782;    2,890;   -1,318
282,528;  931,111;    4,072;   -0,500
283,124; 1066,863;    3,345;   -0,500
283,721; 1041,025;    0,709;    1,409
284,317;  877,703;    0,163;    2,500
284,913; 1117,674;   -0,110;    0,591
285,510; 1428,310;    2,890;   -0,318
286,106; 1215,396;    2,345;   -0,955
286,703;  888,986;    0,072;    1,955
287,299;  866,274;    1,254;   -0,591
287,895;  887,389;    0,890;   -1,045
288,491;  922,000;    0,163;    2,136
289,088; 1018,972;    0,163;    2,409
289,684; 1058,270;    2,890;    1,500
290,280; 1211,178;    1,890;    0,682
290,876; 1172,923;    0,163;    5,500
291,472; 1062,541;    2,163;    2,227
292,068; 1076,592;    1,254;    0,227
292,665;  910,638;   -0,564;    0,773
293,261;  782,380;   -1,292;    2,136
293,857;  992,436;    4,072;    2,136
294,453;  916,098;   -0,928;    0,955
295,049; 1138,069;    0,253;    1,955
295,644;  947,633;   -1,292;    0,136
296,240;  822,508;    0,162;   -0,136
296,836;  976,803;   -0,747;    0,318
297,432; 1136,675;    2,980;   -0,500
298,028; 1191,317;    0,435;    0,773
298,624; 1038,461;    0,889;    1,864
299,220; 1020,121;    0,435;    0,591
299,815;  965,849;    0,526;   -0,409
300,411; 1064,797;    0,435;    1,773
301,007; 1212,931;    1,889;    0,227
301,602; 1033,270;    2,071;   -2,318
302,198; 1148,404;    1,435;   -0,773
302,794; 1002,097;    1,526;   -0,500
303,389;  984,028;    1,071;    1,045
303,985; 1054,138;    1,253;    1,409
304,580; 1158,181;    0,889;    1,591
305,176; 1044,794;    0,344;    0,136
305,771;  916,862;   -0,929;   -1,227
306,367; 1331,273;    3,071;    0,136
306,962; 1108,724;    2,889;    1,500
307,558; 1099,810;    2,435;    0,136
308,153; 1198,710;   -0,383;   -1,136
308,748; 1003,210;    0,162;    1,682
309,344; 1394,185;    0,253;   -1,318
309,939; 1419,577;    2,071;   -1,318
310,534; 1097,517;   -2,020;   -1,682
311,130; 1043,949;   -0,656;   -2,500
311,725;  950,735;    0,526;   -0,500
312,320; 1041,736;    1,253;    0,045
312,915; 1194,343;    2,890;   -1,045
313,510; 1416,381;    0,526;   -0,500
314,105; 1198,506;   -3,565;    1,409
314,700;  961,200;   -1,656;   -1,045
315,295; 1021,908;   -0,020;    0,045
315,890;  911,437;   -0,292;    0,864
316,485; 1038,385;    0,253;   -0,318
317,080;  998,557;   -0,929;    1,591
317,675; 1340,016;    3,071;   -0,682
318,270; 1511,168;    6,889;    3,318
318,865; 1420,615;    2,435;    3,045
319,460; 1191,449;   -1,565;    0,591
320,055; 1070,457;   -2,565;   -1,227
320,650; 1025,055;   -1,838;   -0,591
321,244; 1035,857;    0,889;   -1,409
321,839; 1182,403;    0,980;   -0,227
322,434; 1205,918;   -0,111;   -1,591
323,029; 1069,570;   -0,474;    1,591
323,623; 1019,119;    0,798;    0,773
324,218; 1175,519;    2,707;    1,409
324,812; 1114,195;    0,889;    1,591
325,407; 1117,540;   -0,929;    2,045
326,002; 1207,643;    0,526;   -0,409
326,596; 1174,724;   -0,656;    1,318
327,191; 1043,243;   -0,383;   -1,045
327,785;  968,724;   -0,747;   -0,227
328,379; 1061,427;   -0,383;    0,136
328,974; 1075,248;    1,798;   -3,955
329,568; 1132,750;    2,889;   -2,409
330,163; 1184,041;    2,435;    1,045
330,757; 1072,859;    0,253;    1,591
331,351;  982,691;   -0,292;    0,682
331,945;  980,544;   -0,383;    1,409
332,540; 1101,608;    1,617;   -0,591
333,134; 1074,599;    3,344;    0,773
333,728; 1052,878;    2,799;    0,318
334,322; 1006,779;    0,889;   -0,864
334,916;  935,403;    0,344;    0,955
335,510; 1136,315;   -0,111;   -0,136
336,105; 1151,880;   -0,929;    1,591
336,699;  988,993;   -1,292;    0,591
337,293; 1012,204;    1,071;    0,318
337,887;  957,739;    0,071;    1,955
338,481; 1135,421;    2,980;    0,591
339,074; 1272,214;    2,071;    2,682
339,668; 1230,084;   -0,110;    1,227
340,262; 1874,699;    7,708;    3,227
340,856; 1398,836;    1,708;   -0,682
341,450;  981,445;    0,708;    1,864
342,044; 1109,932;    1,799;    0,136
342,637; 1255,680;    1,162;   -2,136
343,231; 1265,506;   -1,474;    0,682
343,825; 1072,167;   -0,747;   -0,591
344,419; 1061,042;   -0,474;    0,500
345,012; 1659,343;    2,889;    4,045
345,606; 1426,570;   -0,656;    1,591
346,199; 1076,933;   -0,111;   -0,227
346,793; 1211,804;    2,525;    2,045
347,386; 1021,731;    0,889;   -1,136
347,980;  876,446;   -0,838;   -0,045
348,573;  994,965;   -1,748;    0,409
349,167; 1273,378;    6,161;    4,773
349,760; 1227,304;    2,252;    2,682
350,354; 1141,057;    1,616;    1,136
350,947; 1184,666;    2,798;    1,682
351,540;  984,836;    0,616;   -1,409
352,134;  836,851;   -1,111;    1,136
352,727;  893,228;   -0,657;    1,136
353,320;  938,435;    2,343;    0,591
353,913;  829,754;   -1,929;    1,864
354,507; 1053,790;    0,434;   -1,227
355,100;  957,383;    0,071;    0,864
355,693; 1345,388;    4,798;    2,409
356,286; 1072,299;    0,980;    2,773
356,879;  925,500;   -0,475;    1,227
357,472;  874,797;    0,980;    1,500
358,065;  958,588;    3,161;    2,500
358,658;  815,493;    0,798;    2,318
359,251;  734,416;    0,252;   -0,591
359,844;  915,475;    0,343;   -1,136
360,437; 1028,941;    0,252;    0,045
361,030;  891,596;    0,525;   -0,682
361,623;  854,766;    0,434;    0,318
362,215; 1108,387;    0,979;    2,045
362,808;  934,339;   -2,293;   -1,682
363,401;  855,343;    0,798;    0,136
363,994; 1112,820;    3,252;   -1,500
364,586;  877,522;    0,888;   -1,500
365,179;  815,486;   -0,203;   -1,136
365,772;  625,520;   -0,930;    2,045
366,364;  787,469;    1,524;   -3,227
366,957;  912,955;    1,342;   -0,045
367,549;  821,052;   -0,203;   -0,864
368,142;  817,690;    0,978;   -1,500
368,734;  792,058;    2,523;   -2,136
369,327;  709,921;    2,341;   -0,500
369,919;  763,498;   -1,659;    0,409
370,512;  791,153;   -1,023;   -0,500
371,104; 1048,893;    2,704;    1,591
371,696; 1103,339;    1,703;   -0,955
372,289;  950,609;    0,157;    1,136
372,881;  888,789;    1,156;    1,318
373,473;  750,208;    4,064;    1,136
374,066;  863,677;    1,336;    0,500
374,658;  816,756;    0,879;    1,136
375,250;  772,914;   -1,668;   -1,409
375,842;  823,954;   -0,124;   -0,045
376,434;  763,822;   -2,762;   -0,409
377,026;  819,262;   -1,855;   -2,500
377,618;  841,966;    0,779;   -0,682
378,210;  751,062;    3,141;   -1,955
378,802;  703,364;    3,412;   -0,591
379,394; 1190,147;    3,411;    0,682
379,986;  948,981;    1,138;   -0,955
380,578;  842,049;    1,410;    0,773
381,170; 1085,753;    0,320;    0,045
381,762;  953,777;   -0,224;    1,409
382,354;  901,456;   -0,223;   -1,318
382,945;  813,614;    0,870;    0,318
383,537;  751,733;    1,144;   -1,955
384,129;  767,995;    0,963;   -1,136
384,721;  907,859;    0,418;    0,955
385,312;  805,507;   -1,399;   -0,955
385,904;  947,106;   -0,945;    1,591
386,496;  782,224;    0,691;    1,045
387,087;  969,965;    0,418;    2,500
387,679;  888,391;   -0,401;    0,045
388,270;  900,680;   -2,401;    2,045
388,862;  854,889;   -0,401;   -0,318
389,453;  784,726;    1,054;    1,045
390,045;  846,087;    3,236;   -2,682
390,636;  754,435;    0,144;   -0,591
391,227;  783,953;    2,054;   -0,045
391,819;  790,531;    0,781;    0,773
392,410; 1081,247;    0,600;    0,045
393,001;  872,945;    1,600;   -1,591
393,593;  953,146;    0,600;   -0,045
394,184; 1007,777;    0,873;   -0,409
394,775;  820,332;    1,146;    2,136
395,366;  793,797;    1,782;    0,773
395,957; 1020,719;   -2,400;    0,136
396,548;  895,088;    1,054;    2,682
397,139; 1068,799;    2,236;    0,591
397,730;  925,780;    0,873;    0,955
398,321;  928,590;    0,509;    0,955
398,912;  861,378;   -0,764;    0,136
399,503;  899,366;   -1,945;   -1,409
400,094;  903,211;   -1,582;    1,682
400,685;  890,382;    3,600;    0,045
401,276;  794,869;   -0,400;   -0,955
401,867;  811,189;   -1,127;    0,773
402,458;  785,489;    1,509;   -2,318
403,048;  968,875;    0,146;    0,591
403,639;  851,651;    1,509;    0,864
404,230; 1045,074;    0,691;    0,318
404,821; 1103,275;   -0,127;    0,045
405,411;  984,498;   -0,763;   -2,591
406,002;  834,347;    3,237;   -1,136
406,592; 1121,164;    2,691;    0,045
407,183;  957,132;    0,328;   -1,500
407,774;  896,854;    1,419;   -0,136
408,364;  891,968;    2,600;    0,409
408,954; 1017,864;   -0,036;    1,227
409,545; 1023,569;    1,873;    1,045
410,135;  910,135;   -1,581;    0,500
410,726;  870,499;    0,783;    0,318
411,316; 1111,964;    2,237;    0,773
411,906;  886,489;    0,146;   -0,409
412,497;  867,497;   -0,490;   -0,045
413,087;  840,425;    0,783;   -0,227
413,677;  813,865;   -2,490;    3,864
414,267;  774,652;   -1,035;    1,409
414,857;  747,605;    0,419;    4,227
415,448;  779,918;   -0,763;    0,500
416,038;  792,775;   -2,945;   -0,591
416,628;  835,571;    0,965;    0,409
417,218;  915,306;   -1,762;    3,318
417,808; 1121,440;    0,965;   -0,409
418,398;  964,268;   -1,035;    2,682
418,988;  817,666;   -2,217;    0,591
419,578;  919,997;    3,601;    1,409
420,168;  922,049;    0,692;   -0,955
420,757; 1081,739;    0,964;   -1,500
421,347;  920,097;    1,601;   -0,227
421,937;  869,442;    3,329;    1,409
422,527; 1028,445;    2,602;   -0,773
423,116; 1181,627;    2,692;   -0,045
423,706;  885,537;    2,965;    0,318
424,296;  781,159;    1,601;    0,682
424,885; 1031,704;    1,510;   -3,045
425,475;  986,903;    1,147;   -2,864
426,065;  833,164;   -1,489;   -0,318
426,654;  801,193;    0,329;   -0,318
427,244; 1187,571;    1,147;    1,409
427,833; 1113,975;    1,056;   -0,500
428,423;  940,293;    0,147;    1,136
429,012; 1013,942;    2,420;   -1,136
429,601; 1129,410;    2,057;    0,136
430,191;  984,588;    2,511;    4,318
430,780;  797,123;   -1,671;   -0,409
431,369; 1107,508;    1,329;   -0,045
431,959; 1036,910;    1,693;    0,500
432,548;  894,570;   -1,398;   -0,045
433,137;  814,021;    0,329;   -1,318
433,726;  983,228;    0,148;    0,500
434,315;  941,291;    0,148;    2,409
434,905; 1096,037;    0,693;    1,409
435,494; 1145,168;    3,148;    0,955
436,083;  968,808;    1,420;   -0,955
436,672; 1024,440;    1,148;    0,500
437,261;  960,415;    0,512;   -1,955
437,850; 1341,795;   -1,125;    0,682
438,439; 1375,969;    2,239;    1,955
439,027; 1496,572;    3,421;    1,773
439,616; 1451,719;    2,239;    1,227
440,205; 1140,216;    0,057;   -2,136
440,794; 1017,028;   -0,306;   -0,045
441,383;  922,388;    1,603;   -0,591
441,971;  838,086;   -0,306;    0,591
442,560;  861,717;    0,603;   -1,773
443,149;  726,122;    3,060;   -1,318
443,737;  847,178;    0,968;   -2,318
444,326;  856,829;    0,331;    0,318
444,915;  929,341;   -1,851;    0,864
445,503;  964,353;    0,058;   -0,318
446,092; 1294,592;    7,876;    2,136
446,680; 1249,155;    1,876;    0,318
447,269; 1154,127;   -1,487;   -0,318
447,857; 1066,453;    2,240;   -1,773
448,445; 1013,597;    2,149;    1,318
449,034;  977,920;    0,876;   -1,136
449,622;  958,018;    1,240;    3,500
450,210; 1393,056;    3,149;    2,227
450,799; 1286,198;    2,604;   -0,591
451,387; 1149,531;    1,786;   -0,591
451,975; 1134,724;   -1,305;    0,864
452,563; 1294,773;    0,422;    2,318
453,151;  978,892;   -1,032;   -1,227
453,739; 1053,277;   -1,577;    0,136
454,328; 1259,181;    0,604;   -2,136
454,916; 1105,935;    1,150;   -0,136
455,504; 1105,374;    3,513;    1,227
456,092;  994,101;    2,150;   -1,591
456,679;  882,938;    0,604;    0,682
457,267; 1567,901;    3,604;    1,045
457,855; 1067,349;    3,241;    1,409
458,443;  796,250;   -0,304;    1,682
459,031; 1142,778;    1,332;    2,409
459,619; 1086,045;   -3,577;    2,864
460,206;  911,204;   -0,759;    2,045
460,794;  938,216;   -0,668;   -0,227
461,382; 1044,072;    0,878;   -0,864
461,970;  972,976;    0,605;    1,864
462,557;  902,419;    0,878;   -0,682
463,145; 1134,973;   -0,304;   -1,682
463,732; 1464,568;    2,514;   -1,045
464,320; 1107,471;    1,514;   -3,045
464,907; 1318,858;    0,423;   -0,773
465,495; 1178,385;    2,696;   -1,227
466,082; 1035,088;    2,060;   -0,045
466,670; 1015,936;    2,605;    1,227
467,257;  917,644;    0,060;    2,045
467,844; 1118,894;    1,514;    0,045
468,432; 1095,470;   -0,031;    3,500
469,019;  976,398;    1,606;   -1,773
469,606; 1090,825;    0,969;    3,682
470,193; 1140,537;    2,151;    0,227
470,780; 1093,598;    0,333;    0,864
471,368; 1000,640;   -1,212;   -0,773
471,955; 1128,666;    1,060;   -0,682
472,542; 1031,674;   -0,303;   -1,136
473,129;  858,070;   -0,485;    0,136
473,716;  849,653;    0,060;    0,591
474,303;  907,304;    1,333;   -0,864
474,890;  950,192;    2,333;   -0,500
475,477; 1101,647;   -0,576;    0,409
476,064;  940,311;    0,697;   -1,591
476,650; 1106,123;    2,152;    0,318
477,237;  994,214;    1,879;    0,955
477,824;  963,078;    3,879;    0,864
478,411;  813,868;    0,606;   -0,318
478,997;  814,943;    0,606;   -0,773
479,584;  728,885;   -0,666;   -0,409
480,171; 1110,434;    1,243;   -0,773
480,757; 1207,450;   -0,848;    0,773
481,344; 1014,355;    0,334;    0,409
481,931;  791,302;   -0,393;    1,045
482,517; 1129,238;    0,425;    0,318
483,104; 1290,428;    1,334;    2,864
483,690; 1133,359;    0,243;    0,045
484,276; 1093,429;    0,698;    0,227
484,863; 1457,971;    2,152;    1,136
485,449; 1222,105;    0,152;    0,318
486,035; 1118,500;   -0,666;   -0,136
486,622; 1341,348;   -2,393;    0,045
487,208; 1195,174;    1,334;    1,500
487,794; 1069,041;    0,971;    0,318
488,380; 1095,735;    0,698;   -1,409
488,967; 1097,654;   -1,120;   -0,409
489,553; 1100,813;   -1,029;   -1,409
490,139; 1248,916;    0,971;    0,773
490,725; 1082,952;    0,789;   -0,227
491,311; 1104,641;    1,516;    3,045
491,897;  938,572;   -0,665;    1,500
492,483;  974,541;    0,426;    1,227
493,069; 1751,689;    5,426;    0,864
493,655; 1224,647;    1,789;    0,682
494,241; 1018,427;    1,517;   -0,955
494,826; 1094,351;    0,335;   -1,045
495,412; 1153,354;    0,335;   -0,682
495,998; 1026,541;    0,971;   -0,318
496,584; 1112,903;    2,244;    1,045
497,169; 1062,253;    2,335;   -0,682
497,755;  937,329;    1,244;    1,227
498,341; 1300,701;    2,153;    0,318
498,926; 1466,541;    2,881;    1,955
499,512; 1056,478;   -0,028;    2,955
500,097; 1001,142;   -0,574;   -0,318
500,683; 1035,509;   -0,028;    2,136
501,268;  987,981;    1,881;   -0,955
501,854; 1018,156;   -0,119;    1,227
502,439;  948,995;   -0,573;   -1,773
503,024; 1070,848;    1,608;    0,500
503,610; 1122,192;    1,335;   -0,682
504,195;  947,092;    1,245;    1,955
504,780; 1114,283;    2,335;    1,227
505,366; 1262,512;    4,063;    2,864
505,951; 1102,264;   -1,119;    1,045
506,536; 1002,950;    1,427;   -3,682
507,121; 1055,593;    1,699;   -0,318
507,706; 1038,251;   -0,392;    1,045
508,291;  946,544;   -2,937;    1,136
508,876;  926,035;   -0,482;    2,591
509,461;  985,520;    1,427;   -0,773
510,046; 1063,584;   -0,391;    0,318
510,631; 1046,916;   -0,119;   -0,773
511,216;  939,924;   -0,664;   -0,500
511,801; 1077,879;   -0,755;    2,591
512,386; 1104,062;    0,972;    0,500
512,971; 1115,446;    0,427;    0,955
513,555; 1180,488;    1,154;   -1,500
514,140; 1165,814;    1,336;   -3,136
514,725; 1287,952;    1,791;   -1,136
515,309; 1155,909;    1,064;    0,318
515,894; 1004,445;   -0,300;   -2,227
516,479; 1043,608;    1,973;   -0,955
517,063; 1033,634;    0,882;    1,227
517,648; 1015,663;    0,155;   -1,136
518,232;  929,019;   -1,300;   -1,409
518,817; 1054,759;    1,337;    1,682
519,401; 1239,531;    0,700;    0,591
519,985; 1088,655;    2,700;    1,136
520,570;  935,969;   -0,118;   -1,955
521,154; 1112,250;    0,064;    0,591
521,738; 1364,816;    1,064;    2,409
522,323; 1217,752;   -0,390;    1,682
522,907; 1146,610;    2,428;   -0,136
523,491; 1028,723;    1,155;    0,955
524,075;  961,826;    0,428;    0,591
524,659; 1193,614;    0,973;    0,591
525,243; 1073,736;    0,883;    0,409
525,827;  995,649;    0,883;   -0,045
526,411; 1065,160;    1,155;   -0,136
526,995; 1238,048;    0,337;    1,409
527,579; 1258,406;    1,974;   -1,045
528,163; 1194,161;    0,428;   -1,500
528,747; 1366,943;    1,065;   -0,773
529,331; 1300,363;    0,883;   -1,409
529,915; 1066,814;    2,338;    0,955
530,499; 1161,902;    0,247;    1,227
531,082; 1306,119;    1,065;    1,591
531,666; 1364,442;    0,520;    0,773
532,250; 1281,591;    0,428;    2,682
532,833; 1433,676;    0,610;    2,773
533,417; 1229,693;    1,247;    0,864
534,001; 1339,378;    0,429;   -0,318
534,584; 1286,714;    1,974;    0,500
535,168; 1080,972;    3,247;    1,409
535,751; 1498,542;    4,520;    0,045
536,334; 1132,608;    4,520;   -0,409
536,918; 1086,225;    1,974;    1,591
537,501; 1073,599;    1,520;    1,318
538,085; 1122,104;    1,702;    1,045
538,668; 1157,116;    0,883;    2,409
539,251; 1528,855;    3,156;    3,773
539,834; 1247,735;    0,156;    0,773
540,418; 1356,758;    3,247;    4,318
541,001; 1549,698;    2,702;    1,773
541,584; 1288,854;    1,429;    2,227
542,167; 1367,790;    0,702;    2,955
542,750; 1219,403;    0,793;   -0,773
543,333; 1006,457;    1,429;    2,136
543,916; 1335,573;   -0,298;    2,500
544,499; 1224,643;    2,520;    0,227
545,082; 1330,480;    0,248;    3,591
545,665; 1238,061;   -0,207;    1,500
546,248; 1383,548;    0,520;   -0,318
546,830; 1332,418;   -1,752;    1,955
547,413; 1338,855;    0,157;   -0,773
547,996; 1396,947;    0,157;    0,500
548,579; 1248,522;   -0,843;    0,955
549,161; 1505,995;    0,884;    2,682
549,744; 1387,934;    0,612;    0,409
550,326; 1312,767;    0,885;   -1,136
550,909; 1779,866;    2,339;    0,591
551,492; 1453,269;    0,521;    0,227
552,074; 1523,108;   -0,024;   -1,318
552,657; 1597,840;    2,430;    0,045
553,239; 1419,058;   -3,024;   -0,773
553,821; 1317,731;   -1,570;    1,045
554,404; 1530,012;   -0,024;    1,136
554,986; 1667,644;    2,248;    1,045
555,568; 1537,953;    0,430;   -0,955
556,151; 1725,329;    4,067;   -0,227
556,733; 1396,699;   -1,388;   -0,864
557,315; 1419,112;    4,703;    0,500
557,897; 1234,626;    0,521;   -0,500
558,479; 1251,461;    1,703;    1,318
559,061; 1367,769;    1,067;   -0,864
559,643; 1485,665;   -0,297;    0,045
560,225; 1524,790;   -0,388;    2,864
560,807; 1382,484;    0,340;    0,318
561,389; 1320,161;   -1,206;    2,318
561,971; 1380,890;   -0,660;    2,136
562,553; 1380,960;    0,613;    1,591
563,135; 1455,396;    1,249;    1,136
563,717; 1822,113;    3,158;    1,136
564,298; 1722,188;    3,976;   -0,045
564,880; 1442,769;    0,340;   -1,409
565,462; 1304,678;    1,977;    1,318
566,043; 1617,351;   -0,933;    2,318
566,625; 1805,890;    4,067;    1,227
567,207; 1568,292;    0,704;    1,682
567,788; 1529,147;   -0,114;    1,500
568,370; 1639,871;   -1,841;   -0,500
568,951; 1515,195;   -0,569;    0,227
569,533; 1685,063;    0,977;   -0,500
570,114; 1795,237;   -0,296;    0,682
570,695; 1823,337;   -0,478;   -1,318
571,277; 1799,878;   -0,205;   -1,682
571,858; 2026,627;    2,704;   -1,136
572,439; 2014,530;    0,795;   -1,045
573,021; 1986,098;    0,432;   -2,773
573,602; 2126,004;    1,795;    0,318
574,183; 2126,186;   -0,114;    2,227
574,764; 2155,526;    2,068;    0,409
575,345; 2272,878;    0,250;   -0,136
575,926; 2225,061;    2,704;    0,136
576,507; 2313,997;    2,704;   -0,227
577,088; 2389,721;    1,704;    1,682
577,669; 2541,765;    1,704;    1,955
578,250; 2753,914;   -0,750;   -1,045
578,831; 2589,066;   -0,841;   -2,227
579,412; 2459,959;   -1,205;    0,955
579,993; 2721,706;    1,432;    0,227
580,573; 2709,625;   -0,023;   -0,955
581,154; 2463,139;    1,613;   -0,591
581,735; 2618,483;    0,341;    0,773
582,315; 2539,392;    0,523;    2,136
582,896; 2663,526;   -1,750;    1,227
583,477; 2524,245;    0,614;    1,227
584,057; 2595,976;    1,159;    0,955
584,638; 2671,433;   -2,750;    2,318
585,218; 2891,325;    2,886;    2,682
585,799; 2785,452;    1,977;   -0,227
586,379; 2664,358;    1,250;    1,591
586,959; 2533,918;    2,613;    0,318
587,540; 2392,855;    0,432;    2,227
588,120; 2323,969;   -1,113;   -0,045
588,700; 2209,078;    2,977;    2,136
589,281; 2458,347;    1,250;   -0,955
589,861; 2329,029;   -0,296;   -1,682
590,441; 2249,725;   -1,477;   -2,682
591,021; 2094,699;    1,432;   -2,591
591,601; 2169,219;    0,431;    0,500
592,181; 2261,374;   -1,296;   -0,773
592,761; 1974,856;    2,250;    1,409
593,341; 2115,000;    1,522;    0,045
593,921; 2102,810;   -0,569;    1,591
594,501; 1975,466;    1,250;    1,318
595,081; 1960,252;    0,522;   -0,318
595,661; 2165,602;    1,068;    0,955
596,240; 2199,766;   -1,023;    0,136
596,820; 2395,268;    2,613;    1,955
597,400; 2121,674;    1,977;    0,773
597,980; 2124,438;   -0,750;    1,045
598,559; 2117,379;    0,341;   -0,227
599,139; 2068,877;   -0,750;   -1,227
599,718; 2069,150;    0,795;   -0,409
600,298; 2137,655;   -2,387;    0,682
600,877; 2506,187;    4,795;    1,409
601,457; 2361,780;    0,340;    1,136
602,036; 2221,666;    1,795;    2,045
602,616; 2190,795;    2,250;    1,682
603,195; 2340,045;    0,431;    3,500
603,774; 2280,450;   -0,296;    2,045
604,354; 2199,189;    2,522;   -0,500
604,933; 2092,742;    0,250;    1,864
605,512; 2290,663;    2,340;    0,591
606,091; 2290,083;    1,886;    3,773
606,671; 2307,875;    0,249;    0,773
607,250; 2337,890;    1,431;    3,136
607,829; 2346,269;    1,158;    3,227
608,408; 2213,157;    4,613;    2,591
608,987; 2202,206;    2,704;    3,409
609,566; 2070,155;    0,341;   -2,500
610,145; 2166,323;    2,885;    0,682
610,723; 2287,809;    1,613;    6,864
611,302; 2058,595;    1,067;    1,682
611,881; 2243,107;    5,158;   11,227
612,460; 2064,399;    0,795;    3,955
613,039; 2118,985;    1,703;    2,045
613,617; 1897,028;    0,886;    4,773
614,196; 1921,675;    1,613;    1,227
614,775; 2067,786;    1,249;    2,409
615,353; 2103,795;   -1,660;    0,864
615,932; 2004,178;    0,249;    2,409
616,510; 2128,415;    0,158;    0,591
617,089; 2557,470;    8,794;   17,591
617,667; 2166,185;    4,885;    6,136
618,246; 1822,828;   -1,115;    1,318
618,824; 1957,400;    1,612;   -0,955
619,402; 1920,589;    0,431;   -1,773
619,981; 2055,677;    1,067;   -1,045
620,559; 2046,337;    0,794;    1,682
621,137; 2059,468;    3,067;    1,864
621,715; 1769,772;    3,703;   -0,682
622,293; 1803,459;    1,885;   -0,773
622,871; 2058,567;    0,340;    0,500
623,450; 1899,128;    0,430;   -0,864
624,028; 2041,241;   -0,388;   -0,955
624,606; 1941,073;    2,339;    1,682
625,183; 1835,878;   -0,661;   -1,136
625,761; 1871,235;    1,885;    1,136
626,339; 2260,470;    2,339;    2,591
626,917; 1974,446;    0,339;   -0,045
627,495; 1981,380;    2,794;    1,318
628,073; 1969,546;    5,248;    2,864
628,650; 1934,899;    3,067;    2,136
629,228; 2010,647;    1,248;    4,409
629,806; 1743,823;   -0,024;    1,136
630,383; 1818,152;    0,066;   -0,318
630,961; 1800,916;   -2,206;   -0,955
631,539; 1760,862;   -2,479;    0,227
632,116; 2495,371;   12,703;   15,409
632,694; 2128,076;    4,885;    6,500
633,271; 1919,574;    1,975;    2,682
633,848; 2043,039;    1,430;    2,045
634,426; 1840,590;    1,521;    1,773
635,003; 1685,691;   -0,207;   -0,409
635,580; 2045,935;    1,884;    3,682
636,158; 1893,499;    3,793;    1,227
636,735; 1726,576;    3,339;   -0,500
637,312; 1736,891;    0,521;   -0,682
637,889; 1742,552;    2,248;   -0,682
638,466; 1732,801;    0,066;   -0,409
639,043; 1726,593;    1,702;   -1,136
639,620; 1722,584;    0,611;   -0,955
640,197; 1871,639;    1,612;    1,682
640,774; 1830,476;    1,430;    1,136
641,351; 1891,585;    0,612;    1,136
641,928; 1948,148;    2,794;    1,409
642,505; 2068,803;    0,794;   -0,500
643,082; 1946,275;    1,885;    1,227
643,658; 1641,657;    1,157;    1,500
644,235; 1728,220;   -2,479;    2,500
644,812; 1896,966;    1,794;    0,773
645,388; 1862,984;    1,612;    1,409
645,965; 1638,274;    1,521;    1,682
646,542; 1645,383;    3,430;   -0,227
647,118; 2106,492;    3,703;   -0,955
647,695; 1921,601;    0,339;    1,136
648,271; 1705,256;   -2,115;    0,500
648,848; 1854,819;    0,248;    2,227
649,424; 1968,019;    0,976;    1,318
650,000; 1697,037;   -0,388;   -1,045
650,577; 1779,964;    0,158;   -0,955
651,153; 1883,801;   -1,115;    0,955
651,729; 1866,273;    0,521;    0,864
652,305; 2141,473;    1,339;    2,773
652,881; 2392,673;   -1,297;    1,136
653,458; 3050,964;    0,249;    0,227
654,034; 3530,436;    0,703;    1,591
654,610; 3588,182;    0,339;    0,773
655,186; 4046,927;    1,612;    3,045
655,762; 3748,854;   -1,842;    0,409
656,338; 3713,600;    0,703;    0,136
656,913; 4009,799;   -0,297;    0,409
657,489; 3763,545;    0,249;   -0,318
658,065; 3864,381;    0,794;   -1,591
658,641; 4095,581;    2,158;   -0,864
659,217; 3846,417;    2,067;    0,409
659,792; 3662,526;   -1,751;   -0,409
660,368; 3744,544;   -0,388;   -0,682
660,944; 3963,108;    1,794;    1,227
661,519; 3456,762;    0,522;    0,409
662,095; 2702,962;   -0,206;    0,591
662,670; 2081,616;   -0,206;   -0,136
663,246; 2021,453;   -0,660;   -0,409
663,821; 2062,107;    0,431;    1,682
664,396; 1856,943;    0,613;    1,864
664,972; 1874,416;   -0,660;   -0,500
665,547; 2000,525;    3,794;    0,136
666,122; 1940,179;    1,340;    0,318
666,698; 2128,470;    2,431;    0,318
667,273; 1771,943;    0,885;    0,136
667,848; 1934,961;    0,340;    1,500
668,423; 2037,979;    1,795;    2,318
668,998; 1952,906;    0,976;   -0,682
669,573; 1987,378;    2,067;   -1,500
670,148; 2132,215;    1,885;   -0,682
670,723; 1867,415;   -0,024;    0,318
671,298; 2250,614;   -1,296;    1,045
671,873; 2094,723;   -0,296;   -0,136
672,448; 2086,196;    1,704;    0,136
673,023; 2116,123;    0,249;   -0,227
673,597; 2264,959;    2,704;    2,318
674,172; 2241,887;    2,431;    0,318
674,747; 2132,541;   -0,205;   -1,045
675,321; 1933,741;   -0,933;    3,318
675,896; 1797,759;    2,158;    1,045
676,471; 2032,050;    2,522;    1,591
677,045; 1939,886;   -0,296;    0,682
677,620; 1982,631;    2,158;    1,136
678,194; 1968,922;    0,249;    1,136
678,769; 1967,395;    0,886;   -0,318
679,343; 2042,958;   -0,023;    1,773
679,917; 2121,703;    0,340;    1,955
680,492; 1960,267;    0,249;    3,227
681,066; 2007,649;    0,613;    0,409
681,640; 1994,121;    1,795;   -0,318
682,214; 2094,867;    2,340;    0,500
682,788; 2032,885;    0,613;   -0,773
683,363; 2104,357;    1,977;    1,682
683,937; 1939,375;    0,886;   -0,318
684,511; 2136,939;   -1,023;   -0,591
685,085; 2086,139;   -1,478;    0,318
685,659; 1951,066;    1,431;    0,864
686,232; 2184,902;    1,159;   -0,318
686,806; 2066,738;    2,159;    0,409
687,380; 2105,575;   -1,932;    0,591
687,954; 2129,229;    2,432;    1,136
688,528; 2280,156;    2,613;    1,955
689,101; 2319,720;    0,432;    1,045
689,675; 2102,647;    0,886;   -0,136
690,249; 2193,483;    3,432;    0,409
690,822; 2230,865;    1,159;    0,318
691,396; 2108,246;    2,068;    1,227
691,969; 2004,810;    2,523;    0,136
692,543; 2075,919;   -0,568;   -1,955
693,116; 1884,846;   -0,659;   -1,409
693,690; 1984,955;   -0,296;    0,500
694,263; 2073,337;    2,341;    2,955
694,836; 2337,537;    2,795;    3,591
695,410; 2074,282;    1,159;    1,773
695,983; 2096,664;    1,614;    0,591
696,556; 1963,500;   -0,750;   -1,045
697,129; 2017,609;   -1,114;    1,409
697,703; 2049,172;    1,341;    1,955
698,276; 2034,554;    1,705;   -0,773
698,849; 2089,754;   -1,023;    1,409
699,422; 1949,863;    1,250;    0,591
699,995; 1834,154;   -0,659;    0,136
700,568; 2037,081;   -0,204;    3,045
701,140; 2040,372;   -1,841;    1,682
701,713; 2160,844;    0,341;    2,409
702,286; 2049,771;    0,796;    0,864
702,859; 2059,335;    0,614;   -0,591
703,432; 2031,898;   -0,841;    0,682
704,004; 1987,735;    1,978;    0,318
704,577; 1830,025;    1,068;    0,136
705,150; 1912,862;    0,887;    2,500
705,722; 2008,880;    1,523;   -3,227
706,295; 2038,443;    1,432;   -0,591
706,867; 1853,007;    0,250;    1,955
707,440; 2047,752;   -0,113;   -0,409
708,012; 2122,588;   -0,022;    0,591
708,584; 1971,970;    2,705;    0,227
709,157; 1941,533;    1,160;   -0,591
709,729; 2089,733;    1,069;    2,045
710,301; 2169,842;   -1,204;    0,045
710,874; 2124,951;    0,341;   -0,227
711,446; 1800,151;   -0,295;    0,864
712,018; 1894,442;   -3,022;    0,500
712,590; 1801,187;   -0,204;    1,682
713,162; 2139,569;   -0,477;    1,318
713,734; 2006,678;    1,796;   -2,045
714,306; 1947,060;    0,342;   -0,409
714,878; 1797,987;   -0,295;    0,864
715,450; 1922,550;   -0,113;    0,864
716,022; 1947,296;    2,433;    1,318
716,593; 1964,859;    0,978;    0,591
717,165; 2008,059;    1,796;   -1,227
717,737; 2169,350;    0,796;    0,409
718,309; 1990,186;    1,160;   -0,045
718,880; 1912,022;   -1,295;   -1,409
719,452; 2022,768;    0,887;   -1,591
720,024; 1978,695;    1,705;   -0,591
720,595; 1981,349;    2,978;    0,955
721,167; 1892,549;    1,160;   -2,045
721,738; 1921,476;    2,069;   -1,045
722,309; 1970,131;    1,251;   -1,227
722,881; 1788,785;    2,705;    0,773
723,452; 1978,985;    1,251;    2,864
724,023; 2030,912;    1,524;    2,682
724,595; 2069,839;    2,342;    0,682
725,166; 1874,130;    1,524;   -0,409
725,737; 2048,784;    1,887;    0,227
726,308; 1922,439;    0,797;    0,318
726,879; 1849,457;    1,069;    1,227
727,450; 1999,293;   -2,022;   -0,045
728,021; 1877,402;    1,069;    0,682
728,592; 2042,693;    1,160;    0,500
729,163; 2172,984;    1,433;   -0,136
729,734; 2141,911;    2,160;   -0,227
730,305; 1997,838;    0,615;    0,136
730,876; 1992,401;    0,888;    2,955
731,447; 2308,601;    0,797;    2,682
732,017; 2194,165;   -0,840;    1,864
732,588; 2047,365;   -0,021;    1,227
733,159; 2235,383;    3,615;   -1,045
733,729; 1972,764;    1,251;    0,409
734,300; 2041,237;    0,160;    0,864
734,870; 1947,801;   -1,385;    0,591
735,441; 1959,546;    0,888;   -0,591
736,011; 1854,291;    1,070;   -1,591
736,582; 1892,309;    1,251;    0,045
737,152; 1901,236;    0,979;   -2,045
737,722; 1947,709;    1,070;   -0,682
738,293; 1810,091;   -2,021;    1,318
738,863; 1983,200;    1,797;    2,318
739,433; 2234,945;    4,524;    0,318
740,003; 2086,690;    1,524;   -0,682
740,573; 2126,436;    2,252;   -1,591
741,143; 2041,545;    3,615;    0,318
741,713; 2002,199;    0,252;   -0,500
742,283; 1993,672;    1,706;    1,591
742,853; 1902,690;    0,524;    1,591
743,423; 1748,435;    0,161;    0,045
743,993; 1831,726;    1,070;    1,500
744,563; 1738,198;    2,524;   -0,864
745,133; 1787,398;   -0,112;   -0,864
745,702; 1854,325;    2,797;    1,773
746,272; 1926,162;    0,434;    0,591
746,842; 1918,634;   -0,748;   -0,591
747,411; 1804,380;   -0,839;   -0,318
747,981; 1743,398;   -0,930;    0,500
748,551; 1757,143;   -0,021;   -1,045
749,120; 1852,797;   -0,112;   -0,227
749,690; 1858,452;    2,161;    2,409
750,259; 2003,379;    0,979;    2,955
750,828; 2011,488;    4,070;   -1,955
751,398; 1872,506;   -0,112;   -0,045
751,967; 2247,251;    2,888;    0,409
752,536; 1945,451;    1,161;   -0,227
753,105; 2083,742;   -1,384;    0,227
753,675; 1896,396;   -0,112;    1,773
754,244; 1894,324;    0,888;    3,591
754,813; 1905,160;    0,979;    1,227
755,382; 1836,451;    0,798;    0,955
755,951; 1985,741;   -0,112;    3,682
756,520; 2051,669;    2,525;    1,864
757,089; 2273,232;    1,888;    0,500
757,658; 1968,432;    2,434;    1,227
758,227; 1839,905;   -1,111;    0,318
758,795; 1917,650;   -1,021;    1,136
759,364; 2038,304;    0,525;   -0,591
759,933; 1781,504;    1,343;   -0,045
760,501; 1729,340;    0,252;   -1,318
761,070; 1879,631;   -0,293;   -1,409
761,639; 2068,558;    1,434;    1,318
762,207; 1964,486;    0,889;   -0,955
762,776; 2016,322;    2,889;    0,864
763,344; 1869,885;    0,071;    0,591
763,913; 1577,812;    1,616;    1,409
764,481; 2201,921;    1,980;   -0,136
765,049; 2168,576;    0,616;    1,409
765,618; 2052,594;    1,434;    0,318
766,186; 1937,248;    2,434;    0,136
766,754; 1950,994;    1,798;    1,864
767,322; 1679,739;    1,162;    0,409
767,890; 1640,757;    0,525;   -1,773
768,459; 1794,230;    2,616;   -0,318
769,027; 2015,248;    2,525;    3,409
769,595; 1761,629;    2,616;    2,591
770,163; 1806,284;    3,344;    2,955
770,730; 1784,211;    2,525;   -0,136
771,298; 1790,593;    1,162;   -1,409
771,866; 1764,974;    0,253;    4,955
772,434; 1792,992;    1,162;   -1,864
773,002; 2041,465;    2,616;    0,682
773,569; 1887,847;    1,071;    1,682
774,137; 1995,047;    0,889;   -0,045
774,705; 1937,883;   -0,747;   -0,136
775,272; 1774,628;    0,253;    0,682
775,840; 1872,737;   -0,111;    2,682
776,407; 1868,028;   -0,293;    1,955
776,975; 1640,137;    1,162;    0,318
777,542; 1764,973;    2,162;   -0,045
778,110; 1794,991;    0,707;   -0,045
778,677; 1651,918;    1,071;   -0,864
779,244; 1690,300;   -1,020;    1,045
779,812; 1855,863;    0,980;    0,864
780,379; 1883,791;    2,435;    1,136
780,946; 1770,172;    2,617;   -0,773
781,513; 1773,281;   -0,565;    0,318
782,080; 1621,117;    1,253;    2,864
782,647; 1725,772;    1,708;    3,045
783,214; 1676,608;   -0,201;    3,864
783,781; 1823,717;    1,708;   -0,682
784,348; 1782,190;    0,253;    1,500
784,915; 1631,571;   -1,474;    0,318
785,482; 1816,044;    2,708;    2,591
786,049; 1851,608;    1,071;   -0,591
786,615; 1768,353;    1,708;   -0,955
787,182; 1698,825;   -3,201;   -0,682
787,749; 1683,662;   -2,201;    1,409
788,315; 1733,589;    0,253;   -0,409
788,882; 1730,334;    0,981;   -1,227
789,448; 2022,443;    1,435;   -0,955
790,015; 1817,461;    1,799;    3,227
790,581; 1936,388;    0,708;    0,227
791,148; 1731,043;    1,344;    1,045
791,714; 1694,697;   -1,019;    3,136
792,280; 1666,443;    3,708;    1,591
792,847; 1605,642;   -0,928;    2,500
793,413; 1705,660;   -0,110;   -0,318
793,979; 1812,406;    1,526;   -1,318
794,545; 2136,606;    2,981;    2,682
795,111; 1939,078;    2,435;    1,318
795,678; 1799,460;    3,526;   -1,682
796,244; 1978,296;    2,799;    0,136
796,810; 1904,678;    0,799;    0,773
797,375; 1860,150;   -0,292;   -2,136
797,941; 1513,623;   -1,110;    0,591
798,507; 1488,096;    0,254;   -0,955
799,073; 1521,477;    2,708;    0,591
799,639; 1581,132;    1,435;    3,136
800,205; 1521,241;   -1,565;    2,682
800,770; 1482,077;    1,345;    1,773
801,336; 1444,913;    2,981;   -0,955
801,901; 2092,931;    6,072;    3,136
802,467; 1804,040;    0,526;    2,045
803,033; 1474,604;   -0,019;    0,864
803,598; 1478,531;    1,072;   -1,045
804,163; 1538,549;    0,708;   -0,318
804,729; 1631,840;   -0,110;    1,136
805,294; 1552,403;    1,072;    2,227
805,859; 1464,421;    0,890;   -0,409
806,425; 1837,621;    3,890;    2,682
806,990; 1799,912;    1,890;    4,318
807,555; 1597,476;   -0,110;    2,591
808,120; 1748,039;   -1,292;   -0,409
808,685; 1486,239;    1,072;   -2,500
809,250; 1358,075;    2,072;   -0,500
809,815; 1440,548;   -0,201;    0,682
810,380; 1622,748;    0,981;    1,591
810,945; 1787,766;    2,890;    2,045
811,510; 1614,056;   -0,200;    1,591
812,075; 1565,711;    2,800;   -1,409
812,640; 1845,729;    3,709;    1,409
813,204; 1621,202;    2,163;   -0,227
813,769; 1832,401;    0,254;   -0,045
814,334; 1776,510;    0,527;    0,864
814,898; 1516,801;    1,981;    0,591
815,463; 1553,183;    0,981;   -0,773
816,027; 1484,474;    1,345;   -2,318
816,592; 1501,310;    2,163;   -2,045
817,156; 1560,419;   -2,200;    1,136
817,721; 1627,801;    0,982;    2,318
818,285; 1395,637;    0,618;    1,500
818,849; 1529,473;   -0,018;    1,682
819,414; 1431,400;    0,073;    2,955
819,978; 1352,418;   -0,291;    1,773
820,542; 1761,891;    2,891;    0,500
821,106; 1589,363;    2,800;    0,682
821,670; 1756,745;    2,709;    2,591
822,234; 1513,854;    1,073;    1,409
822,798; 1369,327;   -0,836;    0,500
823,362; 1675,527;    1,527;    4,227
823,926; 1401,363;   -0,018;    1,136
824,490; 1610,744;    3,527;   -0,682
825,054; 1513,944;    2,527;   -1,136
825,618; 1372,326;   -1,200;   -1,500
826,181; 1411,071;    0,982;   -1,318
826,745; 1486,817;   -0,745;   -1,045
827,309; 1745,108;    2,255;    1,318
827,872; 1591,216;    0,527;    0,955
828,436; 1564,053;    1,982;   -0,773
828,999; 1505,980;    2,436;    1,227
829,563; 1427,271;   -0,654;    1,136
830,126; 1386,561;   -0,018;   -0,591
830,690; 1435,489;    0,709;    2,864
831,253; 1316,598;   -0,473;    2,227
831,816; 1371,161;   -0,018;    0,500
832,380; 1292,179;    1,164;    0,864
832,943; 1296,288;    3,073;   -0,500
833,506; 1331,761;    0,255;   -1,227
834,069; 1541,597;    2,164;   -0,955
834,632; 1436,433;   -2,200;    1,318
835,195; 1430,997;    1,346;    0,955
835,758; 1344,560;    0,709;    1,955
836,321; 1283,033;    1,073;   -1,045
836,884; 1289,687;   -1,291;   -0,955
837,447; 1271,796;    0,528;    1,773
838,010; 1410,087;    1,800;    3,227
838,573; 1489,650;    0,528;    0,773
839,135; 1398,214;   -0,109;   -0,955
839,698; 1344,050;    2,528;    0,409
840,261; 1266,977;    0,255;   -0,227
840,823; 1229,268;   -0,927;    0,864
841,386; 1222,195;   -0,018;   -2,409
841,948; 1558,850;    0,255;    1,773
842,511; 1281,504;    0,255;    1,682
843,073; 1539,522;    2,982;    0,227
843,636; 1281,177;    0,619;   -0,227
844,198; 1498,831;    1,255;    0,591
844,760; 1472,667;    0,619;    1,955
845,322; 1232,594;    0,164;    1,136
845,885; 1378,703;   -0,290;    0,591
846,447; 1356,994;    0,710;    0,227
847,009; 1677,012;    3,983;   -0,682
847,571; 1383,030;    1,346;   -2,045
848,133; 1343,230;   -0,199;   -1,864
848,695; 1202,612;    2,346;    1,409
849,257; 1264,357;    1,346;   -1,682
849,819; 1432,739;    2,983;   -0,409
850,381; 1305,939;    1,801;   -0,864
850,942; 1375,502;    1,892;   -0,591
851,504; 1402,066;    0,983;    0,227
852,066; 1318,902;    1,619;   -1,591
852,628; 1316,284;    0,165;    1,955
853,189; 1150,484;    0,256;    2,682
853,751; 1209,138;   -0,654;    1,409
854,312; 1384,247;    1,256;   -1,682
854,874; 1535,083;   -0,108;   -0,773
855,435; 1343,829;    0,528;   -1,682
855,997; 1432,665;    3,983;   -0,136
856,558; 1468,683;    0,801;    1,773
857,119; 1336,155;   -0,744;    2,864
857,681; 1185,901;   -0,108;    0,318
858,242; 1436,192;    1,347;   -2,136
858,803; 1478,664;    1,074;   -0,773
859,364; 1391,500;    0,892;   -4,773
859,925; 1432,246;   -0,290;   -0,955
860,486; 1328,627;    0,529;   -0,955
861,047; 1204,100;    0,165;   -1,227
861,608; 1245,209;    0,165;   -0,773
862,169; 1187,409;   -0,562;   -0,045
862,730; 1251,700;   -0,290;    1,409
863,291; 1316,536;    0,438;   -0,500
863,852; 1286,736;   -0,926;    1,955
864,412; 1240,117;   -1,835;   -0,864
864,973; 1410,408;    1,892;    0,500
865,534; 1555,790;    2,074;    0,227
866,094; 1383,353;    2,620;    0,227
866,655; 1482,735;    4,711;    3,318
867,215; 1341,571;    0,074;    0,136
867,776; 1241,862;   -1,199;   -0,136
868,336; 1293,244;    1,529;    0,136
868,897; 1655,080;    3,438;    1,682
869,457; 1427,825;    3,256;    0,318
870,017; 1267,934;    2,438;   -1,227
870,578; 1281,952;    1,893;    0,773
871,138; 1260,152;    2,620;   -0,955
871,698; 1145,534;   -0,562;   -1,318
872,258; 1257,279;    0,711;   -2,864
872,818; 1484,934;    2,347;    0,045
873,378; 1285,043;   -2,198;    1,045
873,938; 1230,424;    4,984;    0,500
874,498; 1145,624;    1,256;   -1,955
875,058; 1224,279;    4,347;    1,773
875,618; 1214,751;    1,438;   -2,682
876,177; 1275,678;   -0,471;    0,136
876,737; 1045,424;   -0,289;    1,955
877,297; 1464,987;    2,711;    1,955
877,856; 1369,096;    2,529;    0,318
878,416; 1121,387;    2,438;   -0,136
878,976; 1113,769;    3,438;    0,409
879,535; 1183,969;    4,529;    3,136
880,095; 1158,714;    1,347;    0,045
880,654; 1058,277;    0,347;    1,318
881,213; 1410,841;    2,347;    1,500
881,773; 1222,586;    1,984;    2,682
882,332; 1820,059;    6,075;    5,136
882,891; 1247,168;    0,711;    2,136
883,451; 1246,913;   -2,016;    1,682
884,010; 1146,113;   -1,107;   -0,409
884,569; 1101,222;   -2,289;   -0,045
885,128; 1314,149;   -0,743;   -1,864
885,687; 1600,804;   -0,743;    0,682
886,246; 1766,185;    2,620;    2,136
886,805; 1486,749;    1,620;    2,045
887,364; 1166,676;    1,166;   -0,500
887,922; 1087,330;   -0,016;    0,045
888,481; 1230,530;    1,530;    0,591
889,040; 1376,185;    3,711;    2,136
889,599; 1249,294;    2,166;    1,409
890,157; 1248,130;    2,166;    2,409
890,716; 1156,057;    2,166;    0,227
891,274; 1259,530;    0,075;   -1,136
891,833; 1352,275;    1,166;    0,864
892,391; 1186,202;    1,802;    0,500
892,950; 1369,311;    0,166;   -0,773
893,508; 1149,693;    0,984;   -0,409
894,067; 1024,256;   -0,379;    0,136
894,625; 1134,183;   -1,016;   -1,500
895,183; 1098,020;   -0,198;   -0,682
895,741; 1420,310;    2,257;   -1,773
896,299; 1193,510;    1,621;   -2,409
896,858; 1106,619;    1,530;   -1,591
897,416; 1266,637;    0,166;   -1,318
897,974; 1195,019;   -2,197;    0,318
898,532; 1683,583;    6,530;    2,682
899,089; 1323,782;    0,621;   -0,682
899,647; 1220,164;    0,530;    1,318
900,205; 1239,637;    0,257;    1,045
900,763; 1241,109;    2,166;    0,227
901,321; 1200,946;    3,530;   -1,409
901,878; 1014,055;    3,257;   -0,773
902,436; 1062,618;    0,257;    1,318
902,994; 1891,363;    6,712;    3,682
903,551; 1366,381;    1,439;    0,409
904,109; 1244,672;    1,530;   -1,409
904,666; 1182,599;    1,439;    1,045
905,224; 1071,981;    3,894;   -0,409
905,781; 1214,363;   -0,470;   -0,318
906,338; 1139,472;    0,167;    1,045
906,895; 1021,490;    1,894;    2,045
907,453; 1319,781;    2,348;    1,136
908,010; 1155,071;    3,348;    0,409
908,567; 1090,908;   -0,561;    0,591
909,124;  918,289;    2,439;   -1,500
909,681;  979,944;   -1,288;    0,682
910,238; 1050,780;   -0,106;   -1,318
910,795; 1018,434;   -1,561;   -1,136
911,352; 1018,525;   -0,379;   -2,682
911,909; 1013,707;    2,803;   -0,864
912,466; 1054,525;    1,985;    1,500
913,022; 1087,525;   -0,924;    0,500
913,579; 1193,434;   -0,470;    2,045
914,136; 1056,434;   -2,561;    0,955
914,692; 1123,616;    1,530;   -1,227
915,249; 1061,707;    0,530;    0,409
915,806; 1150,707;    1,803;    1,955
916,362; 1027,343;    0,894;    1,864
916,918;  957,525;    2,439;    1,045
917,475; 1167,343;    1,621;    0,955
918,031;  990,162;    0,076;   -0,045
918,587; 1048,616;    0,621;   -0,318
919,144;  963,343;   -0,379;    0,227
919,700;  933,616;    0,167;    0,773
920,256;  903,253;    0,439;    0,045
920,812;  930,707;    1,439;   -1,045
921,368;  883,343;    1,348;   -1,045
921,924;  883,434;    0,439;   -0,136
922,480;  971,889;    0,076;    1,227
923,036; 1008,889;   -0,652;    1,955
923,592;  907,434;    0,621;    0,318
924,148;  930,616;    1,894;   -0,955
924,704; 1072,616;    0,258;   -0,409
925,259;  911,253;   -0,561;    0,591
925,815;  857,434;    3,803;    0,500
926,371;  827,616;    3,530;    1,409
926,926;  994,525;    1,621;    0,591
927,482;  946,707;    1,621;    0,773
928,037;  868,343;   -0,833;    2,045
928,593; 1079,162;    0,258;    1,045
929,148;  834,525;    1,167;   -1,500
929,704;  893,798;    2,439;   -0,500
930,259;  793,162;    0,894;   -0,136
930,814;  978,434;    1,803;    1,955
931,369;  905,071;    0,258;   -0,773
931,925;  710,162;   -1,924;    0,136
932,480;  810,071;    3,076;   -2,591
933,035; 1186,071;    3,985;   -0,318
933,590; 1050,616;   -1,742;   -1,773
934,145;  674,616;   -1,288;   -0,318
934,700;  596,253;    0,348;   -0,591
935,255;  670,889;    4,803;    0,045
935,809;  988,162;    6,258;    0,864
936,364;  612,616;    2,167;   -0,136
936,919;  615,616;    2,348;   -1,773
937,474;  545,434;    1,348;    0,136
938,028;  551,889;    3,076;    1,136
938,583;  953,343;    6,348;    4,682
939,138;  621,343;    0,167;    2,136
939,692;  475,616;   -1,015;   -1,136
940,247;  504,889;    1,167;   -1,045
940,801;  564,980;    0,621;    0,227
941,355;  482,434;    0,439;    2,591
941,910;  389,162;    0,712;   -2,136
942,464;  428,798;    2,712;   -0,318
943,018;  655,889;    3,258;   -0,227
943,572;  496,616;    2,803;   -0,682
944,126;  537,343;   -0,924;   -0,409
944,681;  418,434;    0,712;    0,227
945,235;  371,525;    2,167;   -0,591
945,789;  331,525;    1,258;   -1,864
946,342;  606,980;   -0,561;   -0,591
946,896;  380,980;    0,348;    0,955
947,450;  359,071;   -0,561;   -0,227
948,004;  582,616;    1,076;   -0,045
948,558;  418,162;    1,258;   -0,864
949,111;  404,525;   -1,197;   -0,318
949,665;  588,525;   -0,106;   -0,682
950,219;  546,889;    0,621;   -1,045
950,772;  476,889;    0,258;    1,864
951,326;  471,343;   -1,106;   -0,955
951,879;  398,707;    1,076;   -2,318
952,433;  524,434;    1,348;    2,227
952,986;  374,798;    0,348;    0,682
953,539;  330,798;    1,530;    0,591
954,093;  288,434;    0,985;   -1,318
954,646;  414,980;   -0,288;    1,318
955,199;  340,162;    1,258;   -0,500
955,752;  545,889;    1,985;    1,773
956,305;  395,525;    0,894;    2,955
956,858;  440,343;    0,621;   -0,318
957,411;  495,889;    3,621;    2,136
957,964;  407,343;    2,076;    2,136
958,517;  337,253;    0,985;    3,136
959,070;  298,253;   -1,197;    1,955
959,623;  554,162;    1,076;    1,500
960,176;  505,343;    0,712;    2,045
960,728;  463,162;    1,712;    0,773
961,281;  407,434;    2,258;    0,500
961,834;  332,525;   -0,833;    0,864
962,386;  341,525;    1,258;    1,045
962,939;  308,162;    3,439;   -0,318
963,491;  361,707;    2,621;    1,136
964,043;  301,343;    0,076;    2,409
964,596;  464,798;    1,712;    2,227
965,148;  376,253;   -0,379;    1,773
965,700;  300,798;   -0,015;   -0,227
966,253;  443,343;   -0,833;    0,318
966,805;  403,889;    1,894;    0,773
967,357;  341,525;    0,439;   -1,500
967,909;  441,343;    1,167;   -1,227
968,461;  348,707;    0,894;    3,136
969,013;  298,707;   -1,561;   -0,864
969,565;  440,253;    1,803;   -1,136
970,117;  656,889;    3,803;    1,045
970,669;  439,980;    3,258;   -0,136
971,220;  258,980;    2,167;   -1,500
971,772;  335,980;    1,348;   -0,318
972,324;  417,525;   -1,197;   -0,500
972,876;  334,707;    0,167;   -0,045
973,427;  444,071;   -1,197;   -1,045
973,979;  515,253;    0,076;   -2,500
974,530;  331,707;    0,803;    1,318
975,082;  394,253;    2,167;    1,682
975,633;  339,162;    2,894;    1,682
976,184;  390,616;    2,076;    0,773
976,736;  374,525;    0,348;    0,227
977,287;  389,525;    0,258;   -0,500
977,838;  360,798;   -0,924;   -0,318
978,389;  359,434;    0,803;   -0,500
978,940;  239,980;    1,258;   -0,409
979,491;  242,889;    2,258;   -0,500
980,042;  326,343;   -0,652;    3,045
980,593;  346,525;    1,894;    0,227
981,144;  423,343;    3,530;   -0,500
981,695;  455,434;   -0,470;    1,500
982,246;  408,162;   -1,833;    1,045
982,797;  292,253;   -0,561;    0,682
983,347;  431,889;    2,167;    0,591
983,898;  613,707;    4,167;    0,409
984,449;  572,162;    2,530;    0,773
984,999;  419,343;    1,894;   -1,136
985,550;  379,889;    3,167;   -0,318
986,100;  258,071;    0,712;   -0,318
986,651;  258,253;    0,258;    0,045
987,201;  284,343;    0,894;   -0,591
987,751;  298,253;   -0,288;    2,864
988,302;  334,343;   -0,379;    1,500
988,852;  374,525;    1,985;   -1,136
989,402;  426,434;    0,985;    0,682
989,952;  445,343;    1,621;    0,864
990,502;  322,434;    1,076;    0,682
991,052;  238,434;   -0,106;    0,045
991,602;  268,980;    1,167;    1,318
992,152;  317,525;    2,803;    0,682
992,702;  348,889;    1,167;   -0,045
993,252;  301,162;    0,076;   -0,500
993,802;  386,798;    1,167;    1,318
994,352;  352,525;   -0,742;    1,136
994,901;  278,798;    1,076;    3,227
995,451;  267,798;   -1,197;    0,318
996,000;  294,071;    1,076;    0,318
996,550;  290,980;    2,894;    0,227
997,100;  328,071;   -0,561;   -0,045
997,649;  453,343;   -0,197;    0,955
998,198;  297,253;   -0,288;   -1,500
998,748;  390,616;    0,348;   -2,318
999,297;  331,707;    0,985;   -0,409
999,846;  448,798;    1,894;   -0,773
1000,395;  374,162;    1,530;    0,500
1000,945;  470,889;    1,076;   -0,773
1001,494;  463,525;    0,167;    0,682
1002,043;  459,707;    0,712;    0,864
1002,592;  294,071;    3,439;    1,955
1003,141;  290,980;    2,439;   -0,682
1003,690;  424,889;    1,258;    0,500
1004,238;  324,253;   -0,106;   -0,045
1004,787;  243,525;   -1,288;    1,227
1005,336;  405,525;    1,621;    0,682
1005,885;  364,525;   -0,197;   -2,773
1006,433;  354,980;   -0,470;    0,955
1006,982;  529,525;    2,167;    1,682
1007,531;  389,980;    2,712;   -0,227
1008,079;  352,525;    0,258;    0,500
1008,627;  298,525;    1,621;    0,409
1009,176;  314,980;    0,076;   -1,955
1009,724;  271,707;   -2,742;    0,864
1010,273;  409,707;    1,076;    0,500
1010,821;  300,071;    1,076;    1,409
1011,369;  268,525;    0,076;    1,318
1011,917;  283,071;   -0,833;   -0,591
1012,465;  361,071;    2,530;   -1,591
1013,013;  348,707;    0,439;   -1,682
1013,561;  444,162;   -1,288;   -0,773
1014,109;  523,162;   -0,833;    1,682
1014,657;  406,434;    1,348;    0,591
1015,205;  321,616;    0,894;   -0,955
1015,753;  271,162;    0,258;   -1,409
1016,301;  340,162;    2,621;    3,045
1016,848;  414,616;    2,167;    0,409
1017,396;  405,798;    1,621;    0,045
1017,944;  398,434;    2,621;    1,864
1018,491;  316,616;   -0,197;    1,409
1019,039;  605,434;   -0,652;    0,591
1019,586;  382,162;    0,076;    1,682
1020,134;  361,980;    0,712;    1,500
1020,681;  431,071;    2,894;   -1,136
1021,228;  355,343;   -0,561;   -2,227
1021,776;  330,162;   -0,833;   -1,136
1022,323;  532,343;    0,803;    0,773
1022,870;  447,798;   -0,470;   -0,045
1023,417;  489,980;    2,076;    1,864
1023,964;  351,162;    0,621;    1,227
1024,511;  323,798;   -0,652;    0,773
1025,058;  354,071;    0,439;   -0,045
1025,605;  309,889;   -1,742;    3,136
1026,152;  501,889;   -0,106;   -0,591
1026,699;  367,889;    0,167;    1,318
1027,245;  354,434;    2,439;    0,318
1027,792;  311,707;    0,712;    1,409
1028,339;  505,162;    4,076;   -0,045
1028,885;  371,980;    3,621;   -0,227
1029,432;  327,434;   -0,106;    0,227
1029,978;  424,616;    1,348;   -1,591
1030,525;  408,525;    1,621;    0,409
1031,071;  307,434;    0,348;    1,136
1031,618;  554,707;    1,258;    1,682
1032,164;  404,889;    2,076;    3,045
1032,710;  441,253;    0,076;   -1,500
1033,256;  414,343;    0,712;   -0,136
1033,803;  288,889;   -0,288;    1,500
1034,349;  173,525;    1,803;    0,136
1034,895;  217,980;    2,621;   -0,318
1035,441;  287,343;    0,439;    0,318
1035,987;  327,980;   -2,288;   -0,682
1036,533;  390,253;   -0,197;   -0,955
1037,078;  566,889;    4,712;    1,682
1037,624;  428,343;    2,439;   -0,955
1038,170;  314,162;    1,712;   -0,318
1038,716;  389,162;    2,167;   -0,409
1039,261;  283,253;    2,167;   -0,773
1039,807;  294,525;   -0,015;    3,409
1040,352;  314,434;   -1,288;   -0,318
1040,898;  306,616;    0,167;   -0,682
1041,443;  245,616;    0,803;   -2,591
1041,989;  511,980;    3,621;    1,591
1042,534;  337,343;    0,985;    2,591
1043,079;  248,434;    1,985;    0,955
1043,625;  326,798;    0,258;    0,500
1044,170;  341,798;    2,439;    1,045
1044,715;  522,616;    0,167;    0,955
1045,260;  429,434;   -0,833;   -0,955
1045,805;  300,434;    0,258;   -0,591
1046,350;  275,434;    0,530;   -0,409
1046,895;  423,889;    0,803;    1,591
1047,440;  403,980;    1,530;    0,409
1047,985;  305,798;   -1,197;   -0,955
1048,530;  277,616;    1,348;    1,227
1049,074;  329,253;    2,803;    0,318
1049,619;  273,253;   -0,924;    1,955
1050,164;  262,798;    1,076;    0,227
1050,708;  345,162;    2,621;    0,045
1051,253;  559,980;    3,258;   -2,227
1051,797;  376,434;   -0,197;   -1,318
1052,342;  239,798;    1,348;    1,045
1052,886;  313,889;    1,803;   -1,409
1053,430;  227,525;    2,167;    0,136
1053,975;  305,162;    0,894;   -0,318
1054,519;  302,071;    1,803;    3,227
1055,063;  359,980;    3,621;    1,318
1055,607;  348,616;    1,348;    0,227
1056,151;  339,707;    0,530;    1,682
1056,695;  270,343;   -1,833;   -1,136
1057,239;  267,162;   -1,197;   -0,682
1057,783;  307,707;    2,258;   -1,500
1058,327;  366,253;    3,076;    1,409
1058,871;  496,343;    3,985;    1,318
1059,415;  381,525;   -0,561;   -0,045
1059,958;  504,616;    2,985;    2,591
1060,502;  297,616;    1,348;   -0,773
1061,046;  212,889;    1,712;   -0,955
1061,589;  208,162;    2,803;   -1,136
1062,133;  183,343;    0,985;    1,864
1062,676;  215,343;    1,439;    0,864
1063,220;  249,525;    0,985;    0,500
1063,763;  274,889;    2,985;    1,136
1064,306;  287,071;    0,985;    1,864
1064,849;  288,980;    2,076;    0,591
1065,393;  270,343;    2,894;   -1,500
1065,936;  274,889;    2,530;   -0,409
1066,479;  208,707;    2,621;    1,318
1067,022;  230,980;    1,894;   -0,227
1067,565;  206,071;   -1,197;   -1,318
1068,108;  187,343;    1,258;   -0,591
1068,651;  166,798;   -2,470;    1,409
1069,194;  168,980;   -1,106;   -1,682
1069,736;  186,707;    3,803;    0,955
1070,279;  167,434;   -1,652;   -0,500
1070,822;  237,525;    1,530;   -0,318
1071,364;  347,707;    0,530;    1,318
1071,907;  226,707;    0,348;    3,227
1072,450;  109,616;    0,258;   -0,045
1072,992;  174,798;   -0,561;    3,136
1073,535;  233,980;    0,167;    2,136
1074,077;  164,798;    2,985;    2,045
1074,619;  156,525;    0,985;    0,591
1075,161;  182,434;   -0,561;    1,500
1075,704;  290,980;    0,258;    1,227
1076,246;  179,525;    1,530;    0,682
1076,788;  128,434;   -1,015;    1,773
1077,330;  134,343;   -2,106;    2,136
1077,872;  167,707;   -1,924;    0,955
1078,414;  311,707;    3,712;    0,773
1078,956;  190,889;    0,167;   -0,227
1079,498;  303,798;    0,439;    0,318
1080,040;  183,253;    0,985;   -1,318
1080,581;  151,343;    0,621;   -0,318
1081,123;  109,798;   -0,106;   -0,773
1081,665;  116,980;    3,803;   -0,955
1082,206;  277,162;    3,258;   -0,500
1082,748;  207,071;    3,258;    2,045
1083,289;  137,798;    0,167;    1,318
1083,831;  125,889;    0,258;    0,227
1084,372;  164,253;    0,894;    0,591
1084,913;  153,434;    3,348;    0,864
1085,455;  118,889;    1,530;   -2,045
1085,996;  112,525;    0,530;    0,136
1086,537;  134,343;    0,985;    0,864
1087,078;  151,253;    0,439;   -2,136
1087,619;  193,798;   -1,652;    0,227
1088,160;  158,980;    1,439;    1,318
1088,701;  147,343;   -0,742;    0,682
1089,242;  131,343;   -0,561;   -2,227
1089,783;  170,343;   -0,561;    1,409
1090,324;  150,980;   -0,833;    0,682
1090,865;  111,798;   -1,924;   -0,409
1091,405;   95,343;   -0,561;    2,227
1091,946;  128,343;   -0,197;   -0,955
1092,487;   84,343;   -1,288;   -1,409
1093,027;  179,980;    1,803;   -1,500
1093,568;  115,525;    2,258;    1,227
1094,108;  141,707;    0,621;    1,773
1094,649;  123,071;   -0,470;    0,136
1095,189;  103,889;    1,167;   -0,682
1095,729;   93,889;    0,712;    0,955
1096,269;   86,889;    1,258;   -0,955
1096,810;  211,525;   -0,197;    0,500
1097,350;  162,343;   -0,561;   -0,773
1097,890;  122,434;    2,985;    1,227
1098,430;  260,071;    4,985;    2,864
1098,970;  201,616;    1,894;    1,682
1099,510;  113,162;   -0,833;   -2,318
1100,050;   97,980;    0,258;   -1,591
1100,589;  106,343;    0,076;   -0,318
1101,129;  140,980;    0,894;   -0,955
1101,669;  207,707;    2,803;    2,136
1102,209;  146,980;    1,530;    2,227
1102,748;  117,980;    3,439;    0,955
1103,288;  127,253;    0,712;   -1,227
1103,827;  118,889;    3,530;   -2,227
1104,367;   88,434;    1,712;   -2,409
1104,906;   87,798;   -1,015;   -1,136
1105,445;  123,798;    0,985;   -1,136
1105,985;   98,980;   -0,652;    1,500
1106,524;  111,434;    1,530;   -0,682
1107,063;  104,162;    1,167;    1,409
1107,602;   85,434;    1,894;   -1,500
1108,141;   72,253;    1,621;    1,500
1108,680;  120,343;    3,985;   -0,591
1109,219;  101,798;    0,167;   -0,500
1109,758;   92,253;    4,167;    0,682
1110,297;   90,616;   -1,106;   -0,682
1110,836;   69,434;    1,439;    0,955
1111,375;   89,707;    0,348;    0,409
1111,913;  125,525;    0,985;    0,773
1112,452;  103,707;    0,894;    0,136
1112,991;   67,434;    1,076;    1,955
1113,529;   64,889;    0,167;   -0,045
1114,068;   86,162;    0,439;    2,955
1114,606;   61,071;   -0,561;   -0,955
1115,144;  113,798;    1,530;    1,045
1115,683;   91,253;    1,985;    0,318
1116,221;  116,525;    2,076;   -0,864
1116,759;   74,525;    1,621;   -0,864
1117,297;  136,525;    1,621;    1,864
1117,836;   77,707;    1,985;   -1,227
1118,374;   79,980;    0,258;   -0,682
1118,912;   85,162;    0,439;    2,682
1119,450;   76,434;    0,985;    0,864
1119,988;   77,162;    3,348;    2,136
1120,525;  306,253;    7,258;    3,318
1121,063;  155,525;    0,530;    1,864
1121,601;   81,616;    1,076;   -1,227
1122,139;   63,071;    1,076;   -2,045
1122,676;  138,071;   -1,652;    2,773
1123,214;  121,343;    0,712;    4,409
1123,751;   58,525;    0,621;    2,227
1124,289;   86,707;    0,894;   -0,409
1124,826;   63,707;   -0,379;    0,227
1125,364;   30,707;    0,712;   -0,955
1125,901;  119,707;    6,258;    1,227
1126,438;  120,071;    3,530;    0,955
1126,975;   34,525;    2,985;   -0,773
1127,513;   55,798;    2,621;    2,136
1128,050;   40,525;   -0,561;   -0,682
1128,587;   63,343;    1,348;   -0,227
1129,124;   81,616;   -0,015;    1,318
1129,661;   46,343;   -1,924;    0,227
1130,198;  104,798;    2,439;    0,773
1130,734;   69,798;   -0,379;    1,409
1131,271;   35,889;   -1,197;    0,864
1131,808;   88,707;    1,621;    3,045
1132,345;   55,434;    4,530;    0,318
1132,881;   21,798;   -0,561;   -1,864
1133,418;   60,798;    0,348;   -1,136
1133,954;   44,253;    0,712;   -2,682
1134,491;   63,525;    1,712;   -0,773
1135,027;   39,980;    2,167;    0,864
1135,564;   60,798;    1,439;    2,955
1136,100;   54,434;   -0,742;    2,136
1136,636;   30,434;   -1,015;   -1,045
1137,172;   47,616;    0,894;   -1,045
1137,708;   34,434;   -1,561;   -1,045
1138,245;   30,071;    0,803;   -1,227
1138,781;   26,707;    1,803;   -3,318
1139,317;   41,434;    1,894;   -1,409
1139,852;   43,434;    3,076;    0,136
1140,388;   63,980;    2,076;   -0,409
1140,924;   36,434;    1,076;   -2,227
1141,460;   25,253;   -0,288;    0,136
1141,996;   16,980;   -0,652;    2,682
1142,531;   25,616;    1,076;    3,318
1143,067;   82,707;    1,167;    1,045
1143,602;  104,707;    3,439;   -0,318
1144,138;   51,162;    0,803;    1,045
1144,673;   24,616;    1,621;    1,409
1145,209;   30,798;    2,894;   -0,318
1145,744;   17,798;    0,803;    0,864
1146,279;   49,707;    1,530;   -0,136
1146,815;   31,253;    1,530;   -2,682
1147,350;   41,798;   -0,924;    0,045
1147,885;   20,889;   -1,924;   -1,318
1148,420;   20,162;    2,439;    0,773
1148,955;   17,162;   -1,470;    1,864
1149,490;   22,525;   -1,106;   -1,591
1150,025;   14,707;   -1,106;   -1,773
1150,560;   44,525;   -0,288;   -0,955
1151,094;   37,434;    0,258;   -0,591
1151,629;   37,434;   -3,742;    0,864
1152,164;   22,616;   -1,288;    1,318
1152,698;   17,253;    1,258;   -0,136
1153,233;    6,525;   -1,379;   -0,682
1153,767;   17,434;   -0,288;   -2,318
1154,302;   24,798;   -0,379;    1,773
1154,836;   24,798;    0,803;   -2,136
1155,371;   32,071;    2,258;    3,682
1155,905;   21,525;    1,985;    1,682
1156,439;   23,434;    0,530;   -0,500
1156,973;   28,798;    0,439;    0,318
1157,507;   15,980;   -1,742;    0,682
1158,042;   22,343;   -0,652;    1,045
1158,576;   26,980;   -0,561;    1,773
1159,110;   27,071;    0,076;    2,409
1159,643;   20,434;   -2,470;   -0,045
1160,177;   11,707;   -2,015;    1,500

