
Integration time [ms]:   0,050
Averaging Nr. [scans]: 11
Smoothing Nr. [pixels]: 0
Data measured with spectrometer [name]: 7318044SP
Wave   ;Sample   ;Dark     ;Reference
[nm]   ;[counts] ;[counts] ;[counts] 

186,757;    5,755;   38,161;    1,318
187,357;   16,990;   26,706;    0,955
187,958;    7,214;   17,252;   -1,591
188,558;   22,277;   12,979;   -1,227
189,159;   12,479;   10,070;   -4,500
189,759;    2,191;    5,797;   -3,591
190,360;    3,414;    6,797;   -2,136
190,960;   15,162;    5,706;   -4,136
191,560;   20,752;    2,614;   -6,591
192,161;  124,199;    5,885;   -3,500
192,761;   69,418;    5,520;   -3,227
193,361;   41,201;    3,065;   -3,773
193,962;   57,213;    1,612;   -2,682
194,562;   21,925;   -0,114;   -3,955
195,162;   13,949;   -0,567;   -2,227
195,762;   64,094;    2,433;   -0,045
196,362;   42,416;    1,706;   -2,500
196,963;    9,163;    1,706;   -0,864
197,563;   31,379;    1,252;   -0,955
198,163;   12,154;   -0,111;   -0,682
198,763;   15,869;   -0,020;   -0,500
199,363;   32,719;    3,616;   -0,500
199,963;   19,455;    2,162;    0,409
200,563;   19,337;    6,344;   -1,409
201,163;    8,073;    5,435;   -0,227
201,763;   18,742;    1,435;    0,318
202,363;   11,661;    0,980;    1,500
202,963;   18,855;    1,526;    1,045
203,563;   42,185;    0,344;    0,500
204,162;   16,868;    1,889;   -1,864
204,762;   13,460;    2,071;    0,591
205,362;    6,895;    0,708;    1,955
205,962;   14,698;    3,435;    1,955
206,562;   13,794;    1,889;    2,318
207,161;    8,584;    1,708;    0,318
207,761;   41,525;    4,435;    2,409
208,361;   17,074;    1,889;    1,409
208,960;   24,925;    2,889;    1,500
209,560;   14,677;    0,435;    1,591
210,160;   23,150;    5,071;    1,864
210,759;   17,765;    0,708;    1,227
211,359;    6,488;   -0,474;    1,045
211,958;   51,276;    3,526;    2,045
212,558;   50,388;    0,799;    1,864
213,157;   23,994;   -0,929;    1,500
213,757;   82,194;    5,617;   -0,227
214,356;   30,830;    1,708;   -0,409
214,956;   70,306;    3,526;    0,409
215,555;   25,707;    0,617;    2,136
216,154;   10,529;   -0,292;   -0,591
216,754;   11,778;    1,253;    0,773
217,353;   15,712;   -0,383;   -1,045
217,952;    1,311;    2,072;    0,318
218,552;   21,959;    0,254;   -0,773
219,151;   10,375;   -1,110;    0,955
219,750;    5,695;    0,890;   -0,227
220,349;    1,377;   -2,292;    1,045
220,948;   27,722;    1,163;    1,136
221,548;   10,344;    0,617;    1,227
222,147;   10,562;   -1,292;   -0,409
222,746;   34,051;    1,254;   -0,955
223,345;   16,836;   -1,019;    0,500
223,944;   16,702;    1,163;    0,773
224,543;   19,096;    4,072;   -1,409
225,142;   10,610;    1,345;    0,136
225,741;   14,870;    1,163;    1,045
226,340;    9,023;    1,254;   -0,955
226,939;   25,721;    2,708;   -0,136
227,538;    6,112;    1,163;   -0,773
228,137;   32,533;    0,435;    0,864
228,735;   25,885;    0,435;    1,227
229,334;    4,134;   -0,474;   -0,227
229,933;   34,165;    0,799;    0,591
230,532;   27,298;   -1,201;   -0,409
231,131;   42,663;    1,253;    0,318
231,729;   21,016;    1,163;   -2,318
232,328;   12,250;    0,435;   -1,500
232,927;   15,862;    4,526;   -0,500
233,525;   10,719;    0,981;    0,045
234,124;   15,931;    1,890;   -1,591
234,723;    6,206;    1,617;   -1,045
235,321;    3,661;    1,163;    0,136
235,920;    7,391;    2,526;   -1,227
236,518;   29,301;    1,072;    0,318
237,117;   13,806;    2,890;   -0,227
237,715;   15,869;    1,163;   -0,500
238,314;   15,424;    1,708;   -2,318
238,912;   34,337;    0,526;   -1,409
239,510;   26,018;    1,162;   -1,227
240,109;   40,046;   -0,474;    3,773
240,707;   31,009;   -0,474;    1,227
241,305;    6,549;   -0,383;    0,136
241,904;   13,913;   -0,292;   -2,045
242,502;   45,493;    3,253;   -0,227
243,100;   23,573;    3,344;   -0,955
243,698;    8,454;    2,799;    1,682
244,297;   13,055;   -0,656;    0,682
244,895;    9,365;   -0,474;   -2,318
245,493;   36,114;    2,981;   -0,591
246,091;   42,518;    5,163;   -1,318
246,689;   17,870;    2,163;    0,591
247,287;   18,309;   -0,019;   -1,136
247,885;   12,905;   -1,019;    1,227
248,483;    5,566;   -0,201;   -0,500
249,081;   18,395;    0,981;    1,591
249,679;   23,898;   -1,019;    1,682
250,277;   11,369;   -2,292;    0,864
250,875;   19,858;    0,617;   -1,045
251,473;    9,640;   -0,019;    0,500
252,071;   26,293;   -0,383;    1,045
252,669;   12,156;   -1,565;    0,318
253,267;    6,552;    1,618;    0,773
253,864;    9,854;    0,617;    0,682
254,462;   21,052;    1,526;    1,591
255,060;    6,539;    0,072;    1,318
255,658;    9,520;   -3,292;   -0,136
256,255;   11,661;   -0,201;   -2,045
256,853;   19,723;    2,345;    1,409
257,451;    6,272;    1,981;    1,864
258,048;   76,850;    2,072;    1,864
258,646;   35,313;    0,436;   -1,045
259,243;   42,633;    2,981;    2,227
259,841;   27,255;    1,799;    0,318
260,438;   10,186;    0,254;    0,864
261,036;   19,707;    0,617;    1,409
261,633;   11,907;    1,526;    2,227
262,231;    8,580;   -0,110;   -0,045
262,828;    1,534;   -0,383;    1,136
263,425;    6,918;   -1,928;   -0,591
264,023;   10,448;    1,436;    0,045
264,620;   21,654;    1,526;   -0,318
265,217;   37,168;    2,890;    3,136
265,815;   11,099;    2,527;    2,136
266,412;   18,464;    0,072;    0,136
267,009;   11,533;    0,526;    0,773
267,606;   27,041;    0,345;   -0,955
268,203;   12,030;   -0,383;   -0,591
268,801;   11,421;   -0,474;    0,591
269,398;    6,853;   -0,564;    2,500
269,995;   19,262;    0,890;    1,591
270,592;   15,229;    0,799;   -0,500
271,189;    3,857;    1,981;    0,409
271,786;    2,297;    2,072;    1,227
272,383;   18,457;   -0,383;    0,227
272,980;   10,189;    1,617;    0,318
273,577;    8,635;    2,162;    1,227
274,174;    7,321;    1,435;    2,591
274,771;   16,793;    1,890;   -0,773
275,367;   83,805;    3,253;    1,409
275,964;   36,316;   -0,565;   -0,500
276,561;   12,191;   -2,474;   -1,045
277,158;    8,444;    1,799;   -1,773
277,755;   30,577;   -0,110;    0,409
278,351;   19,574;    0,436;   -1,500
278,948;   22,562;   -0,201;    0,045
279,545;   17,153;    0,527;    2,318
280,141;   27,317;    1,254;   -2,045
280,738;   31,315;    2,435;   -0,136
281,334;   15,944;   -0,383;    0,591
281,931;    3,961;    2,890;   -1,318
282,528;   19,179;    4,072;   -0,500
283,124;   26,870;    3,345;   -0,500
283,721;   18,096;    0,709;    1,409
284,317;    9,435;    0,163;    2,500
284,913;   29,025;   -0,110;    0,591
285,510;   34,115;    2,890;   -0,318
286,106;   28,142;    2,345;   -0,955
286,703;   15,250;    0,072;    1,955
287,299;    7,619;    1,254;   -0,591
287,895;    7,567;    0,890;   -1,045
288,491;    5,490;    0,163;    2,136
289,088;   17,227;    0,163;    2,409
289,684;   14,702;    2,890;    1,500
290,280;   32,373;    1,890;    0,682
290,876;   25,456;    0,163;    5,500
291,472;   21,629;    2,163;    2,227
292,068;   28,529;    1,254;    0,227
292,665;   16,346;   -0,564;    0,773
293,261;    6,062;   -1,292;    2,136
293,857;   19,895;    4,072;    2,136
294,453;   15,335;   -0,928;    0,955
295,049;   41,157;    0,253;    1,955
295,644;   17,934;   -1,292;    0,136
296,240;    7,550;    0,162;   -0,136
296,836;   18,658;   -0,747;    0,318
297,432;   29,816;    2,980;   -0,500
298,028;   26,551;    0,435;    0,773
298,624;   24,329;    0,889;    1,864
299,220;   22,220;    0,435;    0,591
299,815;   20,459;    0,526;   -0,409
300,411;   34,339;    0,435;    1,773
301,007;   39,243;    1,889;    0,227
301,602;   18,314;    2,071;   -2,318
302,198;   49,036;    1,435;   -0,773
302,794;   30,182;    1,526;   -0,500
303,389;   17,035;    1,071;    1,045
303,985;   26,248;    1,253;    1,409
304,580;   62,806;    0,889;    1,591
305,176;   34,972;    0,344;    0,136
305,771;    4,989;   -0,929;   -1,227
306,367;  105,522;    3,071;    0,136
306,962;   56,768;    2,889;    1,500
307,558;   64,760;    2,435;    0,136
308,153;   43,983;   -0,383;   -1,136
308,748;   22,000;    0,162;    1,682
309,344;   88,616;    0,253;   -1,318
309,939;   81,334;    2,071;   -1,318
310,534;   28,020;   -2,020;   -1,682
311,130;   26,565;   -0,656;   -2,500
311,725;   19,931;    0,526;   -0,500
312,320;   26,515;    1,253;    0,045
312,915;   43,214;    2,890;   -1,045
313,510;   81,310;    0,526;   -0,500
314,105;   35,108;   -3,565;    1,409
314,700;   13,019;   -1,656;   -1,045
315,295;   20,079;   -0,020;    0,045
315,890;   14,199;   -0,292;    0,864
316,485;   27,318;    0,253;   -0,318
317,080;   16,700;   -0,929;    1,591
317,675;   67,254;    3,071;   -0,682
318,270;  132,730;    6,889;    3,318
318,865;   81,446;    2,435;    3,045
319,460;   48,764;   -1,565;    0,591
320,055;   21,156;   -2,565;   -1,227
320,650;   15,639;   -1,838;   -0,591
321,244;   14,486;    0,889;   -1,409
321,839;   14,327;    0,980;   -0,227
322,434;   18,515;   -0,111;   -1,591
323,029;   11,974;   -0,474;    1,591
323,623;   12,273;    0,798;    0,773
324,218;   50,893;    2,707;    1,409
324,812;   33,193;    0,889;    1,591
325,407;   28,764;   -0,929;    2,045
326,002;   63,238;    0,526;   -0,409
326,596;   37,621;   -0,656;    1,318
327,191;   15,180;   -0,383;   -1,045
327,785;   18,712;   -0,747;   -0,227
328,379;   14,366;   -0,383;    0,136
328,974;   17,824;    1,798;   -3,955
329,568;   28,572;    2,889;   -2,409
330,163;   46,001;    2,435;    1,045
330,757;   20,804;    0,253;    1,591
331,351;   12,134;   -0,292;    0,682
331,945;   10,443;   -0,383;    1,409
332,540;   33,600;    1,617;   -0,591
333,134;   34,368;    3,344;    0,773
333,728;   42,687;    2,799;    0,318
334,322;   21,983;    0,889;   -0,864
334,916;   21,675;    0,344;    0,955
335,510;   62,751;   -0,111;   -0,136
336,105;   58,816;   -0,929;    1,591
336,699;   30,908;   -1,292;    0,591
337,293;   54,647;    1,071;    0,318
337,887;   44,155;    0,071;    1,955
338,481;   82,138;    2,980;    0,591
339,074;  126,936;    2,071;    2,682
339,668;  126,510;   -0,110;    1,227
340,262;  416,566;    7,708;    3,227
340,856;  213,787;    1,708;   -0,682
341,450;   85,888;    0,708;    1,864
342,044;  120,920;    1,799;    0,136
342,637;  185,773;    1,162;   -2,136
343,231;  150,280;   -1,474;    0,682
343,825;  136,533;   -0,747;   -0,591
344,419;  143,149;   -0,474;    0,500
345,012;  504,503;    2,889;    4,045
345,606;  362,611;   -0,656;    1,591
346,199;  184,827;   -0,111;   -0,227
346,793;  273,674;    2,525;    2,045
347,386;  163,541;    0,889;   -1,136
347,980;  115,538;   -0,838;   -0,045
348,573;  183,984;   -1,748;    0,409
349,167;  418,043;    6,161;    4,773
349,760;  311,889;    2,252;    2,682
350,354;  299,709;    1,616;    1,136
350,947;  336,503;    2,798;    1,682
351,540;  260,756;    0,616;   -1,409
352,134;  179,347;   -1,111;    1,136
352,727;  196,752;   -0,657;    1,136
353,320;  207,137;    2,343;    0,591
353,913;  162,392;   -1,929;    1,864
354,507;  324,905;    0,434;   -1,227
355,100;  234,199;    0,071;    0,864
355,693;  572,404;    4,798;    2,409
356,286;  369,426;    0,980;    2,773
356,879;  252,912;   -0,475;    1,227
357,472;  256,405;    0,980;    1,500
358,065;  287,488;    3,161;    2,500
358,658;  179,264;    0,798;    2,318
359,251;  159,560;    0,252;   -0,591
359,844;  295,998;    0,343;   -1,136
360,437;  352,127;    0,252;    0,045
361,030;  225,920;    0,525;   -0,682
361,623;  224,791;    0,434;    0,318
362,215;  404,093;    0,979;    2,045
362,808;  280,436;   -2,293;   -1,682
363,401;  216,694;    0,798;    0,136
363,994;  383,676;    3,252;   -1,500
364,586;  231,161;    0,888;   -1,500
365,179;  192,773;   -0,203;   -1,136
365,772;   86,379;   -0,930;    2,045
366,364;  191,621;    1,524;   -3,227
366,957;  231,540;    1,342;   -0,045
367,549;  187,495;   -0,203;   -0,864
368,142;  199,204;    0,978;   -1,500
368,734;  173,444;    2,523;   -2,136
369,327;  133,404;    2,341;   -0,500
369,919;  154,107;   -1,659;    0,409
370,512;  161,189;   -1,023;   -0,500
371,104;  359,547;    2,704;    1,591
371,696;  370,000;    1,703;   -0,955
372,289;  250,899;    0,157;    1,136
372,881;  203,579;    1,156;    1,318
373,473;  136,042;    4,064;    1,136
374,066;  189,470;    1,336;    0,500
374,658;  168,179;    0,879;    1,136
375,250;  131,016;   -1,668;   -1,409
375,842;  155,516;   -0,124;   -0,045
376,434;  124,526;   -2,762;   -0,409
377,026;  116,611;   -1,855;   -2,500
377,618;  158,737;    0,779;   -0,682
378,210;  116,564;    3,141;   -1,955
378,802;  119,981;    3,412;   -0,591
379,394;  386,914;    3,411;    0,682
379,986;  207,042;    1,138;   -0,955
380,578;  136,712;    1,410;    0,773
381,170;  310,755;    0,320;    0,045
381,762;  238,620;   -0,224;    1,409
382,354;  196,557;   -0,223;   -1,318
382,945;  147,170;    0,870;    0,318
383,537;  110,648;    1,144;   -1,955
384,129;  102,625;    0,963;   -1,136
384,721;  173,648;    0,418;    0,955
385,312;  139,288;   -1,399;   -0,955
385,904;  187,753;   -0,945;    1,591
386,496;  149,539;    0,691;    1,045
387,087;  251,010;    0,418;    2,500
387,679;  197,582;   -0,401;    0,045
388,270;  176,769;   -2,401;    2,045
388,862;  165,141;   -0,401;   -0,318
389,453;  161,024;    1,054;    1,045
390,045;  162,748;    3,236;   -2,682
390,636;   88,429;    0,144;   -0,591
391,227;  132,007;    2,054;   -0,045
391,819;  115,296;    0,781;    0,773
392,410;  298,390;    0,600;    0,045
393,001;  154,311;    1,600;   -1,591
393,593;  190,853;    0,600;   -0,045
394,184;  229,062;    0,873;   -0,409
394,775;  153,623;    1,146;    2,136
395,366;   97,200;    1,782;    0,773
395,957;  216,417;   -2,400;    0,136
396,548;  145,719;    1,054;    2,682
397,139;  227,254;    2,236;    0,591
397,730;  164,445;    0,873;    0,955
398,321;  172,452;    0,509;    0,955
398,912;  133,185;   -0,764;    0,136
399,503;  135,166;   -1,945;   -1,409
400,094;  163,356;   -1,582;    1,682
400,685;  149,591;    3,600;    0,045
401,276;  127,861;   -0,400;   -0,955
401,867;  115,810;   -1,127;    0,773
402,458;   86,743;    1,509;   -2,318
403,048;  177,164;    0,146;    0,591
403,639;  135,985;    1,509;    0,864
404,230;  213,100;    0,691;    0,318
404,821;  251,529;   -0,127;    0,045
405,411;  187,652;   -0,763;   -2,591
406,002;  121,010;    3,237;   -1,136
406,592;  282,846;    2,691;    0,045
407,183;  182,416;    0,328;   -1,500
407,774;  161,988;    1,419;   -0,136
408,364;  127,879;    2,600;    0,409
408,954;  199,549;   -0,036;    1,227
409,545;  193,969;    1,873;    1,045
410,135;  159,022;   -1,581;    0,500
410,726;  115,426;    0,783;    0,318
411,316;  239,458;    2,237;    0,773
411,906;  135,627;    0,146;   -0,409
412,497;  137,836;   -0,490;   -0,045
413,087;  105,413;    0,783;   -0,227
413,677;   57,521;   -2,490;    3,864
414,267;   52,470;   -1,035;    1,409
414,857;   41,268;    0,419;    4,227
415,448;   42,657;   -0,763;    0,500
416,038;   55,537;   -2,945;   -0,591
416,628;   65,395;    0,965;    0,409
417,218;   83,100;   -1,762;    3,318
417,808;  160,079;    0,965;   -0,409
418,398;   98,367;   -1,035;    2,682
418,988;   40,785;   -2,217;    0,591
419,578;   89,769;    3,601;    1,409
420,168;   50,014;    0,692;   -0,955
420,757;   99,751;    0,964;   -1,500
421,347;   41,495;    1,601;   -0,227
421,937;   27,737;    3,329;    1,409
422,527;   87,343;    2,602;   -0,773
423,116;  156,268;    2,692;   -0,045
423,706;   40,143;    2,965;    0,318
424,296;   15,938;    1,601;    0,682
424,885;   56,211;    1,510;   -3,045
425,475;   37,476;    1,147;   -2,864
426,065;   13,638;   -1,489;   -0,318
426,654;   10,124;    0,329;   -0,318
427,244;   97,527;    1,147;    1,409
427,833;   75,536;    1,056;   -0,500
428,423;   30,810;    0,147;    1,136
429,012;   27,670;    2,420;   -1,136
429,601;   67,291;    2,057;    0,136
430,191;   28,083;    2,511;    4,318
430,780;    4,284;   -1,671;   -0,409
431,369;   56,575;    1,329;   -0,045
431,959;   23,819;    1,693;    0,500
432,548;    8,404;   -1,398;   -0,045
433,137;   -7,729;    0,329;   -1,318
433,726;   10,439;    0,148;    0,500
434,315;   12,358;    0,148;    2,409
434,905;   49,645;    0,693;    1,409
435,494;   37,053;    3,148;    0,955
436,083;    7,402;    1,420;   -0,955
436,672;   41,633;    1,148;    0,500
437,261;   24,703;    0,512;   -1,955
437,850;   78,219;   -1,125;    0,682
438,439;  110,555;    2,239;    1,955
439,027;  160,739;    3,421;    1,773
439,616;  110,521;    2,239;    1,227
440,205;   31,024;    0,057;   -2,136
440,794;   24,307;   -0,306;   -0,045
441,383;   11,049;    1,603;   -0,591
441,971;    8,093;   -0,306;    0,591
442,560;   10,558;    0,603;   -1,773
443,149;   -9,427;    3,060;   -1,318
443,737;   -7,735;    0,968;   -2,318
444,326;    2,138;    0,331;    0,318
444,915;   11,902;   -1,851;    0,864
445,503;   19,865;    0,058;   -0,318
446,092;  129,231;    7,876;    2,136
446,680;   93,587;    1,876;    0,318
447,269;   38,234;   -1,487;   -0,318
447,857;   38,376;    2,240;   -1,773
448,445;   30,461;    2,149;    1,318
449,034;   11,668;    0,876;   -1,136
449,622;   15,498;    1,240;    3,500
450,210;   92,544;    3,149;    2,227
450,799;   59,262;    2,604;   -0,591
451,387;   54,541;    1,786;   -0,591
451,975;   52,503;   -1,305;    0,864
452,563;   73,199;    0,422;    2,318
453,151;   22,355;   -1,032;   -1,227
453,739;   21,465;   -1,577;    0,136
454,328;   53,673;    0,604;   -2,136
454,916;   41,136;    1,150;   -0,136
455,504;   52,783;    3,513;    1,227
456,092;   19,636;    2,150;   -1,591
456,679;    8,849;    0,604;    0,682
457,267;  169,445;    3,604;    1,045
457,855;   49,399;    3,241;    1,409
458,443;    1,042;   -0,304;    1,682
459,031;   30,868;    1,332;    2,409
459,619;   24,985;   -3,577;    2,864
460,206;    4,821;   -0,759;    2,045
460,794;    5,352;   -0,668;   -0,227
461,382;   16,523;    0,878;   -0,864
461,970;   17,788;    0,605;    1,864
462,557;    0,860;    0,878;   -0,682
463,145;   21,000;   -0,304;   -1,682
463,732;  110,646;    2,514;   -1,045
464,320;   36,111;    1,514;   -3,045
464,907;   70,911;    0,423;   -0,773
465,495;   36,921;    2,696;   -1,227
466,082;   22,443;    2,060;   -0,045
466,670;   31,581;    2,605;    1,227
467,257;    3,152;    0,060;    2,045
467,844;   25,351;    1,514;    0,045
468,432;   19,947;   -0,031;    3,500
469,019;   11,724;    1,606;   -1,773
469,606;   40,716;    0,969;    3,682
470,193;   45,131;    2,151;    0,227
470,780;   27,244;    0,333;    0,864
471,368;   15,003;   -1,212;   -0,773
471,955;   39,443;    1,060;   -0,682
472,542;   28,386;   -0,303;   -1,136
473,129;    2,964;   -0,485;    0,136
473,716;   -0,667;    0,060;    0,591
474,303;    6,084;    1,333;   -0,864
474,890;    7,908;    2,333;   -0,500
475,477;   41,782;   -0,576;    0,409
476,064;   16,938;    0,697;   -1,591
476,650;   63,999;    2,152;    0,318
477,237;   25,272;    1,879;    0,955
477,824;   19,800;    3,879;    0,864
478,411;    0,844;    0,606;   -0,318
478,997;   -6,524;    0,606;   -0,773
479,584;  -17,270;   -0,666;   -0,409
480,171;   27,227;    1,243;   -0,773
480,757;   38,182;   -0,848;    0,773
481,344;   13,701;    0,334;    0,409
481,931;   -7,451;   -0,393;    1,045
482,517;   20,153;    0,425;    0,318
483,104;   50,181;    1,334;    2,864
483,690;    9,034;    0,243;    0,045
484,276;    3,567;    0,698;    0,227
484,863;   77,415;    2,152;    1,136
485,449;   26,049;    0,152;    0,318
486,035;    6,645;   -0,666;   -0,136
486,622;   30,582;   -2,393;    0,045
487,208;   10,741;    1,334;    1,500
487,794;   -7,579;    0,971;    0,318
488,380;   -0,213;    0,698;   -1,409
488,967;   -6,123;   -1,120;   -0,409
489,553;   -4,760;   -1,029;   -1,409
490,139;   16,714;    0,971;    0,773
490,725;    1,682;    0,789;   -0,227
491,311;    9,892;    1,516;    3,045
491,897;    2,655;   -0,665;    1,500
492,483;    8,024;    0,426;    1,227
493,069;  173,970;    5,426;    0,864
493,655;   64,831;    1,789;    0,682
494,241;   16,406;    1,517;   -0,955
494,826;   14,138;    0,335;   -1,045
495,412;   30,778;    0,335;   -0,682
495,998;   10,645;    0,971;   -0,318
496,584;   23,588;    2,244;    1,045
497,169;   29,894;    2,335;   -0,682
497,755;   13,219;    1,244;    1,227
498,341;   47,519;    2,153;    0,318
498,926;  100,610;    2,881;    1,955
499,512;   16,898;   -0,028;    2,955
500,097;   10,411;   -0,574;   -0,318
500,683;   18,089;   -0,028;    2,136
501,268;    6,662;    1,881;   -0,955
501,854;   10,616;   -0,119;    1,227
502,439;   12,578;   -0,573;   -1,773
503,024;    7,978;    1,608;    0,500
503,610;   14,856;    1,335;   -0,682
504,195;    6,715;    1,245;    1,955
504,780;   38,072;    2,335;    1,227
505,366;   74,184;    4,063;    2,864
505,951;   40,957;   -1,119;    1,045
506,536;   17,254;    1,427;   -3,682
507,121;   33,846;    1,699;   -0,318
507,706;   23,335;   -0,392;    1,045
508,291;    2,786;   -2,937;    1,136
508,876;    1,158;   -0,482;    2,591
509,461;   10,550;    1,427;   -0,773
510,046;   30,871;   -0,391;    0,318
510,631;   34,400;   -0,119;   -0,773
511,216;    8,923;   -0,664;   -0,500
511,801;   31,831;   -0,755;    2,591
512,386;   33,944;    0,972;    0,500
512,971;   34,270;    0,427;    0,955
513,555;   49,317;    1,154;   -1,500
514,140;   39,766;    1,336;   -3,136
514,725;   98,226;    1,791;   -1,136
515,309;   62,429;    1,064;    0,318
515,894;   32,959;   -0,300;   -2,227
516,479;   54,984;    1,973;   -0,955
517,063;   69,698;    0,882;    1,227
517,648;   58,926;    0,155;   -1,136
518,232;   49,137;   -1,300;   -1,409
518,817;  136,065;    1,337;    1,682
519,401;  238,537;    0,700;    0,591
519,985;  245,626;    2,700;    1,136
520,570;  157,657;   -0,118;   -1,955
521,154;  271,271;    0,064;    0,591
521,738;  460,597;    1,064;    2,409
522,323;  343,474;   -0,390;    1,682
522,907;  378,376;    2,428;   -0,136
523,491;  339,230;    1,155;    0,955
524,075;  339,704;    0,428;    0,591
524,659;  594,055;    0,973;    0,591
525,243;  561,560;    0,883;    0,409
525,827;  542,711;    0,883;   -0,045
526,411;  602,237;    1,155;   -0,136
526,995;  793,168;    0,337;    1,409
527,579;  894,326;    1,974;   -1,045
528,163;  865,516;    0,428;   -1,500
528,747; 1072,730;    1,065;   -0,773
529,331; 1056,403;    0,883;   -1,409
529,915;  878,997;    2,338;    0,955
530,499; 1035,266;    0,247;    1,227
531,082; 1227,757;    1,065;    1,591
531,666; 1328,277;    0,520;    0,773
532,250; 1286,295;    0,428;    2,682
532,833; 1489,669;    0,610;    2,773
533,417; 1312,333;    1,247;    0,864
534,001; 1456,285;    0,429;   -0,318
534,584; 1444,170;    1,974;    0,500
535,168; 1288,329;    3,247;    1,409
535,751; 1726,020;    4,520;    0,045
536,334; 1378,397;    4,520;   -0,409
536,918; 1411,639;    1,974;    1,591
537,501; 1404,347;    1,520;    1,318
538,085; 1472,611;    1,702;    1,045
538,668; 1494,721;    0,883;    2,409
539,251; 1909,740;    3,156;    3,773
539,834; 1707,694;    0,156;    0,773
540,418; 1805,387;    3,247;    4,318
541,001; 1977,108;    2,702;    1,773
541,584; 1756,197;    1,429;    2,227
542,167; 1799,074;    0,702;    2,955
542,750; 1708,456;    0,793;   -0,773
543,333; 1475,472;    1,429;    2,136
543,916; 1842,038;   -0,298;    2,500
544,499; 1775,423;    2,520;    0,227
545,082; 1870,636;    0,248;    3,591
545,665; 1818,274;   -0,207;    1,500
546,248; 1975,563;    0,520;   -0,318
546,830; 1915,319;   -1,752;    1,955
547,413; 1989,856;    0,157;   -0,773
547,996; 2105,731;    0,157;    0,500
548,579; 1890,743;   -0,843;    0,955
549,161; 2116,956;    0,884;    2,682
549,744; 2017,513;    0,612;    0,409
550,326; 2021,809;    0,885;   -1,136
550,909; 2408,059;    2,339;    0,591
551,492; 2191,103;    0,521;    0,227
552,074; 2200,793;   -0,024;   -1,318
552,657; 2307,710;    2,430;    0,045
553,239; 2151,950;   -3,024;   -0,773
553,821; 2102,899;   -1,570;    1,045
554,404; 2207,058;   -0,024;    1,136
554,986; 2340,379;    2,248;    1,045
555,568; 2309,347;    0,430;   -0,955
556,151; 2428,730;    4,067;   -0,227
556,733; 2179,776;   -1,388;   -0,864
557,315; 2194,057;    4,703;    0,500
557,897; 1982,098;    0,521;   -0,500
558,479; 2031,216;    1,703;    1,318
559,061; 2161,656;    1,067;   -0,864
559,643; 2301,216;   -0,297;    0,045
560,225; 2339,287;   -0,388;    2,864
560,807; 2259,307;    0,340;    0,318
561,389; 2151,919;   -1,206;    2,318
561,971; 2211,089;   -0,660;    2,136
562,553; 2256,944;    0,613;    1,591
563,135; 2339,186;    1,249;    1,136
563,717; 2579,352;    3,158;    1,136
564,298; 2537,473;    3,976;   -0,045
564,880; 2252,878;    0,340;   -1,409
565,462; 2180,606;    1,977;    1,318
566,043; 2585,044;   -0,933;    2,318
566,625; 2611,487;    4,067;    1,227
567,207; 2409,332;    0,704;    1,682
567,788; 2500,027;   -0,114;    1,500
568,370; 2680,314;   -1,841;   -0,500
568,951; 2491,014;   -0,569;    0,227
569,533; 2734,386;    0,977;   -0,500
570,114; 2903,334;   -0,296;    0,682
570,695; 2927,061;   -0,478;   -1,318
571,277; 2888,019;   -0,205;   -1,682
571,858; 3154,452;    2,704;   -1,136
572,439; 3268,569;    0,795;   -1,045
573,021; 3210,645;    0,432;   -2,773
573,602; 3351,130;    1,795;    0,318
574,183; 3462,368;   -0,114;    2,227
574,764; 3482,420;    2,068;    0,409
575,345; 3556,548;    0,250;   -0,136
575,926; 3607,439;    2,704;    0,136
576,507; 3698,845;    2,704;   -0,227
577,088; 3888,932;    1,704;    1,682
577,669; 3982,877;    1,704;    1,955
578,250; 4225,732;   -0,750;   -1,045
578,831; 4117,760;   -0,841;   -2,227
579,412; 3990,169;   -1,205;    0,955
579,993; 4403,018;    1,432;    0,227
580,573; 4439,943;   -0,023;   -0,955
581,154; 3989,074;    1,613;   -0,591
581,735; 4283,134;    0,341;    0,773
582,315; 4044,316;    0,523;    2,136
582,896; 4304,147;   -1,750;    1,227
583,477; 4121,972;    0,614;    1,227
584,057; 4197,287;    1,159;    0,955
584,638; 4266,655;   -2,750;    2,318
585,218; 4436,900;    2,886;    2,682
585,799; 4386,538;    1,977;   -0,227
586,379; 4345,478;    1,250;    1,591
586,959; 4096,012;    2,613;    0,318
587,540; 3927,895;    0,432;    2,227
588,120; 3808,862;   -1,113;   -0,045
588,700; 3608,961;    2,977;    2,136
589,281; 3898,026;    1,250;   -0,955
589,861; 3765,554;   -0,296;   -1,682
590,441; 3694,231;   -1,477;   -2,682
591,021; 3390,643;    1,432;   -2,591
591,601; 3567,673;    0,431;    0,500
592,181; 3691,085;   -1,296;   -0,773
592,761; 3343,770;    2,250;    1,409
593,341; 3467,269;    1,522;    0,045
593,921; 3429,383;   -0,569;    1,591
594,501; 3323,652;    1,250;    1,318
595,081; 3286,636;    0,522;   -0,318
595,661; 3533,124;    1,068;    0,955
596,240; 3654,313;   -1,023;    0,136
596,820; 3626,459;    2,613;    1,955
597,400; 3414,548;    1,977;    0,773
597,980; 3505,224;   -0,750;    1,045
598,559; 3513,058;    0,341;   -0,227
599,139; 3470,492;   -0,750;   -1,227
599,718; 3431,583;    0,795;   -0,409
600,298; 3543,335;   -2,387;    0,682
600,877; 3825,077;    4,795;    1,409
601,457; 3825,769;    0,340;    1,136
602,036; 3690,389;    1,795;    2,045
602,616; 3628,667;    2,250;    1,682
603,195; 3774,393;    0,431;    3,500
603,774; 3627,096;   -0,296;    2,045
604,354; 3575,115;    2,522;   -0,500
604,933; 3454,183;    0,250;    1,864
605,512; 3652,055;    2,340;    0,591
606,091; 3672,490;    1,886;    3,773
606,671; 3779,958;    0,249;    0,773
607,250; 3666,891;    1,431;    3,136
607,829; 3734,623;    1,158;    3,227
608,408; 3639,281;    4,613;    2,591
608,987; 3477,102;    2,704;    3,409
609,566; 3390,681;    0,341;   -2,500
610,145; 3488,417;    2,885;    0,682
610,723; 3690,650;    1,613;    6,864
611,302; 3374,452;    1,067;    1,682
611,881; 3380,363;    5,158;   11,227
612,460; 3411,121;    0,795;    3,955
613,039; 3562,710;    1,703;    2,045
613,617; 3176,582;    0,886;    4,773
614,196; 3209,943;    1,613;    1,227
614,775; 3379,683;    1,249;    2,409
615,353; 3373,824;   -1,660;    0,864
615,932; 3296,582;    0,249;    2,409
616,510; 3508,581;    0,158;    0,591
617,089; 3743,977;    8,794;   17,591
617,667; 3493,139;    4,885;    6,136
618,246; 3136,822;   -1,115;    1,318
618,824; 3286,228;    1,612;   -0,955
619,402; 3169,967;    0,431;   -1,773
619,981; 3382,270;    1,067;   -1,045
620,559; 3415,707;    0,794;    1,682
621,137; 3379,409;    3,067;    1,864
621,715; 3022,642;    3,703;   -0,682
622,293; 3074,848;    1,885;   -0,773
622,871; 3421,421;    0,340;    0,500
623,450; 3220,517;    0,430;   -0,864
624,028; 3288,517;   -0,388;   -0,955
624,606; 3165,484;    2,339;    1,682
625,183; 3150,590;   -0,661;   -1,136
625,761; 3115,669;    1,885;    1,136
626,339; 3481,266;    2,339;    2,591
626,917; 3320,607;    0,339;   -0,045
627,495; 3345,827;    2,794;    1,318
628,073; 3231,384;    5,248;    2,864
628,650; 3143,932;    3,067;    2,136
629,228; 3286,747;    1,248;    4,409
629,806; 2967,955;   -0,024;    1,136
630,383; 3085,299;    0,066;   -0,318
630,961; 3061,777;   -2,206;   -0,955
631,539; 2950,726;   -2,479;    0,227
632,116; 3472,505;   12,703;   15,409
632,694; 3254,140;    4,885;    6,500
633,271; 3066,953;    1,975;    2,682
633,848; 3167,935;    1,430;    2,045
634,426; 3071,742;    1,521;    1,773
635,003; 2874,410;   -0,207;   -0,409
635,580; 3115,000;    1,884;    3,682
636,158; 3041,777;    3,793;    1,227
636,735; 2946,048;    3,339;   -0,500
637,312; 2950,898;    0,521;   -0,682
637,889; 2993,135;    2,248;   -0,682
638,466; 2947,566;    0,066;   -0,409
639,043; 2899,142;    1,702;   -1,136
639,620; 2933,854;    0,611;   -0,955
640,197; 3105,786;    1,612;    1,682
640,774; 3174,906;    1,430;    1,136
641,351; 3238,844;    0,612;    1,136
641,928; 3168,237;    2,794;    1,409
642,505; 3223,266;    0,794;   -0,500
643,082; 3190,659;    1,885;    1,227
643,658; 2789,233;    1,157;    1,500
644,235; 2953,990;   -2,479;    2,500
644,812; 3062,201;    1,794;    0,773
645,388; 3011,593;    1,612;    1,409
645,965; 2859,895;    1,521;    1,682
646,542; 2903,833;    3,430;   -0,227
647,118; 3292,499;    3,703;   -0,955
647,695; 3176,619;    0,339;    1,136
648,271; 3030,830;   -2,115;    0,500
648,848; 3113,041;    0,248;    2,227
649,424; 3183,251;    0,976;    1,318
650,000; 2876,826;   -0,388;   -1,045
650,577; 2985,764;    0,158;   -0,955
651,153; 3133,884;   -1,115;    0,955
651,729; 3185,004;    0,521;    0,864
652,305; 3337,215;    1,339;    2,773
652,881; 3929,790;   -1,297;    1,136
653,458; 5016,455;    0,249;    0,227
654,034; 5695,211;    0,703;    1,591
654,610; 5825,149;    0,339;    0,773
655,186; 6284,088;    1,612;    3,045
655,762; 6048,299;   -1,842;    0,409
656,338; 6038,419;    0,703;    0,136
656,913; 6437,993;   -0,297;    0,409
657,489; 6126,204;    0,249;   -0,318
658,065; 6256,597;    0,794;   -1,591
658,641; 6602,171;    2,158;   -0,864
659,217; 6290,473;    2,067;    0,409
659,792; 5959,684;   -1,751;   -0,409
660,368; 6172,349;   -0,388;   -0,682
660,944; 6438,469;    1,794;    1,227
661,519; 5625,044;    0,522;    0,409
662,095; 4513,982;   -0,206;    0,591
662,670; 3600,557;   -0,206;   -0,136
663,246; 3504,949;   -0,660;   -0,409
663,821; 3423,160;    0,431;    1,682
664,396; 3123,553;    0,613;    1,864
664,972; 3202,037;   -0,660;   -0,500
665,547; 3370,157;    3,794;    0,136
666,122; 3289,458;    1,340;    0,318
666,698; 3425,669;    2,431;    0,318
667,273; 3046,426;    0,885;    0,136
667,848; 3304,455;    0,340;    1,500
668,423; 3299,484;    1,795;    2,318
668,998; 3322,876;    0,976;   -0,682
669,573; 3445,542;    2,067;   -1,500
670,148; 3520,207;    1,885;   -0,682
670,723; 3239,782;   -0,024;    0,318
671,298; 3614,084;   -1,296;    1,045
671,873; 3495,022;   -0,296;   -0,136
672,448; 3482,687;    1,704;    0,136
673,023; 3524,716;    0,249;   -0,227
673,597; 3704,655;    2,704;    2,318
674,172; 3639,047;    2,431;    0,318
674,747; 3480,895;   -0,205;   -1,045
675,321; 3332,560;   -0,933;    3,318
675,896; 3163,589;    2,158;    1,045
676,471; 3450,800;    2,522;    1,591
677,045; 3326,011;   -0,296;    0,682
677,620; 3314,313;    2,158;    1,136
678,194; 3438,524;    0,249;    1,136
678,769; 3377,280;    0,886;   -0,318
679,343; 3458,400;   -0,023;    1,773
679,917; 3464,247;    0,340;    1,955
680,492; 3354,822;    0,249;    3,227
681,066; 3420,851;    0,613;    0,409
681,640; 3433,153;    1,795;   -0,318
682,214; 3622,727;    2,340;    0,500
682,788; 3482,847;    0,613;   -0,773
683,363; 3451,331;    1,977;    1,682
683,937; 3293,723;    0,886;   -0,318
684,511; 3600,389;   -1,023;   -0,591
685,085; 3533,872;   -1,478;    0,318
685,659; 3382,992;    1,431;    0,864
686,232; 3557,022;    1,159;   -0,318
686,806; 3474,323;    2,159;    0,409
687,380; 3643,443;   -1,932;    0,591
687,954; 3711,654;    2,432;    1,136
688,528; 3688,229;    2,613;    1,955
689,101; 3895,531;    0,432;    1,045
689,675; 3605,196;    0,886;   -0,136
690,249; 3549,589;    3,432;    0,409
690,822; 3667,072;    1,159;    0,318
691,396; 3578,920;    2,068;    1,227
691,969; 3417,403;    2,523;    0,136
692,543; 3601,887;   -0,568;   -1,955
693,116; 3397,370;   -0,659;   -1,409
693,690; 3423,490;   -0,296;    0,500
694,263; 3611,974;    2,341;    2,955
694,836; 3777,367;    2,795;    3,591
695,410; 3369,396;    1,159;    1,773
695,983; 3467,789;    1,614;    0,591
696,556; 3395,818;   -0,750;   -1,045
697,129; 3520,392;   -1,114;    1,409
697,703; 3389,694;    1,341;    1,955
698,276; 3455,269;    1,705;   -0,773
698,849; 3417,298;   -1,023;    1,409
699,422; 3400,418;    1,250;    0,591
699,995; 3281,538;   -0,659;    0,136
700,568; 3499,476;   -0,204;    3,045
701,140; 3482,687;   -1,841;    1,682
701,713; 3549,534;    0,341;    2,409
702,286; 3449,290;    0,796;    0,864
702,859; 3382,047;    0,614;   -0,591
703,432; 3242,348;   -0,841;    0,682
704,004; 3311,559;    1,978;    0,318
704,577; 3143,588;    1,068;    0,136
705,150; 3292,708;    0,887;    2,500
705,722; 3369,828;    1,523;   -3,227
706,295; 3355,585;    1,432;   -0,591
706,867; 3149,796;    0,250;    1,955
707,440; 3399,097;   -0,113;   -0,409
708,012; 3479,581;   -0,022;    0,591
708,584; 3328,701;    2,705;    0,227
709,157; 3420,730;    1,160;   -0,591
709,729; 3457,577;    1,069;    2,045
710,301; 3707,425;   -1,204;    0,045
710,874; 3658,272;    0,341;   -0,227
711,446; 3185,210;   -0,295;    0,864
712,018; 3283,694;   -3,022;    0,500
712,590; 3148,450;   -0,204;    1,682
713,162; 3437,388;   -0,477;    1,318
713,734; 3401,054;    1,796;   -2,045
714,306; 3403,265;    0,342;   -0,409
714,878; 3087,385;   -0,295;    0,864
715,450; 3333,959;   -0,113;    0,864
716,022; 3393,806;    2,433;    1,318
716,593; 3440,563;    0,978;    0,591
717,165; 3473,955;    1,796;   -1,227
717,737; 3520,348;    0,796;    0,409
718,309; 3380,468;    1,160;   -0,045
718,880; 3300,770;   -1,295;   -1,409
719,452; 3429,526;    0,887;   -1,591
720,024; 3342,010;    1,705;   -0,591
720,595; 3434,039;    2,978;    0,955
721,167; 3281,250;    1,160;   -2,045
721,738; 3185,643;    2,069;   -1,045
722,309; 3178,581;    1,251;   -1,227
722,881; 3067,883;    2,705;    0,773
723,452; 3329,457;    1,251;    2,864
724,023; 3412,941;    1,524;    2,682
724,595; 3380,424;    2,342;    0,682
725,166; 3197,544;    1,524;   -0,409
725,737; 3272,392;    1,887;    0,227
726,308; 3252,966;    0,797;    0,318
726,879; 3201,450;    1,069;    1,227
727,450; 3279,297;   -2,022;   -0,045
728,021; 3182,235;    1,069;    0,682
728,592; 3288,082;    1,160;    0,500
729,163; 3452,202;    1,433;   -0,136
729,734; 3420,686;    2,160;   -0,227
730,305; 3369,442;    0,615;    0,136
730,876; 3382,835;    0,888;    2,955
731,447; 3618,864;    0,797;    2,682
732,017; 3531,075;   -0,840;    1,864
732,588; 3404,013;   -0,021;    1,227
733,159; 3511,679;    3,615;   -1,045
733,729; 3293,162;    1,251;    0,409
734,300; 3236,737;    0,160;    0,864
734,870; 3270,039;   -1,385;    0,591
735,441; 3356,795;    0,888;   -0,591
736,011; 3207,460;    1,070;   -1,591
736,582; 3217,308;    1,251;    0,045
737,152; 3052,882;    0,979;   -2,045
737,722; 3229,093;    1,070;   -0,682
738,293; 3104,486;   -2,021;    1,318
738,863; 3235,515;    1,797;    2,318
739,433; 3395,180;    4,524;    0,318
740,003; 3434,028;    1,524;   -0,682
740,573; 3350,239;    2,252;   -1,591
741,143; 3338,359;    3,615;    0,318
741,713; 3407,206;    0,252;   -0,500
742,283; 3323,417;    1,706;    1,591
742,853; 3225,537;    0,524;    1,591
743,423; 3070,657;    0,161;    0,045
743,993; 3127,413;    1,070;    1,500
744,563; 2917,806;    2,524;   -0,864
745,133; 2952,471;   -0,112;   -0,864
745,702; 3179,228;    2,797;    1,773
746,272; 3063,893;    0,434;    0,591
746,842; 3049,467;   -0,748;   -0,591
747,411; 3063,406;   -0,839;   -0,318
747,981; 3016,798;   -0,930;    0,500
748,551; 3062,100;   -0,021;   -1,045
749,120; 3089,311;   -0,112;   -0,227
749,690; 3181,795;    2,161;    2,409
750,259; 3308,551;    0,979;    2,955
750,828; 3276,307;    4,070;   -1,955
751,398; 3226,609;   -0,112;   -0,045
751,967; 3385,275;    2,888;    0,409
752,536; 3241,667;    1,161;   -0,227
753,105; 3407,969;   -1,384;    0,227
753,675; 3222,907;   -0,112;    1,773
754,244; 3202,936;    0,888;    3,591
754,813; 3221,147;    0,979;    1,227
755,382; 3107,449;    0,798;    0,955
755,951; 3224,296;   -0,112;    3,682
756,520; 3249,780;    2,525;    1,864
757,089; 3510,627;    1,888;    0,500
757,658; 3259,475;    2,434;    1,227
758,227; 3173,776;   -1,111;    0,318
758,795; 3282,624;   -1,021;    1,136
759,364; 3473,016;    0,525;   -0,591
759,933; 3071,318;    1,343;   -0,045
760,501; 3046,165;    0,252;   -1,318
761,070; 3185,922;   -0,293;   -1,409
761,639; 3490,860;    1,434;    1,318
762,207; 3180,707;    0,889;   -0,955
762,776; 3277,645;    2,889;    0,864
763,344; 3168,129;    0,071;    0,591
763,913; 2781,249;    1,616;    1,409
764,481; 3393,187;    1,980;   -0,136
765,049; 3318,853;    0,616;    1,409
765,618; 3211,427;    1,434;    0,318
766,186; 3190,365;    2,434;    0,136
766,754; 3241,031;    1,798;    1,864
767,322; 2850,878;    1,162;    0,409
767,890; 2827,271;    0,525;   -1,773
768,459; 3067,118;    2,616;   -0,318
769,027; 3231,147;    2,525;    3,409
769,595; 2908,267;    2,616;    2,591
770,163; 3005,114;    3,344;    2,955
770,730; 2953,689;    2,525;   -0,136
771,298; 2930,172;    1,162;   -1,409
771,866; 2963,656;    0,253;    4,955
772,434; 3005,412;    1,162;   -1,864
773,002; 3246,441;    2,616;    0,682
773,569; 3107,743;    1,071;    1,682
774,137; 3136,954;    0,889;   -0,045
774,705; 3247,983;   -0,747;   -0,136
775,272; 3017,285;    0,253;    0,682
775,840; 3142,860;   -0,111;    2,682
776,407; 2990,434;   -0,293;    1,955
776,975; 2722,009;    1,162;    0,318
777,542; 3036,401;    2,162;   -0,045
778,110; 3034,612;    0,707;   -0,045
778,677; 2865,005;    1,071;   -0,864
779,244; 2884,579;   -1,020;    1,045
779,812; 2990,609;    0,980;    0,864
780,379; 2978,001;    2,435;    1,136
780,946; 2943,303;    2,617;   -0,773
781,513; 3007,787;   -0,565;    0,318
782,080; 2773,816;    1,253;    2,864
782,647; 2984,118;    1,708;    3,045
783,214; 2872,056;   -0,201;    3,864
783,781; 2901,358;    1,708;   -0,682
784,348; 2902,568;    0,253;    1,500
784,915; 2850,961;   -1,474;    0,318
785,482; 2934,445;    2,708;    2,591
786,049; 3091,019;    1,071;   -0,591
786,615; 3041,139;    1,708;   -0,955
787,182; 2955,714;   -3,201;   -0,682
787,749; 2904,288;   -2,201;    1,409
788,315; 2779,317;    0,253;   -0,409
788,882; 2867,165;    0,981;   -1,227
789,448; 3162,376;    1,435;   -0,955
790,015; 3033,405;    1,799;    3,227
790,581; 3060,979;    0,708;    0,227
791,148; 2851,281;    1,344;    1,045
791,714; 2903,674;   -1,019;    3,136
792,280; 2867,157;    3,708;    1,591
792,847; 2766,641;   -0,928;    2,500
793,413; 2880,216;   -0,110;   -0,318
793,979; 2859,063;    1,526;   -1,318
794,545; 3155,910;    2,981;    2,682
795,111; 2908,394;    2,435;    1,318
795,678; 2814,514;    3,526;   -1,682
796,244; 2952,906;    2,799;    0,136
796,810; 2988,845;    0,799;    0,773
797,375; 2934,601;   -0,292;   -2,136
797,941; 2636,539;   -1,110;    0,591
798,507; 2621,295;    0,254;   -0,955
799,073; 2600,688;    2,708;    0,591
799,639; 2706,626;    1,435;    3,136
800,205; 2641,837;   -1,565;    2,682
800,770; 2543,775;    1,345;    1,773
801,336; 2481,077;    2,981;   -0,955
801,901; 2989,106;    6,072;    3,136
802,467; 2873,135;    0,526;    2,045
803,033; 2505,255;   -0,019;    0,864
803,598; 2516,375;    1,072;   -1,045
804,163; 2601,041;    0,708;   -0,318
804,729; 2661,524;   -0,110;    1,136
805,294; 2619,735;    1,072;    2,227
805,859; 2516,855;    0,890;   -0,409
806,425; 2789,248;    3,890;    2,682
806,990; 2704,550;    1,890;    4,318
807,555; 2625,124;   -0,110;    2,591
808,120; 2723,335;   -1,292;   -0,409
808,685; 2517,364;    1,072;   -2,500
809,250; 2344,848;    2,072;   -0,500
809,815; 2480,150;   -0,201;    0,682
810,380; 2695,361;    0,981;    1,591
810,945; 2828,935;    2,890;    2,045
811,510; 2649,419;   -0,200;    1,591
812,075; 2506,993;    2,800;   -1,409
812,640; 2758,295;    3,709;    1,409
813,204; 2633,688;    2,163;   -0,227
813,769; 2867,626;    0,254;   -0,045
814,334; 2754,382;    0,527;    0,864
814,898; 2604,684;    1,981;    0,591
815,463; 2543,168;    0,981;   -0,773
816,027; 2475,379;    1,345;   -2,318
816,592; 2568,226;    2,163;   -2,045
817,156; 2499,164;   -2,200;    1,136
817,721; 2514,557;    0,982;    2,318
818,285; 2386,040;    0,618;    1,500
818,849; 2577,524;   -0,018;    1,682
819,414; 2441,644;    0,073;    2,955
819,978; 2353,855;   -0,291;    1,773
820,542; 2779,520;    2,891;    0,500
821,106; 2643,095;    2,800;    0,682
821,670; 2736,488;    2,709;    2,591
822,234; 2505,335;    1,073;    1,409
822,798; 2347,091;   -0,836;    0,500
823,362; 2648,575;    1,527;    4,227
823,926; 2329,059;   -0,018;    1,136
824,490; 2481,542;    3,527;   -0,682
825,054; 2470,571;    2,527;   -1,136
825,618; 2319,237;   -1,200;   -1,500
826,181; 2321,811;    0,982;   -1,318
826,745; 2341,477;   -0,745;   -1,045
827,309; 2638,597;    2,255;    1,318
827,872; 2464,262;    0,527;    0,955
828,436; 2562,382;    1,982;   -0,773
828,999; 2558,047;    2,436;    1,227
829,563; 2386,258;   -0,654;    1,136
830,126; 2319,742;   -0,018;   -0,591
830,690; 2314,589;    0,709;    2,864
831,253; 2154,800;   -0,473;    2,227
831,816; 2225,284;   -0,018;    0,500
832,380; 2143,313;    1,164;    0,864
832,943; 2199,433;    3,073;   -0,500
833,506; 2186,007;    0,255;   -1,227
834,069; 2455,491;    2,164;   -0,955
834,632; 2404,156;   -2,200;    1,318
835,195; 2367,004;    1,346;    0,955
835,758; 2220,306;    0,709;    1,955
836,321; 2132,062;    1,073;   -1,045
836,884; 2181,909;   -1,291;   -0,955
837,447; 2208,393;    0,528;    1,773
838,010; 2297,240;    1,800;    3,227
838,573; 2418,996;    0,528;    0,773
839,135; 2361,571;   -0,109;   -0,955
839,698; 2203,236;    2,528;    0,409
840,261; 2117,993;    0,255;   -0,227
840,823; 2093,022;   -0,927;    0,864
841,386; 2107,233;   -0,018;   -2,409
841,948; 2393,353;    0,255;    1,773
842,511; 2111,836;    0,255;    1,682
843,073; 2342,684;    2,982;    0,227
843,636; 2122,349;    0,619;   -0,227
844,198; 2289,651;    1,255;    0,591
844,760; 2280,771;    0,619;    1,955
845,322; 2035,800;    0,164;    1,136
845,885; 2209,556;   -0,290;    0,591
846,447; 2242,767;    0,710;    0,227
847,009; 2462,433;    3,983;   -0,682
847,571; 2234,916;    1,346;   -2,045
848,133; 2205,582;   -0,199;   -1,864
848,695; 2091,974;    2,346;    1,409
849,257; 2095,276;    1,346;   -1,682
849,819; 2253,305;    2,983;   -0,409
850,381; 2136,425;    1,801;   -0,864
850,942; 2225,363;    1,892;   -0,591
851,504; 2206,574;    0,983;    0,227
852,066; 2190,694;    1,619;   -1,591
852,628; 2171,905;    0,165;    1,955
853,189; 1960,480;    0,256;    2,682
853,751; 2067,781;   -0,654;    1,409
854,312; 2160,720;    1,256;   -1,682
854,874; 2324,294;   -0,108;   -0,773
855,435; 2213,051;    0,528;   -1,682
855,997; 2329,898;    3,983;   -0,136
856,558; 2247,018;    0,801;    1,773
857,119; 2127,138;   -0,744;    2,864
857,681; 2001,349;   -0,108;    0,318
858,242; 2159,650;    1,347;   -2,136
858,803; 2302,225;    1,074;   -0,773
859,364; 2345,890;    0,892;   -4,773
859,925; 2300,829;   -0,290;   -0,955
860,486; 2211,858;    0,529;   -0,955
861,047; 2073,159;    0,165;   -1,227
861,608; 2069,098;    0,165;   -0,773
862,169; 2096,036;   -0,562;   -0,045
862,730; 2052,065;   -0,290;    1,409
863,291; 2133,458;    0,438;   -0,500
863,852; 2143,214;   -0,926;    1,955
864,412; 2027,607;   -1,835;   -0,864
864,973; 2063,090;    1,892;    0,500
865,534; 2193,483;    2,074;    0,227
866,094; 2169,603;    2,620;    0,227
866,655; 2204,450;    4,711;    3,318
867,215; 2149,298;    0,074;    0,136
867,776; 2071,327;   -1,199;   -0,136
868,336; 2092,265;    1,529;    0,136
868,897; 2361,839;    3,438;    1,682
869,457; 2170,596;    3,256;    0,318
870,017; 2084,079;    2,438;   -1,227
870,578; 2145,199;    1,893;    0,773
871,138; 1998,501;    2,620;   -0,955
871,698; 1874,894;   -0,562;   -1,318
872,258; 1953,741;    0,711;   -2,864
872,818; 2211,316;    2,347;    0,045
873,378; 2056,799;   -2,198;    1,045
873,938; 1957,828;    4,984;    0,500
874,498; 1912,585;    1,256;   -1,955
875,058; 1930,250;    4,347;    1,773
875,618; 1909,279;    1,438;   -2,682
876,177; 1960,217;   -0,471;    0,136
876,737; 1741,792;   -0,289;    1,955
877,297; 2136,548;    2,711;    1,955
877,856; 2055,305;    2,529;    0,318
878,416; 1821,425;    2,438;   -0,136
878,976; 1852,908;    3,438;    0,409
879,535; 1951,210;    4,529;    3,136
880,095; 1910,603;    1,347;    0,045
880,654; 1793,905;    0,347;    1,318
881,213; 2109,025;    2,347;    1,500
881,773; 1912,417;    1,984;    2,682
882,332; 2518,446;    6,075;    5,136
882,891; 1988,930;    0,711;    2,136
883,451; 2013,686;   -2,016;    1,682
884,010; 1860,534;   -1,107;   -0,409
884,569; 1867,381;   -2,289;   -0,045
885,128; 2066,319;   -0,743;   -1,864
885,687; 2322,803;   -0,743;    0,682
886,246; 2441,559;    2,620;    2,136
886,805; 2120,497;    1,620;    2,045
887,364; 1883,344;    1,166;   -0,500
887,922; 1853,919;   -0,016;    0,045
888,481; 1900,039;    1,530;    0,591
889,040; 2085,795;    3,711;    2,136
889,599; 2035,188;    2,166;    1,409
890,157; 2026,672;    2,166;    2,409
890,716; 1912,337;    2,166;    0,227
891,274; 1957,184;    0,075;   -1,136
891,833; 2060,577;    1,166;    0,864
892,391; 1854,424;    1,802;    0,500
892,950; 2080,999;    0,166;   -0,773
893,508; 1952,937;    0,984;   -0,409
894,067; 1760,148;   -0,379;    0,136
894,625; 1839,813;   -1,016;   -1,500
895,183; 1847,842;   -0,198;   -0,682
895,741; 2136,781;    2,257;   -1,773
896,299; 1918,719;    1,621;   -2,409
896,858; 1840,839;    1,530;   -1,591
897,416; 1960,868;    0,166;   -1,318
897,974; 1901,988;   -2,197;    0,318
898,532; 2370,835;    6,530;    2,682
899,089; 2008,137;    0,621;   -0,682
899,647; 1925,802;    0,530;    1,318
900,205; 1963,013;    0,257;    1,045
900,763; 1987,588;    2,166;    0,227
901,321; 1969,435;    3,530;   -1,409
901,878; 1762,373;    3,257;   -0,773
902,436; 1779,766;    0,257;    1,318
902,994; 2589,431;    6,712;    3,682
903,551; 2045,915;    1,439;    0,409
904,109; 1986,399;    1,530;   -1,409
904,666; 1914,609;    1,439;    1,045
905,224; 1790,002;    3,894;   -0,409
905,781; 1879,577;   -0,470;   -0,318
906,338; 1820,515;    0,167;    1,045
906,895; 1716,544;    1,894;    2,045
907,453; 1974,846;    2,348;    1,136
908,010; 1832,966;    3,348;    0,409
908,567; 1750,904;   -0,561;    0,591
909,124; 1546,569;    2,439;   -1,500
909,681; 1581,871;   -1,288;    0,682
910,238; 1718,173;   -0,106;   -1,318
910,795; 1754,747;   -1,561;   -1,136
911,352; 1724,384;   -0,379;   -2,682
911,909; 1638,566;    2,803;   -0,864
912,466; 1746,202;    1,985;    1,500
913,022; 1665,838;   -0,924;    0,500
913,579; 1830,747;   -0,470;    2,045
914,136; 1692,838;   -2,561;    0,955
914,692; 1788,111;    1,530;   -1,227
915,249; 1662,020;    0,530;    0,409
915,806; 1760,747;    1,803;    1,955
916,362; 1661,384;    0,894;    1,864
916,918; 1526,111;    2,439;    1,045
917,475; 1752,838;    1,621;    0,955
918,031; 1578,384;    0,076;   -0,045
918,587; 1611,929;    0,621;   -0,318
919,144; 1572,838;   -0,379;    0,227
919,700; 1560,747;    0,167;    0,773
920,256; 1491,747;    0,439;    0,045
920,812; 1480,838;    1,439;   -1,045
921,368; 1470,202;    1,348;   -1,045
921,924; 1411,111;    0,439;   -0,136
922,480; 1477,747;    0,076;    1,227
923,036; 1560,838;   -0,652;    1,955
923,592; 1487,384;    0,621;    0,318
924,148; 1497,202;    1,894;   -0,955
924,704; 1597,929;    0,258;   -0,409
925,259; 1512,384;   -0,561;    0,591
925,815; 1407,475;    3,803;    0,500
926,371; 1345,929;    3,530;    1,409
926,926; 1472,566;    1,621;    0,591
927,482; 1418,747;    1,621;    0,773
928,037; 1349,929;   -0,833;    2,045
928,593; 1593,293;    0,258;    1,045
929,148; 1359,838;    1,167;   -1,500
929,704; 1361,566;    2,439;   -0,500
930,259; 1248,293;    0,894;   -0,136
930,814; 1400,202;    1,803;    1,955
931,369; 1327,293;    0,258;   -0,773
931,925; 1127,657;   -1,924;    0,136
932,480; 1206,020;    3,076;   -2,591
933,035; 1593,293;    3,985;   -0,318
933,590; 1451,020;   -1,742;   -1,773
934,145; 1063,202;   -1,288;   -0,318
934,700; 1016,202;    0,348;   -0,591
935,255; 1076,293;    4,803;    0,045
935,809; 1348,384;    6,258;    0,864
936,364;  916,202;    2,167;   -0,136
936,919;  939,747;    2,348;   -1,773
937,474;  877,475;    1,348;    0,136
938,028;  897,384;    3,076;    1,136
938,583; 1253,566;    6,348;    4,682
939,138;  930,384;    0,167;    2,136
939,692;  771,475;   -1,015;   -1,136
940,247;  775,838;    1,167;   -1,045
940,801;  832,384;    0,621;    0,227
941,355;  746,111;    0,439;    2,591
941,910;  617,475;    0,712;   -2,136
942,464;  667,566;    2,712;   -0,318
943,018;  923,111;    3,258;   -0,227
943,572;  738,747;    2,803;   -0,682
944,126;  762,111;   -0,924;   -0,409
944,681;  624,020;    0,712;    0,227
945,235;  578,293;    2,167;   -0,591
945,789;  527,384;    1,258;   -1,864
946,342;  840,838;   -0,561;   -0,591
946,896;  584,929;    0,348;    0,955
947,450;  549,020;   -0,561;   -0,227
948,004;  809,111;    1,076;   -0,045
948,558;  617,929;    1,258;   -0,864
949,111;  602,657;   -1,197;   -0,318
949,665;  814,293;   -0,106;   -0,682
950,219;  756,929;    0,621;   -1,045
950,772;  678,202;    0,258;    1,864
951,326;  682,838;   -1,106;   -0,955
951,879;  600,293;    1,076;   -2,318
952,433;  740,838;    1,348;    2,227
952,986;  563,293;    0,348;    0,682
953,539;  511,202;    1,530;    0,591
954,093;  464,747;    0,985;   -1,318
954,646;  614,293;   -0,288;    1,318
955,199;  523,475;    1,258;   -0,500
955,752;  725,747;    1,985;    1,773
956,305;  564,566;    0,894;    2,955
956,858;  625,929;    0,621;   -0,318
957,411;  710,020;    3,621;    2,136
957,964;  583,475;    2,076;    2,136
958,517;  506,566;    0,985;    3,136
959,070;  458,566;   -1,197;    1,955
959,623;  754,384;    1,076;    1,500
960,176;  687,747;    0,712;    2,045
960,728;  641,566;    1,712;    0,773
961,281;  593,293;    2,258;    0,500
961,834;  515,384;   -0,833;    0,864
962,386;  516,111;    1,258;    1,045
962,939;  473,384;    3,439;   -0,318
963,491;  538,929;    2,621;    1,136
964,043;  459,384;    0,076;    2,409
964,596;  653,747;    1,712;    2,227
965,148;  542,929;   -0,379;    1,773
965,700;  452,475;   -0,015;   -0,227
966,253;  620,384;   -0,833;    0,318
966,805;  574,202;    1,894;    0,773
967,357;  507,020;    0,439;   -1,500
967,909;  618,293;    1,167;   -1,227
968,461;  505,384;    0,894;    3,136
969,013;  453,111;   -1,561;   -0,864
969,565;  609,657;    1,803;   -1,136
970,117;  859,111;    3,803;    1,045
970,669;  610,657;    3,258;   -0,136
971,220;  402,111;    2,167;   -1,500
971,772;  485,384;    1,348;   -0,318
972,324;  594,111;   -1,197;   -0,500
972,876;  500,202;    0,167;   -0,045
973,427;  623,747;   -1,197;   -1,045
973,979;  691,747;    0,076;   -2,500
974,530;  480,657;    0,803;    1,318
975,082;  548,293;    2,167;    1,682
975,633;  489,293;    2,894;    1,682
976,184;  571,747;    2,076;    0,773
976,736;  546,111;    0,348;    0,227
977,287;  543,838;    0,258;   -0,500
977,838;  518,838;   -0,924;   -0,318
978,389;  531,566;    0,803;   -0,500
978,940;  391,566;    1,258;   -0,409
979,491;  395,111;    2,258;   -0,500
980,042;  473,384;   -0,652;    3,045
980,593;  489,384;    1,894;    0,227
981,144;  591,929;    3,530;   -0,500
981,695;  640,747;   -0,470;    1,500
982,246;  580,929;   -1,833;    1,045
982,797;  449,838;   -0,561;    0,682
983,347;  612,111;    2,167;    0,591
983,898;  819,384;    4,167;    0,409
984,449;  758,202;    2,530;    0,773
984,999;  586,747;    1,894;   -1,136
985,550;  533,747;    3,167;   -0,318
986,100;  398,111;    0,712;   -0,318
986,651;  392,929;    0,258;    0,045
987,201;  430,202;    0,894;   -0,591
987,751;  452,747;   -0,288;    2,864
988,302;  498,838;   -0,379;    1,500
988,852;  536,929;    1,985;   -1,136
989,402;  608,475;    0,985;    0,682
989,952;  629,020;    1,621;    0,864
990,502;  482,747;    1,076;    0,682
991,052;  382,384;   -0,106;    0,045
991,602;  415,838;    1,167;    1,318
992,152;  477,202;    2,803;    0,682
992,702;  503,020;    1,167;   -0,045
993,252;  443,475;    0,076;   -0,500
993,802;  545,929;    1,167;    1,318
994,352;  513,566;   -0,742;    1,136
994,901;  431,111;    1,076;    3,227
995,451;  419,020;   -1,197;    0,318
996,000;  455,838;    1,076;    0,318
996,550;  444,111;    2,894;    0,227
997,100;  485,293;   -0,561;   -0,045
997,649;  640,384;   -0,197;    0,955
998,198;  451,747;   -0,288;   -1,500
998,748;  565,020;    0,348;   -2,318
999,297;  494,020;    0,985;   -0,409
999,846;  629,293;    1,894;   -0,773
1000,395;  548,838;    1,530;    0,500
1000,945;  663,475;    1,076;   -0,773
1001,494;  650,747;    0,167;    0,682
1002,043;  629,566;    0,712;    0,864
1002,592;  449,657;    3,439;    1,955
1003,141;  448,747;    2,439;   -0,682
1003,690;  597,747;    1,258;    0,500
1004,238;  477,747;   -0,106;   -0,045
1004,787;  381,566;   -1,288;    1,227
1005,336;  568,111;    1,621;    0,682
1005,885;  524,838;   -0,197;   -2,773
1006,433;  522,566;   -0,470;    0,955
1006,982;  732,111;    2,167;    1,682
1007,531;  557,475;    2,712;   -0,227
1008,079;  514,111;    0,258;    0,500
1008,627;  465,202;    1,621;    0,409
1009,176;  474,384;    0,076;   -1,955
1009,724;  426,657;   -2,742;    0,864
1010,273;  579,111;    1,076;    0,500
1010,821;  473,657;    1,076;    1,409
1011,369;  414,384;    0,076;    1,318
1011,917;  434,020;   -0,833;   -0,591
1012,465;  536,384;    2,530;   -1,591
1013,013;  518,111;    0,439;   -1,682
1013,561;  625,475;   -1,288;   -0,773
1014,109;  723,020;   -0,833;    1,682
1014,657;  589,020;    1,348;    0,591
1015,205;  481,747;    0,894;   -0,955
1015,753;  429,657;    0,258;   -1,409
1016,301;  510,747;    2,621;    3,045
1016,848;  583,202;    2,167;    0,409
1017,396;  577,566;    1,621;    0,045
1017,944;  582,838;    2,621;    1,864
1018,491;  474,657;   -0,197;    1,409
1019,039;  814,747;   -0,652;    0,591
1019,586;  565,293;    0,076;    1,682
1020,134;  540,202;    0,712;    1,500
1020,681;  610,566;    2,894;   -1,136
1021,228;  516,020;   -0,561;   -2,227
1021,776;  490,384;   -0,833;   -1,136
1022,323;  731,384;    0,803;    0,773
1022,870;  634,929;   -0,470;   -0,045
1023,417;  692,475;    2,076;    1,864
1023,964;  515,202;    0,621;    1,227
1024,511;  486,020;   -0,652;    0,773
1025,058;  508,293;    0,439;   -0,045
1025,605;  470,020;   -1,742;    3,136
1026,152;  694,111;   -0,106;   -0,591
1026,699;  534,566;    0,167;    1,318
1027,245;  529,475;    2,439;    0,318
1027,792;  485,747;    0,712;    1,409
1028,339;  694,293;    4,076;   -0,045
1028,885;  547,747;    3,621;   -0,227
1029,432;  490,384;   -0,106;    0,227
1029,978;  600,202;    1,348;   -1,591
1030,525;  578,111;    1,621;    0,409
1031,071;  475,657;    0,348;    1,136
1031,618;  764,475;    1,258;    1,682
1032,164;  584,747;    2,076;    3,045
1032,710;  622,747;    0,076;   -1,500
1033,256;  585,747;    0,712;   -0,136
1033,803;  445,384;   -0,288;    1,500
1034,349;  309,020;    1,803;    0,136
1034,895;  362,111;    2,621;   -0,318
1035,441;  433,202;    0,439;    0,318
1035,987;  489,293;   -2,288;   -0,682
1036,533;  564,293;   -0,197;   -0,955
1037,078;  760,747;    4,712;    1,682
1037,624;  603,384;    2,439;   -0,955
1038,170;  475,838;    1,712;   -0,318
1038,716;  560,293;    2,167;   -0,409
1039,261;  430,566;    2,167;   -0,773
1039,807;  442,657;   -0,015;    3,409
1040,352;  480,929;   -1,288;   -0,318
1040,898;  464,384;    0,167;   -0,682
1041,443;  389,111;    0,803;   -2,591
1041,989;  690,566;    3,621;    1,591
1042,534;  481,293;    0,985;    2,591
1043,079;  385,929;    1,985;    0,955
1043,625;  478,384;    0,258;    0,500
1044,170;  502,111;    2,439;    1,045
1044,715;  709,747;    0,167;    0,955
1045,260;  590,566;   -0,833;   -0,955
1045,805;  447,747;    0,258;   -0,591
1046,350;  413,657;    0,530;   -0,409
1046,895;  592,384;    0,803;    1,591
1047,440;  578,202;    1,530;    0,409
1047,985;  449,929;   -1,197;   -0,955
1048,530;  413,202;    1,348;    1,227
1049,074;  478,202;    2,803;    0,318
1049,619;  410,566;   -0,924;    1,955
1050,164;  391,202;    1,076;    0,227
1050,708;  480,566;    2,621;    0,045
1051,253;  733,747;    3,258;   -2,227
1051,797;  526,929;   -0,197;   -1,318
1052,342;  365,838;    1,348;    1,045
1052,886;  460,475;    1,803;   -1,409
1053,430;  345,929;    2,167;    0,136
1053,975;  437,020;    0,894;   -0,318
1054,519;  443,202;    1,803;    3,227
1055,063;  513,475;    3,621;    1,318
1055,607;  489,475;    1,348;    0,227
1056,151;  487,566;    0,530;    1,682
1056,695;  393,838;   -1,833;   -1,136
1057,239;  395,202;   -1,197;   -0,682
1057,783;  439,111;    2,258;   -1,500
1058,327;  505,111;    3,076;    1,409
1058,871;  655,111;    3,985;    1,318
1059,415;  518,384;   -0,561;   -0,045
1059,958;  672,020;    2,985;    2,591
1060,502;  441,293;    1,348;   -0,773
1061,046;  335,657;    1,712;   -0,955
1061,589;  317,566;    2,803;   -1,136
1062,133;  285,020;    0,985;    1,864
1062,676;  323,293;    1,439;    0,864
1063,220;  364,929;    0,985;    0,500
1063,763;  393,202;    2,985;    1,136
1064,306;  418,657;    0,985;    1,864
1064,849;  409,020;    2,076;    0,591
1065,393;  385,657;    2,894;   -1,500
1065,936;  395,020;    2,530;   -0,409
1066,479;  311,293;    2,621;    1,318
1067,022;  341,202;    1,894;   -0,227
1067,565;  312,384;   -1,197;   -1,318
1068,108;  290,929;    1,258;   -0,591
1068,651;  267,929;   -2,470;    1,409
1069,194;  265,657;   -1,106;   -1,682
1069,736;  288,475;    3,803;    0,955
1070,279;  257,202;   -1,652;   -0,500
1070,822;  347,293;    1,530;   -0,318
1071,364;  465,475;    0,530;    1,318
1071,907;  325,202;    0,348;    3,227
1072,450;  187,475;    0,258;   -0,045
1072,992;  266,838;   -0,561;    3,136
1073,535;  340,202;    0,167;    2,136
1074,077;  250,384;    2,985;    2,045
1074,619;  248,566;    0,985;    0,591
1075,161;  276,293;   -0,561;    1,500
1075,704;  400,657;    0,258;    1,227
1076,246;  264,384;    1,530;    0,682
1076,788;  198,384;   -1,015;    1,773
1077,330;  208,384;   -2,106;    2,136
1077,872;  252,202;   -1,924;    0,955
1078,414;  425,566;    3,712;    0,773
1078,956;  271,566;    0,167;   -0,227
1079,498;  415,747;    0,439;    0,318
1080,040;  271,929;    0,985;   -1,318
1080,581;  233,293;    0,621;   -0,318
1081,123;  173,475;   -0,106;   -0,773
1081,665;  188,384;    3,803;   -0,955
1082,206;  376,111;    3,258;   -0,500
1082,748;  295,202;    3,258;    2,045
1083,289;  204,475;    0,167;    1,318
1083,831;  194,747;    0,258;    0,227
1084,372;  236,929;    0,894;    0,591
1084,913;  230,020;    3,348;    0,864
1085,455;  189,384;    1,530;   -2,045
1085,996;  187,202;    0,530;    0,136
1086,537;  211,657;    0,985;    0,864
1087,078;  226,657;    0,439;   -2,136
1087,619;  277,384;   -1,652;    0,227
1088,160;  235,747;    1,439;    1,318
1088,701;  215,929;   -0,742;    0,682
1089,242;  197,657;   -0,561;   -2,227
1089,783;  246,293;   -0,561;    1,409
1090,324;  233,747;   -0,833;    0,682
1090,865;  176,566;   -1,924;   -0,409
1091,405;  149,929;   -0,561;    2,227
1091,946;  187,475;   -0,197;   -0,955
1092,487;  139,293;   -1,288;   -1,409
1093,027;  255,929;    1,803;   -1,500
1093,568;  186,293;    2,258;    1,227
1094,108;  218,838;    0,621;    1,773
1094,649;  188,293;   -0,470;    0,136
1095,189;  160,747;    1,167;   -0,682
1095,729;  158,929;    0,712;    0,955
1096,269;  145,475;    1,258;   -0,955
1096,810;  297,657;   -0,197;    0,500
1097,350;  232,657;   -0,561;   -0,773
1097,890;  176,657;    2,985;    1,227
1098,430;  342,929;    4,985;    2,864
1098,970;  274,293;    1,894;    1,682
1099,510;  173,293;   -0,833;   -2,318
1100,050;  151,384;    0,258;   -1,591
1100,589;  156,475;    0,076;   -0,318
1101,129;  210,747;    0,894;   -0,955
1101,669;  289,020;    2,803;    2,136
1102,209;  211,384;    1,530;    2,227
1102,748;  175,293;    3,439;    0,955
1103,288;  183,384;    0,712;   -1,227
1103,827;  177,657;    3,530;   -2,227
1104,367;  138,747;    1,712;   -2,409
1104,906;  134,929;   -1,015;   -1,136
1105,445;  180,293;    0,985;   -1,136
1105,985;  154,020;   -0,652;    1,500
1106,524;  169,929;    1,530;   -0,682
1107,063;  158,020;    1,167;    1,409
1107,602;  131,111;    1,894;   -1,500
1108,141;  112,657;    1,621;    1,500
1108,680;  173,657;    3,985;   -0,591
1109,219;  149,475;    0,167;   -0,500
1109,758;  137,384;    4,167;    0,682
1110,297;  136,020;   -1,106;   -0,682
1110,836;  108,838;    1,439;    0,955
1111,375;  145,929;    0,348;    0,409
1111,913;  178,111;    0,985;    0,773
1112,452;  151,020;    0,894;    0,136
1112,991;  103,475;    1,076;    1,955
1113,529;  102,020;    0,167;   -0,045
1114,068;  126,838;    0,439;    2,955
1114,606;   93,111;   -0,561;   -0,955
1115,144;  164,838;    1,530;    1,045
1115,683;  133,384;    1,985;    0,318
1116,221;  165,384;    2,076;   -0,864
1116,759;  115,657;    1,621;   -0,864
1117,297;  192,293;    1,621;    1,864
1117,836;  116,929;    1,985;   -1,227
1118,374;  117,838;    0,258;   -0,682
1118,912;  121,838;    0,439;    2,682
1119,450;  115,202;    0,985;    0,864
1119,988;  120,384;    3,348;    2,136
1120,525;  394,566;    7,258;    3,318
1121,063;  210,566;    0,530;    1,864
1121,601;  115,747;    1,076;   -1,227
1122,139;   95,384;    1,076;   -2,045
1122,676;  197,111;   -1,652;    2,773
1123,214;  166,475;    0,712;    4,409
1123,751;   84,202;    0,621;    2,227
1124,289;  127,657;    0,894;   -0,409
1124,826;   92,747;   -0,379;    0,227
1125,364;   59,202;    0,712;   -0,955
1125,901;  158,475;    6,258;    1,227
1126,438;  169,202;    3,530;    0,955
1126,975;   56,747;    2,985;   -0,773
1127,513;   84,293;    2,621;    2,136
1128,050;   62,838;   -0,561;   -0,682
1128,587;   96,475;    1,348;   -0,227
1129,124;  120,657;   -0,015;    1,318
1129,661;   73,202;   -1,924;    0,227
1130,198;  145,747;    2,439;    0,773
1130,734;  108,111;   -0,379;    1,409
1131,271;   56,475;   -1,197;    0,864
1131,808;  132,838;    1,621;    3,045
1132,345;   80,020;    4,530;    0,318
1132,881;   32,111;   -0,561;   -1,864
1133,418;   88,475;    0,348;   -1,136
1133,954;   63,293;    0,712;   -2,682
1134,491;   97,838;    1,712;   -0,773
1135,027;   58,838;    2,167;    0,864
1135,564;   90,020;    1,439;    2,955
1136,100;   80,838;   -0,742;    2,136
1136,636;   43,566;   -1,015;   -1,045
1137,172;   70,202;    0,894;   -1,045
1137,708;   55,929;   -1,561;   -1,045
1138,245;   51,384;    0,803;   -1,227
1138,781;   41,475;    1,803;   -3,318
1139,317;   58,747;    1,894;   -1,409
1139,852;   65,929;    3,076;    0,136
1140,388;   92,929;    2,076;   -0,409
1140,924;   59,293;    1,076;   -2,227
1141,460;   38,475;   -0,288;    0,136
1141,996;   21,838;   -0,652;    2,682
1142,531;   32,202;    1,076;    3,318
1143,067;  114,747;    1,167;    1,045
1143,602;  147,202;    3,439;   -0,318
1144,138;   76,475;    0,803;    1,045
1144,673;   36,111;    1,621;    1,409
1145,209;   52,293;    2,894;   -0,318
1145,744;   29,293;    0,803;    0,864
1146,279;   71,020;    1,530;   -0,136
1146,815;   45,384;    1,530;   -2,682
1147,350;   61,657;   -0,924;    0,045
1147,885;   35,384;   -1,924;   -1,318
1148,420;   32,657;    2,439;    0,773
1148,955;   34,747;   -1,470;    1,864
1149,490;   35,566;   -1,106;   -1,591
1150,025;   26,293;   -1,106;   -1,773
1150,560;   65,020;   -0,288;   -0,955
1151,094;   51,475;    0,258;   -0,591
1151,629;   55,384;   -3,742;    0,864
1152,164;   37,929;   -1,288;    1,318
1152,698;   26,293;    1,258;   -0,136
1153,233;   16,293;   -1,379;   -0,682
1153,767;   28,020;   -0,288;   -2,318
1154,302;   40,020;   -0,379;    1,773
1154,836;   37,747;    0,803;   -2,136
1155,371;   46,384;    2,258;    3,682
1155,905;   36,111;    1,985;    1,682
1156,439;   35,111;    0,530;   -0,500
1156,973;   44,929;    0,439;    0,318
1157,507;   26,293;   -1,742;    0,682
1158,042;   30,111;   -0,652;    1,045
1158,576;   40,747;   -0,561;    1,773
1159,110;   43,293;    0,076;    2,409
1159,643;   37,475;   -2,470;   -0,045
1160,177;   20,293;   -2,015;    1,500

