
Integration time [ms]:   0,050
Averaging Nr. [scans]: 11
Smoothing Nr. [pixels]: 0
Data measured with spectrometer [name]: 7318044SP
Wave   ;Sample   ;Dark     ;Reference
[nm]   ;[counts] ;[counts] ;[counts] 

186,757;    3,226;   38,161;    1,318
187,357;   14,193;   26,706;    0,955
187,958;    8,040;   17,252;   -1,591
188,558;   25,392;   12,979;   -1,227
189,159;   10,762;   10,070;   -4,500
189,759;    1,115;    5,797;   -3,591
190,360;    5,129;    6,797;   -2,136
190,960;   15,220;    5,706;   -4,136
191,560;   23,249;    2,614;   -6,591
192,161;  123,514;    5,885;   -3,500
192,761;   66,599;    5,520;   -3,227
193,361;   44,085;    3,065;   -3,773
193,962;   63,885;    1,612;   -2,682
194,562;   25,864;   -0,114;   -3,955
195,162;   27,163;   -0,567;   -2,227
195,762;   82,642;    2,433;   -0,045
196,362;   56,284;    1,706;   -2,500
196,963;   20,970;    1,706;   -0,864
197,563;   41,763;    1,252;   -0,955
198,163;   18,776;   -0,111;   -0,682
198,763;   29,641;   -0,020;   -0,500
199,363;   55,481;    3,616;   -0,500
199,963;   38,194;    2,162;    0,409
200,563;   33,847;    6,344;   -1,409
201,163;   27,434;    5,435;   -0,227
201,763;   48,302;    1,435;    0,318
202,363;   28,372;    0,980;    1,500
202,963;   43,962;    1,526;    1,045
203,563;   90,785;    0,344;    0,500
204,162;   47,908;    1,889;   -1,864
204,762;   40,437;    2,071;    0,591
205,362;   27,297;    0,708;    1,955
205,962;   50,971;    3,435;    1,955
206,562;   47,500;    1,889;    2,318
207,161;   37,432;    1,708;    0,318
207,761;  110,866;    4,435;    2,409
208,361;   54,560;    1,889;    1,409
208,960;   74,555;    2,889;    1,500
209,560;   73,461;    0,435;    1,591
210,160;   88,893;    5,071;    1,864
210,759;   67,543;    0,708;    1,227
211,359;   55,491;   -0,474;    1,045
211,958;  171,554;    3,526;    2,045
212,558;  186,596;    0,799;    1,864
213,157;  109,701;   -0,929;    1,500
213,757;  277,722;    5,617;   -0,227
214,356;  147,413;    1,708;   -0,409
214,956;  284,540;    3,526;    0,409
215,555;  130,580;    0,617;    2,136
216,154;   97,674;   -0,292;   -0,591
216,754;   98,021;    1,253;    0,773
217,353;  130,122;   -0,383;   -1,045
217,952;   53,202;    2,072;    0,318
218,552;  156,028;    0,254;   -0,773
219,151;  108,855;   -1,110;    0,955
219,750;  101,741;    0,890;   -0,227
220,349;   96,611;   -2,292;    1,045
220,948;  187,179;    1,163;    1,136
221,548;  128,798;    0,617;    1,227
222,147;  161,760;   -1,292;   -0,409
222,746;  297,154;    1,254;   -0,955
223,345;  203,467;   -1,019;    0,500
223,944;  211,129;    1,163;    0,773
224,543;  242,115;    4,072;   -1,409
225,142;  255,172;    1,345;    0,136
225,741;  239,092;    1,163;    1,045
226,340;  226,772;    1,254;   -0,955
226,939;  363,471;    2,708;   -0,136
227,538;  230,253;    1,163;   -0,773
228,137;  379,949;    0,435;    0,864
228,735;  335,214;    0,435;    1,227
229,334;  212,470;   -0,474;   -0,227
229,933;  434,492;    0,799;    0,591
230,532;  459,395;   -1,201;   -0,409
231,131;  524,879;    1,253;    0,318
231,729;  399,361;    1,163;   -2,318
232,328;  335,788;    0,435;   -1,500
232,927;  360,282;    4,526;   -0,500
233,525;  346,987;    0,981;    0,045
234,124;  407,938;    1,890;   -1,591
234,723;  327,184;    1,617;   -1,045
235,321;  335,129;    1,163;    0,136
235,920;  393,823;    2,526;   -1,227
236,518;  576,222;    1,072;    0,318
237,117;  407,257;    2,890;   -0,227
237,715;  425,476;    1,163;   -0,500
238,314;  495,146;    1,708;   -2,318
238,912;  655,786;    0,526;   -1,409
239,510;  514,844;    1,162;   -1,227
240,109;  667,129;   -0,474;    3,773
240,707;  618,621;   -0,474;    1,227
241,305;  458,862;   -0,383;    0,136
241,904;  596,590;   -0,292;   -2,045
242,502;  705,159;    3,253;   -0,227
243,100;  586,005;    3,344;   -0,955
243,698;  534,496;    2,799;    1,682
244,297;  575,751;   -0,656;    0,682
244,895;  574,113;   -0,474;   -2,318
245,493;  803,282;    2,981;   -0,591
246,091;  782,883;    5,163;   -1,318
246,689;  703,602;    2,163;    0,591
247,287;  669,501;   -0,019;   -1,136
247,885;  643,753;   -1,019;    1,227
248,483;  612,581;   -0,201;   -0,500
249,081;  704,540;    0,981;    1,591
249,679;  757,420;   -1,019;    1,682
250,277;  633,969;   -2,292;    0,864
250,875;  776,013;    0,617;   -1,045
251,473;  661,632;   -0,019;    0,500
252,071;  763,672;   -0,383;    1,045
252,669;  694,584;   -1,565;    0,318
253,267;  641,131;    1,618;    0,773
253,864;  678,319;    0,617;    0,682
254,462;  854,820;    1,526;    1,591
255,060;  623,870;    0,072;    1,318
255,658;  613,493;   -3,292;   -0,136
256,255;  740,220;   -0,201;   -2,045
256,853;  773,026;    2,345;    1,409
257,451;  743,993;    1,981;    1,864
258,048; 1241,680;    2,072;    1,864
258,646;  864,903;    0,436;   -1,045
259,243;  994,571;    2,981;    2,227
259,841;  872,680;    1,799;    0,318
260,438;  697,577;    0,254;    0,864
261,036;  862,762;    0,617;    1,409
261,633;  782,146;    1,526;    2,227
262,231;  719,472;   -0,110;   -0,045
262,828;  742,614;   -0,383;    1,136
263,425;  786,573;   -1,928;   -0,591
264,023;  787,507;    1,436;    0,045
264,620;  916,432;    1,526;   -0,318
265,217; 1069,956;    2,890;    3,136
265,815;  780,524;    2,527;    2,136
266,412;  911,063;    0,072;    0,136
267,009;  945,894;    0,526;    0,773
267,606; 1047,357;    0,345;   -0,955
268,203;  817,161;   -0,383;   -0,591
268,801;  885,215;   -0,474;    0,591
269,398;  817,689;   -0,564;    2,500
269,995;  968,887;    0,890;    1,591
270,592;  849,382;    0,799;   -0,500
271,189;  796,964;    1,981;    0,409
271,786;  786,856;    2,072;    1,227
272,383; 1061,505;   -0,383;    0,227
272,980;  893,635;    1,617;    0,318
273,577;  877,285;    2,162;    1,227
274,174;  778,684;    1,435;    2,591
274,771;  917,129;    1,890;   -0,773
275,367; 1370,459;    3,253;    1,409
275,964; 1172,743;   -0,565;   -0,500
276,561;  951,699;   -2,474;   -1,045
277,158;  874,238;    1,799;   -1,773
277,755; 1143,631;   -0,110;    0,409
278,351;  935,713;    0,436;   -1,500
278,948; 1040,075;   -0,201;    0,045
279,545;  937,708;    0,527;    2,318
280,141; 1251,415;    1,254;   -2,045
280,738; 1119,568;    2,435;   -0,136
281,334;  912,144;   -0,383;    0,591
281,931;  918,044;    2,890;   -1,318
282,528; 1029,461;    4,072;   -0,500
283,124; 1187,002;    3,345;   -0,500
283,721; 1150,739;    0,709;    1,409
284,317;  979,421;    0,163;    2,500
284,913; 1227,479;   -0,110;    0,591
285,510; 1547,752;    2,890;   -0,318
286,106; 1325,372;    2,345;   -0,955
286,703;  978,412;    0,072;    1,955
287,299;  960,680;    1,254;   -0,591
287,895;  989,525;    0,890;   -1,045
288,491; 1042,507;    0,163;    2,136
289,088; 1129,032;    0,163;    2,409
289,684; 1160,220;    2,890;    1,500
290,280; 1318,573;    1,890;    0,682
290,876; 1283,694;    0,163;    5,500
291,472; 1175,422;    2,163;    2,227
292,068; 1187,479;    1,254;    0,227
292,665; 1019,953;   -0,564;    0,773
293,261;  893,253;   -1,292;    2,136
293,857; 1111,193;    4,072;    2,136
294,453; 1023,575;   -0,928;    0,955
295,049; 1239,318;    0,253;    1,955
295,644; 1047,178;   -1,292;    0,136
296,240;  925,947;    0,162;   -0,136
296,836; 1096,133;   -0,747;    0,318
297,432; 1250,808;    2,980;   -0,500
298,028; 1317,541;    0,435;    0,773
298,624; 1148,702;    0,889;    1,864
299,220; 1132,809;    0,435;    0,591
299,815; 1076,093;    0,526;   -0,409
300,411; 1191,318;    0,435;    1,773
301,007; 1334,153;    1,889;    0,227
301,602; 1139,419;    2,071;   -2,318
302,198; 1274,799;    1,435;   -0,773
302,794; 1120,600;    1,526;   -0,500
303,389; 1116,442;    1,071;    1,045
303,985; 1173,282;    1,253;    1,409
304,580; 1283,683;    0,889;    1,591
305,176; 1165,588;    0,344;    0,136
305,771; 1036,118;   -0,929;   -1,227
306,367; 1452,172;    3,071;    0,136
306,962; 1246,146;    2,889;    1,500
307,558; 1209,959;    2,435;    0,136
308,153; 1318,778;   -0,383;   -1,136
308,748; 1122,727;    0,162;    1,682
309,344; 1514,174;    0,253;   -1,318
309,939; 1536,832;    2,071;   -1,318
310,534; 1239,412;   -2,020;   -1,682
311,130; 1163,467;   -0,656;   -2,500
311,725; 1080,441;    0,526;   -0,500
312,320; 1173,341;    1,253;    0,045
312,915; 1317,329;    2,890;   -1,045
313,510; 1537,815;    0,526;   -0,500
314,105; 1335,458;   -3,565;    1,409
314,700; 1089,068;   -1,656;   -1,045
315,295; 1147,046;   -0,020;    0,045
315,890; 1025,494;   -0,292;    0,864
316,485; 1150,912;    0,253;   -0,318
317,080; 1115,526;   -0,929;    1,591
317,675; 1460,349;    3,071;   -0,682
318,270; 1630,022;    6,889;    3,318
318,865; 1545,650;    2,435;    3,045
319,460; 1311,325;   -1,565;    0,591
320,055; 1202,120;   -2,565;   -1,227
320,650; 1149,531;   -1,838;   -0,591
321,244; 1163,069;    0,889;   -1,409
321,839; 1318,092;    0,980;   -0,227
322,434; 1354,705;   -0,111;   -1,591
323,029; 1225,247;   -0,474;    1,591
323,623; 1152,727;    0,798;    0,773
324,218; 1288,735;    2,707;    1,409
324,812; 1226,335;    0,889;    1,591
325,407; 1231,871;   -0,929;    2,045
326,002; 1340,702;    0,526;   -0,409
326,596; 1299,135;   -0,656;    1,318
327,191; 1177,662;   -0,383;   -1,045
327,785; 1077,135;   -0,747;   -0,227
328,379; 1196,301;   -0,383;    0,136
328,974; 1191,122;    1,798;   -3,955
329,568; 1247,528;    2,889;   -2,409
330,163; 1306,447;    2,435;    1,045
330,757; 1200,751;    0,253;    1,591
331,351; 1107,393;   -0,292;    0,682
331,945; 1105,137;   -0,383;    1,409
332,540; 1236,401;    1,617;   -0,591
333,134; 1201,401;    3,344;    0,773
333,728; 1184,125;    2,799;    0,318
334,322; 1133,015;    0,889;   -0,864
334,916; 1050,033;    0,344;    0,955
335,510; 1258,561;   -0,111;   -0,136
336,105; 1286,935;   -0,929;    1,591
336,699; 1108,516;   -1,292;    0,591
337,293; 1138,196;    1,071;    0,318
337,887; 1067,617;    0,071;    1,955
338,481; 1243,577;    2,980;    0,591
339,074; 1404,479;    2,071;    2,682
339,668; 1353,436;   -0,110;    1,227
340,262; 2019,685;    7,708;    3,227
340,856; 1517,475;    1,708;   -0,682
341,450; 1100,272;    0,708;    1,864
342,044; 1238,741;    1,799;    0,136
342,637; 1373,311;    1,162;   -2,136
343,231; 1386,907;   -1,474;    0,682
343,825; 1179,417;   -0,747;   -0,591
344,419; 1169,549;   -0,474;    0,500
345,012; 1772,752;    2,889;    4,045
345,606; 1545,701;   -0,656;    1,591
346,199; 1200,417;   -0,111;   -0,227
346,793; 1315,828;    2,525;    2,045
347,386; 1141,597;    0,889;   -1,136
347,980;  980,098;   -0,838;   -0,045
348,573; 1106,511;   -1,748;    0,409
349,167; 1367,636;    6,161;    4,773
349,760; 1336,200;    2,252;    2,682
350,354; 1252,642;    1,616;    1,136
350,947; 1292,087;    2,798;    1,682
351,540; 1089,619;    0,616;   -1,409
352,134;  939,385;   -1,111;    1,136
352,727; 1006,148;   -0,657;    1,136
353,320; 1042,428;    2,343;    0,591
353,913;  927,570;   -1,929;    1,864
354,507; 1164,429;    0,434;   -1,227
355,100; 1066,289;    0,071;    0,864
355,693; 1447,354;    4,798;    2,409
356,286; 1162,831;    0,980;    2,773
356,879; 1022,944;   -0,475;    1,227
357,472;  961,789;    0,980;    1,500
358,065; 1059,112;    3,161;    2,500
358,658;  925,481;    0,798;    2,318
359,251;  833,952;    0,252;   -0,591
359,844; 1005,633;    0,343;   -1,136
360,437; 1125,121;    0,252;    0,045
361,030;  986,676;    0,525;   -0,682
361,623;  944,370;    0,434;    0,318
362,215; 1197,181;    0,979;    2,045
362,808; 1036,411;   -2,293;   -1,682
363,401;  952,485;    0,798;    0,136
363,994; 1197,137;    3,252;   -1,500
364,586;  961,269;    0,888;   -1,500
365,179;  898,762;   -0,203;   -1,136
365,772;  706,400;   -0,930;    2,045
366,364;  873,573;    1,524;   -3,227
366,957; 1008,929;    1,342;   -0,045
367,549;  911,198;   -0,203;   -0,864
368,142;  899,178;    0,978;   -1,500
368,734;  880,050;    2,523;   -2,136
369,327;  802,169;    2,341;   -0,500
369,919;  842,445;   -1,659;    0,409
370,512;  877,697;   -1,023;   -0,500
371,104; 1132,636;    2,704;    1,591
371,696; 1195,179;    1,703;   -0,955
372,289; 1043,394;    0,157;    1,136
372,881;  974,297;    1,156;    1,318
373,473;  832,819;    4,064;    1,136
374,066;  949,868;    1,336;    0,500
374,658;  904,663;    0,879;    1,136
375,250;  857,729;   -1,668;   -1,409
375,842;  906,379;   -0,124;   -0,045
376,434;  856,264;   -2,762;   -0,409
377,026;  920,752;   -1,855;   -2,500
377,618;  932,059;    0,779;   -0,682
378,210;  847,418;    3,141;   -1,955
378,802;  787,859;    3,412;   -0,591
379,394; 1275,167;    3,411;    0,682
379,986; 1033,918;    1,138;   -0,955
380,578;  934,690;    1,410;    0,773
381,170; 1165,385;    0,320;    0,045
381,762; 1034,154;   -0,224;    1,409
382,354;  984,715;   -0,223;   -1,318
382,945;  886,848;    0,870;    0,318
383,537;  853,867;    1,144;   -1,955
384,129;  869,175;    0,963;   -1,136
384,721;  995,542;    0,418;    0,955
385,312;  889,496;   -1,399;   -0,955
385,904; 1029,251;   -0,945;    1,591
386,496;  861,158;    0,691;    1,045
387,087; 1055,120;    0,418;    2,500
387,679;  979,613;   -0,401;    0,045
388,270;  991,882;   -2,401;    2,045
388,862;  949,105;   -0,401;   -0,318
389,453;  863,297;    1,054;    1,045
390,045;  929,840;    3,236;   -2,682
390,636;  853,710;    0,144;   -0,591
391,227;  877,621;    2,054;   -0,045
391,819;  892,394;    0,781;    0,773
392,410; 1174,131;    0,600;    0,045
393,001;  963,889;    1,600;   -1,591
393,593; 1046,376;    0,600;   -0,045
394,184; 1093,632;    0,873;   -0,409
394,775;  896,098;    1,146;    2,136
395,366;  895,895;    1,782;    0,773
395,957; 1109,695;   -2,400;    0,136
396,548;  990,632;    1,054;    2,682
397,139; 1161,764;    2,236;    0,591
397,730; 1017,331;    0,873;    0,955
398,321; 1024,706;    0,509;    0,955
398,912;  957,501;   -0,764;    0,136
399,503; 1004,942;   -1,945;   -1,409
400,094;  994,619;   -1,582;    1,682
400,685;  989,404;    3,600;    0,045
401,276;  886,794;   -0,400;   -0,955
401,867;  915,311;   -1,127;    0,773
402,458;  887,139;    1,509;   -2,318
403,048; 1067,277;    0,146;    0,591
403,639;  931,117;    1,509;    0,864
404,230; 1131,750;    0,691;    0,318
404,821; 1201,578;   -0,127;    0,045
405,411; 1076,908;   -0,763;   -2,591
406,002;  916,114;    3,237;   -1,136
406,592; 1206,861;    2,691;    0,045
407,183; 1044,403;    0,328;   -1,500
407,774;  980,568;    1,419;   -0,136
408,364;  983,220;    2,600;    0,409
408,954; 1108,761;   -0,036;    1,227
409,545; 1107,918;    1,873;    1,045
410,135;  994,963;   -1,581;    0,500
410,726;  957,187;    0,783;    0,318
411,316; 1209,530;    2,237;    0,773
411,906;  967,165;    0,146;   -0,409
412,497;  941,960;   -0,490;   -0,045
413,087;  923,254;    0,783;   -0,227
413,677;  905,281;   -2,490;    3,864
414,267;  872,609;   -1,035;    1,409
414,857;  842,567;    0,419;    4,227
415,448;  882,388;   -0,763;    0,500
416,038;  881,158;   -2,945;   -0,591
416,628;  928,802;    0,965;    0,409
417,218; 1008,367;   -1,762;    3,318
417,808; 1206,961;    0,965;   -0,409
418,398; 1049,881;   -1,035;    2,682
418,988;  913,827;   -2,217;    0,591
419,578; 1008,690;    3,601;    1,409
420,168; 1038,363;    0,692;   -0,955
420,757; 1175,936;    0,964;   -1,500
421,347;  998,187;    1,601;   -0,227
421,937;  953,075;    3,329;    1,409
422,527; 1115,725;    2,602;   -0,773
423,116; 1277,603;    2,692;   -0,045
423,706;  985,341;    2,965;    0,318
424,296;  873,598;    1,601;    0,682
424,885; 1126,143;    1,510;   -3,045
425,475; 1088,537;    1,147;   -2,864
426,065;  933,978;   -1,489;   -0,318
426,654;  907,315;    0,329;   -0,318
427,244; 1287,481;    1,147;    1,409
427,833; 1198,425;    1,056;   -0,500
428,423; 1034,223;    0,147;    1,136
429,012; 1125,896;    2,420;   -1,136
429,601; 1227,921;    2,057;    0,136
430,191; 1083,259;    2,511;    4,318
430,780;  891,782;   -1,671;   -0,409
431,369; 1197,292;    1,329;   -0,045
431,959; 1151,608;    1,693;    0,500
432,548; 1012,635;   -1,398;   -0,045
433,137;  930,368;    0,329;   -1,318
433,726; 1094,568;    0,148;    0,500
434,315; 1046,911;    0,148;    2,409
434,905; 1198,510;    0,693;    1,409
435,494; 1258,442;    3,148;    0,955
436,083; 1081,879;    1,420;   -0,955
436,672; 1125,430;    1,148;    0,500
437,261; 1070,333;    0,512;   -1,955
437,850; 1449,522;   -1,125;    0,682
438,439; 1489,545;    2,239;    1,955
439,027; 1599,155;    3,421;    1,773
439,616; 1559,501;    2,239;    1,227
440,205; 1228,072;    0,057;   -2,136
440,794; 1111,996;   -0,306;   -0,045
441,383; 1029,286;    1,603;   -0,591
441,971;  928,709;   -0,306;    0,591
442,560;  950,360;    0,603;   -1,773
443,149;  823,640;    3,060;   -1,318
443,737;  943,158;    0,968;   -2,318
444,326;  956,202;    0,331;    0,318
444,915; 1034,892;   -1,851;    0,864
445,503; 1065,348;    0,058;   -0,318
446,092; 1377,322;    7,876;    2,136
446,680; 1345,625;    1,876;    0,318
447,269; 1252,877;   -1,487;   -0,318
447,857; 1176,856;    2,240;   -1,773
448,445; 1122,097;    2,149;    1,318
449,034; 1093,779;    0,876;   -1,136
449,622; 1068,878;    1,240;    3,500
450,210; 1508,316;    3,149;    2,227
450,799; 1407,554;    2,604;   -0,591
451,387; 1251,894;    1,786;   -0,591
451,975; 1237,987;   -1,305;    0,864
452,563; 1395,294;    0,422;    2,318
453,151; 1094,074;   -1,032;   -1,227
453,739; 1152,857;   -1,577;    0,136
454,328; 1361,840;    0,604;   -2,136
454,916; 1198,517;    1,150;   -0,136
455,504; 1208,490;    3,513;    1,227
456,092; 1095,933;    2,150;   -1,591
456,679;  993,773;    0,604;    0,682
457,267; 1676,025;    3,604;    1,045
457,855; 1171,846;    3,241;    1,409
458,443;  882,949;   -0,304;    1,682
459,031; 1251,192;    1,332;    2,409
459,619; 1197,721;   -3,577;    2,864
460,206; 1021,705;   -0,759;    2,045
460,794; 1050,184;   -0,668;   -0,227
461,382; 1146,793;    0,878;   -0,864
461,970; 1061,060;    0,605;    1,864
462,557; 1014,592;    0,878;   -0,682
463,145; 1253,774;   -0,304;   -1,682
463,732; 1572,396;    2,514;   -1,045
464,320; 1217,683;    1,514;   -3,045
464,907; 1425,608;    0,423;   -0,773
465,495; 1279,265;    2,696;   -1,227
466,082; 1145,025;    2,060;   -0,045
466,670; 1108,785;    2,605;    1,227
467,257; 1030,138;    0,060;    2,045
467,844; 1218,304;    1,514;    0,045
468,432; 1201,612;   -0,031;    3,500
469,019; 1074,927;    1,606;   -1,773
469,606; 1190,522;    0,969;    3,682
470,193; 1245,264;    2,151;    0,227
470,780; 1197,846;    0,333;    0,864
471,368; 1102,448;   -1,212;   -0,773
471,955; 1236,194;    1,060;   -0,682
472,542; 1135,679;   -0,303;   -1,136
473,129;  951,785;   -0,485;    0,136
473,716;  949,271;    0,060;    0,591
474,303; 1014,560;    1,333;   -0,864
474,890; 1046,761;    2,333;   -0,500
475,477; 1199,408;   -0,576;    0,409
476,064; 1045,734;    0,697;   -1,591
476,650; 1188,796;    2,152;    0,318
477,237; 1081,251;    1,879;    0,955
477,824; 1055,756;    3,879;    0,864
478,411;  919,179;    0,606;   -0,318
478,997;  916,819;    0,606;   -0,773
479,584;  829,150;   -0,666;   -0,409
480,171; 1231,689;    1,243;   -0,773
480,757; 1310,910;   -0,848;    0,773
481,344; 1131,884;    0,334;    0,409
481,931;  898,899;   -0,393;    1,045
482,517; 1239,443;    0,425;    0,318
483,104; 1415,056;    1,334;    2,864
483,690; 1265,535;    0,243;    0,045
484,276; 1231,806;    0,698;    0,227
484,863; 1576,974;    2,152;    1,136
485,449; 1347,133;    0,152;    0,318
486,035; 1252,986;   -0,666;   -0,136
486,622; 1472,089;   -2,393;    0,045
487,208; 1328,109;    1,334;    1,500
487,794; 1215,811;    0,971;    0,318
488,380; 1259,330;    0,698;   -1,409
488,967; 1240,372;   -1,120;   -0,409
489,553; 1252,973;   -1,029;   -1,409
490,139; 1394,986;    0,971;    0,773
490,725; 1224,572;    0,789;   -0,227
491,311; 1230,438;    1,516;    3,045
491,897; 1050,099;   -0,665;    1,500
492,483; 1081,075;    0,426;    1,227
493,069; 1867,219;    5,426;    0,864
493,655; 1345,102;    1,789;    0,682
494,241; 1131,969;    1,517;   -0,955
494,826; 1213,510;    0,335;   -1,045
495,412; 1276,240;    0,335;   -0,682
495,998; 1150,743;    0,971;   -0,318
496,584; 1225,913;    2,244;    1,045
497,169; 1169,181;    2,335;   -0,682
497,755; 1056,651;    1,244;    1,227
498,341; 1418,991;    2,153;    0,318
498,926; 1572,391;    2,881;    1,955
499,512; 1188,395;   -0,028;    2,955
500,097; 1121,302;   -0,574;   -0,318
500,683; 1151,023;   -0,028;    2,136
501,268; 1105,406;    1,881;   -0,955
501,854; 1141,682;   -0,119;    1,227
502,439; 1070,635;   -0,573;   -1,773
503,024; 1180,653;    1,608;    0,500
503,610; 1239,450;    1,335;   -0,682
504,195; 1061,905;    1,245;    1,955
504,780; 1226,529;    2,335;    1,227
505,366; 1378,026;    4,063;    2,864
505,951; 1209,016;   -1,119;    1,045
506,536; 1131,425;    1,427;   -3,682
507,121; 1187,695;    1,699;   -0,318
507,706; 1169,446;   -0,392;    1,045
508,291; 1079,752;   -2,937;    1,136
508,876; 1047,017;   -0,482;    2,591
509,461; 1086,029;    1,427;   -0,773
510,046; 1178,817;   -0,391;    0,318
510,631; 1172,953;   -0,119;   -0,773
511,216; 1056,518;   -0,664;   -0,500
511,801; 1197,992;   -0,755;    2,591
512,386; 1213,015;    0,972;    0,500
512,971; 1235,877;    0,427;    0,955
513,555; 1298,721;    1,154;   -1,500
514,140; 1299,326;    1,336;   -3,136
514,725; 1412,309;    1,791;   -1,136
515,309; 1290,897;    1,064;    0,318
515,894; 1136,977;   -0,300;   -2,227
516,479; 1176,603;    1,973;   -0,955
517,063; 1170,712;    0,882;    1,227
517,648; 1159,017;    0,155;   -1,136
518,232; 1054,688;   -1,300;   -1,409
518,817; 1180,338;    1,337;    1,682
519,401; 1370,287;    0,700;    0,591
519,985; 1191,495;    2,700;    1,136
520,570; 1041,916;   -0,118;   -1,955
521,154; 1233,390;    0,064;    0,591
521,738; 1496,253;    1,064;    2,409
522,323; 1359,523;   -0,390;    1,682
522,907; 1278,498;    2,428;   -0,136
523,491; 1165,432;    1,155;    0,955
524,075; 1099,718;    0,428;    0,591
524,659; 1308,765;    0,973;    0,591
525,243; 1196,346;    0,883;    0,409
525,827; 1117,632;    0,883;   -0,045
526,411; 1184,492;    1,155;   -0,136
526,995; 1355,934;    0,337;    1,409
527,579; 1378,778;    1,974;   -1,045
528,163; 1318,001;    0,428;   -1,500
528,747; 1501,688;    1,065;   -0,773
529,331; 1446,196;    0,883;   -1,409
529,915; 1209,293;    2,338;    0,955
530,499; 1315,381;    0,247;    1,227
531,082; 1430,126;    1,065;    1,591
531,666; 1492,305;    0,520;    0,773
532,250; 1413,611;    0,428;    2,682
532,833; 1576,534;    0,610;    2,773
533,417; 1368,917;    1,247;    0,864
534,001; 1479,437;    0,429;   -0,318
534,584; 1429,336;    1,974;    0,500
535,168; 1229,229;    3,247;    1,409
535,751; 1638,952;    4,520;    0,045
536,334; 1261,661;    4,520;   -0,409
536,918; 1259,912;    1,974;    1,591
537,501; 1227,389;    1,520;    1,318
538,085; 1268,354;    1,702;    1,045
538,668; 1290,004;    0,883;    2,409
539,251; 1663,836;    3,156;    3,773
539,834; 1409,531;    0,156;    0,773
540,418; 1512,396;    3,247;    4,318
541,001; 1684,147;    2,702;    1,773
541,584; 1430,069;    1,429;    2,227
542,167; 1502,886;    0,702;    2,955
542,750; 1369,506;    0,793;   -0,773
543,333; 1151,770;    1,429;    2,136
543,916; 1478,232;   -0,298;    2,500
544,499; 1369,128;    2,520;    0,227
545,082; 1473,604;    0,248;    3,591
545,665; 1387,997;   -0,207;    1,500
546,248; 1530,679;    0,520;   -0,318
546,830; 1482,636;   -1,752;    1,955
547,413; 1501,183;    0,157;   -0,773
547,996; 1575,740;    0,157;    0,500
548,579; 1393,693;   -0,843;    0,955
549,161; 1651,350;    0,884;    2,682
549,744; 1540,394;    0,612;    0,409
550,326; 1481,956;    0,885;   -1,136
550,909; 1930,430;    2,339;    0,591
551,492; 1634,362;    0,521;    0,227
552,074; 1686,133;   -0,024;   -1,318
552,657; 1752,412;    2,430;    0,045
553,239; 1581,997;   -3,024;   -0,773
553,821; 1504,745;   -1,570;    1,045
554,404; 1689,492;   -0,024;    1,136
554,986; 1819,770;    2,248;    1,045
555,568; 1712,993;    0,430;   -0,955
556,151; 1876,461;    4,067;   -0,227
556,733; 1569,548;   -1,388;   -0,864
557,315; 1591,716;    4,703;    0,500
557,897; 1399,953;    0,521;   -0,500
558,479; 1417,609;    1,703;    1,318
559,061; 1544,760;    1,067;   -0,864
559,643; 1662,462;   -0,297;    0,045
560,225; 1699,832;   -0,388;    2,864
560,807; 1584,008;    0,340;    0,318
561,389; 1502,508;   -1,206;    2,318
561,971; 1559,179;   -0,660;    2,136
562,553; 1566,225;    0,613;    1,591
563,135; 1646,749;    1,249;    1,136
563,717; 2000,375;    3,158;    1,136
564,298; 1896,004;    3,976;   -0,045
564,880; 1619,348;    0,340;   -1,409
565,462; 1495,530;    1,977;    1,318
566,043; 1831,175;   -0,933;    2,318
566,625; 1988,531;    4,067;    1,227
567,207; 1747,222;    0,704;    1,682
567,788; 1739,080;   -0,114;    1,500
568,370; 1864,734;   -1,841;   -0,500
568,951; 1721,316;   -0,569;    0,227
569,533; 1913,302;    0,977;   -0,500
570,114; 2035,251;   -0,296;    0,682
570,695; 2047,929;   -0,478;   -1,318
571,277; 2017,663;   -0,205;   -1,682
571,858; 2244,130;    2,704;   -1,136
572,439; 2282,204;    0,795;   -1,045
573,021; 2258,999;    0,432;   -2,773
573,602; 2394,257;    1,795;    0,318
574,183; 2408,359;   -0,114;    2,227
574,764; 2440,696;    2,068;    0,409
575,345; 2556,603;    0,250;   -0,136
575,926; 2543,583;    2,704;    0,136
576,507; 2609,704;    2,704;   -0,227
577,088; 2702,065;    1,704;    1,682
577,669; 2836,579;    1,704;    1,955
578,250; 3044,269;   -0,750;   -1,045
578,831; 2907,359;   -0,841;   -2,227
579,412; 2789,865;   -1,205;    0,955
579,993; 3081,432;    1,432;    0,227
580,573; 3100,534;   -0,023;   -0,955
581,154; 2786,135;    1,613;   -0,591
581,735; 2979,932;    0,341;    0,773
582,315; 2846,295;    0,523;    2,136
582,896; 3016,242;   -1,750;    1,227
583,477; 2858,617;    0,614;    1,227
584,057; 2934,793;    1,159;    0,955
584,638; 3003,887;   -2,750;    2,318
585,218; 3214,050;    2,886;    2,682
585,799; 3084,533;    1,977;   -0,227
586,379; 2990,792;    1,250;    1,591
586,959; 2858,183;    2,613;    0,318
587,540; 2707,145;    0,432;    2,227
588,120; 2624,282;   -1,113;   -0,045
588,700; 2504,645;    2,977;    2,136
589,281; 2757,347;    1,250;   -0,955
589,861; 2626,125;   -0,296;   -1,682
590,441; 2551,999;   -1,477;   -2,682
591,021; 2370,242;    1,432;   -2,591
591,601; 2463,283;    0,431;    0,500
592,181; 2536,981;   -1,296;   -0,773
592,761; 2242,429;    2,250;    1,409
593,341; 2387,445;    1,522;    0,045
593,921; 2363,698;   -0,569;    1,591
594,501; 2248,913;    1,250;    1,318
595,081; 2240,958;    0,522;   -0,318
595,661; 2471,771;    1,068;    0,955
596,240; 2504,468;   -1,023;    0,136
596,820; 2643,863;    2,613;    1,955
597,400; 2398,204;    1,977;    0,773
597,980; 2401,679;   -0,750;    1,045
598,559; 2402,543;    0,341;   -0,227
599,139; 2377,137;   -0,750;   -1,227
599,718; 2358,046;    0,795;   -0,409
600,298; 2411,910;   -2,387;    0,682
600,877; 2773,339;    4,795;    1,409
601,457; 2662,007;    0,340;    1,136
602,036; 2516,912;    1,795;    2,045
602,616; 2471,762;    2,250;    1,682
603,195; 2624,908;    0,431;    3,500
603,774; 2559,772;   -0,296;    2,045
604,354; 2472,694;    2,522;   -0,500
604,933; 2361,623;    0,250;    1,864
605,512; 2563,080;    2,340;    0,591
606,091; 2557,849;    1,886;    3,773
606,671; 2610,830;    0,249;    0,773
607,250; 2609,028;    1,431;    3,136
607,829; 2615,115;    1,158;    3,227
608,408; 2491,466;    4,613;    2,591
608,987; 2458,216;    2,704;    3,409
609,566; 2324,870;    0,341;   -2,500
610,145; 2412,973;    2,885;    0,682
610,723; 2578,735;    1,613;    6,864
611,302; 2318,052;    1,067;    1,682
611,881; 2452,935;    5,158;   11,227
612,460; 2329,866;    0,795;    3,955
613,039; 2404,525;    1,703;    2,045
613,617; 2155,514;    0,886;    4,773
614,196; 2180,505;    1,613;    1,227
614,775; 2332,324;    1,249;    2,409
615,353; 2353,142;   -1,660;    0,864
615,932; 2265,800;    0,249;    2,409
616,510; 2407,498;    0,158;    0,591
617,089; 2793,185;    8,794;   17,591
617,667; 2444,626;    4,885;    6,136
618,246; 2067,895;   -1,115;    1,318
618,824; 2216,198;    1,612;   -0,955
619,402; 2170,570;    0,431;   -1,773
619,981; 2331,828;    1,067;   -1,045
620,559; 2321,480;    0,794;    1,682
621,137; 2334,344;    3,067;    1,864
621,715; 2017,561;    3,703;   -0,682
622,293; 2058,697;    1,885;   -0,773
622,871; 2310,898;    0,340;    0,500
623,450; 2146,166;    0,430;   -0,864
624,028; 2292,747;   -0,388;   -0,955
624,606; 2175,207;    2,339;    1,682
625,183; 2079,182;   -0,661;   -1,136
625,761; 2116,810;    1,885;    1,136
626,339; 2511,517;    2,339;    2,591
626,917; 2255,913;    0,339;   -0,045
627,495; 2269,031;    2,794;    1,318
628,073; 2213,276;    5,248;    2,864
628,650; 2169,377;    3,067;    2,136
629,228; 2255,864;    1,248;    4,409
629,806; 1977,120;   -0,024;    1,136
630,383; 2072,344;    0,066;   -0,318
630,961; 2057,668;   -2,206;   -0,955
631,539; 2011,779;   -2,479;    0,227
632,116; 2693,395;   12,703;   15,409
632,694; 2340,269;    4,885;    6,500
633,271; 2147,922;    1,975;    2,682
633,848; 2268,217;    1,430;    2,045
634,426; 2089,748;    1,521;    1,773
635,003; 1925,727;   -0,207;   -0,409
635,580; 2257,149;    1,884;    3,682
636,158; 2108,191;    3,793;    1,227
636,735; 1967,561;    3,339;   -0,500
637,312; 1974,255;    0,521;   -0,682
637,889; 1984,796;    2,248;   -0,682
638,466; 1970,192;    0,066;   -0,409
639,043; 1962,051;    1,702;   -1,136
639,620; 1972,677;    0,611;   -0,955
640,197; 2111,995;    1,612;    1,682
640,774; 2091,288;    1,430;    1,136
641,351; 2150,945;    0,612;    1,136
641,928; 2186,238;    2,794;    1,409
642,505; 2314,531;    0,794;   -0,500
643,082; 2194,005;    1,885;    1,227
643,658; 1849,298;    1,157;    1,500
644,235; 1971,773;   -2,479;    2,500
644,812; 2131,611;    1,794;    0,773
645,388; 2096,086;    1,612;    1,409
645,965; 1877,742;    1,521;    1,682
646,542; 1900,399;    3,430;   -0,227
647,118; 2348,328;    3,703;   -0,955
647,695; 2179,076;    0,339;    1,136
648,271; 1962,278;   -2,115;    0,500
648,848; 2103,661;    0,248;    2,227
649,424; 2212,409;    0,976;    1,318
650,000; 1914,793;   -0,388;   -1,045
650,577; 2011,722;    0,158;   -0,955
651,153; 2136,379;   -1,115;    0,955
651,729; 2128,308;    0,521;    0,864
652,305; 2377,692;    1,339;    2,773
652,881; 2693,348;   -1,297;    1,136
653,458; 3442,732;    0,249;    0,227
654,034; 3958,570;    0,703;    1,591
654,610; 4042,045;    0,339;    0,773
655,186; 4496,883;    1,612;    3,045
655,762; 4219,085;   -1,842;    0,409
656,338; 4175,833;    0,703;    0,136
656,913; 4482,126;   -0,297;    0,409
657,489; 4243,237;    0,249;   -0,318
658,065; 4351,530;    0,794;   -1,591
658,641; 4608,913;    2,158;   -0,864
659,217; 4370,206;    2,067;    0,409
659,792; 4123,045;   -1,751;   -0,409
660,368; 4229,701;   -0,388;   -0,682
660,944; 4460,449;    1,794;    1,227
661,519; 3915,742;    0,522;    0,409
662,095; 3075,307;   -0,206;    0,591
662,670; 2376,782;   -0,206;   -0,136
663,246; 2323,348;   -0,660;   -0,409
663,821; 2332,004;    0,431;    1,682
664,396; 2089,661;    0,613;    1,864
664,972; 2121,408;   -0,660;   -0,500
665,547; 2275,428;    3,794;    0,136
666,122; 2199,176;    1,340;    0,318
666,698; 2383,741;    2,431;    0,318
667,273; 2027,761;    0,885;    0,136
667,848; 2201,145;    0,340;    1,500
668,423; 2266,165;    1,795;    2,318
668,998; 2209,822;    0,976;   -0,682
669,573; 2280,933;    2,067;   -1,500
670,148; 2399,590;    1,885;   -0,682
670,723; 2138,519;   -0,024;    0,318
671,298; 2508,539;   -1,296;    1,045
671,873; 2366,741;   -0,296;   -0,136
672,448; 2357,579;    1,704;    0,136
673,023; 2372,145;    0,249;   -0,227
673,597; 2552,801;    2,704;    2,318
674,172; 2521,458;    2,431;    0,318
674,747; 2383,842;   -0,205;   -1,045
675,321; 2197,135;   -0,933;    3,318
675,896; 2052,337;    2,158;    1,045
676,471; 2292,721;    2,522;    1,591
677,045; 2207,559;   -0,296;    0,682
677,620; 2220,397;    2,158;    1,136
678,194; 2268,326;    0,249;    1,136
678,769; 2236,438;    0,886;   -0,318
679,343; 2303,730;   -0,023;    1,773
679,917; 2378,478;    0,340;    1,955
680,492; 2221,407;    0,249;    3,227
681,066; 2280,427;    0,613;    0,409
681,640; 2273,993;    1,795;   -0,318
682,214; 2382,649;    2,340;    0,500
682,788; 2304,397;    0,613;   -0,773
683,363; 2339,053;    1,977;    1,682
683,937; 2180,983;    0,886;   -0,318
684,511; 2417,094;   -1,023;   -0,591
685,085; 2362,205;   -1,478;    0,318
685,659; 2224,498;    1,431;    0,864
686,232; 2444,972;    1,159;   -0,318
686,806; 2342,356;    2,159;    0,409
687,380; 2421,649;   -1,932;    0,591
687,954; 2452,124;    2,432;    1,136
688,528; 2546,871;    2,613;    1,955
689,101; 2614,619;    0,432;    1,045
689,675; 2390,639;    0,886;   -0,136
690,249; 2450,932;    3,432;    0,409
690,822; 2518,952;    1,159;    0,318
691,396; 2384,063;    2,068;    1,227
691,969; 2272,629;    2,523;    0,136
692,543; 2366,013;   -0,568;   -1,955
693,116; 2181,305;   -0,659;   -1,409
693,690; 2253,780;   -0,296;    0,500
694,263; 2370,164;    2,341;    2,955
694,836; 2621,548;    2,795;    3,591
695,410; 2312,932;    1,159;    1,773
695,983; 2358,588;    1,614;    0,591
696,556; 2237,972;   -0,750;   -1,045
697,129; 2317,083;   -1,114;    1,409
697,703; 2301,558;    1,341;    1,955
698,276; 2313,032;    1,705;   -0,773
698,849; 2349,780;   -1,023;    1,409
699,422; 2221,982;    1,250;    0,591
699,995; 2107,275;   -0,659;    0,136
700,568; 2297,568;   -0,204;    3,045
701,140; 2315,315;   -1,841;    1,682
701,713; 2426,699;    0,341;    2,409
702,286; 2325,901;    0,796;    0,864
702,859; 2315,739;    0,614;   -0,591
703,432; 2260,487;   -0,841;    0,682
704,004; 2242,052;    1,978;    0,318
704,577; 2074,618;    1,068;    0,136
705,150; 2174,638;    0,887;    2,500
705,722; 2273,386;    1,523;   -3,227
706,295; 2290,315;    1,432;   -0,591
706,867; 2094,790;    0,250;    1,955
707,440; 2308,173;   -0,113;   -0,409
708,012; 2371,830;   -0,022;    0,591
708,584; 2239,486;    2,705;    0,227
709,157; 2237,234;    1,160;   -0,591
709,729; 2361,436;    1,069;    2,045
710,301; 2449,001;   -1,204;    0,045
710,874; 2419,567;    0,341;   -0,227
711,446; 2057,224;   -0,295;    0,864
712,018; 2159,062;   -3,022;    0,500
712,590; 2064,446;   -0,204;    1,682
713,162; 2394,011;   -0,477;    1,318
713,734; 2264,122;    1,796;   -2,045
714,306; 2214,234;    0,342;   -0,409
714,878; 2035,254;   -0,295;    0,864
715,450; 2172,728;   -0,113;    0,864
716,022; 2231,385;    2,433;    1,318
716,593; 2242,405;    0,978;    0,591
717,165; 2286,880;    1,796;   -1,227
717,737; 2420,809;    0,796;    0,409
718,309; 2266,284;    1,160;   -0,045
718,880; 2195,031;   -1,295;   -1,409
719,452; 2294,506;    0,887;   -1,591
720,024; 2251,526;    1,705;   -0,591
720,595; 2264,001;    2,978;    0,955
721,167; 2136,839;    1,160;   -2,045
721,738; 2139,587;    2,069;   -1,045
722,309; 2192,880;    1,251;   -1,227
722,881; 2042,172;    2,705;    0,773
723,452; 2239,556;    1,251;    2,864
724,023; 2287,758;    1,524;    2,682
724,595; 2316,687;    2,342;    0,682
725,166; 2115,162;    1,524;   -0,409
725,737; 2253,819;    1,887;    0,227
726,308; 2176,657;    0,797;    0,318
726,879; 2109,677;    1,069;    1,227
727,450; 2249,697;   -2,022;   -0,045
728,021; 2133,354;    1,069;    0,682
728,592; 2268,556;    1,160;    0,500
729,163; 2411,122;    1,433;   -0,136
729,734; 2387,869;    2,160;   -0,227
730,305; 2270,162;    0,615;    0,136
730,876; 2258,909;    0,888;    2,955
731,447; 2548,930;    0,797;    2,682
732,017; 2441,677;   -0,840;    1,864
732,588; 2324,243;   -0,021;    1,227
733,159; 2484,990;    3,615;   -1,045
733,729; 2226,828;    1,251;    0,409
734,300; 2272,849;    0,160;    0,864
734,870; 2204,323;   -1,385;    0,591
735,441; 2237,707;    0,888;   -0,591
736,011; 2095,727;    1,070;   -1,591
736,582; 2142,929;    1,251;    0,045
737,152; 2117,222;    0,979;   -2,045
737,722; 2199,424;    1,070;   -0,682
738,293; 2055,444;   -2,021;    1,318
738,863; 2215,464;    1,797;    2,318
739,433; 2452,121;    4,524;    0,318
740,003; 2330,959;    1,524;   -0,682
740,573; 2352,434;    2,252;   -1,591
741,143; 2301,000;    3,615;    0,318
741,713; 2271,747;    0,252;   -0,500
742,283; 2250,404;    1,706;    1,591
742,853; 2165,151;    0,524;    1,591
743,423; 1989,717;    0,161;    0,045
743,993; 2072,555;    1,070;    1,500
744,563; 1946,848;    2,524;   -0,864
745,133; 1999,595;   -0,112;   -0,864
745,702; 2107,525;    2,797;    1,773
746,272; 2128,181;    0,434;    0,591
746,842; 2135,474;   -0,748;   -0,591
747,411; 2054,494;   -0,839;   -0,318
747,981; 1991,605;   -0,930;    0,500
748,551; 2008,807;   -0,021;   -1,045
749,120; 2093,464;   -0,112;   -0,227
749,690; 2120,666;    2,161;    2,409
750,259; 2265,322;    0,979;    2,955
750,828; 2276,433;    4,070;   -1,955
751,398; 2131,635;   -0,112;   -0,045
751,967; 2462,837;    2,888;    0,409
752,536; 2195,676;    1,161;   -0,227
753,105; 2331,423;   -1,384;    0,227
753,675; 2137,898;   -0,112;    1,773
754,244; 2150,736;    0,888;    3,591
754,813; 2173,847;    0,979;    1,227
755,382; 2091,595;    0,798;    0,955
755,951; 2232,797;   -0,112;    3,682
756,520; 2270,544;    2,525;    1,864
757,089; 2509,383;    1,888;    0,500
757,658; 2215,857;    2,434;    1,227
758,227; 2087,787;   -1,111;    0,318
758,795; 2172,898;   -1,021;    1,136
759,364; 2312,827;    0,525;   -0,591
759,933; 2035,756;    1,343;   -0,045
760,501; 1983,049;    0,252;   -1,318
761,070; 2145,069;   -0,293;   -1,409
761,639; 2337,362;    1,434;    1,318
762,207; 2182,291;    0,889;   -0,955
762,776; 2253,948;    2,889;    0,864
763,344; 2110,786;    0,071;    0,591
763,913; 1811,534;    1,616;    1,409
764,481; 2428,099;    1,980;   -0,136
765,049; 2384,301;    0,616;    1,409
765,618; 2261,594;    1,434;    0,318
766,186; 2161,433;    2,434;    0,136
766,754; 2195,907;    1,798;    1,864
767,322; 1902,837;    1,162;    0,409
767,890; 1856,584;    0,525;   -1,773
768,459; 2022,422;    2,616;   -0,318
769,027; 2251,988;    2,525;    3,409
769,595; 1976,735;    2,616;    2,591
770,163; 2034,937;    3,344;    2,955
770,730; 1998,048;    2,525;   -0,136
771,298; 1991,160;    1,162;   -1,409
771,866; 1990,543;    0,253;    4,955
772,434; 2027,473;    1,162;   -1,864
773,002; 2278,129;    2,616;    0,682
773,569; 2142,240;    1,071;    1,682
774,137; 2212,624;    0,889;   -0,045
774,705; 2185,917;   -0,747;   -0,136
775,272; 2015,119;    0,253;    0,682
775,840; 2123,775;   -0,111;    2,682
776,407; 2082,250;   -0,293;    1,955
776,975; 1831,452;    1,162;    0,318
777,542; 1994,836;    2,162;   -0,045
778,110; 2031,674;    0,707;   -0,045
778,677; 1885,331;    1,071;   -0,864
779,244; 1921,624;   -1,020;    1,045
779,812; 2079,644;    0,980;    0,864
780,379; 2094,028;    2,435;    1,136
780,946; 2002,412;    2,617;   -0,773
781,513; 2014,250;   -0,565;    0,318
782,080; 1835,179;    1,253;    2,864
782,647; 1965,108;    1,708;    3,045
783,214; 1911,038;   -0,201;    3,864
783,781; 2014,876;    1,708;   -0,682
784,348; 1990,896;    0,253;    1,500
784,915; 1865,553;   -1,474;    0,318
785,482; 2044,118;    2,708;    2,591
786,049; 2092,048;    1,071;   -0,591
786,615; 2025,250;    1,708;   -0,955
787,182; 1943,361;   -3,201;   -0,682
787,749; 1918,563;   -2,201;    1,409
788,315; 1934,128;    0,253;   -0,409
788,882; 1949,058;    0,981;   -1,227
789,448; 2234,260;    1,435;   -0,955
790,015; 2043,916;    1,799;    3,227
790,581; 2140,118;    0,708;    0,227
791,148; 1944,866;    1,344;    1,045
791,714; 1937,795;   -1,019;    3,136
792,280; 1901,088;    3,708;    1,591
792,847; 1836,653;   -0,928;    2,500
793,413; 1915,855;   -0,110;   -0,318
793,979; 2002,148;    1,526;   -1,318
794,545; 2325,077;    2,981;    2,682
795,111; 2124,734;    2,435;    1,318
795,678; 1990,572;    3,526;   -1,682
796,244; 2158,956;    2,799;    0,136
796,810; 2111,340;    0,799;    0,773
797,375; 2078,360;   -0,292;   -2,136
797,941; 1735,471;   -1,110;    0,591
798,507; 1718,764;    0,254;   -0,955
799,073; 1714,875;    2,708;    0,591
799,639; 1795,350;    1,435;    3,136
800,205; 1744,370;   -1,565;    2,682
800,770; 1683,481;    1,345;    1,773
801,336; 1630,956;    2,981;   -0,955
801,901; 2259,885;    6,072;    3,136
802,467; 1992,542;    0,526;    2,045
803,033; 1666,016;   -0,019;    0,864
803,598; 1670,855;    1,072;   -1,045
804,163; 1739,057;    0,708;   -0,318
804,729; 1810,531;   -0,110;    1,136
805,294; 1753,279;    1,072;    2,227
805,859; 1658,026;    0,890;   -0,409
806,425; 2020,956;    3,890;    2,682
806,990; 1971,248;    1,890;    4,318
807,555; 1802,632;   -0,110;    2,591
808,120; 1940,289;   -1,292;   -0,409
808,685; 1673,036;    1,072;   -2,500
809,250; 1528,238;    2,072;   -0,500
809,815; 1623,804;   -0,201;    0,682
810,380; 1825,369;    0,981;    1,591
810,945; 1975,117;    2,890;    2,045
811,510; 1801,773;   -0,200;    1,591
812,075; 1750,794;    2,800;   -1,409
812,640; 2022,541;    3,709;    1,409
813,204; 1812,016;    2,163;   -0,227
813,769; 2032,945;    0,254;   -0,045
814,334; 1971,238;    0,527;    0,864
814,898; 1724,985;    1,981;    0,591
815,463; 1736,642;    0,981;   -0,773
816,027; 1677,935;    1,345;   -2,318
816,592; 1708,137;    2,163;   -2,045
817,156; 1738,248;   -2,200;    1,136
817,721; 1786,632;    0,982;    2,318
818,285; 1590,561;    0,618;    1,500
818,849; 1721,308;   -0,018;    1,682
819,414; 1601,238;    0,073;    2,955
819,978; 1538,258;   -0,291;    1,773
820,542; 1954,278;    2,891;    0,500
821,106; 1794,116;    2,800;    0,682
821,670; 1950,409;    2,709;    2,591
822,234; 1699,520;    1,073;    1,409
822,798; 1558,450;   -0,836;    0,500
823,362; 1853,379;    1,527;    4,227
823,926; 1572,126;   -0,018;    1,136
824,490; 1769,056;    3,527;   -0,682
825,054; 1701,621;    2,527;   -1,136
825,618; 1538,823;   -1,200;   -1,500
826,181; 1580,298;    0,982;   -1,318
826,745; 1639,682;   -0,745;   -1,045
827,309; 1924,611;    2,255;    1,318
827,872; 1771,449;    0,527;    0,955
828,436; 1733,833;    1,982;   -0,773
828,999; 1693,035;    2,436;    1,227
829,563; 1608,419;   -0,654;    1,136
830,126; 1563,621;   -0,018;   -0,591
830,690; 1597,186;    0,709;    2,864
831,253; 1474,298;   -0,473;    2,227
831,816; 1529,318;   -0,018;    0,500
832,380; 1455,974;    1,164;    0,864
832,943; 1469,631;    3,073;   -0,500
833,506; 1481,742;    0,255;   -1,227
834,069; 1711,580;    2,164;   -0,955
834,632; 1612,691;   -2,200;    1,318
835,195; 1603,439;    1,346;    0,955
835,758; 1502,913;    0,709;    1,955
836,321; 1433,297;    1,073;   -1,045
836,884; 1452,227;   -1,291;   -0,955
837,447; 1446,338;    0,528;    1,773
838,010; 1587,903;    1,800;    3,227
838,573; 1667,014;    0,528;    0,773
839,135; 1568,580;   -0,109;   -0,955
839,698; 1507,327;    2,528;    0,409
840,261; 1442,620;    0,255;   -0,227
840,823; 1398,731;   -0,927;    0,864
841,386; 1378,024;   -0,018;   -2,409
841,948; 1713,408;    0,255;    1,773
842,511; 1432,701;    0,255;    1,682
843,073; 1680,085;    2,982;    0,227
843,636; 1446,378;    0,619;   -0,227
844,198; 1643,761;    1,255;    0,591
844,760; 1616,327;    0,619;    1,955
845,322; 1382,893;    0,164;    1,136
845,885; 1538,367;   -0,290;    0,591
846,447; 1526,842;    0,710;    0,227
847,009; 1826,771;    3,983;   -0,682
847,571; 1541,064;    1,346;   -2,045
848,133; 1509,630;   -0,199;   -1,864
848,695; 1384,468;    2,346;    1,409
849,257; 1431,852;    1,346;   -1,682
849,819; 1597,690;    2,983;   -0,409
850,381; 1466,438;    1,801;   -0,864
850,942; 1534,185;    1,892;   -0,591
851,504; 1556,296;    0,983;    0,227
852,066; 1483,953;    1,619;   -1,591
852,628; 1474,791;    0,165;    1,955
853,189; 1303,811;    0,256;    2,682
853,751; 1380,559;   -0,654;    1,409
854,312; 1531,670;    1,256;   -1,682
854,874; 1687,599;   -0,108;   -0,773
855,435; 1507,619;    0,528;   -1,682
855,997; 1617,185;    3,983;   -0,136
856,558; 1607,932;    0,801;    1,773
857,119; 1489,225;   -0,744;    2,864
857,681; 1347,155;   -0,108;    0,318
858,242; 1569,084;    1,347;   -2,136
858,803; 1638,922;    1,074;   -0,773
859,364; 1572,670;    0,892;   -4,773
859,925; 1597,417;   -0,290;   -0,955
860,486; 1495,892;    0,529;   -0,955
861,047; 1371,821;    0,165;   -1,227
861,608; 1396,569;    0,165;   -0,773
862,169; 1348,134;   -0,562;   -0,045
862,730; 1391,063;   -0,290;    1,409
863,291; 1464,629;    0,438;   -0,500
863,852; 1443,286;   -0,926;    1,955
864,412; 1380,760;   -1,835;   -0,864
864,973; 1538,144;    1,892;    0,500
865,534; 1679,710;    2,074;    0,227
866,094; 1538,366;    2,620;    0,227
866,655; 1616,205;    4,711;    3,318
867,215; 1483,588;    0,074;    0,136
867,776; 1390,972;   -1,199;   -0,136
868,336; 1450,083;    1,529;    0,136
868,897; 1794,649;    3,438;    1,682
869,457; 1576,396;    3,256;    0,318
870,017; 1424,598;    2,438;   -1,227
870,578; 1448,800;    1,893;    0,773
871,138; 1405,639;    2,620;   -0,955
871,698; 1278,659;   -0,562;   -1,318
872,258; 1396,588;    0,711;   -2,864
872,818; 1639,154;    2,347;    0,045
873,378; 1427,628;   -2,198;    1,045
873,938; 1367,649;    4,984;    0,500
874,498; 1290,032;    1,256;   -1,955
875,058; 1347,689;    4,347;    1,773
875,618; 1343,436;    1,438;   -2,682
876,177; 1406,820;   -0,471;    0,136
876,737; 1168,204;   -0,289;    1,955
877,297; 1589,861;    2,711;    1,955
877,856; 1519,699;    2,529;    0,318
878,416; 1261,265;    2,438;   -0,136
878,976; 1256,194;    3,438;    0,409
879,535; 1321,123;    4,529;    3,136
880,095; 1304,416;    1,347;    0,045
880,654; 1203,982;    0,347;    1,318
881,213; 1534,184;    2,347;    1,500
881,773; 1340,840;    1,984;    2,682
882,332; 1963,497;    6,075;    5,136
882,891; 1388,790;    0,711;    2,136
883,451; 1394,810;   -2,016;    1,682
884,010; 1282,921;   -1,107;   -0,409
884,569; 1250,668;   -2,289;   -0,045
885,128; 1464,052;   -0,743;   -1,864
885,687; 1751,163;   -0,743;    0,682
886,246; 1913,183;    2,620;    2,136
886,805; 1606,203;    1,620;    2,045
887,364; 1295,405;    1,166;   -0,500
887,922; 1234,153;   -0,016;    0,045
888,481; 1362,537;    1,530;    0,591
889,040; 1520,102;    3,711;    2,136
889,599; 1395,486;    2,166;    1,409
890,157; 1385,961;    2,166;    2,409
890,716; 1297,617;    2,166;    0,227
891,274; 1385,910;    0,075;   -1,136
891,833; 1483,476;    1,166;    0,864
892,391; 1319,951;    1,802;    0,500
892,950; 1498,607;    0,166;   -0,773
893,508; 1314,900;    0,984;   -0,409
894,067; 1176,557;   -0,379;    0,136
894,625; 1284,486;   -1,016;   -1,500
895,183; 1246,961;   -0,198;   -0,682
895,741; 1567,435;    2,257;   -1,773
896,299; 1340,274;    1,621;   -2,409
896,858; 1255,657;    1,530;   -1,591
897,416; 1390,859;    0,166;   -1,318
897,974; 1305,061;   -2,197;    0,318
898,532; 1818,536;    6,530;    2,682
899,089; 1447,284;    0,621;   -0,682
899,647; 1343,304;    0,530;    1,318
900,205; 1376,051;    0,257;    1,045
900,763; 1384,253;    2,166;    0,227
901,321; 1345,182;    3,530;   -1,409
901,878; 1166,748;    3,257;   -0,773
902,436; 1202,768;    0,257;    1,318
902,994; 2020,425;    6,712;    3,682
903,551; 1487,354;    1,439;    0,409
904,109; 1388,465;    1,530;   -1,409
904,666; 1321,303;    1,439;    1,045
905,224; 1204,142;    3,894;   -0,409
905,781; 1330,435;   -0,470;   -0,318
906,338; 1264,273;    0,167;    1,045
906,895; 1157,657;    1,894;    2,045
907,453; 1454,859;    2,348;    1,136
908,010; 1280,879;    3,348;    0,409
908,567; 1213,081;   -0,561;    0,591
909,124; 1032,192;    2,439;   -1,500
909,681; 1095,212;   -1,288;    0,682
910,238; 1183,505;   -0,106;   -1,318
910,795; 1166,071;   -1,561;   -1,136
911,352; 1140,889;   -0,379;   -2,682
911,909; 1127,434;    2,803;   -0,864
912,466; 1187,889;    1,985;    1,500
913,022; 1195,616;   -0,924;    0,500
913,579; 1321,525;   -0,470;    2,045
914,136; 1170,798;   -2,561;    0,955
914,692; 1242,343;    1,530;   -1,227
915,249; 1183,525;    0,530;    0,409
915,806; 1266,798;    1,803;    1,955
916,362; 1161,707;    0,894;    1,864
916,918; 1067,889;    2,439;    1,045
917,475; 1289,162;    1,621;    0,955
918,031; 1115,434;    0,076;   -0,045
918,587; 1160,707;    0,621;   -0,318
919,144; 1069,343;   -0,379;    0,227
919,700; 1030,253;    0,167;    0,773
920,256; 1000,253;    0,439;    0,045
920,812; 1026,525;    1,439;   -1,045
921,368;  994,525;    1,348;   -1,045
921,924;  984,343;    0,439;   -0,136
922,480; 1078,616;    0,076;    1,227
923,036; 1121,525;   -0,652;    1,955
923,592; 1023,889;    0,621;    0,318
924,148; 1036,616;    1,894;   -0,955
924,704; 1168,253;    0,258;   -0,409
925,259; 1030,616;   -0,561;    0,591
925,815;  969,616;    3,803;    0,500
926,371;  926,071;    3,530;    1,409
926,926; 1093,980;    1,621;    0,591
927,482; 1048,616;    1,621;    0,773
928,037;  963,616;   -0,833;    2,045
928,593; 1192,889;    0,258;    1,045
929,148;  934,162;    1,167;   -1,500
929,704;  980,980;    2,439;   -0,500
930,259;  883,980;    0,894;   -0,136
930,814; 1075,798;    1,803;    1,955
931,369;  994,707;    0,258;   -0,773
931,925;  792,616;   -1,924;    0,136
932,480;  889,162;    3,076;   -2,591
933,035; 1271,707;    3,985;   -0,318
933,590; 1143,889;   -1,742;   -1,773
934,145;  750,162;   -1,288;   -0,318
934,700;  683,616;    0,348;   -0,591
935,255;  751,525;    4,803;    0,045
935,809; 1056,253;    6,258;    0,864
936,364;  670,071;    2,167;   -0,136
936,919;  677,525;    2,348;   -1,773
937,474;  599,798;    1,348;    0,136
938,028;  622,525;    3,076;    1,136
938,583; 1006,616;    6,348;    4,682
939,138;  684,253;    0,167;    2,136
939,692;  540,980;   -1,015;   -1,136
940,247;  565,071;    1,167;   -1,045
940,801;  622,343;    0,621;    0,227
941,355;  538,889;    0,439;    2,591
941,910;  428,434;    0,712;   -2,136
942,464;  469,707;    2,712;   -0,318
943,018;  713,616;    3,258;   -0,227
943,572;  546,980;    2,803;   -0,682
944,126;  588,434;   -0,924;   -0,409
944,681;  464,525;    0,712;    0,227
945,235;  415,343;    2,167;   -0,591
945,789;  379,434;    1,258;   -1,864
946,342;  657,434;   -0,561;   -0,591
946,896;  420,889;    0,348;    0,955
947,450;  397,253;   -0,561;   -0,227
948,004;  644,071;    1,076;   -0,045
948,558;  459,798;    1,258;   -0,864
949,111;  445,980;   -1,197;   -0,318
949,665;  639,434;   -0,106;   -0,682
950,219;  591,889;    0,621;   -1,045
950,772;  512,707;    0,258;    1,864
951,326;  510,162;   -1,106;   -0,955
951,879;  440,434;    1,076;   -2,318
952,433;  565,980;    1,348;    2,227
952,986;  406,616;    0,348;    0,682
953,539;  369,071;    1,530;    0,591
954,093;  320,798;    0,985;   -1,318
954,646;  454,253;   -0,288;    1,318
955,199;  374,798;    1,258;   -0,500
955,752;  578,253;    1,985;    1,773
956,305;  427,525;    0,894;    2,955
956,858;  481,980;    0,621;   -0,318
957,411;  540,343;    3,621;    2,136
957,964;  437,343;    2,076;    2,136
958,517;  371,980;    0,985;    3,136
959,070;  329,434;   -1,197;    1,955
959,623;  590,798;    1,076;    1,500
960,176;  539,343;    0,712;    2,045
960,728;  501,071;    1,712;    0,773
961,281;  455,798;    2,258;    0,500
961,834;  374,434;   -0,833;    0,864
962,386;  383,889;    1,258;    1,045
962,939;  343,980;    3,439;   -0,318
963,491;  394,253;    2,621;    1,136
964,043;  333,798;    0,076;    2,409
964,596;  502,798;    1,712;    2,227
965,148;  413,434;   -0,379;    1,773
965,700;  336,525;   -0,015;   -0,227
966,253;  487,798;   -0,833;    0,318
966,805;  440,343;    1,894;    0,773
967,357;  374,071;    0,439;   -1,500
967,909;  475,798;    1,167;   -1,227
968,461;  381,434;    0,894;    3,136
969,013;  330,525;   -1,561;   -0,864
969,565;  480,889;    1,803;   -1,136
970,117;  700,616;    3,803;    1,045
970,669;  474,434;    3,258;   -0,136
971,220;  288,798;    2,167;   -1,500
971,772;  368,525;    1,348;   -0,318
972,324;  455,798;   -1,197;   -0,500
972,876;  367,343;    0,167;   -0,045
973,427;  476,343;   -1,197;   -1,045
973,979;  548,071;    0,076;   -2,500
974,530;  362,525;    0,803;    1,318
975,082;  422,162;    2,167;    1,682
975,633;  366,071;    2,894;    1,682
976,184;  424,889;    2,076;    0,773
976,736;  412,525;    0,348;    0,227
977,287;  412,798;    0,258;   -0,500
977,838;  390,162;   -0,924;   -0,318
978,389;  397,162;    0,803;   -0,500
978,940;  273,798;    1,258;   -0,409
979,491;  270,253;    2,258;   -0,500
980,042;  357,253;   -0,652;    3,045
980,593;  365,253;    1,894;    0,227
981,144;  454,980;    3,530;   -0,500
981,695;  492,162;   -0,470;    1,500
982,246;  437,980;   -1,833;    1,045
982,797;  323,071;   -0,561;    0,682
983,347;  461,616;    2,167;    0,591
983,898;  655,980;    4,167;    0,409
984,449;  616,071;    2,530;    0,773
984,999;  458,343;    1,894;   -1,136
985,550;  408,616;    3,167;   -0,318
986,100;  286,707;    0,712;   -0,318
986,651;  284,889;    0,258;    0,045
987,201;  316,071;    0,894;   -0,591
987,751;  330,434;   -0,288;    2,864
988,302;  363,162;   -0,379;    1,500
988,852;  410,616;    1,985;   -1,136
989,402;  461,707;    0,985;    0,682
989,952;  489,889;    1,621;    0,864
990,502;  352,889;    1,076;    0,682
991,052;  270,343;   -0,106;    0,045
991,602;  304,071;    1,167;    1,318
992,152;  348,707;    2,803;    0,682
992,702;  383,343;    1,167;   -0,045
993,252;  330,525;    0,076;   -0,500
993,802;  422,889;    1,167;    1,318
994,352;  380,525;   -0,742;    1,136
994,901;  306,980;    1,076;    3,227
995,451;  295,707;   -1,197;    0,318
996,000;  320,980;    1,076;    0,318
996,550;  321,980;    2,894;    0,227
997,100;  362,616;   -0,561;   -0,045
997,649;  492,525;   -0,197;    0,955
998,198;  326,980;   -0,288;   -1,500
998,748;  430,434;    0,348;   -2,318
999,297;  370,525;    0,985;   -0,409
999,846;  489,434;    1,894;   -0,773
1000,395;  405,525;    1,530;    0,500
1000,945;  506,253;    1,076;   -0,773
1001,494;  505,616;    0,167;    0,682
1002,043;  501,162;    0,712;    0,864
1002,592;  328,071;    3,439;    1,955
1003,141;  322,798;    2,439;   -0,682
1003,690;  469,798;    1,258;    0,500
1004,238;  350,616;   -0,106;   -0,045
1004,787;  267,071;   -1,288;    1,227
1005,336;  440,889;    1,621;    0,682
1005,885;  399,707;   -0,197;   -2,773
1006,433;  393,525;   -0,470;    0,955
1006,982;  569,980;    2,167;    1,682
1007,531;  428,071;    2,712;   -0,227
1008,079;  379,343;    0,258;    0,500
1008,627;  333,707;    1,621;    0,409
1009,176;  352,162;    0,076;   -1,955
1009,724;  311,707;   -2,742;    0,864
1010,273;  448,253;    1,076;    0,500
1010,821;  340,525;    1,076;    1,409
1011,369;  299,343;    0,076;    1,318
1011,917;  313,798;   -0,833;   -0,591
1012,465;  399,162;    2,530;   -1,591
1013,013;  387,616;    0,439;   -1,682
1013,561;  481,980;   -1,288;   -0,773
1014,109;  562,798;   -0,833;    1,682
1014,657;  436,889;    1,348;    0,591
1015,205;  350,889;    0,894;   -0,955
1015,753;  303,980;    0,258;   -1,409
1016,301;  374,253;    2,621;    3,045
1016,848;  440,616;    2,167;    0,409
1017,396;  440,525;    1,621;    0,045
1017,944;  440,343;    2,621;    1,864
1018,491;  350,343;   -0,197;    1,409
1019,039;  648,980;   -0,652;    0,591
1019,586;  414,434;    0,076;    1,682
1020,134;  398,162;    0,712;    1,500
1020,681;  467,889;    2,894;   -1,136
1021,228;  392,525;   -0,561;   -2,227
1021,776;  372,798;   -0,833;   -1,136
1022,323;  581,889;    0,803;    0,773
1022,870;  489,707;   -0,470;   -0,045
1023,417;  528,162;    2,076;    1,864
1023,964;  389,798;    0,621;    1,227
1024,511;  365,707;   -0,652;    0,773
1025,058;  392,798;    0,439;   -0,045
1025,605;  347,071;   -1,742;    3,136
1026,152;  544,434;   -0,106;   -0,591
1026,699;  404,980;    0,167;    1,318
1027,245;  390,980;    2,439;    0,318
1027,792;  335,798;    0,712;    1,409
1028,339;  541,343;    4,076;   -0,045
1028,885;  410,253;    3,621;   -0,227
1029,432;  364,525;   -0,106;    0,227
1029,978;  465,253;    1,348;   -1,591
1030,525;  453,071;    1,621;    0,409
1031,071;  344,707;    0,348;    1,136
1031,618;  599,071;    1,258;    1,682
1032,164;  443,434;    2,076;    3,045
1032,710;  479,162;    0,076;   -1,500
1033,256;  448,707;    0,712;   -0,136
1033,803;  319,707;   -0,288;    1,500
1034,349;  206,071;    1,803;    0,136
1034,895;  250,707;    2,621;   -0,318
1035,441;  315,525;    0,439;    0,318
1035,987;  358,980;   -2,288;   -0,682
1036,533;  423,798;   -0,197;   -0,955
1037,078;  603,798;    4,712;    1,682
1037,624;  466,889;    2,439;   -0,955
1038,170;  344,071;    1,712;   -0,318
1038,716;  423,071;    2,167;   -0,409
1039,261;  313,343;    2,167;   -0,773
1039,807;  323,616;   -0,015;    3,409
1040,352;  348,707;   -1,288;   -0,318
1040,898;  346,253;    0,167;   -0,682
1041,443;  282,980;    0,803;   -2,591
1041,989;  557,071;    3,621;    1,591
1042,534;  363,707;    0,985;    2,591
1043,079;  276,434;    1,985;    0,955
1043,625;  360,707;    0,258;    0,500
1044,170;  377,343;    2,439;    1,045
1044,715;  563,707;    0,167;    0,955
1045,260;  466,162;   -0,833;   -0,955
1045,805;  332,162;    0,258;   -0,591
1046,350;  298,162;    0,530;   -0,409
1046,895;  458,525;    0,803;    1,591
1047,440;  444,162;    1,530;    0,409
1047,985;  334,162;   -1,197;   -0,955
1048,530;  300,707;    1,348;    1,227
1049,074;  357,525;    2,803;    0,318
1049,619;  301,889;   -0,924;    1,955
1050,164;  290,707;    1,076;    0,227
1050,708;  367,980;    2,621;    0,045
1051,253;  604,980;    3,258;   -2,227
1051,797;  408,798;   -0,197;   -1,318
1052,342;  264,253;    1,348;    1,045
1052,886;  344,525;    1,803;   -1,409
1053,430;  243,980;    2,167;    0,136
1053,975;  331,162;    0,894;   -0,318
1054,519;  339,707;    1,803;    3,227
1055,063;  392,343;    3,621;    1,318
1055,607;  379,980;    1,348;    0,227
1056,151;  369,980;    0,530;    1,682
1056,695;  297,434;   -1,833;   -1,136
1057,239;  295,071;   -1,197;   -0,682
1057,783;  336,798;    2,258;   -1,500
1058,327;  394,889;    3,076;    1,409
1058,871;  529,889;    3,985;    1,318
1059,415;  409,162;   -0,561;   -0,045
1059,958;  540,434;    2,985;    2,591
1060,502;  331,616;    1,348;   -0,773
1061,046;  244,162;    1,712;   -0,955
1061,589;  227,798;    2,803;   -1,136
1062,133;  200,434;    0,985;    1,864
1062,676;  248,525;    1,439;    0,864
1063,220;  273,707;    0,985;    0,500
1063,763;  298,889;    2,985;    1,136
1064,306;  322,071;    0,985;    1,864
1064,849;  318,798;    2,076;    0,591
1065,393;  296,253;    2,894;   -1,500
1065,936;  299,434;    2,530;   -0,409
1066,479;  230,798;    2,621;    1,318
1067,022;  253,253;    1,894;   -0,227
1067,565;  226,343;   -1,197;   -1,318
1068,108;  204,253;    1,258;   -0,591
1068,651;  183,162;   -2,470;    1,409
1069,194;  187,525;   -1,106;   -1,682
1069,736;  207,707;    3,803;    0,955
1070,279;  190,162;   -1,652;   -0,500
1070,822;  261,889;    1,530;   -0,318
1071,364;  382,253;    0,530;    1,318
1071,907;  254,707;    0,348;    3,227
1072,450;  130,616;    0,258;   -0,045
1072,992;  192,889;   -0,561;    3,136
1073,535;  260,071;    0,167;    2,136
1074,077;  189,889;    2,985;    2,045
1074,619;  181,434;    0,985;    0,591
1075,161;  210,253;   -0,561;    1,500
1075,704;  316,707;    0,258;    1,227
1076,246;  200,162;    1,530;    0,682
1076,788;  145,525;   -1,015;    1,773
1077,330;  150,525;   -2,106;    2,136
1077,872;  183,343;   -1,924;    0,955
1078,414;  338,162;    3,712;    0,773
1078,956;  210,798;    0,167;   -0,227
1079,498;  326,343;    0,439;    0,318
1080,040;  205,162;    0,985;   -1,318
1080,581;  165,980;    0,621;   -0,318
1081,123;  119,707;   -0,106;   -0,773
1081,665;  137,525;    3,803;   -0,955
1082,206;  297,253;    3,258;   -0,500
1082,748;  223,343;    3,258;    2,045
1083,289;  145,071;    0,167;    1,318
1083,831;  138,707;    0,258;    0,227
1084,372;  177,980;    0,894;    0,591
1084,913;  174,798;    3,348;    0,864
1085,455;  143,525;    1,530;   -2,045
1085,996;  129,616;    0,530;    0,136
1086,537;  161,434;    0,985;    0,864
1087,078;  166,525;    0,439;   -2,136
1087,619;  209,525;   -1,652;    0,227
1088,160;  176,707;    1,439;    1,318
1088,701;  158,525;   -0,742;    0,682
1089,242;  143,889;   -0,561;   -2,227
1089,783;  187,343;   -0,561;    1,409
1090,324;  170,434;   -0,833;    0,682
1090,865;  125,253;   -1,924;   -0,409
1091,405;  102,253;   -0,561;    2,227
1091,946;  141,071;   -0,197;   -0,955
1092,487;   96,434;   -1,288;   -1,409
1093,027;  192,889;    1,803;   -1,500
1093,568;  134,889;    2,258;    1,227
1094,108;  159,798;    0,621;    1,773
1094,649;  137,071;   -0,470;    0,136
1095,189;  110,616;    1,167;   -0,682
1095,729;  108,525;    0,712;    0,955
1096,269;  101,616;    1,258;   -0,955
1096,810;  231,980;   -0,197;    0,500
1097,350;  174,616;   -0,561;   -0,773
1097,890;  133,253;    2,985;    1,227
1098,430;  276,434;    4,985;    2,864
1098,970;  212,253;    1,894;    1,682
1099,510;  119,434;   -0,833;   -2,318
1100,050;  107,162;    0,258;   -1,591
1100,589;  113,980;    0,076;   -0,318
1101,129;  154,616;    0,894;   -0,955
1101,669;  227,162;    2,803;    2,136
1102,209;  159,071;    1,530;    2,227
1102,748;  128,434;    3,439;    0,955
1103,288;  137,707;    0,712;   -1,227
1103,827;  128,434;    3,530;   -2,227
1104,367;   98,798;    1,712;   -2,409
1104,906;  100,980;   -1,015;   -1,136
1105,445;  132,434;    0,985;   -1,136
1105,985;  109,980;   -0,652;    1,500
1106,524;  126,980;    1,530;   -0,682
1107,063;  116,980;    1,167;    1,409
1107,602;   94,616;    1,894;   -1,500
1108,141;   80,162;    1,621;    1,500
1108,680;  135,071;    3,985;   -0,591
1109,219;  108,253;    0,167;   -0,500
1109,758;   98,616;    4,167;    0,682
1110,297;   96,980;   -1,106;   -0,682
1110,836;   78,253;    1,439;    0,955
1111,375;  100,525;    0,348;    0,409
1111,913;  135,253;    0,985;    0,773
1112,452;  110,162;    0,894;    0,136
1112,991;   73,616;    1,076;    1,955
1113,529;   71,616;    0,167;   -0,045
1114,068;   96,434;    0,439;    2,955
1114,606;   64,616;   -0,561;   -0,955
1115,144;  122,889;    1,530;    1,045
1115,683;   99,707;    1,985;    0,318
1116,221;  127,707;    2,076;   -0,864
1116,759;   84,434;    1,621;   -0,864
1117,297;  151,798;    1,621;    1,864
1117,836;   89,434;    1,985;   -1,227
1118,374;   88,434;    0,258;   -0,682
1118,912;   90,707;    0,439;    2,682
1119,450;   88,162;    0,985;    0,864
1119,988;   89,071;    3,348;    2,136
1120,525;  323,889;    7,258;    3,318
1121,063;  165,162;    0,530;    1,864
1121,601;   86,434;    1,076;   -1,227
1122,139;   71,889;    1,076;   -2,045
1122,676;  153,071;   -1,652;    2,773
1123,214;  134,343;    0,712;    4,409
1123,751;   65,616;    0,621;    2,227
1124,289;  100,071;    0,894;   -0,409
1124,826;   69,798;   -0,379;    0,227
1125,364;   38,798;    0,712;   -0,955
1125,901;  130,071;    6,258;    1,227
1126,438;  131,434;    3,530;    0,955
1126,975;   45,343;    2,985;   -0,773
1127,513;   59,980;    2,621;    2,136
1128,050;   44,525;   -0,561;   -0,682
1128,587;   71,071;    1,348;   -0,227
1129,124;   91,434;   -0,015;    1,318
1129,661;   51,798;   -1,924;    0,227
1130,198;  112,889;    2,439;    0,773
1130,734;   77,889;   -0,379;    1,409
1131,271;   36,071;   -1,197;    0,864
1131,808;   98,525;    1,621;    3,045
1132,345;   58,253;    4,530;    0,318
1132,881;   28,071;   -0,561;   -1,864
1133,418;   67,162;    0,348;   -1,136
1133,954;   44,162;    0,712;   -2,682
1134,491;   70,616;    1,712;   -0,773
1135,027;   45,071;    2,167;    0,864
1135,564;   68,253;    1,439;    2,955
1136,100;   65,071;   -0,742;    2,136
1136,636;   34,980;   -1,015;   -1,045
1137,172;   51,253;    0,894;   -1,045
1137,708;   41,434;   -1,561;   -1,045
1138,245;   33,798;    0,803;   -1,227
1138,781;   27,798;    1,803;   -3,318
1139,317;   40,798;    1,894;   -1,409
1139,852;   47,071;    3,076;    0,136
1140,388;   72,798;    2,076;   -0,409
1140,924;   44,525;    1,076;   -2,227
1141,460;   28,434;   -0,288;    0,136
1141,996;   17,525;   -0,652;    2,682
1142,531;   23,525;    1,076;    3,318
1143,067;   87,798;    1,167;    1,045
1143,602;  112,889;    3,439;   -0,318
1144,138;   55,434;    0,803;    1,045
1144,673;   23,798;    1,621;    1,409
1145,209;   30,343;    2,894;   -0,318
1145,744;   16,616;    0,803;    0,864
1146,279;   51,980;    1,530;   -0,136
1146,815;   33,434;    1,530;   -2,682
1147,350;   45,434;   -0,924;    0,045
1147,885;   24,434;   -1,924;   -1,318
1148,420;   24,616;    2,439;    0,773
1148,955;   21,707;   -1,470;    1,864
1149,490;   24,343;   -1,106;   -1,591
1150,025;   18,434;   -1,106;   -1,773
1150,560;   50,707;   -0,288;   -0,955
1151,094;   39,071;    0,258;   -0,591
1151,629;   36,616;   -3,742;    0,864
1152,164;   25,162;   -1,288;    1,318
1152,698;   17,616;    1,258;   -0,136
1153,233;    9,071;   -1,379;   -0,682
1153,767;   17,616;   -0,288;   -2,318
1154,302;   30,253;   -0,379;    1,773
1154,836;   28,343;    0,803;   -2,136
1155,371;   37,253;    2,258;    3,682
1155,905;   25,889;    1,985;    1,682
1156,439;   25,253;    0,530;   -0,500
1156,973;   35,707;    0,439;    0,318
1157,507;   18,980;   -1,742;    0,682
1158,042;   18,980;   -0,652;    1,045
1158,576;   28,525;   -0,561;    1,773
1159,110;   32,798;    0,076;    2,409
1159,643;   23,616;   -2,470;   -0,045
1160,177;   11,980;   -2,015;    1,500

