
Integration time [ms]:   0,050
Averaging Nr. [scans]: 11
Smoothing Nr. [pixels]: 0
Data measured with spectrometer [name]: 7318044SP
Wave   ;Sample   ;Dark     ;Reference
[nm]   ;[counts] ;[counts] ;[counts] 

186,757;    5,377;   38,161;    1,318
187,357;   14,071;   26,706;    0,955
187,958;    8,100;   17,252;   -1,591
188,558;   18,179;   12,979;   -1,227
189,159;    9,186;   10,070;   -4,500
189,759;    0,630;    5,797;   -3,591
190,360;    4,916;    6,797;   -2,136
190,960;   17,734;    5,706;   -4,136
191,560;   20,035;    2,614;   -6,591
192,161;  122,934;    5,885;   -3,500
192,761;   70,473;    5,520;   -3,227
193,361;   44,322;    3,065;   -3,773
193,962;   62,396;    1,612;   -2,682
194,562;   22,559;   -0,114;   -3,955
195,162;   22,858;   -0,567;   -2,227
195,762;   82,520;    2,433;   -0,045
196,362;   56,435;    1,706;   -2,500
196,963;   20,939;    1,706;   -0,864
197,563;   39,369;    1,252;   -0,955
198,163;   17,018;   -0,111;   -0,682
198,763;   24,793;   -0,020;   -0,500
199,363;   54,451;    3,616;   -0,500
199,963;   40,437;    2,162;    0,409
200,563;   34,999;    6,344;   -1,409
201,163;   25,767;    5,435;   -0,227
201,763;   42,727;    1,435;    0,318
202,363;   29,161;    0,980;    1,500
202,963;   50,204;    1,526;    1,045
203,563;   89,936;    0,344;    0,500
204,162;   43,423;    1,889;   -1,864
204,762;   35,953;    2,071;    0,591
205,362;   30,904;    0,708;    1,955
205,962;   49,214;    3,435;    1,955
206,562;   49,197;    1,889;    2,318
207,161;   36,493;    1,708;    0,318
207,761;  108,291;    4,435;    2,409
208,361;   52,894;    1,889;    1,409
208,960;   69,071;    2,889;    1,500
209,560;   67,886;    0,435;    1,591
210,160;   85,227;    5,071;    1,864
210,759;   73,331;    0,708;    1,227
211,359;   58,553;   -0,474;    1,045
211,958;  171,070;    3,526;    2,045
212,558;  184,567;    0,799;    1,864
213,157;  113,217;   -0,929;    1,500
213,757;  281,692;    5,617;   -0,227
214,356;  150,747;    1,708;   -0,409
214,956;  279,147;    3,526;    0,409
215,555;  129,733;    0,617;    2,136
216,154;   94,735;   -0,292;   -0,591
216,754;   99,446;    1,253;    0,773
217,353;  129,274;   -0,383;   -1,045
217,952;   55,536;    2,072;    0,318
218,552;  154,908;    0,254;   -0,773
219,151;  112,098;   -1,110;    0,955
219,750;  101,803;    0,890;   -0,227
220,349;   98,855;   -2,292;    1,045
220,948;  189,059;    1,163;    1,136
221,548;  127,041;    0,617;    1,227
222,147;  168,822;   -1,292;   -0,409
222,746;  297,580;    1,254;   -0,955
223,345;  201,438;   -1,019;    0,500
223,944;  214,828;    1,163;    0,773
224,543;  238,086;    4,072;   -1,409
225,142;  253,416;    1,345;    0,136
225,741;  239,245;    1,163;    1,045
226,340;  225,470;    1,254;   -0,955
226,939;  366,987;    2,708;   -0,136
227,538;  236,133;    1,163;   -0,773
228,137;  377,283;    0,435;    0,864
228,735;  331,821;    0,435;    1,227
229,334;  210,350;   -0,474;   -0,227
229,933;  431,008;    0,799;    0,591
230,532;  454,275;   -1,201;   -0,409
231,131;  529,213;    1,253;    0,318
231,729;  407,695;    1,163;   -2,318
232,328;  341,850;    0,435;   -1,500
232,927;  360,071;    4,526;   -0,500
233,525;  341,867;    0,981;    0,045
234,124;  402,636;    1,890;   -1,591
234,723;  322,337;    1,617;   -1,045
235,321;  328,191;    1,163;    0,136
235,920;  387,430;    2,526;   -1,227
236,518;  576,102;    1,072;    0,318
237,117;  412,501;    2,890;   -0,227
237,715;  426,810;    1,163;   -0,500
238,314;  490,117;    1,708;   -2,318
238,912;  650,574;    0,526;   -1,409
239,510;  521,087;    1,162;   -1,227
240,109;  655,281;   -0,474;    3,773
240,707;  614,046;   -0,474;    1,227
241,305;  463,197;   -0,383;    0,136
241,904;  593,287;   -0,292;   -2,045
242,502;  706,493;    3,253;   -0,227
243,100;  586,248;    3,344;   -0,955
243,698;  544,921;    2,799;    1,682
244,297;  578,267;   -0,656;    0,682
244,895;  577,174;   -0,474;   -2,318
245,493;  793,980;    2,981;   -0,591
246,091;  780,854;    5,163;   -1,318
246,689;  707,846;    2,163;    0,591
247,287;  665,108;   -0,019;   -1,136
247,885;  647,815;   -1,019;    1,227
248,483;  618,824;   -0,201;   -0,500
249,081;  709,784;    0,981;    1,591
249,679;  768,936;   -1,019;    1,682
250,277;  628,304;   -2,292;    0,864
250,875;  774,075;    0,617;   -1,045
251,473;  652,785;   -0,019;    0,500
252,071;  761,642;   -0,383;    1,045
252,669;  686,282;   -1,565;    0,318
253,267;  635,739;    1,618;    0,773
253,864;  665,017;    0,617;    0,682
254,462;  859,427;    1,526;    1,591
255,060;  618,659;    0,072;    1,318
255,658;  616,646;   -3,292;   -0,136
256,255;  740,554;   -0,201;   -2,045
256,853;  769,269;    2,345;    1,409
257,451;  745,327;    1,981;    1,864
258,048; 1242,560;    2,072;    1,864
258,646;  868,601;    0,436;   -1,045
259,243;  987,906;    2,981;    2,227
259,841;  862,106;    1,799;    0,318
260,438;  703,548;    0,254;    0,864
261,036;  867,914;    0,617;    1,409
261,633;  778,117;    1,526;    2,227
262,231;  719,170;   -0,110;   -0,045
262,828;  734,676;   -0,383;    1,136
263,425;  788,816;   -1,928;   -0,591
264,023;  797,205;    1,436;    0,045
264,620;  931,675;    1,526;   -0,318
265,217; 1076,927;    2,890;    3,136
265,815;  786,404;    2,527;    2,136
266,412;  915,216;    0,072;    0,136
267,009;  944,319;    0,526;    0,773
267,606; 1051,328;    0,345;   -0,955
268,203;  818,495;   -0,383;   -0,591
268,801;  875,095;   -0,474;    0,591
269,398;  806,296;   -0,564;    2,500
269,995;  966,585;    0,890;    1,591
270,592;  855,262;    0,799;   -0,500
271,189;  804,026;    1,981;    0,409
271,786;  791,372;    2,072;    1,227
272,383; 1067,476;   -0,383;    0,227
272,980;  900,242;    1,617;    0,318
273,577;  871,438;    2,162;    1,227
274,174;  789,473;    1,435;    2,591
274,771;  918,100;    1,890;   -0,773
275,367; 1370,884;    3,253;    1,409
275,964; 1175,986;   -0,565;   -0,500
276,561;  955,034;   -2,474;   -1,045
277,158;  889,027;    1,799;   -1,773
277,755; 1149,057;   -0,110;    0,409
278,351;  939,411;    0,436;   -1,500
278,948; 1038,319;   -0,201;    0,045
279,545;  945,588;    0,527;    2,318
280,141; 1253,749;    1,254;   -2,045
280,738; 1120,993;    2,435;   -0,136
281,334;  920,024;   -0,383;    0,591
281,931;  916,197;    2,890;   -1,318
282,528; 1034,523;    4,072;   -0,500
283,124; 1178,700;    3,345;   -0,500
283,721; 1146,892;    0,709;    1,409
284,317;  971,210;    0,163;    2,500
284,913; 1225,178;   -0,110;    0,591
285,510; 1546,178;    2,890;   -0,318
286,106; 1323,979;    2,345;   -0,955
286,703;  986,564;    0,072;    1,955
287,299;  954,106;    1,254;   -0,591
287,895;  984,133;    0,890;   -1,045
288,491; 1040,660;    0,163;    2,136
289,088; 1138,912;    0,163;    2,409
289,684; 1171,828;    2,890;    1,500
290,280; 1318,271;    1,890;    0,682
290,876; 1283,028;    0,163;    5,500
291,472; 1167,939;    2,163;    2,227
292,068; 1189,723;    1,254;    0,227
292,665; 1019,833;   -0,564;    0,773
293,261;  887,133;   -1,292;    2,136
293,857; 1110,255;    4,072;    2,136
294,453; 1028,636;   -0,928;    0,955
295,049; 1243,652;    0,253;    1,955
295,644; 1057,512;   -1,292;    0,136
296,240;  927,281;    0,162;   -0,136
296,836; 1091,739;   -0,747;    0,318
297,432; 1245,233;    2,980;   -0,500
298,028; 1301,602;    0,435;    0,773
298,624; 1144,763;    0,889;    1,864
299,220; 1124,779;    0,435;    0,591
299,815; 1078,972;    0,526;   -0,409
300,411; 1187,652;    0,435;    1,773
301,007; 1325,850;    1,889;    0,227
301,602; 1134,298;    2,071;   -2,318
302,198; 1264,315;    1,435;   -0,773
302,794; 1126,570;    1,526;   -0,500
303,389; 1114,685;    1,071;    1,045
303,985; 1172,889;    1,253;    1,409
304,580; 1271,562;    0,889;    1,591
305,176; 1160,740;    0,344;    0,136
305,771; 1041,088;   -0,929;   -1,227
306,367; 1460,233;    3,071;    0,136
306,962; 1248,298;    2,889;    1,500
307,558; 1214,384;    2,435;    0,136
308,153; 1320,021;   -0,383;   -1,136
308,748; 1123,060;    0,162;    1,682
309,344; 1523,326;    0,253;   -1,318
309,939; 1553,802;    2,071;   -1,318
310,534; 1234,200;   -2,020;   -1,682
311,130; 1163,892;   -0,656;   -2,500
311,725; 1075,502;    0,526;   -0,500
312,320; 1168,493;    1,253;    0,045
312,915; 1323,118;    2,890;   -1,045
313,510; 1548,695;    0,526;   -0,500
314,105; 1345,973;   -3,565;    1,409
314,700; 1085,038;   -1,656;   -1,045
315,295; 1133,380;   -0,020;    0,045
315,890; 1023,009;   -0,292;    0,864
316,485; 1153,064;    0,253;   -0,318
317,080; 1118,132;   -0,929;    1,591
317,675; 1449,683;    3,071;   -0,682
318,270; 1627,901;    6,889;    3,318
318,865; 1543,256;    2,435;    3,045
319,460; 1313,386;   -1,565;    0,591
320,055; 1192,544;   -2,565;   -1,227
320,650; 1144,047;   -1,838;   -0,591
321,244; 1166,585;    0,889;   -1,409
321,839; 1319,426;    0,980;   -0,227
322,434; 1343,857;   -0,111;   -1,591
323,029; 1208,035;   -0,474;    1,591
323,623; 1160,879;    0,798;    0,773
324,218; 1294,796;    2,707;    1,409
324,812; 1228,033;    0,889;    1,591
325,407; 1229,750;   -0,929;    2,045
326,002; 1320,763;    0,526;   -0,409
326,596; 1289,832;   -0,656;    1,318
327,191; 1165,268;   -0,383;   -1,045
327,785; 1083,923;   -0,747;   -0,227
328,379; 1198,180;   -0,383;    0,136
328,974; 1190,183;    1,798;   -3,955
329,568; 1256,316;    2,889;   -2,409
330,163; 1312,417;    2,435;    1,045
330,757; 1203,540;    0,253;    1,591
331,351; 1113,454;   -0,292;    0,682
331,945; 1115,562;   -0,383;    1,409
332,540; 1232,189;    1,617;   -0,591
333,134; 1201,099;    3,344;    0,773
333,728; 1176,459;    2,799;    0,318
334,322; 1143,439;    0,889;   -0,864
334,916; 1036,458;    0,344;    0,955
335,510; 1248,440;   -0,111;   -0,136
336,105; 1283,359;   -0,929;    1,591
336,699; 1101,486;   -1,292;    0,591
337,293; 1136,348;    1,071;    0,318
337,887; 1080,223;    0,071;    1,955
338,481; 1255,275;    2,980;    0,591
339,074; 1396,995;    2,071;    2,682
339,668; 1340,134;   -0,110;    1,227
340,262; 1997,655;    7,708;    3,227
340,856; 1517,354;    1,708;   -0,682
341,450; 1093,060;    0,708;    1,864
342,044; 1222,439;    1,799;    0,136
342,637; 1370,827;    1,162;   -2,136
343,231; 1393,696;   -1,474;    0,682
343,825; 1176,932;   -0,747;   -0,591
344,419; 1160,065;   -0,474;    0,500
345,012; 1774,722;    2,889;    4,045
345,606; 1543,398;   -0,656;    1,591
346,199; 1184,750;   -0,111;   -0,227
346,793; 1301,344;    2,525;    2,045
347,386; 1139,113;    0,889;   -1,136
347,980;  989,159;   -0,838;   -0,045
348,573; 1103,572;   -1,748;    0,409
349,167; 1372,969;    6,161;    4,773
349,760; 1344,624;    2,252;    2,682
350,354; 1246,065;    1,616;    1,136
350,947; 1287,147;    2,798;    1,682
351,540; 1085,224;    0,616;   -1,409
352,134;  926,445;   -1,111;    1,136
352,727;  995,845;   -0,657;    1,136
353,320; 1030,307;    2,343;    0,591
353,913;  914,085;   -1,929;    1,864
354,507; 1163,125;    0,434;   -1,227
355,100; 1072,532;    0,071;    0,864
355,693; 1447,232;    4,798;    2,409
356,286; 1166,710;    0,980;    2,773
356,879; 1030,822;   -0,475;    1,227
357,472;  970,031;    0,980;    1,500
358,065; 1055,172;    3,161;    2,500
358,658;  917,996;    0,798;    2,318
359,251;  828,830;    0,252;   -0,591
359,844; 1005,966;    0,343;   -1,136
360,437; 1118,636;    0,252;    0,045
361,030;  977,646;    0,525;   -0,682
361,623;  940,703;    0,434;    0,318
362,215; 1185,059;    0,979;    2,045
362,808; 1023,835;   -2,293;   -1,682
363,401;  952,545;    0,798;    0,136
363,994; 1196,469;    3,252;   -1,500
364,586;  968,783;    0,888;   -1,500
365,179;  905,913;   -0,203;   -1,136
365,772;  706,278;   -0,930;    2,045
366,364;  877,906;    1,524;   -3,227
366,957; 1008,443;    1,342;   -0,045
367,549;  904,621;   -0,203;   -0,864
368,142;  907,419;    0,978;   -1,500
368,734;  882,018;    2,523;   -2,136
369,327;  789,864;    2,341;   -0,500
369,919;  839,595;   -1,659;    0,409
370,512;  876,664;   -1,023;   -0,500
371,104; 1126,057;    2,704;    1,591
371,696; 1190,235;    1,703;   -0,955
372,289; 1026,359;    0,157;    1,136
372,881;  971,807;    1,156;    1,318
373,473;  826,419;    4,064;    1,136
374,066;  949,557;    1,336;    0,500
374,658;  902,351;    0,879;    1,136
375,250;  852,324;   -1,668;   -1,409
375,842;  905,244;   -0,124;   -0,045
376,434;  848,491;   -2,762;   -0,409
377,026;  915,523;   -1,855;   -2,500
377,618;  931,191;    0,779;   -0,682
378,210;  837,185;    3,141;   -1,955
378,802;  779,716;    3,412;   -0,591
379,394; 1272,205;    3,411;    0,682
379,986; 1036,683;    1,138;   -0,955
380,578;  930,181;    1,410;    0,773
381,170; 1157,149;    0,320;    0,045
381,762; 1028,192;   -0,224;    1,409
382,354;  999,209;   -0,223;   -1,318
382,945;  895,889;    0,870;    0,318
383,537;  856,273;    1,144;   -1,955
384,129;  869,674;    0,963;   -1,136
384,721;  989,132;    0,418;    0,955
385,312;  894,632;   -1,399;   -0,955
385,904; 1039,296;   -0,945;    1,591
386,496;  862,748;    0,691;    1,045
387,087; 1042,982;    0,418;    2,500
387,679;  972,202;   -0,401;    0,045
388,270;  986,653;   -2,401;    2,045
388,862;  941,694;   -0,401;   -0,318
389,453;  854,704;    1,054;    1,045
390,045;  920,247;    3,236;   -2,682
390,636;  845,389;    0,144;   -0,591
391,227;  872,755;    2,054;   -0,045
391,819;  884,711;    0,781;    0,773
392,410; 1167,902;    0,600;    0,045
393,001;  949,933;    1,600;   -1,591
393,593; 1047,966;    0,600;   -0,045
394,184; 1100,222;    0,873;   -0,409
394,775;  898,324;    1,146;    2,136
395,366;  891,485;    1,782;    0,773
395,957; 1104,648;   -2,400;    0,136
396,548;  989,858;    1,054;    2,682
397,139; 1175,081;    2,236;    0,591
397,730; 1020,193;    0,873;    0,955
398,321; 1023,296;    0,509;    0,955
398,912;  943,636;   -0,764;    0,136
399,503;  997,987;   -1,945;   -1,409
400,094;  981,209;   -1,582;    1,682
400,685;  980,539;    3,600;    0,045
401,276;  882,657;   -0,400;   -0,955
401,867;  910,265;   -1,127;    0,773
402,458;  884,729;    1,509;   -2,318
403,048; 1061,139;    0,146;    0,591
403,639;  931,707;    1,509;    0,864
404,230; 1143,795;    0,691;    0,318
404,821; 1201,623;   -0,127;    0,045
405,411; 1070,953;   -0,763;   -2,591
406,002;  915,886;    3,237;   -1,136
406,592; 1205,451;    2,691;    0,045
407,183; 1032,630;    0,328;   -1,500
407,774;  969,158;    1,419;   -0,136
408,364;  977,992;    2,600;    0,409
408,954; 1106,715;   -0,036;    1,227
409,545; 1105,054;    1,873;    1,045
410,135;  988,371;   -1,581;    0,500
410,726;  953,869;    0,783;    0,318
411,316; 1204,121;    2,237;    0,773
411,906;  960,483;    0,146;   -0,409
412,497;  937,732;   -0,490;   -0,045
413,087;  923,208;    0,783;   -0,227
413,677;  910,781;   -2,490;    3,864
414,267;  870,928;   -1,035;    1,409
414,857;  832,522;    0,419;    4,227
415,448;  865,070;   -0,763;    0,500
416,038;  880,295;   -2,945;   -0,591
416,628;  918,484;    0,965;    0,409
417,218;  997,503;   -1,762;    3,318
417,808; 1210,188;    0,965;   -0,409
418,398; 1050,199;   -1,035;    2,682
418,988;  911,510;   -2,217;    0,591
419,578; 1002,009;    3,601;    1,409
420,168; 1025,227;    0,692;   -0,955
420,757; 1178,800;    0,964;   -1,500
421,347;  996,869;    1,601;   -0,227
421,937;  952,757;    3,329;    1,409
422,527; 1111,316;    2,602;   -0,773
423,116; 1276,557;    2,692;   -0,045
423,706;  974,205;    2,965;    0,318
424,296;  874,371;    1,601;    0,682
424,885; 1115,189;    1,510;   -3,045
425,475; 1074,856;    1,147;   -2,864
426,065;  932,570;   -1,489;   -0,318
426,654;  899,088;    0,329;   -0,318
427,244; 1287,254;    1,147;    1,409
427,833; 1194,198;    1,056;   -0,500
428,423; 1028,633;    0,147;    1,136
429,012; 1102,579;    2,420;   -1,136
429,601; 1228,603;    2,057;    0,136
430,191; 1079,941;    2,511;    4,318
430,780;  875,737;   -1,671;   -0,409
431,369; 1198,066;    1,329;   -0,045
431,959; 1141,564;    1,693;    0,500
432,548;  997,136;   -1,398;   -0,045
433,137;  924,688;    0,329;   -1,318
433,726; 1098,342;    0,148;    0,500
434,315; 1041,867;    0,148;    2,409
434,905; 1203,011;    0,693;    1,409
435,494; 1262,943;    3,148;    0,955
436,083; 1086,653;    1,420;   -0,955
436,672; 1134,113;    1,148;    0,500
437,261; 1067,198;    0,512;   -1,955
437,850; 1447,841;   -1,125;    0,682
438,439; 1483,229;    2,239;    1,955
439,027; 1603,566;    3,421;    1,773
439,616; 1564,094;    2,239;    1,227
440,205; 1222,574;    0,057;   -2,136
440,794; 1111,407;   -0,306;   -0,045
441,383; 1032,788;    1,603;   -0,591
441,971;  943,938;   -0,306;    0,591
442,560;  958,953;    0,603;   -1,773
443,149;  817,599;    3,060;   -1,318
443,737;  935,479;    0,968;   -2,318
444,326;  948,977;    0,331;    0,318
444,915; 1029,848;   -1,851;    0,864
445,503; 1055,850;    0,058;   -0,318
446,092; 1384,642;    7,876;    2,136
446,680; 1343,400;    1,876;    0,318
447,269; 1252,652;   -1,487;   -0,318
447,857; 1167,450;    2,240;   -1,773
448,445; 1110,236;    2,149;    1,318
449,034; 1085,918;    0,876;   -1,136
449,622; 1055,199;    1,240;    3,500
450,210; 1491,728;    3,149;    2,227
450,799; 1405,057;    2,604;   -0,591
451,387; 1248,398;    1,786;   -0,591
451,975; 1219,854;   -1,305;    0,864
452,563; 1390,069;    0,422;    2,318
453,151; 1088,304;   -1,032;   -1,227
453,739; 1151,724;   -1,577;    0,136
454,328; 1361,707;    0,604;   -2,136
454,916; 1199,202;    1,150;   -0,136
455,504; 1202,266;    3,513;    1,227
456,092; 1082,891;    2,150;   -1,591
456,679;  976,821;    0,604;    0,682
457,267; 1681,619;    3,604;    1,045
457,855; 1167,259;    3,241;    1,409
458,443;  884,362;   -0,304;    1,682
459,031; 1237,968;    1,332;    2,409
459,619; 1193,224;   -3,577;    2,864
460,206; 1014,481;   -0,759;    2,045
460,794; 1052,506;   -0,668;   -0,227
461,382; 1153,115;    0,878;   -0,864
461,970; 1059,291;    0,605;    1,864
462,557; 1004,914;    0,878;   -0,682
463,145; 1244,641;   -0,304;   -1,682
463,732; 1568,172;    2,514;   -1,045
464,320; 1201,187;    1,514;   -3,045
464,907; 1418,748;    0,423;   -0,773
465,495; 1273,679;    2,696;   -1,227
466,082; 1131,620;    2,060;   -0,045
466,670; 1108,743;    2,605;    1,227
467,257; 1026,006;    0,060;    2,045
467,844; 1216,172;    1,514;    0,045
468,432; 1204,389;   -0,031;    3,500
469,019; 1079,977;    1,606;   -1,773
469,606; 1195,299;    0,969;    3,682
470,193; 1239,587;    2,151;    0,227
470,780; 1188,441;    0,333;    0,864
471,368; 1092,771;   -1,212;   -0,773
471,955; 1230,971;    1,060;   -0,682
472,542; 1135,548;   -0,303;   -1,136
473,129;  950,290;   -0,485;    0,136
473,716;  942,503;    0,060;    0,591
474,303; 1012,065;    1,333;   -0,864
474,890; 1057,811;    2,333;   -0,500
475,477; 1205,732;   -0,576;    0,409
476,064; 1047,784;    0,697;   -1,591
476,650; 1205,847;    2,152;    0,318
477,237; 1089,756;    1,879;    0,955
477,824; 1052,898;    3,879;    0,864
478,411;  910,866;    0,606;   -0,318
478,997;  914,324;    0,606;   -0,773
479,584;  829,564;   -0,666;   -0,409
480,171; 1231,104;    1,243;   -0,773
480,757; 1315,506;   -0,848;    0,773
481,344; 1117,844;    0,334;    0,409
481,931;  901,042;   -0,393;    1,045
482,517; 1244,131;    0,425;    0,318
483,104; 1416,198;    1,334;    2,864
483,690; 1260,222;    0,243;    0,045
484,276; 1234,312;    0,698;    0,227
484,863; 1576,934;    2,152;    1,136
485,449; 1342,366;    0,152;    0,318
486,035; 1243,765;   -0,666;   -0,136
486,622; 1465,686;   -2,393;    0,045
487,208; 1322,251;    1,334;    1,500
487,794; 1199,226;    0,971;    0,318
488,380; 1237,563;    0,698;   -1,409
488,967; 1230,333;   -1,120;   -0,409
489,553; 1249,297;   -1,029;   -1,409
490,139; 1392,220;    0,971;    0,773
490,725; 1216,806;    0,789;   -0,227
491,311; 1230,581;    1,516;    3,045
491,897; 1053,696;   -0,665;    1,500
492,483; 1077,672;    0,426;    1,227
493,069; 1865,998;    5,426;    0,864
493,655; 1346,245;    1,789;    0,682
494,241; 1142,929;    1,517;   -0,955
494,826; 1223,198;    0,335;   -1,045
495,412; 1267,837;    0,335;   -0,682
495,998; 1150,795;    0,971;   -0,318
496,584; 1225,693;    2,244;    1,045
497,169; 1167,233;    2,335;   -0,682
497,755; 1039,340;    1,244;    1,227
498,341; 1416,043;    2,153;    0,318
498,926; 1574,806;    2,881;    1,955
499,512; 1191,357;   -0,028;    2,955
500,097; 1124,809;   -0,574;   -0,318
500,683; 1151,349;   -0,028;    2,136
501,268; 1110,277;    1,881;   -0,955
501,854; 1142,825;   -0,119;    1,227
502,439; 1062,234;   -0,573;   -1,773
503,024; 1183,706;    1,608;    0,500
503,610; 1237,229;    1,335;   -0,682
504,195; 1058,867;    1,245;    1,955
504,780; 1219,036;    2,335;    1,227
505,366; 1382,533;    4,063;    2,864
505,951; 1221,524;   -1,119;    1,045
506,536; 1132,569;    1,427;   -3,682
507,121; 1178,293;    1,699;   -0,318
507,706; 1169,772;   -0,392;    1,045
508,291; 1077,532;   -2,937;    1,136
508,876; 1038,525;   -0,482;    2,591
509,461; 1086,719;    1,427;   -0,773
510,046; 1185,689;   -0,391;    0,318
510,631; 1165,733;   -0,119;   -0,773
511,216; 1049,844;   -0,664;   -0,500
511,801; 1201,500;   -0,755;    2,591
512,386; 1215,704;    0,972;    0,500
512,971; 1243,658;    0,427;    0,955
513,555; 1295,956;    1,154;   -1,500
514,140; 1300,016;    1,336;   -3,136
514,725; 1414,635;    1,791;   -1,136
515,309; 1294,950;    1,064;    0,318
515,894; 1139,303;   -0,300;   -2,227
516,479; 1176,202;    1,973;   -0,955
517,063; 1154,948;    0,882;    1,227
517,648; 1138,889;    0,155;   -1,136
518,232; 1048,652;   -1,300;   -1,409
518,817; 1174,483;    1,337;    1,682
519,401; 1372,341;    0,700;    0,591
519,985; 1194,458;    2,700;    1,136
520,570; 1046,788;   -0,118;   -1,955
521,154; 1233,535;    0,064;    0,591
521,738; 1493,671;    1,064;    2,409
522,323; 1364,668;   -0,390;    1,682
522,907; 1274,098;    2,428;   -0,136
523,491; 1162,577;    1,155;    0,955
524,075; 1100,681;    0,428;    0,591
524,659; 1316,365;    0,973;    0,591
525,243; 1185,218;    0,883;    0,409
525,827; 1117,687;    0,883;   -0,045
526,411; 1184,547;    1,155;   -0,136
526,995; 1371,625;    0,337;    1,409
527,579; 1389,378;    1,974;   -1,045
528,163; 1318,692;    0,428;   -1,500
528,747; 1491,288;    1,065;   -0,773
529,331; 1438,069;    0,883;   -1,409
529,915; 1207,166;    2,338;    0,955
530,499; 1298,436;    0,247;    1,227
531,082; 1434,089;    1,065;    1,591
531,666; 1486,814;    0,520;    0,773
532,250; 1419,847;    0,428;    2,682
532,833; 1567,953;    0,610;    2,773
533,417; 1358,790;    1,247;    0,864
534,001; 1463,219;    0,429;   -0,318
534,584; 1427,846;    1,974;    0,500
535,168; 1239,284;    3,247;    1,409
535,751; 1641,189;    4,520;    0,045
536,334; 1254,443;    4,520;   -0,409
536,918; 1245,785;    1,974;    1,591
537,501; 1224,444;    1,520;    1,318
538,085; 1269,955;    1,702;    1,045
538,668; 1290,332;    0,883;    2,409
539,251; 1675,346;    3,156;    3,773
539,834; 1406,768;    0,156;    0,773
540,418; 1511,906;    3,247;    4,318
541,001; 1688,475;    2,702;    1,773
541,584; 1435,398;    1,429;    2,227
542,167; 1500,305;    0,702;    2,955
542,750; 1361,016;    0,793;   -0,773
543,333; 1147,008;    1,429;    2,136
543,916; 1479,651;   -0,298;    2,500
544,499; 1374,183;    2,520;    0,227
545,082; 1477,023;    0,248;    3,591
545,665; 1385,416;   -0,207;    1,500
546,248; 1530,280;    0,520;   -0,318
546,830; 1481,419;   -1,752;    1,955
547,413; 1500,057;    0,157;   -0,773
547,996; 1579,250;    0,157;    0,500
548,579; 1398,658;   -0,843;    0,955
549,161; 1649,316;    0,884;    2,682
549,744; 1549,723;    0,612;    0,409
550,326; 1485,012;    0,885;   -1,136
550,909; 1931,032;    2,339;    0,591
551,492; 1630,418;    0,521;    0,227
552,074; 1676,735;   -0,024;   -1,318
552,657; 1753,468;    2,430;    0,045
553,239; 1585,145;   -3,024;   -0,773
553,821; 1500,438;   -1,570;    1,045
554,404; 1679,366;   -0,024;    1,136
554,986; 1808,191;    2,248;    1,045
555,568; 1706,958;    0,430;   -0,955
556,151; 1883,154;    4,067;   -0,227
556,733; 1577,605;   -1,388;   -0,864
557,315; 1590,682;    4,703;    0,500
557,897; 1394,465;    0,521;   -0,500
558,479; 1408,574;    1,703;    1,318
559,061; 1535,453;    1,067;   -0,864
559,643; 1662,974;   -0,297;    0,045
560,225; 1703,707;   -0,388;    2,864
560,807; 1571,065;    0,340;    0,318
561,389; 1497,747;   -1,206;    2,318
561,971; 1556,327;   -0,660;    2,136
562,553; 1559,373;    0,613;    1,591
563,135; 1648,352;    1,249;    1,136
563,717; 1989,523;    3,158;    1,136
564,298; 1894,970;    3,976;   -0,045
564,880; 1612,769;    0,340;   -1,409
565,462; 1494,951;    1,977;    1,318
566,043; 1819,687;   -0,933;    2,318
566,625; 1972,952;    4,067;    1,227
567,207; 1741,279;    0,704;    1,682
567,788; 1744,319;   -0,114;    1,500
568,370; 1868,337;   -1,841;   -0,500
568,951; 1713,101;   -0,569;    0,227
569,533; 1907,178;    0,977;   -0,500
570,114; 2029,126;   -0,296;    0,682
570,695; 2044,805;   -0,478;   -1,318
571,277; 2026,448;   -0,205;   -1,682
571,858; 2247,733;    2,704;   -1,136
572,439; 2268,443;    0,795;   -1,045
573,021; 2236,238;    0,432;   -2,773
573,602; 2368,860;    1,795;    0,318
574,183; 2405,417;   -0,114;    2,227
574,764; 2427,299;    2,068;    0,409
575,345; 2533,116;    0,250;   -0,136
575,926; 2520,732;    2,704;    0,136
576,507; 2602,943;    2,704;   -0,227
577,088; 2686,304;    1,704;    1,682
577,669; 2844,364;    1,704;    1,955
578,250; 3054,054;   -0,750;   -1,045
578,831; 2902,053;   -0,841;   -2,227
579,412; 2775,105;   -1,205;    0,955
579,993; 3053,672;    1,432;    0,227
580,573; 3070,501;   -0,023;   -0,955
581,154; 2775,829;    1,613;   -0,591
581,735; 2938,353;    0,341;    0,773
582,315; 2835,626;    0,523;    2,136
582,896; 2999,118;   -1,750;    1,227
583,477; 2853,494;    0,614;    1,227
584,057; 2934,215;    1,159;    0,955
584,638; 2992,945;   -2,750;    2,318
585,218; 3215,653;    2,886;    2,682
585,799; 3088,864;    1,977;   -0,227
586,379; 2978,577;    1,250;    1,591
586,959; 2849,786;    2,613;    0,318
587,540; 2703,657;    0,432;    2,227
588,120; 2624,704;   -1,113;   -0,045
588,700; 2482,976;    2,977;    2,136
589,281; 2740,859;    1,250;   -0,955
589,861; 2607,729;   -0,296;   -1,682
590,441; 2542,603;   -1,477;   -2,682
591,021; 2362,300;    1,432;   -2,591
591,601; 2467,068;    0,431;    0,500
592,181; 2548,312;   -1,296;   -0,773
592,761; 2241,214;    2,250;    1,409
593,341; 2385,957;    1,522;    0,045
593,921; 2345,483;   -0,569;    1,591
594,501; 2237,335;    1,250;    1,318
595,081; 2228,015;    0,522;   -0,318
595,661; 2438,829;    1,068;    0,955
596,240; 2493,617;   -1,023;    0,136
596,820; 2632,193;    2,613;    1,955
597,400; 2370,353;    1,977;    0,773
597,980; 2393,009;   -0,750;    1,045
598,559; 2388,419;    0,341;   -0,227
599,139; 2350,377;   -0,750;   -1,227
599,718; 2348,377;    0,795;   -0,409
600,298; 2408,695;   -2,387;    0,682
600,877; 2762,943;    4,795;    1,409
601,457; 2655,246;    0,340;    1,136
602,036; 2514,515;    1,795;    2,045
602,616; 2463,910;    2,250;    1,682
603,195; 2613,056;    0,431;    3,500
603,774; 2538,375;   -0,296;    2,045
604,354; 2478,206;    2,522;   -0,500
604,933; 2373,771;    0,250;    1,864
605,512; 2554,955;    2,340;    0,591
606,091; 2565,361;    1,886;    3,773
606,671; 2600,888;    0,249;    0,773
607,250; 2595,904;    1,431;    3,136
607,829; 2608,355;    1,158;    3,227
608,408; 2492,705;    4,613;    2,591
608,987; 2453,637;    2,704;    3,409
609,566; 2336,928;    0,341;   -2,500
610,145; 2407,394;    2,885;    0,682
610,723; 2559,792;    1,613;    6,864
611,302; 2315,473;    1,067;    1,682
611,881; 2456,810;    5,158;   11,227
612,460; 2337,832;    0,795;    3,955
613,039; 2400,400;    1,703;    2,045
613,617; 2141,026;    0,886;    4,773
614,196; 2163,107;    1,613;    1,227
614,775; 2316,472;    1,249;    2,409
615,353; 2338,835;   -1,660;    0,864
615,932; 2254,402;    0,249;    2,409
616,510; 2392,373;    0,158;    0,591
617,089; 2784,333;    8,794;   17,591
617,667; 2426,138;    4,885;    6,136
618,246; 2068,225;   -1,115;    1,318
618,824; 2209,164;    1,612;   -0,955
619,402; 2155,263;    0,431;   -1,773
619,981; 2317,158;    1,067;   -1,045
620,559; 2326,264;    0,794;    1,682
621,137; 2332,492;    3,067;    1,864
621,715; 2006,709;    3,703;   -0,682
622,293; 2049,117;    1,885;   -0,773
622,871; 2333,136;    0,340;    0,500
623,450; 2152,041;    0,430;   -0,864
624,028; 2302,259;   -0,388;   -0,955
624,606; 2171,991;    2,339;    1,682
625,183; 2092,147;   -0,661;   -1,136
625,761; 2108,503;    1,885;    1,136
626,339; 2496,847;    2,339;    2,591
626,917; 2248,151;    0,339;   -0,045
627,495; 2257,815;    2,794;    1,318
628,073; 2231,333;    5,248;    2,864
628,650; 2172,342;    3,067;    2,136
629,228; 2250,375;    1,248;    4,409
629,806; 1977,904;   -0,024;    1,136
630,383; 2045,491;    0,066;   -0,318
630,961; 2039,543;   -2,206;   -0,955
631,539; 2005,926;   -2,479;    0,227
632,116; 2686,997;   12,703;   15,409
632,694; 2349,780;    4,885;    6,500
633,271; 2148,251;    1,975;    2,682
633,848; 2266,455;    1,430;    2,045
634,426; 2074,258;    1,521;    1,773
635,003; 1898,874;   -0,207;   -0,409
635,580; 2252,387;    1,884;    3,682
636,158; 2110,156;    3,793;    1,227
636,735; 1953,526;    3,339;   -0,500
637,312; 1963,856;    0,521;   -0,682
637,889; 1981,488;    2,248;   -0,682
638,466; 1976,884;    0,066;   -0,409
639,043; 1948,288;    1,702;   -1,136
639,620; 1953,096;    0,611;   -0,955
640,197; 2108,779;    1,612;    1,682
640,774; 2095,890;    1,430;    1,136
641,351; 2146,910;    0,612;    1,136
641,928; 2177,839;    2,794;    1,409
642,505; 2319,314;    0,794;   -0,500
643,082; 2200,698;    1,885;    1,227
643,658; 1850,082;    1,157;    1,500
644,235; 1974,738;   -2,479;    2,500
644,812; 2119,304;    1,794;    0,773
645,388; 2081,233;    1,612;    1,409
645,965; 1875,708;    1,521;    1,682
646,542; 1879,637;    3,430;   -0,227
647,118; 2333,203;    3,703;   -0,955
647,695; 2169,314;    0,339;    1,136
648,271; 1964,698;   -2,115;    0,500
648,848; 2094,536;    0,248;    2,227
649,424; 2201,829;    0,976;    1,318
650,000; 1933,667;   -0,388;   -1,045
650,577; 2005,778;    0,158;   -0,955
651,153; 2137,708;   -1,115;    0,955
651,729; 2108,092;    0,521;    0,864
652,305; 2368,930;    1,339;    2,773
652,881; 2674,405;   -1,297;    1,136
653,458; 3417,061;    0,249;    0,227
654,034; 3917,445;    0,703;    1,591
654,610; 4027,193;    0,339;    0,773
655,186; 4462,849;    1,612;    3,045
655,762; 4185,233;   -1,842;    0,409
656,338; 4143,708;    0,703;    0,136
656,913; 4450,091;   -0,297;    0,409
657,489; 4201,839;    0,249;   -0,318
658,065; 4352,041;    0,794;   -1,591
658,641; 4589,970;    2,158;   -0,864
659,217; 4339,081;    2,067;    0,409
659,792; 4103,465;   -1,751;   -0,409
660,368; 4220,031;   -0,388;   -0,682
660,944; 4439,869;    1,794;    1,227
661,519; 3881,344;    0,522;    0,409
662,095; 3062,273;   -0,206;    0,591
662,670; 2359,930;   -0,206;   -0,136
663,246; 2322,495;   -0,660;   -0,409
663,821; 2331,061;    0,431;    1,682
664,396; 2082,354;    0,613;    1,864
664,972; 2115,829;   -0,660;   -0,500
665,547; 2265,303;    3,794;    0,136
666,122; 2197,415;    1,340;    0,318
666,698; 2373,617;    2,431;    0,318
667,273; 2023,909;    0,885;    0,136
667,848; 2202,566;    0,340;    1,500
668,423; 2270,859;    1,795;    2,318
668,998; 2203,243;    0,976;   -0,682
669,573; 2255,263;    2,067;   -1,500
670,148; 2380,919;    1,885;   -0,682
670,723; 2139,121;   -0,024;    0,318
671,298; 2511,505;   -1,296;    1,045
671,873; 2362,889;   -0,296;   -0,136
672,448; 2368,182;    1,704;    0,136
673,023; 2383,384;    0,249;   -0,227
673,597; 2545,859;    2,704;    2,318
674,172; 2518,061;    2,431;    0,318
674,747; 2381,536;   -0,205;   -1,045
675,321; 2195,465;   -0,933;    3,318
675,896; 2050,030;    2,158;    1,045
676,471; 2291,414;    2,522;    1,591
677,045; 2202,798;   -0,296;    0,682
677,620; 2225,000;    2,158;    1,136
678,194; 2256,202;    0,249;    1,136
678,769; 2236,222;    0,886;   -0,318
679,343; 2312,697;   -0,023;    1,773
679,917; 2366,808;    0,340;    1,955
680,492; 2219,465;    0,249;    3,227
681,066; 2287,849;    0,613;    0,409
681,640; 2253,051;    1,795;   -0,318
682,214; 2371,889;    2,340;    0,500
682,788; 2300,727;    0,613;   -0,773
683,363; 2351,657;    1,977;    1,682
683,937; 2177,768;    0,886;   -0,318
684,511; 2413,424;   -1,023;   -0,591
685,085; 2365,172;   -1,478;    0,318
685,659; 2215,556;    1,431;    0,864
686,232; 2437,303;    1,159;   -0,318
686,806; 2348,414;    2,159;    0,409
687,380; 2414,525;   -1,932;    0,591
687,954; 2436,364;    2,432;    1,136
688,528; 2555,020;    2,613;    1,955
689,101; 2620,495;    0,432;    1,045
689,675; 2378,242;    0,886;   -0,136
690,249; 2448,081;    3,432;    0,409
690,822; 2510,555;    1,159;    0,318
691,396; 2393,212;    2,068;    1,227
691,969; 2268,505;    2,523;    0,136
692,543; 2382,161;   -0,568;   -1,955
693,116; 2179,000;   -0,659;   -1,409
693,690; 2262,293;   -0,296;    0,500
694,263; 2381,677;    2,341;    2,955
694,836; 2621,242;    2,795;    3,591
695,410; 2317,353;    1,159;    1,773
695,983; 2350,192;    1,614;    0,591
696,556; 2249,848;   -0,750;   -1,045
697,129; 2320,050;   -1,114;    1,409
697,703; 2314,798;    1,341;    1,955
698,276; 2306,000;    1,705;   -0,773
698,849; 2344,565;   -1,023;    1,409
699,422; 2229,676;    1,250;    0,591
699,995; 2113,606;   -0,659;    0,136
700,568; 2289,171;   -0,204;    3,045
701,140; 2313,192;   -1,841;    1,682
701,713; 2424,848;    0,341;    2,409
702,286; 2320,959;    0,796;    0,864
702,859; 2313,616;    0,614;   -0,591
703,432; 2257,909;   -0,841;    0,682
704,004; 2241,565;    1,978;    0,318
704,577; 2057,949;    1,068;    0,136
705,150; 2173,242;    0,887;    2,500
705,722; 2270,989;    1,523;   -3,227
706,295; 2300,464;    1,432;   -0,591
706,867; 2113,848;    0,250;    1,955
707,440; 2307,414;   -0,113;   -0,409
708,012; 2370,979;   -0,022;    0,591
708,584; 2222,545;    2,705;    0,227
709,157; 2223,838;    1,160;   -0,591
709,729; 2346,949;    1,069;    2,045
710,301; 2465,605;   -1,204;    0,045
710,874; 2428,535;    0,341;   -0,227
711,446; 2046,100;   -0,295;    0,864
712,018; 2161,666;   -3,022;    0,500
712,590; 2060,232;   -0,204;    1,682
713,162; 2389,434;   -0,477;    1,318
713,734; 2270,363;    1,796;   -2,045
714,306; 2233,656;    0,342;   -0,409
714,878; 2060,494;   -0,295;    0,864
715,450; 2186,605;   -0,113;    0,864
716,022; 2234,262;    2,433;    1,318
716,593; 2253,918;    0,978;    0,591
717,165; 2288,939;    1,796;   -1,227
717,737; 2432,686;    0,796;    0,409
718,309; 2264,161;    1,160;   -0,045
718,880; 2196,454;   -1,295;   -1,409
719,452; 2304,110;    0,887;   -1,591
720,024; 2238,221;    1,705;   -0,591
720,595; 2268,151;    2,978;    0,955
721,167; 2153,625;    1,160;   -2,045
721,738; 2153,191;    2,069;   -1,045
722,309; 2197,757;    1,251;   -1,227
722,881; 2036,777;    2,705;    0,773
723,452; 2248,433;    1,251;    2,864
724,023; 2294,999;    1,524;    2,682
724,595; 2319,656;    2,342;    0,682
725,166; 2111,221;    1,524;   -0,409
725,737; 2278,514;    1,887;    0,227
726,308; 2189,353;    0,797;    0,318
726,879; 2108,009;    1,069;    1,227
727,450; 2250,757;   -2,022;   -0,045
728,021; 2130,777;    1,069;    0,682
728,592; 2279,706;    1,160;    0,500
729,163; 2400,454;    1,433;   -0,136
729,734; 2378,565;    2,160;   -0,227
730,305; 2253,403;    0,615;    0,136
730,876; 2253,060;    0,888;    2,955
731,447; 2537,534;    0,797;    2,682
732,017; 2425,554;   -0,840;    1,864
732,588; 2302,847;   -0,021;    1,227
733,159; 2476,686;    3,615;   -1,045
733,729; 2212,342;    1,251;    0,409
734,300; 2272,363;    0,160;    0,864
734,870; 2198,474;   -1,385;    0,591
735,441; 2230,221;    0,888;   -0,591
736,011; 2108,150;    1,070;   -1,591
736,582; 2143,534;    1,251;    0,045
737,152; 2108,827;    0,979;   -2,045
737,722; 2189,211;    1,070;   -0,682
738,293; 2059,231;   -2,021;    1,318
738,863; 2216,342;    1,797;    2,318
739,433; 2444,362;    4,524;    0,318
740,003; 2335,292;    1,524;   -0,682
740,573; 2355,221;    2,252;   -1,591
741,143; 2303,150;    3,615;    0,318
741,713; 2269,080;    0,252;   -0,500
742,283; 2240,827;    1,706;    1,591
742,853; 2155,756;    0,524;    1,591
743,423; 2006,776;    0,161;    0,045
743,993; 2087,342;    1,070;    1,500
744,563; 1969,635;    2,524;   -0,864
745,133; 2011,746;   -0,112;   -0,864
745,702; 2113,494;    2,797;    1,773
746,272; 2138,605;    0,434;    0,591
746,842; 2144,079;   -0,748;   -0,591
747,411; 2055,372;   -0,839;   -0,318
747,981; 1977,211;   -0,930;    0,500
748,551; 2003,867;   -0,021;   -1,045
749,120; 2100,069;   -0,112;   -0,227
749,690; 2132,999;    2,161;    2,409
750,259; 2258,201;    0,979;    2,955
750,828; 2273,948;    4,070;   -1,955
751,398; 2140,423;   -0,112;   -0,045
751,967; 2471,625;    2,888;    0,409
752,536; 2206,099;    1,161;   -0,227
753,105; 2333,483;   -1,384;    0,227
753,675; 2139,776;   -0,112;    1,773
754,244; 2147,433;    0,888;    3,591
754,813; 2183,908;    0,979;    1,227
755,382; 2107,746;    0,798;    0,955
755,951; 2232,857;   -0,112;    3,682
756,520; 2271,968;    2,525;    1,864
757,089; 2508,534;    1,888;    0,500
757,658; 2222,463;    2,434;    1,227
758,227; 2085,938;   -1,111;    0,318
758,795; 2174,231;   -1,021;    1,136
759,364; 2318,796;    0,525;   -0,591
759,933; 2042,271;    1,343;   -0,045
760,501; 1979,564;    0,252;   -1,318
761,070; 2125,948;   -0,293;   -1,409
761,639; 2349,877;    1,434;    1,318
762,207; 2200,534;    0,889;   -0,955
762,776; 2260,917;    2,889;    0,864
763,344; 2119,029;    0,071;    0,591
763,913; 1801,685;    1,616;    1,409
764,481; 2436,069;    1,980;   -0,136
765,049; 2392,998;    0,616;    1,409
765,618; 2270,655;    1,434;    0,318
766,186; 2179,220;    2,434;    0,136
766,754; 2214,059;    1,798;    1,864
767,322; 1906,806;    1,162;    0,409
767,890; 1864,554;    0,525;   -1,773
768,459; 2045,483;    2,616;   -0,318
769,027; 2242,867;    2,525;    3,409
769,595; 1982,523;    2,616;    2,591
770,163; 2026,544;    3,344;    2,955
770,730; 2005,200;    2,525;   -0,136
771,298; 1997,220;    1,162;   -1,409
771,866; 2002,150;    0,253;    4,955
772,434; 2023,442;    1,162;   -1,864
773,002; 2274,008;    2,616;    0,682
773,569; 2126,756;    1,071;    1,682
774,137; 2232,867;    0,889;   -0,045
774,705; 2196,887;   -0,747;   -0,136
775,272; 2019,362;    0,253;    0,682
775,840; 2132,018;   -0,111;    2,682
776,407; 2085,311;   -0,293;    1,955
776,975; 1834,513;    1,162;    0,318
777,542; 2005,442;    2,162;   -0,045
778,110; 2033,372;    0,707;   -0,045
778,677; 1881,937;    1,071;   -0,864
779,244; 1923,867;   -1,020;    1,045
779,812; 2074,159;    0,980;    0,864
780,379; 2100,180;    2,435;    1,136
780,946; 1984,473;    2,617;   -0,773
781,513; 2018,311;   -0,565;    0,318
782,080; 1847,240;    1,253;    2,864
782,647; 1972,806;    1,708;    3,045
783,214; 1913,826;   -0,201;    3,864
783,781; 2039,574;    1,708;   -0,682
784,348; 2014,594;    0,253;    1,500
784,915; 1872,978;   -1,474;    0,318
785,482; 2030,180;    2,708;    2,591
786,049; 2093,109;    1,071;   -0,591
786,615; 2022,856;    1,708;   -0,955
787,182; 1951,604;   -3,201;   -0,682
787,749; 1912,351;   -2,201;    1,409
788,315; 1919,826;    0,253;   -0,409
788,882; 1946,210;    0,981;   -1,227
789,448; 2230,594;    1,435;   -0,955
790,015; 2045,159;    1,799;    3,227
790,581; 2143,179;    0,708;    0,227
791,148; 1945,109;    1,344;    1,045
791,714; 1930,402;   -1,019;    3,136
792,280; 1904,513;    3,708;    1,591
792,847; 1839,715;   -0,928;    2,500
793,413; 1930,644;   -0,110;   -0,318
793,979; 2000,392;    1,526;   -1,318
794,545; 2311,503;    2,981;    2,682
795,111; 2123,068;    2,435;    1,318
795,678; 1991,634;    3,526;   -1,682
796,244; 2163,927;    2,799;    0,136
796,810; 2104,038;    0,799;    0,773
797,375; 2077,604;   -0,292;   -2,136
797,941; 1733,169;   -1,110;    0,591
798,507; 1711,008;    0,254;   -0,955
799,073; 1723,482;    2,708;    0,591
799,639; 1796,048;    1,435;    3,136
800,205; 1736,250;   -1,565;    2,682
800,770; 1683,179;    1,345;    1,773
801,336; 1652,290;    2,981;   -0,955
801,901; 2282,765;    6,072;    3,136
802,467; 2005,149;    0,526;    2,045
803,033; 1657,896;   -0,019;    0,864
803,598; 1669,644;    1,072;   -1,045
804,163; 1737,482;    0,708;   -0,318
804,729; 1836,775;   -0,110;    1,136
805,294; 1754,159;    1,072;    2,227
805,859; 1654,815;    0,890;   -0,409
806,425; 2024,745;    3,890;    2,682
806,990; 1973,310;    1,890;    4,318
807,555; 1798,331;   -0,110;    2,591
808,120; 1935,714;   -1,292;   -0,409
808,685; 1679,462;    1,072;   -2,500
809,250; 1539,664;    2,072;   -0,500
809,815; 1632,593;   -0,201;    0,682
810,380; 1829,977;    0,981;    1,591
810,945; 1974,906;    2,890;    2,045
811,510; 1820,290;   -0,200;    1,591
812,075; 1746,401;    2,800;   -1,409
812,640; 2020,512;    3,709;    1,409
813,204; 1815,260;    2,163;   -0,227
813,769; 2020,098;    0,254;   -0,045
814,334; 1956,482;    0,527;    0,864
814,898; 1741,048;    1,981;    0,591
815,463; 1752,795;    0,981;   -0,773
816,027; 1685,270;    1,345;   -2,318
816,592; 1697,926;    2,163;   -2,045
817,156; 1730,219;   -2,200;    1,136
817,721; 1784,785;    0,982;    2,318
818,285; 1597,623;    0,618;    1,500
818,849; 1719,371;   -0,018;    1,682
819,414; 1610,755;    0,073;    2,955
819,978; 1543,229;   -0,291;    1,773
820,542; 1962,340;    2,891;    0,500
821,106; 1791,088;    2,800;    0,682
821,670; 1942,835;    2,709;    2,591
822,234; 1701,492;    1,073;    1,409
822,798; 1545,876;   -0,836;    0,500
823,362; 1847,805;    1,527;    4,227
823,926; 1576,643;   -0,018;    1,136
824,490; 1775,936;    3,527;   -0,682
825,054; 1708,138;    2,527;   -1,136
825,618; 1544,704;   -1,200;   -1,500
826,181; 1572,997;    0,982;   -1,318
826,745; 1644,926;   -0,745;   -1,045
827,309; 1924,037;    2,255;    1,318
827,872; 1768,239;    0,527;    0,955
828,436; 1746,896;    1,982;   -0,773
828,999; 1706,461;    2,436;    1,227
829,563; 1622,300;   -0,654;    1,136
830,126; 1565,684;   -0,018;   -0,591
830,690; 1594,613;    0,709;    2,864
831,253; 1460,997;   -0,473;    2,227
831,816; 1525,562;   -0,018;    0,500
832,380; 1457,492;    1,164;    0,864
832,943; 1488,148;    3,073;   -0,500
833,506; 1501,350;    0,255;   -1,227
834,069; 1725,370;    2,164;   -0,955
834,632; 1614,118;   -2,200;    1,318
835,195; 1605,502;    1,346;    0,955
835,758; 1516,522;    0,709;    1,955
836,321; 1451,906;    1,073;   -1,045
836,884; 1470,744;   -1,291;   -0,955
837,447; 1450,673;    0,528;    1,773
838,010; 1595,694;    1,800;    3,227
838,573; 1674,350;    0,528;    0,773
839,135; 1585,734;   -0,109;   -0,955
839,698; 1505,118;    2,528;    0,409
840,261; 1426,138;    0,255;   -0,227
840,823; 1391,522;   -0,927;    0,864
841,386; 1396,906;   -0,018;   -2,409
841,948; 1721,562;    0,255;    1,773
842,511; 1422,401;    0,255;    1,682
843,073; 1685,966;    2,982;    0,227
843,636; 1443,805;    0,619;   -0,227
844,198; 1649,188;    1,255;    0,591
844,760; 1626,936;    0,619;    1,955
845,322; 1383,774;    0,164;    1,136
845,885; 1538,794;   -0,290;    0,591
846,447; 1531,996;    0,710;    0,227
847,009; 1842,835;    3,983;   -0,682
847,571; 1553,764;    1,346;   -2,045
848,133; 1518,966;   -0,199;   -1,864
848,695; 1374,532;    2,346;    1,409
849,257; 1421,279;    1,346;   -1,682
849,819; 1598,390;    2,983;   -0,409
850,381; 1465,320;    1,801;   -0,864
850,942; 1542,976;    1,892;   -0,591
851,504; 1558,633;    0,983;    0,227
852,066; 1487,562;    1,619;   -1,591
852,628; 1487,582;    0,165;    1,955
853,189; 1310,784;    0,256;    2,682
853,751; 1376,259;   -0,654;    1,409
854,312; 1528,097;    1,256;   -1,682
854,874; 1696,117;   -0,108;   -0,773
855,435; 1524,410;    0,528;   -1,682
855,997; 1617,431;    3,983;   -0,136
856,558; 1633,723;    0,801;    1,773
857,119; 1498,744;   -0,744;    2,864
857,681; 1350,127;   -0,108;    0,318
858,242; 1579,693;    1,347;   -2,136
858,803; 1658,622;    1,074;   -0,773
859,364; 1590,370;    0,892;   -4,773
859,925; 1612,754;   -0,290;   -0,955
860,486; 1518,137;    0,529;   -0,955
861,047; 1390,612;    0,165;   -1,227
861,608; 1418,632;    0,165;   -0,773
862,169; 1364,925;   -0,562;   -0,045
862,730; 1399,309;   -0,290;    1,409
863,291; 1459,602;    0,438;   -0,500
863,852; 1452,713;   -0,926;    1,955
864,412; 1388,461;   -1,835;   -0,864
864,973; 1535,844;    1,892;    0,500
865,534; 1684,592;    2,074;    0,227
866,094; 1536,521;    2,620;    0,227
866,655; 1625,632;    4,711;    3,318
867,215; 1510,107;    0,074;    0,136
867,776; 1410,400;   -1,199;   -0,136
868,336; 1455,238;    1,529;    0,136
868,897; 1800,531;    3,438;    1,682
869,457; 1581,370;    3,256;    0,318
870,017; 1423,481;    2,438;   -1,227
870,578; 1444,501;    1,893;    0,773
871,138; 1403,794;    2,620;   -0,955
871,698; 1281,359;   -0,562;   -1,318
872,258; 1394,107;    0,711;   -2,864
872,818; 1628,673;    2,347;    0,045
873,378; 1428,056;   -2,198;    1,045
873,938; 1374,986;    4,984;    0,500
874,498; 1291,642;    1,256;   -1,955
875,058; 1353,753;    4,347;    1,773
875,618; 1352,683;    1,438;   -2,682
876,177; 1402,703;   -0,471;    0,136
876,737; 1174,814;   -0,289;    1,955
877,297; 1600,470;    2,711;    1,955
877,856; 1517,400;    2,529;    0,318
878,416; 1253,874;    2,438;   -0,136
878,976; 1251,349;    3,438;    0,409
879,535; 1324,188;    4,529;    3,136
880,095; 1306,299;    1,347;    0,045
880,654; 1203,228;    0,347;    1,318
881,213; 1546,794;    2,347;    1,500
881,773; 1355,905;    1,984;    2,682
882,332; 1964,925;    6,075;    5,136
882,891; 1390,218;    0,711;    2,136
883,451; 1394,874;   -2,016;    1,682
884,010; 1279,440;   -1,107;   -0,409
884,569; 1247,733;   -2,289;   -0,045
885,128; 1462,389;   -0,743;   -1,864
885,687; 1756,319;   -0,743;    0,682
886,246; 1911,884;    2,620;    2,136
886,805; 1606,177;    1,620;    2,045
887,364; 1291,197;    1,166;   -0,500
887,922; 1216,400;   -0,016;    0,045
888,481; 1353,329;    1,530;    0,591
889,040; 1511,440;    3,711;    2,136
889,599; 1393,460;    2,166;    1,409
890,157; 1403,389;    2,166;    2,409
890,716; 1309,046;    2,166;    0,227
891,274; 1406,157;    0,075;   -1,136
891,833; 1486,995;    1,166;    0,864
892,391; 1320,288;    1,802;    0,500
892,950; 1500,581;    0,166;   -0,773
893,508; 1305,420;    0,984;   -0,409
894,067; 1174,076;   -0,379;    0,136
894,625; 1295,915;   -1,016;   -1,500
895,183; 1248,480;   -0,198;   -0,682
895,741; 1561,228;    2,257;   -1,773
896,299; 1344,611;    1,621;   -2,409
896,858; 1249,904;    1,530;   -1,591
897,416; 1386,652;    0,166;   -1,318
897,974; 1314,308;   -2,197;    0,318
898,532; 1822,238;    6,530;    2,682
899,089; 1455,712;    0,621;   -0,682
899,647; 1346,005;    0,530;    1,318
900,205; 1383,662;    0,257;    1,045
900,763; 1391,864;    2,166;    0,227
901,321; 1349,884;    3,530;   -1,409
901,878; 1165,995;    3,257;   -0,773
902,436; 1207,470;    0,257;    1,318
902,994; 2025,581;    6,712;    3,682
903,551; 1497,147;    1,439;    0,409
904,109; 1391,076;    1,530;   -1,409
904,666; 1324,823;    1,439;    1,045
905,224; 1201,298;    3,894;   -0,409
905,781; 1343,500;   -0,470;   -0,318
906,338; 1270,429;    0,167;    1,045
906,895; 1149,268;    1,894;    2,045
907,453; 1435,833;    2,348;    1,136
908,010; 1291,126;    3,348;    0,409
908,567; 1214,692;   -0,561;    0,591
909,124; 1032,530;    2,439;   -1,500
909,681; 1090,005;   -1,288;    0,682
910,238; 1171,753;   -0,106;   -1,318
910,795; 1166,318;   -1,561;   -1,136
911,352; 1154,136;   -0,379;   -2,682
911,909; 1134,136;    2,803;   -0,864
912,466; 1190,500;    1,985;    1,500
913,022; 1201,682;   -0,924;    0,500
913,579; 1336,045;   -0,470;    2,045
914,136; 1182,682;   -2,561;    0,955
914,692; 1242,591;    1,530;   -1,227
915,249; 1173,318;    0,530;    0,409
915,806; 1271,682;    1,803;    1,955
916,362; 1152,955;    0,894;    1,864
916,918; 1066,955;    2,439;    1,045
917,475; 1281,136;    1,621;    0,955
918,031; 1095,500;    0,076;   -0,045
918,587; 1156,591;    0,621;   -0,318
919,144; 1085,591;   -0,379;    0,227
919,700; 1044,136;    0,167;    0,773
920,256; 1019,045;    0,439;    0,045
920,812; 1039,136;    1,439;   -1,045
921,368;  992,136;    1,348;   -1,045
921,924;  980,045;    0,439;   -0,136
922,480; 1065,682;    0,076;    1,227
923,036; 1120,955;   -0,652;    1,955
923,592; 1023,864;    0,621;    0,318
924,148; 1049,227;    1,894;   -0,955
924,704; 1174,955;    0,258;   -0,409
925,259; 1036,591;   -0,561;    0,591
925,815;  973,682;    3,803;    0,500
926,371;  921,591;    3,530;    1,409
926,926; 1084,045;    1,621;    0,591
927,482; 1039,591;    1,621;    0,773
928,037;  962,409;   -0,833;    2,045
928,593; 1185,136;    0,258;    1,045
929,148;  942,409;    1,167;   -1,500
929,704;  990,136;    2,439;   -0,500
930,259;  888,955;    0,894;   -0,136
930,814; 1069,682;    1,803;    1,955
931,369;  987,955;    0,258;   -0,773
931,925;  792,318;   -1,924;    0,136
932,480;  897,409;    3,076;   -2,591
933,035; 1268,500;    3,985;   -0,318
933,590; 1146,409;   -1,742;   -1,773
934,145;  758,045;   -1,288;   -0,318
934,700;  672,136;    0,348;   -0,591
935,255;  736,500;    4,803;    0,045
935,809; 1059,136;    6,258;    0,864
936,364;  672,409;    2,167;   -0,136
936,919;  680,227;    2,348;   -1,773
937,474;  595,227;    1,348;    0,136
938,028;  624,227;    3,076;    1,136
938,583; 1012,864;    6,348;    4,682
939,138;  679,682;    0,167;    2,136
939,692;  536,864;   -1,015;   -1,136
940,247;  563,500;    1,167;   -1,045
940,801;  620,682;    0,621;    0,227
941,355;  533,773;    0,439;    2,591
941,910;  436,045;    0,712;   -2,136
942,464;  470,136;    2,712;   -0,318
943,018;  711,864;    3,258;   -0,227
943,572;  538,409;    2,803;   -0,682
944,126;  587,864;   -0,924;   -0,409
944,681;  468,591;    0,712;    0,227
945,235;  411,318;    2,167;   -0,591
945,789;  372,318;    1,258;   -1,864
946,342;  662,409;   -0,561;   -0,591
946,896;  428,682;    0,348;    0,955
947,450;  398,500;   -0,561;   -0,227
948,004;  635,500;    1,076;   -0,045
948,558;  458,500;    1,258;   -0,864
949,111;  444,955;   -1,197;   -0,318
949,665;  637,591;   -0,106;   -0,682
950,219;  587,045;    0,621;   -1,045
950,772;  509,591;    0,258;    1,864
951,326;  510,955;   -1,106;   -0,955
951,879;  441,591;    1,076;   -2,318
952,433;  567,773;    1,348;    2,227
952,986;  407,955;    0,348;    0,682
953,539;  365,500;    1,530;    0,591
954,093;  323,045;    0,985;   -1,318
954,646;  460,409;   -0,288;    1,318
955,199;  375,591;    1,258;   -0,500
955,752;  579,864;    1,985;    1,773
956,305;  430,409;    0,894;    2,955
956,858;  477,136;    0,621;   -0,318
957,411;  550,955;    3,621;    2,136
957,964;  454,591;    2,076;    2,136
958,517;  371,591;    0,985;    3,136
959,070;  328,682;   -1,197;    1,955
959,623;  590,227;    1,076;    1,500
960,176;  540,682;    0,712;    2,045
960,728;  501,591;    1,712;    0,773
961,281;  449,864;    2,258;    0,500
961,834;  377,591;   -0,833;    0,864
962,386;  387,045;    1,258;    1,045
962,939;  342,409;    3,439;   -0,318
963,491;  396,136;    2,621;    1,136
964,043;  331,955;    0,076;    2,409
964,596;  505,773;    1,712;    2,227
965,148;  406,955;   -0,379;    1,773
965,700;  330,045;   -0,015;   -0,227
966,253;  489,136;   -0,833;    0,318
966,805;  442,682;    1,894;    0,773
967,357;  376,864;    0,439;   -1,500
967,909;  476,500;    1,167;   -1,227
968,461;  377,773;    0,894;    3,136
969,013;  332,682;   -1,561;   -0,864
969,565;  486,409;    1,803;   -1,136
970,117;  709,045;    3,803;    1,045
970,669;  476,500;    3,258;   -0,136
971,220;  287,136;    2,167;   -1,500
971,772;  368,773;    1,348;   -0,318
972,324;  455,318;   -1,197;   -0,500
972,876;  368,409;    0,167;   -0,045
973,427;  476,773;   -1,197;   -1,045
973,979;  547,864;    0,076;   -2,500
974,530;  359,591;    0,803;    1,318
975,082;  422,955;    2,167;    1,682
975,633;  370,045;    2,894;    1,682
976,184;  433,409;    2,076;    0,773
976,736;  417,591;    0,348;    0,227
977,287;  423,318;    0,258;   -0,500
977,838;  387,773;   -0,924;   -0,318
978,389;  397,227;    0,803;   -0,500
978,940;  272,409;    1,258;   -0,409
979,491;  274,864;    2,258;   -0,500
980,042;  359,045;   -0,652;    3,045
980,593;  373,773;    1,894;    0,227
981,144;  454,955;    3,530;   -0,500
981,695;  491,136;   -0,470;    1,500
982,246;  443,227;   -1,833;    1,045
982,797;  326,227;   -0,561;    0,682
983,347;  462,409;    2,167;    0,591
983,898;  651,773;    4,167;    0,409
984,449;  612,227;    2,530;    0,773
984,999;  459,227;    1,894;   -1,136
985,550;  408,318;    3,167;   -0,318
986,100;  286,773;    0,712;   -0,318
986,651;  281,409;    0,258;    0,045
987,201;  316,227;    0,894;   -0,591
987,751;  330,318;   -0,288;    2,864
988,302;  371,045;   -0,379;    1,500
988,852;  410,227;    1,985;   -1,136
989,402;  460,409;    0,985;    0,682
989,952;  487,500;    1,621;    0,864
990,502;  353,409;    1,076;    0,682
991,052;  271,227;   -0,106;    0,045
991,602;  306,045;    1,167;    1,318
992,152;  348,227;    2,803;    0,682
992,702;  378,864;    1,167;   -0,045
993,252;  332,773;    0,076;   -0,500
993,802;  420,045;    1,167;    1,318
994,352;  385,136;   -0,742;    1,136
994,901;  306,500;    1,076;    3,227
995,451;  293,591;   -1,197;    0,318
996,000;  330,773;    1,076;    0,318
996,550;  326,500;    2,894;    0,227
997,100;  363,318;   -0,561;   -0,045
997,649;  495,591;   -0,197;    0,955
998,198;  326,500;   -0,288;   -1,500
998,748;  430,227;    0,348;   -2,318
999,297;  365,773;    0,985;   -0,409
999,846;  497,500;    1,894;   -0,773
1000,395;  411,682;    1,530;    0,500
1000,945;  514,318;    1,076;   -0,773
1001,494;  515,864;    0,167;    0,682
1002,043;  488,682;    0,712;    0,864
1002,592;  325,500;    3,439;    1,955
1003,141;  320,591;    2,439;   -0,682
1003,690;  463,955;    1,258;    0,500
1004,238;  356,045;   -0,106;   -0,045
1004,787;  271,409;   -1,288;    1,227
1005,336;  441,227;    1,621;    0,682
1005,885;  406,045;   -0,197;   -2,773
1006,433;  395,227;   -0,470;    0,955
1006,982;  577,682;    2,167;    1,682
1007,531;  430,682;    2,712;   -0,227
1008,079;  378,409;    0,258;    0,500
1008,627;  333,591;    1,621;    0,409
1009,176;  353,227;    0,076;   -1,955
1009,724;  310,318;   -2,742;    0,864
1010,273;  445,136;    1,076;    0,500
1010,821;  343,045;    1,076;    1,409
1011,369;  300,500;    0,076;    1,318
1011,917;  317,045;   -0,833;   -0,591
1012,465;  397,500;    2,530;   -1,591
1013,013;  382,227;    0,439;   -1,682
1013,561;  479,773;   -1,288;   -0,773
1014,109;  564,864;   -0,833;    1,682
1014,657;  440,591;    1,348;    0,591
1015,205;  350,864;    0,894;   -0,955
1015,753;  303,136;    0,258;   -1,409
1016,301;  377,773;    2,621;    3,045
1016,848;  445,136;    2,167;    0,409
1017,396;  441,409;    1,621;    0,045
1017,944;  436,682;    2,621;    1,864
1018,491;  351,591;   -0,197;    1,409
1019,039;  650,045;   -0,652;    0,591
1019,586;  424,136;    0,076;    1,682
1020,134;  403,955;    0,712;    1,500
1020,681;  468,864;    2,894;   -1,136
1021,228;  391,955;   -0,561;   -2,227
1021,776;  368,409;   -0,833;   -1,136
1022,323;  577,045;    0,803;    0,773
1022,870;  480,682;   -0,470;   -0,045
1023,417;  533,227;    2,076;    1,864
1023,964;  386,682;    0,621;    1,227
1024,511;  360,591;   -0,652;    0,773
1025,058;  394,682;    0,439;   -0,045
1025,605;  349,045;   -1,742;    3,136
1026,152;  546,864;   -0,106;   -0,591
1026,699;  405,318;    0,167;    1,318
1027,245;  393,955;    2,439;    0,318
1027,792;  339,955;    0,712;    1,409
1028,339;  539,318;    4,076;   -0,045
1028,885;  412,682;    3,621;   -0,227
1029,432;  360,864;   -0,106;    0,227
1029,978;  463,318;    1,348;   -1,591
1030,525;  446,864;    1,621;    0,409
1031,071;  343,227;    0,348;    1,136
1031,618;  606,409;    1,258;    1,682
1032,164;  445,500;    2,076;    3,045
1032,710;  484,864;    0,076;   -1,500
1033,256;  444,864;    0,712;   -0,136
1033,803;  315,864;   -0,288;    1,500
1034,349;  197,409;    1,803;    0,136
1034,895;  249,409;    2,621;   -0,318
1035,441;  316,591;    0,439;    0,318
1035,987;  364,682;   -2,288;   -0,682
1036,533;  427,045;   -0,197;   -0,955
1037,078;  606,136;    4,712;    1,682
1037,624;  468,682;    2,439;   -0,955
1038,170;  351,045;    1,712;   -0,318
1038,716;  425,409;    2,167;   -0,409
1039,261;  310,864;    2,167;   -0,773
1039,807;  325,500;   -0,015;    3,409
1040,352;  353,773;   -1,288;   -0,318
1040,898;  335,864;    0,167;   -0,682
1041,443;  276,864;    0,803;   -2,591
1041,989;  551,682;    3,621;    1,591
1042,534;  371,955;    0,985;    2,591
1043,079;  275,591;    1,985;    0,955
1043,625;  369,682;    0,258;    0,500
1044,170;  378,227;    2,439;    1,045
1044,715;  556,682;    0,167;    0,955
1045,260;  460,682;   -0,833;   -0,955
1045,805;  326,409;    0,258;   -0,591
1046,350;  295,318;    0,530;   -0,409
1046,895;  459,864;    0,803;    1,591
1047,440;  441,773;    1,530;    0,409
1047,985;  327,864;   -1,197;   -0,955
1048,530;  302,409;    1,348;    1,227
1049,074;  359,591;    2,803;    0,318
1049,619;  297,500;   -0,924;    1,955
1050,164;  286,318;    1,076;    0,227
1050,708;  373,500;    2,621;    0,045
1051,253;  604,773;    3,258;   -2,227
1051,797;  407,500;   -0,197;   -1,318
1052,342;  265,682;    1,348;    1,045
1052,886;  346,045;    1,803;   -1,409
1053,430;  251,773;    2,167;    0,136
1053,975;  338,955;    0,894;   -0,318
1054,519;  340,773;    1,803;    3,227
1055,063;  394,682;    3,621;    1,318
1055,607;  375,409;    1,348;    0,227
1056,151;  369,864;    0,530;    1,682
1056,695;  292,773;   -1,833;   -1,136
1057,239;  295,864;   -1,197;   -0,682
1057,783;  332,955;    2,258;   -1,500
1058,327;  399,591;    3,076;    1,409
1058,871;  529,409;    3,985;    1,318
1059,415;  403,227;   -0,561;   -0,045
1059,958;  544,227;    2,985;    2,591
1060,502;  329,136;    1,348;   -0,773
1061,046;  243,136;    1,712;   -0,955
1061,589;  232,409;    2,803;   -1,136
1062,133;  205,682;    0,985;    1,864
1062,676;  238,955;    1,439;    0,864
1063,220;  274,045;    0,985;    0,500
1063,763;  296,591;    2,985;    1,136
1064,306;  313,500;    0,985;    1,864
1064,849;  317,500;    2,076;    0,591
1065,393;  300,318;    2,894;   -1,500
1065,936;  304,500;    2,530;   -0,409
1066,479;  234,955;    2,621;    1,318
1067,022;  259,045;    1,894;   -0,227
1067,565;  229,136;   -1,197;   -1,318
1068,108;  210,318;    1,258;   -0,591
1068,651;  188,318;   -2,470;    1,409
1069,194;  185,682;   -1,106;   -1,682
1069,736;  208,318;    3,803;    0,955
1070,279;  185,227;   -1,652;   -0,500
1070,822;  265,682;    1,530;   -0,318
1071,364;  375,227;    0,530;    1,318
1071,907;  244,591;    0,348;    3,227
1072,450;  127,136;    0,258;   -0,045
1072,992;  193,500;   -0,561;    3,136
1073,535;  257,409;    0,167;    2,136
1074,077;  186,409;    2,985;    2,045
1074,619;  177,773;    0,985;    0,591
1075,161;  206,682;   -0,561;    1,500
1075,704;  316,136;    0,258;    1,227
1076,246;  193,409;    1,530;    0,682
1076,788;  140,500;   -1,015;    1,773
1077,330;  148,136;   -2,106;    2,136
1077,872;  184,682;   -1,924;    0,955
1078,414;  340,409;    3,712;    0,773
1078,956;  207,136;    0,167;   -0,227
1079,498;  320,591;    0,439;    0,318
1080,040;  202,773;    0,985;   -1,318
1080,581;  169,318;    0,621;   -0,318
1081,123;  123,682;   -0,106;   -0,773
1081,665;  136,500;    3,803;   -0,955
1082,206;  295,500;    3,258;   -0,500
1082,748;  221,773;    3,258;    2,045
1083,289;  149,864;    0,167;    1,318
1083,831;  142,500;    0,258;    0,227
1084,372;  181,409;    0,894;    0,591
1084,913;  177,045;    3,348;    0,864
1085,455;  135,409;    1,530;   -2,045
1085,996;  130,045;    0,530;    0,136
1086,537;  155,136;    0,985;    0,864
1087,078;  167,227;    0,439;   -2,136
1087,619;  207,136;   -1,652;    0,227
1088,160;  170,591;    1,439;    1,318
1088,701;  157,409;   -0,742;    0,682
1089,242;  143,227;   -0,561;   -2,227
1089,783;  185,773;   -0,561;    1,409
1090,324;  164,500;   -0,833;    0,682
1090,865;  123,500;   -1,924;   -0,409
1091,405;  105,773;   -0,561;    2,227
1091,946;  141,318;   -0,197;   -0,955
1092,487;   98,591;   -1,288;   -1,409
1093,027;  192,864;    1,803;   -1,500
1093,568;  136,682;    2,258;    1,227
1094,108;  160,500;    0,621;    1,773
1094,649;  139,045;   -0,470;    0,136
1095,189;  114,682;    1,167;   -0,682
1095,729;  107,500;    0,712;    0,955
1096,269;   98,409;    1,258;   -0,955
1096,810;  233,045;   -0,197;    0,500
1097,350;  173,773;   -0,561;   -0,773
1097,890;  134,955;    2,985;    1,227
1098,430;  271,136;    4,985;    2,864
1098,970;  214,591;    1,894;    1,682
1099,510;  123,045;   -0,833;   -2,318
1100,050;  104,409;    0,258;   -1,591
1100,589;  114,955;    0,076;   -0,318
1101,129;  156,227;    0,894;   -0,955
1101,669;  229,318;    2,803;    2,136
1102,209;  160,955;    1,530;    2,227
1102,748;  129,955;    3,439;    0,955
1103,288;  136,318;    0,712;   -1,227
1103,827;  128,227;    3,530;   -2,227
1104,367;  100,045;    1,712;   -2,409
1104,906;   99,955;   -1,015;   -1,136
1105,445;  137,955;    0,985;   -1,136
1105,985;  112,045;   -0,652;    1,500
1106,524;  121,136;    1,530;   -0,682
1107,063;  115,318;    1,167;    1,409
1107,602;   97,409;    1,894;   -1,500
1108,141;   82,500;    1,621;    1,500
1108,680;  131,682;    3,985;   -0,591
1109,219;  110,682;    0,167;   -0,500
1109,758;  102,045;    4,167;    0,682
1110,297;   99,136;   -1,106;   -0,682
1110,836;   76,227;    1,439;    0,955
1111,375;  102,045;    0,348;    0,409
1111,913;  135,409;    0,985;    0,773
1112,452;  112,500;    0,894;    0,136
1112,991;   74,591;    1,076;    1,955
1113,529;   72,773;    0,167;   -0,045
1114,068;   99,227;    0,439;    2,955
1114,606;   71,227;   -0,561;   -0,955
1115,144;  119,864;    1,530;    1,045
1115,683;   98,318;    1,985;    0,318
1116,221;  128,136;    2,076;   -0,864
1116,759;   81,955;    1,621;   -0,864
1117,297;  142,591;    1,621;    1,864
1117,836;   87,045;    1,985;   -1,227
1118,374;   84,955;    0,258;   -0,682
1118,912;   92,682;    0,439;    2,682
1119,450;   82,318;    0,985;    0,864
1119,988;   84,864;    3,348;    2,136
1120,525;  322,227;    7,258;    3,318
1121,063;  168,045;    0,530;    1,864
1121,601;   88,136;    1,076;   -1,227
1122,139;   71,682;    1,076;   -2,045
1122,676;  153,955;   -1,652;    2,773
1123,214;  130,500;    0,712;    4,409
1123,751;   63,864;    0,621;    2,227
1124,289;   98,409;    0,894;   -0,409
1124,826;   70,773;   -0,379;    0,227
1125,364;   38,591;    0,712;   -0,955
1125,901;  128,045;    6,258;    1,227
1126,438;  133,955;    3,530;    0,955
1126,975;   44,591;    2,985;   -0,773
1127,513;   60,318;    2,621;    2,136
1128,050;   42,136;   -0,561;   -0,682
1128,587;   71,409;    1,348;   -0,227
1129,124;   88,955;   -0,015;    1,318
1129,661;   50,864;   -1,924;    0,227
1130,198;  111,500;    2,439;    0,773
1130,734;   81,773;   -0,379;    1,409
1131,271;   41,500;   -1,197;    0,864
1131,808;   98,409;    1,621;    3,045
1132,345;   61,318;    4,530;    0,318
1132,881;   23,500;   -0,561;   -1,864
1133,418;   67,864;    0,348;   -1,136
1133,954;   48,136;    0,712;   -2,682
1134,491;   70,227;    1,712;   -0,773
1135,027;   40,045;    2,167;    0,864
1135,564;   67,318;    1,439;    2,955
1136,100;   61,500;   -0,742;    2,136
1136,636;   38,045;   -1,015;   -1,045
1137,172;   54,409;    0,894;   -1,045
1137,708;   36,409;   -1,561;   -1,045
1138,245;   34,409;    0,803;   -1,227
1138,781;   27,227;    1,803;   -3,318
1139,317;   42,682;    1,894;   -1,409
1139,852;   50,409;    3,076;    0,136
1140,388;   74,955;    2,076;   -0,409
1140,924;   44,955;    1,076;   -2,227
1141,460;   23,136;   -0,288;    0,136
1141,996;   13,682;   -0,652;    2,682
1142,531;   23,864;    1,076;    3,318
1143,067;   89,773;    1,167;    1,045
1143,602;  110,136;    3,439;   -0,318
1144,138;   60,500;    0,803;    1,045
1144,673;   28,227;    1,621;    1,409
1145,209;   37,500;    2,894;   -0,318
1145,744;   17,136;    0,803;    0,864
1146,279;   52,045;    1,530;   -0,136
1146,815;   33,500;    1,530;   -2,682
1147,350;   50,227;   -0,924;    0,045
1147,885;   23,773;   -1,924;   -1,318
1148,420;   22,773;    2,439;    0,773
1148,955;   23,409;   -1,470;    1,864
1149,490;   25,773;   -1,106;   -1,591
1150,025;   19,318;   -1,106;   -1,773
1150,560;   49,318;   -0,288;   -0,955
1151,094;   42,773;    0,258;   -0,591
1151,629;   38,409;   -3,742;    0,864
1152,164;   24,500;   -1,288;    1,318
1152,698;   17,682;    1,258;   -0,136
1153,233;    4,409;   -1,379;   -0,682
1153,767;   13,864;   -0,288;   -2,318
1154,302;   28,318;   -0,379;    1,773
1154,836;   26,864;    0,803;   -2,136
1155,371;   35,955;    2,258;    3,682
1155,905;   22,500;    1,985;    1,682
1156,439;   24,136;    0,530;   -0,500
1156,973;   32,227;    0,439;    0,318
1157,507;   19,318;   -1,742;    0,682
1158,042;   24,318;   -0,652;    1,045
1158,576;   32,864;   -0,561;    1,773
1159,110;   34,864;    0,076;    2,409
1159,643;   25,864;   -2,470;   -0,045
1160,177;   13,682;   -2,015;    1,500

