
Integration time [ms]:   0,050
Averaging Nr. [scans]: 11
Smoothing Nr. [pixels]: 0
Data measured with spectrometer [name]: 7318044SP
Wave   ;Sample   ;Dark     ;Reference
[nm]   ;[counts] ;[counts] ;[counts] 

186,757;   -6,187;   38,161;    1,318
187,357;   25,645;   26,706;    0,955
187,958;   11,121;   17,252;   -1,591
188,558;   52,967;   12,979;   -1,227
189,159;   33,051;   10,070;   -4,500
189,759;    2,638;    5,797;   -3,591
190,360;   -0,465;    6,797;   -2,136
190,960;   34,256;    5,706;   -4,136
191,560;   47,164;    2,614;   -6,591
192,161;  290,196;    5,885;   -3,500
192,761;  130,273;    5,520;   -3,227
193,361;   84,309;    3,065;   -3,773
193,962;  144,733;    1,612;   -2,682
194,562;   65,241;   -0,114;   -3,955
195,162;   99,146;   -0,567;   -2,227
195,762;  267,478;    2,433;   -0,045
196,362;  212,376;    1,706;   -2,500
196,963;   78,836;    1,706;   -0,864
197,563;  160,435;    1,252;   -0,955
198,163;  111,788;   -0,111;   -0,682
198,763;  127,853;   -0,020;   -0,500
199,363;  232,770;    3,616;   -0,500
199,963;  197,136;    2,162;    0,409
200,563;  170,630;    6,344;   -1,409
201,163;  148,166;    5,435;   -0,227
201,763;  240,549;    1,435;    0,318
202,363;  186,552;    0,980;    1,500
202,963;  289,032;    1,526;    1,045
203,563;  406,365;    0,344;    0,500
204,162;  250,967;    1,889;   -1,864
204,762;  249,308;    2,071;    0,591
205,362;  224,031;    0,708;    1,955
205,962;  323,515;    3,435;    1,955
206,562;  324,937;    1,889;    2,318
207,161;  300,885;    1,708;    0,318
207,761;  441,518;    4,435;    2,409
208,361;  326,450;    1,889;    1,409
208,960;  417,118;    2,889;    1,500
209,560;  500,533;    0,435;    1,591
210,160;  477,969;    5,071;    1,864
210,759;  453,044;    0,708;    1,227
211,359;  460,747;   -0,474;    1,045
211,958;  740,103;    3,526;    2,045
212,558;  814,836;    0,799;    1,864
213,157;  663,294;   -0,929;    1,500
213,757; 1113,196;    5,617;   -0,227
214,356;  810,003;    1,708;   -0,409
214,956; 1152,008;    3,526;    0,409
215,555;  790,450;    0,617;    2,136
216,154;  730,303;   -0,292;   -0,591
216,754;  754,911;    1,253;    0,773
217,353;  892,030;   -0,383;   -1,045
217,952;  758,623;    2,072;    0,318
218,552;  985,911;    0,254;   -0,773
219,151;  903,390;   -1,110;    0,955
219,750;  914,913;    0,890;   -0,227
220,349; 1087,674;   -2,292;    1,045
220,948; 1124,329;    1,163;    1,136
221,548; 1200,461;    0,617;    1,227
222,147; 1323,334;   -1,292;   -0,409
222,746; 1614,558;    1,254;   -0,955
223,345; 1493,084;   -1,019;    0,500
223,944; 1539,505;    1,163;    0,773
224,543; 1753,865;    4,072;   -1,409
225,142; 1873,426;    1,345;    0,136
225,741; 1786,843;    1,163;    1,045
226,340; 1826,040;    1,254;   -0,955
226,939; 2336,487;    2,708;   -0,136
227,538; 2393,653;    1,163;   -0,773
228,137; 2529,247;    0,435;    0,864
228,735; 2762,233;    0,435;    1,227
229,334; 2472,295;   -0,474;   -0,227
229,933; 2854,030;    0,799;    0,591
230,532; 2980,859;   -1,201;   -0,409
231,131; 3062,689;    1,253;    0,318
231,729; 3286,868;    1,163;   -2,318
232,328; 3489,245;    0,435;   -1,500
232,927; 3650,568;    4,526;   -0,500
233,525; 3815,475;    0,981;    0,045
234,124; 4048,733;    1,890;   -1,591
234,723; 4124,302;    1,617;   -1,045
235,321; 4331,495;    1,163;    0,136
235,920; 4625,609;    2,526;   -1,227
236,518; 4941,985;    1,072;    0,318
237,117; 5208,259;    2,890;   -0,227
237,715; 5424,183;    1,163;   -0,500
238,314; 5460,447;    1,708;   -2,318
238,912; 5552,755;    0,526;   -1,409
239,510; 5694,516;    1,162;   -1,227
240,109; 5892,489;   -0,474;    3,773
240,707; 5974,616;   -0,474;    1,227
241,305; 6466,933;   -0,383;    0,136
241,904; 6701,478;   -0,292;   -2,045
242,502; 6634,158;    3,253;   -0,227
243,100; 6638,973;    3,344;   -0,955
243,698; 6940,807;    2,799;    1,682
244,297; 7166,218;   -0,656;    0,682
244,895; 6980,466;   -0,474;   -2,318
245,493; 7382,211;    2,981;   -0,591
246,091; 7490,027;    5,163;   -1,318
246,689; 7508,740;    2,163;    0,591
247,287; 7702,964;   -0,019;   -1,136
247,885; 8055,431;   -1,019;    1,227
248,483; 8203,278;   -0,201;   -0,500
249,081; 8338,304;    0,981;    1,591
249,679; 8576,373;   -1,019;    1,682
250,277; 8891,604;   -2,292;    0,864
250,875; 8871,260;    0,617;   -1,045
251,473; 8930,035;   -0,019;    0,500
252,071; 9123,369;   -0,383;    1,045
252,669; 9330,687;   -1,565;    0,318
253,267; 9697,354;    1,618;    0,773
253,864; 9687,964;    0,617;    0,682
254,462; 9455,116;    1,526;    1,591
255,060; 9514,681;    0,072;    1,318
255,658; 9923,323;   -3,292;   -0,136
256,255;10397,768;   -0,201;   -2,045
256,853;10260,068;    2,345;    1,409
257,451;10304,000;    1,981;    1,864
258,048;10554,656;    2,072;    1,864
258,646;10323,283;    0,436;   -1,045
259,243;10561,613;    2,981;    2,227
259,841;10611,303;    1,799;    0,318
260,438;10493,956;    0,254;    0,864
261,036;11355,086;    0,617;    1,409
261,633;11286,625;    1,526;    2,227
262,231;11021,316;   -0,110;   -0,045
262,828;11135,168;   -0,383;    1,136
263,425;11188,718;   -1,928;   -0,591
264,023;11483,953;    1,436;    0,045
264,620;10961,618;    1,526;   -0,318
265,217;11386,065;    2,890;    3,136
265,815;11507,366;    2,527;    2,136
266,412;11244,548;    0,072;    0,136
267,009;11313,259;    0,526;    0,773
267,606;11180,192;    0,345;   -0,955
268,203;11210,633;   -0,383;   -0,591
268,801;11549,708;   -0,474;    0,591
269,398;11878,145;   -0,564;    2,500
269,995;11924,350;    0,890;    1,591
270,592;11644,239;    0,799;   -0,500
271,189;11927,362;    1,981;    0,409
271,786;12082,313;    2,072;    1,227
272,383;11852,205;   -0,383;    0,227
272,980;12081,252;    1,617;    0,318
273,577;12626,977;    2,162;    1,227
274,174;12156,524;    1,435;    2,591
274,771;12159,960;    1,890;   -0,773
275,367;12309,781;    3,253;    1,409
275,964;12278,931;   -0,565;   -0,500
276,561;12457,275;   -2,474;   -1,045
277,158;12737,554;    1,799;   -1,773
277,755;12815,122;   -0,110;    0,409
278,351;12131,905;    0,436;   -1,500
278,948;12519,073;   -0,201;    0,045
279,545;12618,027;    0,527;    2,318
280,141;13243,125;    1,254;   -2,045
280,738;13116,931;    2,435;   -0,136
281,334;13430,691;   -0,383;    0,591
281,931;12760,218;    2,890;   -1,318
282,528;12870,454;    4,072;   -0,500
283,124;13706,843;    3,345;   -0,500
283,721;13640,343;    0,709;    1,409
284,317;13461,393;    0,163;    2,500
284,913;14067,336;   -0,110;    0,591
285,510;14276,609;    2,890;   -0,318
286,106;14297,843;    2,345;   -0,955
286,703;13878,540;    0,072;    1,955
287,299;14117,848;    1,254;   -0,591
287,895;14380,108;    0,890;   -1,045
288,491;15109,600;    0,163;    2,136
289,088;14767,693;    0,163;    2,409
289,684;14848,414;    2,890;    1,500
290,280;14897,355;    1,890;    0,682
290,876;14941,660;    0,163;    5,500
291,472;14807,771;    2,163;    2,227
292,068;14904,689;    1,254;    0,227
292,665;14623,575;   -0,564;    0,773
293,261;14182,936;   -1,292;    2,136
293,857;14629,235;    4,072;    2,136
294,453;14556,834;   -0,928;    0,955
295,049;14373,846;    0,253;    1,955
295,644;14402,847;   -1,292;    0,136
296,240;14325,933;    0,162;   -0,136
296,836;14394,710;   -0,747;    0,318
297,432;14713,943;    2,980;   -0,500
298,028;14754,285;    0,435;    0,773
298,624;15227,844;    0,889;    1,864
299,220;15593,771;    0,435;    0,591
299,815;15185,922;    0,526;   -0,409
300,411;14908,483;    0,435;    1,773
301,007;14969,606;    1,889;    0,227
301,602;15071,431;    2,071;   -2,318
302,198;15241,372;    1,435;   -0,773
302,794;15642,875;    1,526;   -0,500
303,389;15819,009;    1,071;    1,045
303,985;15865,744;    1,253;    1,409
304,580;15818,497;    0,889;    1,591
305,176;15838,811;    0,344;    0,136
305,771;15803,247;   -0,929;   -1,227
306,367;15515,403;    3,071;    0,136
306,962;15963,158;    2,889;    1,500
307,558;15733,997;    2,435;    0,136
308,153;15697,734;   -0,383;   -1,136
308,748;15933,614;    0,162;    1,682
309,344;15891,438;    0,253;   -1,318
309,939;15972,527;    2,071;   -1,318
310,534;16346,073;   -2,020;   -1,682
311,130;16302,880;   -0,656;   -2,500
311,725;15999,267;    0,526;   -0,500
312,320;16333,061;    1,253;    0,045
312,915;16164,997;    2,890;   -1,045
313,510;16241,498;    0,526;   -0,500
314,105;16860,027;   -3,565;    1,409
314,700;16208,687;   -1,656;   -1,045
315,295;15765,406;   -0,020;    0,045
315,890;15255,402;   -0,292;    0,864
316,485;15648,750;    0,253;   -0,318
317,080;15768,914;   -0,929;    1,591
317,675;16356,893;    3,071;   -0,682
318,270;15631,989;    6,889;    3,318
318,865;15687,975;    2,435;    3,045
319,460;15525,759;   -1,565;    0,591
320,055;15798,539;   -2,565;   -1,227
320,650;15417,705;   -1,838;   -0,591
321,244;15490,065;    0,889;   -1,409
321,839;16534,820;    0,980;   -0,227
322,434;16424,151;   -0,111;   -1,591
323,029;15958,914;   -0,474;    1,591
323,623;15812,068;    0,798;    0,773
324,218;15534,178;    2,707;    1,409
324,812;15447,889;    0,889;    1,591
325,407;15223,759;   -0,929;    2,045
326,002;15100,935;    0,526;   -0,409
326,596;15457,189;   -0,656;    1,318
327,191;15732,409;   -0,383;   -1,045
327,785;15267,098;   -0,747;   -0,227
328,379;15469,989;   -0,383;    0,136
328,974;15325,661;    1,798;   -3,955
329,568;15535,302;    2,889;   -2,409
330,163;15308,614;    2,435;    1,045
330,757;15689,758;    0,253;    1,591
331,351;14938,545;   -0,292;    0,682
331,945;15234,679;   -0,383;    1,409
332,540;14796,559;    1,617;   -0,591
333,134;14940,660;    3,344;    0,773
333,728;15208,524;    2,799;    0,318
334,322;15606,996;    0,889;   -0,864
334,916;14858,691;    0,344;    0,955
335,510;15230,642;   -0,111;   -0,136
336,105;15464,045;   -0,929;    1,591
336,699;15071,693;   -1,292;    0,591
337,293;15020,446;    1,071;    0,318
337,887;15220,368;    0,071;    1,955
338,481;15252,307;    2,980;    0,591
339,074;15443,041;    2,071;    2,682
339,668;15199,753;   -0,110;    1,227
340,262;15471,982;    7,708;    3,227
340,856;14960,708;    1,708;   -0,682
341,450;14230,984;    0,708;    1,864
342,044;15243,355;    1,799;    0,136
342,637;14982,125;    1,162;   -2,136
343,231;14815,343;   -1,474;    0,682
343,825;14784,315;   -0,747;   -0,591
344,419;14657,765;   -0,474;    0,500
345,012;14310,126;    2,889;    4,045
345,606;14340,278;   -0,656;    1,591
346,199;14187,673;   -0,111;   -0,227
346,793;13637,657;    2,525;    2,045
347,386;13854,931;    0,889;   -1,136
347,980;13826,884;   -0,838;   -0,045
348,573;13558,621;   -1,748;    0,409
349,167;13096,238;    6,161;    4,773
349,760;13556,301;    2,252;    2,682
350,354;13512,029;    1,616;    1,136
350,947;13219,909;    2,798;    1,682
351,540;12885,098;    0,616;   -1,409
352,134;12791,700;   -1,111;    1,136
352,727;12849,995;   -0,657;    1,136
353,320;12628,807;    2,343;    0,591
353,913;12446,564;   -1,929;    1,864
354,507;12625,453;    0,434;   -1,227
355,100;12650,913;    0,071;    0,864
355,693;11677,112;    4,798;    2,409
356,286;11729,959;    0,980;    2,773
356,879;12179,966;   -0,475;    1,227
357,472;11723,135;    0,980;    1,500
358,065;11919,872;    3,161;    2,500
358,658;11851,316;    0,798;    2,318
359,251;11424,072;    0,252;   -0,591
359,844;10755,738;    0,343;   -1,136
360,437;10940,179;    0,252;    0,045
361,030;11255,764;    0,525;   -0,682
361,623;10807,504;    0,434;    0,318
362,215;10849,773;    0,979;    2,045
362,808;10643,768;   -2,293;   -1,682
363,401;10818,173;    0,798;    0,136
363,994;10510,555;    3,252;   -1,500
364,586;10419,540;    0,888;   -1,500
365,179;10660,318;   -0,203;   -1,136
365,772;10093,890;   -0,930;    2,045
366,364;10414,587;    1,524;   -3,227
366,957;10649,930;    1,342;   -0,045
367,549;10658,521;   -0,203;   -0,864
368,142;10225,164;    0,978;   -1,500
368,734;10461,758;    2,523;   -2,136
369,327;10408,577;    2,341;   -0,500
369,919;10333,435;   -1,659;    0,409
370,512;10030,421;   -1,023;   -0,500
371,104; 9743,158;    2,704;    1,591
371,696; 9934,191;    1,703;   -0,955
372,289;10097,348;    0,157;    1,136
372,881;10251,699;    1,156;    1,318
373,473;10183,371;    4,064;    1,136
374,066; 9922,251;    1,336;    0,500
374,658; 9726,268;    0,879;    1,136
375,250;10169,624;   -1,668;   -1,409
375,842; 9963,021;   -0,124;   -0,045
376,434; 9826,580;   -2,762;   -0,409
377,026;10519,055;   -1,855;   -2,500
377,618;10358,449;    0,779;   -0,682
378,210;10192,439;    3,141;   -1,955
378,802;10033,861;    3,412;   -0,591
379,394; 9914,571;    3,411;    0,682
379,986;10645,137;    1,138;   -0,955
380,578;10799,975;    1,410;    0,773
381,170; 9991,486;    0,320;    0,045
381,762; 9963,691;   -0,224;    1,409
382,354;10228,108;   -0,223;   -1,318
382,945;10314,148;    0,870;    0,318
383,537;10512,802;    1,144;   -1,955
384,129;10487,933;    0,963;   -1,136
384,721;10742,439;    0,418;    0,955
385,312;10668,940;   -1,399;   -0,955
385,904;10695,659;   -0,945;    1,591
386,496; 9989,537;    0,691;    1,045
387,087;10164,030;    0,418;    2,500
387,679;10231,797;   -0,401;    0,045
388,270;10374,651;   -2,401;    2,045
388,862;10543,733;   -0,401;   -0,318
389,453;10396,135;    1,054;    1,045
390,045;10720,373;    3,236;   -2,682
390,636;10651,952;    0,144;   -0,591
391,227;10479,620;    2,054;   -0,045
391,819;10575,044;    0,781;    0,773
392,410;10692,625;    0,600;    0,045
393,001;10622,855;    1,600;   -1,591
393,593;10878,650;    0,600;   -0,045
394,184;10705,156;    0,873;   -0,409
394,775;10657,842;    1,146;    2,136
395,366;10885,384;    1,782;    0,773
395,957;10946,506;   -2,400;    0,136
396,548;11295,059;    1,054;    2,682
397,139;11650,761;    2,236;    0,591
397,730;11314,502;    0,873;    0,955
398,321;11398,027;    0,509;    0,955
398,912;11430,630;   -0,764;    0,136
399,503;11494,364;   -1,945;   -1,409
400,094;10873,264;   -1,582;    1,682
400,685;10701,096;    3,600;    0,045
401,276;10827,618;   -0,400;   -0,955
401,867;11190,253;   -1,127;    0,773
402,458;11292,190;    1,509;   -2,318
403,048;11273,443;    0,146;    0,591
403,639;10833,546;    1,509;    0,864
404,230;11026,689;    0,691;    0,318
404,821;10979,546;   -0,127;    0,045
405,411;11117,384;   -0,763;   -2,591
406,002;10635,871;    3,237;   -1,136
406,592;10394,864;    2,691;    0,045
407,183;10777,552;    0,328;   -1,500
407,774;10671,331;    1,419;   -0,136
408,364;11086,077;    2,600;    0,409
408,954;10625,199;   -0,036;    1,227
409,545;10685,883;    1,873;    1,045
410,135;10132,829;   -1,581;    0,500
410,726;10320,032;    0,783;    0,318
411,316;10748,119;    2,237;    0,773
411,906;10392,832;    0,146;   -0,409
412,497; 9777,339;   -0,490;   -0,045
413,087;10494,983;    0,783;   -0,227
413,677;10952,976;   -2,490;    3,864
414,267;10744,429;   -1,035;    1,409
414,857;10767,061;    0,419;    4,227
415,448;11079,544;   -0,763;    0,500
416,038;10724,832;   -2,945;   -0,591
416,628;10690,206;    0,965;    0,409
417,218;10051,280;   -1,762;    3,318
417,808;10379,547;    0,965;   -0,409
418,398;10948,870;   -1,035;    2,682
418,988;10973,906;   -2,217;    0,591
419,578;11268,299;    3,601;    1,409
420,168;11625,133;    0,692;   -0,955
420,757;11158,670;    0,964;   -1,500
421,347;10815,856;    1,601;   -0,227
421,937;11008,485;    3,329;    1,409
422,527;10895,761;    2,602;   -0,773
423,116;10695,618;    2,692;   -0,045
423,706;11184,314;    2,965;    0,318
424,296;11149,103;    1,601;    0,682
424,885;11596,558;    1,510;   -3,045
425,475;11904,045;    1,147;   -2,864
426,065;11860,233;   -1,489;   -0,318
426,654;11419,434;    0,329;   -0,318
427,244;11493,137;    1,147;    1,409
427,833;10877,491;    1,056;   -0,500
428,423;11469,696;    0,147;    1,136
429,012;12343,173;    2,420;   -1,136
429,601;11748,317;    2,057;    0,136
430,191;12038,162;    2,511;    4,318
430,780;11601,417;   -1,671;   -0,409
431,369;11486,786;    1,329;   -0,045
431,959;12232,256;    1,693;    0,500
432,548;12016,515;   -1,398;   -0,045
433,137;12183,596;    0,329;   -1,318
433,726;12772,104;    0,148;    0,500
434,315;12057,379;    0,148;    2,409
434,905;12154,803;    0,693;    1,409
435,494;11997,917;    3,148;    0,955
436,083;12522,776;    1,420;   -0,955
436,672;12391,584;    1,148;    0,500
437,261;11867,500;    0,512;   -1,955
437,850;11989,958;   -1,125;    0,682
438,439;11950,360;    2,239;    1,955
439,027;11723,202;    3,421;    1,773
439,616;12150,522;    2,239;    1,227
440,205;12099,034;    0,057;   -2,136
440,794;12184,957;   -0,306;   -0,045
441,383;12467,370;    1,603;   -0,591
441,971;12343,313;   -0,306;    0,591
442,560;12171,509;    0,603;   -1,773
443,149;11959,025;    3,060;   -1,318
443,737;12102,357;    0,968;   -2,318
444,326;12346,279;    0,331;    0,318
444,915;12437,061;   -1,851;    0,864
445,503;12884,268;    0,058;   -0,318
446,092;12072,927;    7,876;    2,136
446,680;12693,778;    1,876;    0,318
447,269;12852,871;   -1,487;   -0,318
447,857;12617,611;    2,240;   -1,773
448,445;12729,019;    2,149;    1,318
449,034;12962,696;    0,876;   -1,136
449,622;13146,892;    1,240;    3,500
450,210;12185,415;    3,149;    2,227
450,799;12802,697;    2,604;   -0,591
451,387;12765,755;    1,786;   -0,591
451,975;12330,507;   -1,305;    0,864
452,563;12432,942;    0,422;    2,318
453,151;12523,720;   -1,032;   -1,227
453,739;12439,179;   -1,577;    0,136
454,328;12209,686;    0,604;   -2,136
454,916;11834,949;    1,150;   -0,136
455,504;12096,225;    3,513;    1,227
456,092;12306,893;    2,150;   -1,591
456,679;12256,628;    0,604;    0,682
457,267;12100,277;    3,604;    1,045
457,855;12346,686;    3,241;    1,409
458,443;12118,119;   -0,304;    1,682
459,031;12222,905;    1,332;    2,409
459,619;12782,503;   -3,577;    2,864
460,206;12978,484;   -0,759;    2,045
460,794;13042,538;   -0,668;   -0,227
461,382;13306,456;    0,878;   -0,864
461,970;12825,113;    0,605;    1,864
462,557;12863,210;    0,878;   -0,682
463,145;13073,200;   -0,304;   -1,682
463,732;13252,293;    2,514;   -1,045
464,320;13219,580;    1,514;   -3,045
464,907;12800,325;    0,423;   -0,773
465,495;12654,703;    2,696;   -1,227
466,082;12813,299;    2,060;   -0,045
466,670;12741,902;    2,605;    1,227
467,257;13183,590;    0,060;    2,045
467,844;13355,754;    1,514;    0,045
468,432;13350,664;   -0,031;    3,500
469,019;12788,938;    1,606;   -1,773
469,606;13296,583;    0,969;    3,682
470,193;13090,426;    2,151;    0,227
470,780;12596,613;    0,333;    0,864
471,368;12983,814;   -1,212;   -0,773
471,955;12735,959;    1,060;   -0,682
472,542;12313,910;   -0,303;   -1,136
473,129;12589,555;   -0,485;    0,136
473,716;12335,692;    0,060;    0,591
474,303;12530,085;    1,333;   -0,864
474,890;12831,882;    2,333;   -0,500
475,477;12796,123;   -0,576;    0,409
476,064;12748,537;    0,697;   -1,591
476,650;12703,984;    2,152;    0,318
477,237;12557,257;    1,879;    0,955
477,824;12762,287;    3,879;    0,864
478,411;12783,957;    0,606;   -0,318
478,997;12991,376;    0,606;   -0,773
479,584;13061,678;   -0,666;   -0,409
480,171;13848,416;    1,243;   -0,773
480,757;13486,291;   -0,848;    0,773
481,344;13787,682;    0,334;    0,409
481,931;13299,440;   -0,393;    1,045
482,517;14413,046;    0,425;    0,318
483,104;15140,098;    1,334;    2,864
483,690;15597,595;    0,243;    0,045
484,276;16107,672;    0,698;    0,227
484,863;15829,577;    2,152;    1,136
485,449;16503,292;    0,152;    0,318
486,035;16472,021;   -0,666;   -0,136
486,622;16985,539;   -2,393;    0,045
487,208;16931,522;    1,334;    1,500
487,794;16769,010;    0,971;    0,318
488,380;16823,125;    0,698;   -1,409
488,967;16924,318;   -1,120;   -0,409
489,553;17002,306;   -1,029;   -1,409
490,139;17167,118;    0,971;    0,773
490,725;16569,553;    0,789;   -0,227
491,311;16025,992;    1,516;    3,045
491,897;15158,126;   -0,665;    1,500
492,483;14842,548;    0,426;    1,227
493,069;14444,602;    5,426;    0,864
493,655;14475,818;    1,789;    0,682
494,241;14420,166;    1,517;   -0,955
494,826;14856,201;    0,335;   -1,045
495,412;14263,145;    0,335;   -0,682
495,998;14446,237;    0,971;   -0,318
496,584;14640,450;    2,244;    1,045
497,169;14613,572;    2,335;   -0,682
497,755;14510,415;    1,244;    1,227
498,341;15122,922;    2,153;    0,318
498,926;14647,569;    2,881;    1,955
499,512;14937,369;   -0,028;    2,955
500,097;15044,883;   -0,574;   -0,318
500,683;15007,621;   -0,028;    2,136
501,268;15397,957;    1,881;   -0,955
501,854;15099,276;   -0,119;    1,227
502,439;15005,130;   -0,573;   -1,773
503,024;15227,537;    1,608;    0,500
503,610;15297,802;    1,335;   -0,682
504,195;15338,085;    1,245;    1,955
504,780;15417,924;    2,335;    1,227
505,366;15231,474;    4,063;    2,864
505,951;14940,179;   -1,119;    1,045
506,536;14965,492;    1,427;   -3,682
507,121;14916,901;    1,699;   -0,318
507,706;15472,580;   -0,392;    1,045
508,291;15968,648;   -2,937;    1,136
508,876;15371,741;   -0,482;    2,591
509,461;14770,168;    1,427;   -0,773
510,046;15204,601;   -0,391;    0,318
510,631;15461,267;   -0,119;   -0,773
511,216;15113,887;   -0,664;   -0,500
511,801;15488,227;   -0,755;    2,591
512,386;15821,619;    0,972;    0,500
512,971;15746,019;    0,427;    0,955
513,555;15270,531;    1,154;   -1,500
514,140;16154,302;    1,336;   -3,136
514,725;16146,633;    1,791;   -1,136
515,309;16305,638;    1,064;    0,318
515,894;15690,771;   -0,300;   -2,227
516,479;16123,823;    1,973;   -0,955
517,063;15983,512;    0,882;    1,227
517,648;16140,933;    0,155;   -1,136
518,232;15809,122;   -1,300;   -1,409
518,817;16127,752;    1,337;    1,682
519,401;16343,631;    0,700;    0,591
519,985;15836,881;    2,700;    1,136
520,570;15720,264;   -0,118;   -1,955
521,154;16032,156;    0,064;    0,591
521,738;16236,465;    1,064;    2,409
522,323;16835,434;   -0,390;    1,682
522,907;16565,205;    2,428;   -0,136
523,491;16244,611;    1,155;    0,955
524,075;16200,605;    0,428;    0,591
524,659;16333,579;    0,973;    0,591
525,243;15666,580;    0,883;    0,409
525,827;15964,039;    0,883;   -0,045
526,411;16875,125;    1,155;   -0,136
526,995;17146,596;    0,337;    1,409
527,579;16698,579;    1,974;   -1,045
528,163;17050,842;    0,428;   -1,500
528,747;16977,589;    1,065;   -0,773
529,331;17268,644;    0,883;   -1,409
529,915;17529,360;    2,338;    0,955
530,499;17441,962;    0,247;    1,227
531,082;17106,732;    1,065;    1,591
531,666;16511,067;    0,520;    0,773
532,250;17297,037;    0,428;    2,682
532,833;17696,233;    0,610;    2,773
533,417;17559,478;    1,247;    0,864
534,001;17526,694;    0,429;   -0,318
534,584;18277,211;    1,974;    0,500
535,168;18126,273;    3,247;    1,409
535,751;18203,843;    4,520;    0,045
536,334;17586,699;    4,520;   -0,409
536,918;18262,328;    1,974;    1,591
537,501;18379,982;    1,520;    1,318
538,085;18358,809;    1,702;    1,045
538,668;18553,076;    0,883;    2,409
539,251;18876,160;    3,156;    3,773
539,834;18936,830;    0,156;    0,773
540,418;18852,356;    3,247;    4,318
541,001;18991,479;    2,702;    1,773
541,584;19041,843;    1,429;    2,227
542,167;18696,175;    0,702;    2,955
542,750;18864,612;    0,793;   -0,773
543,333;18397,230;    1,429;    2,136
543,916;19268,314;   -0,298;    2,500
544,499;19962,422;    2,520;    0,227
545,082;19931,884;    0,248;    3,591
545,665;20140,350;   -0,207;    1,500
546,248;20523,684;    0,520;   -0,318
546,830;20184,123;   -1,752;    1,955
547,413;20605,326;    0,157;   -0,773
547,996;21180,385;    0,157;    0,500
548,579;20940,320;   -0,843;    0,955
549,161;20734,782;    0,884;    2,682
549,744;20534,899;    0,612;    0,409
550,326;21104,564;    0,885;   -1,136
550,909;20802,002;    2,339;    0,591
551,492;21209,751;    0,521;    0,227
552,074;20987,878;   -0,024;   -1,318
552,657;21593,585;    2,430;    0,045
553,239;21344,202;   -3,024;   -0,773
553,821;21261,007;   -1,570;    1,045
554,404;20777,263;   -0,024;    1,136
554,986;21123,888;    2,248;    1,045
555,568;21758,687;    0,430;   -0,955
556,151;20879,681;    4,067;   -0,227
556,733;21156,817;   -1,388;   -0,864
557,315;21640,001;    4,703;    0,500
557,897;21453,000;    0,521;   -0,500
558,479;21618,882;    1,703;    1,318
559,061;21740,128;    1,067;   -0,864
559,643;22129,075;   -0,297;    0,045
560,225;22551,513;   -0,388;    2,864
560,807;22562,621;    0,340;    0,318
561,389;22072,035;   -1,206;    2,318
561,971;22838,759;   -0,660;    2,136
562,553;22607,996;    0,613;    1,591
563,135;22744,170;    1,249;    1,136
563,717;22323,575;    3,158;    1,136
564,298;23158,480;    3,976;   -0,045
564,880;22803,514;    0,340;   -1,409
565,462;23063,786;    1,977;    1,318
566,043;24383,259;   -0,933;    2,318
566,625;23861,245;    4,067;    1,227
567,207;23787,411;    0,704;    1,682
567,788;25044,392;   -0,114;    1,500
568,370;25991,168;   -1,841;   -0,500
568,951;25855,547;   -0,569;    0,227
569,533;26881,277;    0,977;   -0,500
570,114;27446,696;   -0,296;    0,682
570,695;27995,071;   -0,478;   -1,318
571,277;28650,606;   -0,205;   -1,682
571,858;29507,225;    2,704;   -1,136
572,439;30554,004;    0,795;   -1,045
573,021;30810,069;    0,432;   -2,773
573,602;31413,883;    1,795;    0,318
574,183;32447,125;   -0,114;    2,227
574,764;32747,774;    2,068;    0,409
575,345;33411,749;    0,250;   -0,136
575,926;34127,938;    2,704;    0,136
576,507;34125,687;    2,704;   -0,227
577,088;35364,016;    1,704;    1,682
577,669;35411,525;    1,704;    1,955
578,250;36236,488;   -0,750;   -1,045
578,831;37031,848;   -0,841;   -2,227
579,412;37342,700;   -1,205;    0,955
579,993;38389,708;    1,432;    0,227
580,573;38759,484;   -0,023;   -0,955
581,154;37675,392;    1,613;   -0,591
581,735;38555,021;    0,341;    0,773
582,315;38098,748;    0,523;    2,136
582,896;38432,501;   -1,750;    1,227
583,477;37844,390;    0,614;    1,227
584,057;37998,491;    1,159;    0,955
584,638;38281,435;   -2,750;    2,318
585,218;38278,917;    2,886;    2,682
585,799;38450,656;    1,977;   -0,227
586,379;38381,107;    1,250;    1,591
586,959;36952,922;    2,613;    0,318
587,540;36169,064;    0,432;    2,227
588,120;35620,226;   -1,113;   -0,045
588,700;34445,296;    2,977;    2,136
589,281;34687,233;    1,250;   -0,955
589,861;34591,535;   -0,296;   -1,682
590,441;34432,079;   -1,477;   -2,682
591,021;33309,148;    1,432;   -2,591
591,601;33491,406;    0,431;    0,500
592,181;33422,111;   -1,296;   -0,773
592,761;32662,578;    2,250;    1,409
593,341;32511,146;    1,522;    0,045
593,921;32461,344;   -0,569;    1,591
594,501;32313,230;    1,250;    1,318
595,081;32143,624;    0,522;   -0,318
595,661;32579,927;    1,068;    0,955
596,240;33011,895;   -1,023;    0,136
596,820;32626,841;    2,613;    1,955
597,400;32955,374;    1,977;    0,773
597,980;33184,816;   -0,750;    1,045
598,559;33199,331;    0,341;   -0,227
599,139;32848,781;   -0,750;   -1,227
599,718;32765,508;    0,795;   -0,409
600,298;32965,094;   -2,387;    0,682
600,877;33213,222;    4,795;    1,409
601,457;33514,168;    0,340;    1,136
602,036;33432,300;    1,795;    2,045
602,616;33662,711;    2,250;    1,682
603,195;34021,517;    0,431;    3,500
603,774;33556,113;   -0,296;    2,045
604,354;33431,834;    2,522;   -0,500
604,933;32855,454;    0,250;    1,864
605,512;32999,478;    2,340;    0,591
606,091;33018,473;    1,886;    3,773
606,671;33835,693;    0,249;    0,773
607,250;32787,994;    1,431;    3,136
607,829;33114,757;    1,158;    3,227
608,408;32982,228;    4,613;    2,591
608,987;31941,876;    2,704;    3,409
609,566;32214,669;    0,341;   -2,500
610,145;32223,898;    2,885;    0,682
610,723;32712,172;    1,613;    6,864
611,302;31886,566;    1,067;    1,682
611,881;31315,953;    5,158;   11,227
612,460;32192,779;    0,795;    3,955
613,039;32619,074;    1,703;    2,045
613,617;31321,576;    0,886;    4,773
614,196;31480,359;    1,613;    1,227
614,775;31858,374;    1,249;    2,409
615,353;31765,636;   -1,660;    0,864
615,932;31361,008;    0,249;    2,409
616,510;32041,723;    0,158;    0,591
617,089;31413,924;    8,794;   17,591
617,667;31171,931;    4,885;    6,136
618,246;30931,067;   -1,115;    1,318
618,824;31127,089;    1,612;   -0,955
619,402;30659,649;    0,431;   -1,773
619,981;31239,373;    1,067;   -1,045
620,559;31051,209;    0,794;    1,682
621,137;30620,987;    3,067;    1,864
621,715;30578,716;    3,703;   -0,682
622,293;30406,483;    1,885;   -0,773
622,871;30866,729;    0,340;    0,500
623,450;30446,400;    0,430;   -0,864
624,028;30292,048;   -0,388;   -0,955
624,606;29867,653;    2,339;    1,682
625,183;30268,964;   -0,661;   -1,136
625,761;29877,768;    1,885;    1,136
626,339;30141,781;    2,339;    2,591
626,917;30583,013;    0,339;   -0,045
627,495;30569,273;    2,794;    1,318
628,073;29953,730;    5,248;    2,864
628,650;29641,583;    3,067;    2,136
629,228;30128,560;    1,248;    4,409
629,806;29448,067;   -0,024;    1,136
630,383;29716,334;    0,066;   -0,318
630,961;29474,283;   -2,206;   -0,955
631,539;29189,452;   -2,479;    0,227
632,116;28343,920;   12,703;   15,409
632,694;29050,726;    4,885;    6,500
633,271;29356,214;    1,975;    2,682
633,848;29211,504;    1,430;    2,045
634,426;29271,763;    1,521;    1,773
635,003;28378,032;   -0,207;   -0,409
635,580;28679,611;    1,884;    3,682
636,158;29274,703;    3,793;    1,227
636,735;29191,885;    3,339;   -0,500
637,312;29357,995;    0,521;   -0,682
637,889;29454,111;    2,248;   -0,682
638,466;28959,708;    0,066;   -0,409
639,043;28914,692;    1,702;   -1,136
639,620;29266,825;    0,611;   -0,955
640,197;29568,802;    1,612;    1,682
640,774;29728,065;    1,430;    1,136
641,351;30175,873;    0,612;    1,136
641,928;29553,409;    2,794;    1,409
642,505;29158,308;    0,794;   -0,500
643,082;29262,479;    1,885;    1,227
643,658;28243,378;    1,157;    1,500
644,235;28962,278;   -2,479;    2,500
644,812;29281,177;    1,794;    0,773
645,388;29054,439;    1,612;    1,409
645,965;29066,247;    1,521;    1,682
646,542;29183,874;    3,430;   -0,227
647,118;29136,955;    3,703;   -0,955
647,695;29492,308;    0,339;    1,136
648,271;29370,207;   -2,115;    0,500
648,848;29657,834;    0,248;    2,227
649,424;29566,278;    0,976;    1,318
650,000;29346,177;   -0,388;   -1,045
650,577;29167,076;    0,158;   -0,955
651,153;29653,612;   -1,115;    0,955
651,729;30678,420;    0,521;    0,864
652,305;30961,137;    1,339;    2,773
652,881;36287,945;   -1,297;    1,136
653,458;44423,572;    0,249;    0,227
654,034;49144,289;    0,703;    1,591
654,610;51069,370;    0,339;    0,773
655,186;52494,087;    1,612;    3,045
655,762;52300,259;   -1,842;    0,409
656,338;52331,067;    0,703;    0,136
656,913;53390,330;   -0,297;    0,409
657,489;52706,774;    0,249;   -0,318
658,065;52592,764;    0,794;   -1,591
658,641;53151,027;    2,158;   -0,864
659,217;52500,926;    2,067;    0,409
659,792;51888,643;   -1,751;   -0,409
660,368;52071,542;   -0,388;   -0,682
660,944;51606,078;    1,794;    1,227
661,519;46268,068;    0,522;    0,409
662,095;38956,876;   -0,206;    0,591
662,670;33305,775;   -0,206;   -0,136
663,246;31798,310;   -0,660;   -0,409
663,821;30964,391;    0,431;    1,682
664,396;30415,381;    0,613;    1,864
664,972;30724,917;   -0,660;   -0,500
665,547;31018,725;    3,794;    0,136
666,122;31007,806;    1,340;    0,318
666,698;31293,068;    2,431;    0,318
667,273;30607,331;    0,885;    0,136
667,848;31493,866;    0,340;    1,500
668,423;31197,584;    1,795;    2,318
668,998;31830,483;    0,976;   -0,682
669,573;32478,018;    2,067;   -1,500
670,148;32245,099;    1,885;   -0,682
670,723;32062,998;   -0,024;    0,318
671,298;32537,352;   -1,296;    1,045
671,873;32675,160;   -0,296;   -0,136
672,448;32603,150;    1,704;    0,136
673,023;32971,594;    0,249;   -0,227
673,597;33287,857;    2,704;    2,318
674,172;33017,847;    2,431;    0,318
674,747;32577,201;   -0,205;   -1,045
675,321;32403,918;   -0,933;    3,318
675,896;31910,363;    2,158;    1,045
676,471;32964,534;    2,522;    1,591
677,045;32746,888;   -0,296;    0,682
677,620;32806,332;    2,158;    1,136
678,194;33132,413;    0,249;    1,136
678,769;32643,040;    0,886;   -0,318
679,343;32842,575;   -0,023;    1,773
679,917;32719,020;    0,340;    1,955
680,492;32834,737;    0,249;    3,227
681,066;32968,181;    0,613;    0,409
681,640;32981,990;    1,795;   -0,318
682,214;33863,707;    2,340;    0,500
682,788;33358,788;    0,613;   -0,773
683,363;33334,323;    1,977;    1,682
683,937;33023,586;    0,886;   -0,318
684,511;33892,212;   -1,023;   -0,591
685,085;33594,657;   -1,478;    0,318
685,659;33342,828;    1,431;    0,864
686,232;33549,273;    1,159;   -0,318
686,806;33270,445;    2,159;    0,409
687,380;33963,071;   -1,932;    0,591
687,954;34196,334;    2,432;    1,136
688,528;33840,142;    2,613;    1,955
689,101;34655,041;    0,432;    1,045
689,675;34182,758;    0,886;   -0,136
690,249;33581,566;    3,432;    0,409
690,822;33809,647;    1,159;    0,318
691,396;33909,546;    2,068;    1,227
691,969;33382,355;    2,523;    0,136
692,543;33830,526;   -0,568;   -1,955
693,116;33452,334;   -0,659;   -1,409
693,690;33268,506;   -0,296;    0,500
694,263;33880,314;    2,341;    2,955
694,836;33954,304;    2,795;    3,591
695,410;32504,113;    1,159;    1,773
695,983;33021,193;    1,614;    0,591
696,556;32960,547;   -0,750;   -1,045
697,129;33397,628;   -1,114;    1,409
697,703;33002,345;    1,341;    1,955
698,276;32964,608;    1,705;   -0,773
698,849;32732,416;   -1,023;    1,409
699,422;33132,315;    1,250;    0,591
699,995;32784,396;   -0,659;    0,136
700,568;33328,386;   -0,204;    3,045
701,140;33284,285;   -1,841;    1,682
701,713;33014,184;    0,341;    2,409
702,286;32763,083;    0,796;    0,864
702,859;32728,437;    0,614;   -0,591
703,432;31781,881;   -0,841;    0,682
704,004;32322,689;    1,978;    0,318
704,577;32131,316;    1,068;    0,136
705,150;32700,488;    0,887;    2,500
705,722;32548,841;    1,523;   -3,227
706,295;32277,558;    1,432;   -0,591
706,867;32112,276;    0,250;    1,955
707,440;32318,357;   -0,113;   -0,409
708,012;32541,892;   -0,022;    0,591
708,584;32435,427;    2,705;    0,227
709,157;32808,963;    1,160;   -0,591
709,729;32468,680;    1,069;    2,045
710,301;33329,488;   -1,204;    0,045
710,874;33295,933;    0,341;   -0,227
711,446;32156,195;   -0,295;    0,864
712,018;32102,367;   -3,022;    0,500
712,590;31782,539;   -0,204;    1,682
713,162;32360,256;   -0,477;    1,318
713,734;32595,246;    1,796;   -2,045
714,306;32493,873;    0,342;   -0,409
714,878;31159,044;   -0,295;    0,864
715,450;31939,943;   -0,113;    0,864
716,022;32197,297;    2,433;    1,318
716,593;32330,923;    0,978;    0,591
717,165;32231,277;    1,796;   -1,227
717,737;31955,540;    0,796;    0,409
718,309;31657,348;    1,160;   -0,045
718,880;31596,247;   -1,295;   -1,409
719,452;31833,328;    0,887;   -1,591
720,024;31338,591;    1,705;   -0,591
720,595;31951,217;    2,978;    0,955
721,167;31413,116;    1,160;   -2,045
721,738;30883,288;    2,069;   -1,045
722,309;30802,823;    1,251;   -1,227
722,881;30589,268;    2,705;    0,773
723,452;31319,985;    1,251;    2,864
724,023;31523,429;    1,524;    2,682
724,595;31260,601;    2,342;    0,682
725,166;31036,046;    1,524;   -0,409
725,737;30628,218;    1,887;    0,227
726,308;30671,389;    0,797;    0,318
726,879;31198,198;    1,069;    1,227
727,450;31052,278;   -2,022;   -0,045
728,021;30950,359;    1,069;    0,682
728,592;30797,077;    1,160;    0,500
729,163;31123,157;    1,433;   -0,136
729,734;31152,511;    2,160;   -0,227
730,305;31482,228;    0,615;    0,136
730,876;31844,764;    0,888;    2,955
731,447;31516,663;    0,797;    2,682
732,017;31679,744;   -0,840;    1,864
732,588;31204,279;   -0,021;    1,227
733,159;31370,633;    3,615;   -1,045
733,729;31201,168;    1,251;    0,409
734,300;30490,885;    0,160;    0,864
734,870;30923,148;   -1,385;    0,591
735,441;31461,593;    0,888;   -0,591
736,011;31156,673;    1,070;   -1,591
736,582;31131,754;    1,251;    0,045
737,152;30595,017;    0,979;   -2,045
737,722;31049,007;    1,070;   -0,682
738,293;30786,542;   -2,021;    1,318
738,863;30654,351;    1,797;    2,318
739,433;30431,886;    4,524;    0,318
740,003;31049,240;    1,524;   -0,682
740,573;30369,684;    2,252;   -1,591
741,143;30342,583;    3,615;    0,318
741,713;31147,028;    0,252;   -0,500
742,283;30756,290;    1,706;    1,591
742,853;30499,371;    0,524;    1,591
743,423;29919,089;    0,161;    0,045
743,993;30024,260;    1,070;    1,500
744,563;29408,978;    2,524;   -0,864
745,133;29427,604;   -0,112;   -0,864
745,702;30139,958;    2,797;    1,773
746,272;29273,675;    0,434;    0,591
746,842;28994,574;   -0,748;   -0,591
747,411;29476,200;   -0,839;   -0,318
747,981;29657,918;   -0,930;    0,500
748,551;29705,180;   -0,021;   -1,045
749,120;29528,443;   -0,112;   -0,227
749,690;29890,251;    2,161;    2,409
750,259;30264,332;    0,979;    2,955
750,828;30132,958;    4,070;   -1,955
751,398;30417,403;   -0,112;   -0,045
751,967;29870,847;    2,888;    0,409
752,536;30103,655;    1,161;   -0,227
753,105;30585,464;   -1,384;    0,227
753,675;30406,363;   -0,112;    1,773
754,244;30328,625;    0,888;    3,591
754,813;30357,070;    0,979;    1,227
755,382;30038,424;    0,798;    0,955
755,951;30536,868;   -0,112;    3,682
756,520;30049,313;    2,525;    1,864
757,089;30623,393;    1,888;    0,500
757,658;30800,293;    2,434;    1,227
758,227;30820,010;   -1,111;    0,318
758,795;31168,454;   -1,021;    1,136
759,364;31392,899;    0,525;   -0,591
759,933;30309,343;    1,343;   -0,045
760,501;29883,333;    0,252;   -1,318
761,070;30376,869;   -0,293;   -1,409
761,639;31103,950;    1,434;    1,318
762,207;30316,212;    0,889;   -0,955
762,776;30243,384;    2,889;    0,864
763,344;30181,556;    0,071;    0,591
763,913;29258,728;    1,616;    1,409
764,481;30028,354;    1,980;   -0,136
765,049;29830,162;    0,616;    1,409
765,618;29672,334;    1,434;    0,318
766,186;29761,415;    2,434;    0,136
766,754;29924,132;    1,798;    1,864
767,322;28839,849;    1,162;    0,409
767,890;28902,658;    0,525;   -1,773
768,459;29314,193;    2,616;   -0,318
769,027;29468,728;    2,525;    3,409
769,595;28432,173;    2,616;    2,591
770,163;28835,799;    3,344;    2,955
770,730;28582,516;    2,525;   -0,136
771,298;28498,870;    1,162;   -1,409
771,866;28504,406;    0,253;    4,955
772,434;28838,305;    1,162;   -1,864
773,002;29048,658;    2,616;    0,682
773,569;28671,466;    1,071;    1,682
774,137;28499,729;    0,889;   -0,045
774,705;29329,264;   -0,747;   -0,136
775,272;28742,436;    0,253;    0,682
775,840;28509,154;   -0,111;    2,682
776,407;27987,689;   -0,293;    1,955
776,975;27488,043;    1,162;    0,318
777,542;28581,669;    2,162;   -0,045
778,110;28432,295;    0,707;   -0,045
778,677;28085,467;    1,071;   -0,864
779,244;27793,639;   -1,020;    1,045
779,812;27945,447;    0,980;    0,864
780,379;27769,619;    2,435;    1,136
780,946;27963,700;    2,617;   -0,773
781,513;28324,871;   -0,565;    0,318
782,080;27618,043;    1,253;    2,864
782,647;28382,579;    1,708;    3,045
783,214;27977,114;   -0,201;    3,864
783,781;27524,104;    1,708;   -0,682
784,348;27460,821;    0,253;    1,500
784,915;27925,357;   -1,474;    0,318
785,482;27725,801;    2,708;    2,591
786,049;28190,064;    1,071;   -0,591
786,615;28233,599;    1,708;   -0,955
787,182;28010,862;   -3,201;   -0,682
787,749;27711,943;   -2,201;    1,409
788,315;27003,933;    0,253;   -0,409
788,882;27303,741;    0,981;   -1,227
789,448;27967,640;    1,435;   -0,955
790,015;27975,085;    1,799;    3,227
790,581;27518,438;    0,708;    0,227
791,148;27435,701;    1,344;    1,045
791,714;27676,600;   -1,019;    3,136
792,280;27289,499;    3,708;    1,591
792,847;26875,580;   -0,928;    2,500
793,413;27440,025;   -0,110;   -0,318
793,979;26875,105;    1,526;   -1,318
794,545;26948,550;    2,981;    2,682
795,111;26345,358;    2,435;    1,318
795,678;26523,712;    3,526;   -1,682
796,244;26211,520;    2,799;    0,136
796,810;26764,874;    0,799;    0,773
797,375;26454,591;   -0,292;   -2,136
797,941;26494,581;   -1,110;    0,591
798,507;26595,025;    0,254;   -0,955
799,073;26130,197;    2,708;    0,591
799,639;26192,005;    1,435;    3,136
800,205;26214,904;   -1,565;    2,682
800,770;25719,258;    1,345;    1,773
801,336;25760,248;    2,981;   -0,955
801,901;25423,056;    6,072;    3,136
802,467;26024,501;    0,526;    2,045
803,033;25335,581;   -0,019;    0,864
803,598;25478,299;    1,072;   -1,045
804,163;25543,834;    0,708;   -0,318
804,729;25470,006;   -0,110;    1,136
805,294;25902,450;    1,072;    2,227
805,859;25764,259;    0,890;   -0,409
806,425;25190,249;    3,890;    2,682
806,990;24815,329;    1,890;    4,318
807,555;25402,047;   -0,110;    2,591
808,120;25235,673;   -1,292;   -0,409
808,685;25319,027;    1,072;   -2,500
809,250;24850,562;    2,072;   -0,500
809,815;25152,370;   -0,201;    0,682
810,380;25658,451;    0,981;    1,591
810,945;26215,987;    2,890;    2,045
811,510;25422,340;   -0,200;    1,591
812,075;25099,785;    2,800;   -1,409
812,640;25114,229;    3,709;    1,409
813,204;25097,128;    2,163;   -0,227
813,769;25603,118;    0,254;   -0,045
814,334;24954,199;    0,527;    0,864
814,898;25073,098;    1,981;    0,591
815,463;24901,270;    0,981;   -0,773
816,027;24845,442;    1,345;   -2,318
816,592;24940,886;    2,163;   -2,045
817,156;24360,967;   -2,200;    1,136
817,721;24154,230;    0,982;    2,318
818,285;24131,129;    0,618;    1,500
818,849;24861,301;   -0,018;    1,682
819,414;24762,472;    0,073;    2,955
819,978;24255,735;   -0,291;    1,773
820,542;24887,634;    2,891;    0,500
821,106;24616,442;    2,800;    0,682
821,670;24667,160;    2,709;    2,591
822,234;24359,331;    1,073;    1,409
822,798;23725,503;   -0,836;    0,500
823,362;23697,311;    1,527;    4,227
823,926;22932,210;   -0,018;    1,136
824,490;23161,473;    3,527;   -0,682
825,054;23650,645;    2,527;   -1,136
825,618;23230,726;   -1,200;   -1,500
826,181;23150,534;    0,982;   -1,318
826,745;23054,251;   -0,745;   -1,045
827,309;23395,332;    2,255;    1,318
827,872;22750,686;    0,527;    0,955
828,436;23821,858;    1,982;   -0,773
828,999;23862,666;    2,436;    1,227
829,563;22619,292;   -0,654;    1,136
830,126;22431,827;   -0,018;   -0,591
830,690;22432,545;    0,709;    2,864
831,253;21900,080;   -0,473;    2,227
831,816;22030,070;   -0,018;    0,500
832,380;21963,969;    1,164;    0,864
832,943;22154,141;    3,073;   -0,500
833,506;21700,131;    0,255;   -1,227
834,069;22529,757;    2,164;   -0,955
834,632;22572,656;   -2,200;    1,318
835,195;22419,646;    1,346;    0,955
835,758;21566,091;    0,709;    1,955
836,321;21384,717;    1,073;   -1,045
836,884;21518,253;   -1,291;   -0,955
837,447;21530,243;    0,528;    1,773
838,010;21736,687;    1,800;    3,227
838,573;22060,404;    0,528;    0,773
839,135;21986,485;   -0,109;   -0,955
839,698;21393,021;    2,528;    0,409
840,261;20884,829;    0,255;   -0,227
840,823;20777,092;   -0,927;    0,864
841,386;21073,991;   -0,018;   -2,409
841,948;20874,617;    0,255;    1,773
842,511;20620,971;    0,255;    1,682
843,073;20789,688;    2,982;    0,227
843,636;20592,223;    0,619;   -0,227
844,198;20538,668;    1,255;    0,591
844,760;20675,385;    0,619;    1,955
845,322;20283,739;    0,164;    1,136
845,885;20685,456;   -0,290;    0,591
846,447;21158,809;    0,710;    0,227
847,009;20681,981;    3,983;   -0,682
847,571;21102,699;    1,346;   -2,045
848,133;21180,779;   -0,199;   -1,864
848,695;20994,497;    2,346;    1,409
849,257;20490,759;    1,346;   -1,682
849,819;20672,022;    2,983;   -0,409
850,381;20734,830;    1,801;   -0,864
850,942;21142,911;    1,892;   -0,591
851,504;21068,719;    0,983;    0,227
852,066;21106,073;    1,619;   -1,591
852,628;20618,608;    0,165;    1,955
853,189;20173,871;    0,256;    2,682
853,751;20331,134;   -0,654;    1,409
854,312;20133,942;    1,256;   -1,682
854,874;20622,205;   -0,108;   -0,773
855,435;21151,831;    0,528;   -1,682
855,997;21315,457;    3,983;   -0,136
856,558;20506,902;    0,801;    1,773
857,119;20603,437;   -0,744;    2,864
857,681;20308,245;   -0,108;    0,318
858,242;20340,963;    1,347;   -2,136
858,803;20806,043;    1,074;   -0,773
859,364;21401,306;    0,892;   -4,773
859,925;20689,387;   -0,290;   -0,955
860,486;20620,832;    0,529;   -0,955
861,047;20292,731;    0,165;   -1,227
861,608;20086,993;    0,165;   -0,773
862,169;20257,983;   -0,562;   -0,045
862,730;20003,519;   -0,290;    1,409
863,291;20299,054;    0,438;   -0,500
863,852;20598,408;   -0,926;    1,955
864,412;20032,034;   -1,835;   -0,864
864,973;18553,297;    1,892;    0,500
865,534;18358,287;    2,074;    0,227
866,094;19952,731;    2,620;    0,227
866,655;19623,085;    4,711;    3,318
867,215;19913,529;    0,074;    0,136
867,776;19720,610;   -1,199;   -0,136
868,336;19839,055;    1,529;    0,136
868,897;19265,590;    3,438;    1,682
869,457;19048,126;    3,256;    0,318
870,017;19251,207;    2,438;   -1,227
870,578;19785,651;    1,893;    0,773
871,138;19403,823;    2,620;   -0,955
871,698;18909,086;   -0,562;   -1,318
872,258;18773,894;    0,711;   -2,864
872,818;19162,429;    2,347;    0,045
873,378;19118,783;   -2,198;    1,045
873,938;18674,227;    4,984;    0,500
874,498;19048,945;    1,256;   -1,955
875,058;18911,480;    4,347;    1,773
875,618;18740,470;    1,438;   -2,682
876,177;18661,642;   -0,471;    0,136
876,737;18210,359;   -0,289;    1,955
877,297;18213,713;    2,711;    1,955
877,856;18256,703;    2,529;    0,318
878,416;18190,056;    2,438;   -0,136
878,976;18415,228;    3,438;    0,409
879,535;18618,127;    4,529;    3,136
880,095;18324,935;    1,347;    0,045
880,654;18437,380;    0,347;    1,318
881,213;18521,279;    2,347;    1,500
881,773;18161,269;    1,984;    2,682
882,332;18537,259;    6,075;    5,136
882,891;18384,703;    0,711;    2,136
883,451;18844,693;   -2,016;    1,682
884,010;18288,501;   -1,107;   -0,409
884,569;18403,128;   -2,289;   -0,045
885,128;18531,936;   -0,743;   -1,864
885,687;18578,380;   -0,743;    0,682
886,246;18291,734;    2,620;    2,136
886,805;17973,269;    1,620;    2,045
887,364;18316,441;    1,166;   -0,500
887,922;18710,977;   -0,016;    0,045
888,481;18190,967;    1,530;    0,591
889,040;18521,502;    3,711;    2,136
889,599;19207,674;    2,166;    1,409
890,157;19286,391;    2,166;    2,409
890,716;18950,381;    2,166;    0,227
891,274;18740,735;    0,075;   -1,136
891,833;19206,361;    1,166;    0,864
892,391;19048,169;    1,802;    0,500
892,950;19115,432;    0,166;   -0,773
893,508;19463,240;    0,984;   -0,409
894,067;18807,048;   -0,379;    0,136
894,625;18717,856;   -1,016;   -1,500
895,183;18972,392;   -0,198;   -0,682
895,741;18867,200;    2,257;   -1,773
896,299;18690,372;    1,621;   -2,409
896,858;18944,180;    1,530;   -1,591
897,416;19013,261;    0,166;   -1,318
897,974;18758,978;   -2,197;    0,318
898,532;18838,423;    6,530;    2,682
899,089;18728,867;    0,621;   -0,682
899,647;18829,493;    0,530;    1,318
900,205;18501,847;    0,257;    1,045
900,763;18747,655;    2,166;    0,227
901,321;18768,100;    3,530;   -1,409
901,878;18114,908;    3,257;   -0,773
902,436;17991,080;    0,257;    1,318
902,994;18404,161;    6,712;    3,682
903,551;17807,151;    1,439;    0,409
904,109;18194,322;    1,530;   -1,409
904,666;17785,858;    1,439;    1,045
905,224;17584,939;    3,894;   -0,409
905,781;17315,747;   -0,470;   -0,318
906,338;17428,646;    0,167;    1,045
906,895;17360,636;    1,894;    2,045
907,453;17288,989;    2,348;    1,136
908,010;17272,525;    3,348;    0,409
908,567;16886,969;   -0,561;    0,591
909,124;16422,868;    2,439;   -1,500
909,681;16448,131;   -1,288;    0,682
910,238;16594,485;   -0,106;   -1,318
910,795;16917,202;   -1,561;   -1,136
911,352;16552,475;   -0,379;   -2,682
911,909;15946,384;    2,803;   -0,864
912,466;16429,657;    1,985;    1,500
913,022;15947,838;   -0,924;    0,500
913,579;16308,020;   -0,470;    2,045
914,136;15983,747;   -2,561;    0,955
914,692;16371,202;    1,530;   -1,227
915,249;15911,838;    0,530;    0,409
915,806;16133,657;    1,803;    1,955
916,362;15840,475;    0,894;    1,864
916,918;15353,202;    2,439;    1,045
917,475;15364,475;    1,621;    0,955
918,031;15489,293;    0,076;   -0,045
918,587;14896,838;    0,621;   -0,318
919,144;15130,929;   -0,379;    0,227
919,700;15416,747;    0,167;    0,773
920,256;14985,929;    0,439;    0,045
920,812;14607,747;    1,439;   -1,045
921,368;14573,929;    1,348;   -1,045
921,924;14246,929;    0,439;   -0,136
922,480;13738,747;    0,076;    1,227
923,036;14345,111;   -0,652;    1,955
923,592;14302,929;    0,621;    0,318
924,148;14207,202;    1,894;   -0,955
924,704;13501,747;    0,258;   -0,409
925,259;13768,020;   -0,561;    0,591
925,815;13513,838;    3,803;    0,500
926,371;13007,020;    3,530;    1,409
926,926;12860,747;    1,621;    0,591
927,482;12435,384;    1,621;    0,773
928,037;12278,293;   -0,833;    2,045
928,593;12619,566;    0,258;    1,045
929,148;12415,929;    1,167;   -1,500
929,704;11944,566;    2,439;   -0,500
930,259;12111,929;    0,894;   -0,136
930,814;11123,202;    1,803;    1,955
931,369;10795,475;    0,258;   -0,773
931,925;10696,838;   -1,924;    0,136
932,480;10563,566;    3,076;   -2,591
933,035;10399,657;    3,985;   -0,318
933,590;10134,838;   -1,742;   -1,773
934,145; 9788,475;   -1,288;   -0,318
934,700;10141,384;    0,348;   -0,591
935,255; 9934,747;    4,803;    0,045
935,809; 9136,747;    6,258;    0,864
936,364; 8215,929;    2,167;   -0,136
936,919; 8185,293;    2,348;   -1,773
937,474; 8072,293;    1,348;    0,136
938,028; 7826,384;    3,076;    1,136
938,583; 7193,838;    6,348;    4,682
939,138; 7512,293;    0,167;    2,136
939,692; 6945,475;   -1,015;   -1,136
940,247; 6592,929;    1,167;   -1,045
940,801; 6076,657;    0,621;    0,227
941,355; 5980,838;    0,439;    2,591
941,910; 5654,384;    0,712;   -2,136
942,464; 5726,929;    2,712;   -0,318
943,018; 5454,111;    3,258;   -0,227
943,572; 5408,384;    2,803;   -0,682
944,126; 4752,020;   -0,924;   -0,409
944,681; 4655,929;    0,712;    0,227
945,235; 4670,657;    2,167;   -0,591
945,789; 4590,111;    1,258;   -1,864
946,342; 4646,475;   -0,561;   -0,591
946,896; 4469,657;    0,348;    0,955
947,450; 4217,566;   -0,561;   -0,227
948,004; 4374,384;    1,076;   -0,045
948,558; 4421,747;    1,258;   -0,864
949,111; 4326,111;   -1,197;   -0,318
949,665; 4337,929;   -0,106;   -0,682
950,219; 4210,202;    0,621;   -1,045
950,772; 4300,384;    0,258;    1,864
951,326; 4192,384;   -1,106;   -0,955
951,879; 4286,747;    1,076;   -2,318
952,433; 4309,566;    1,348;    2,227
952,986; 4165,475;    0,348;    0,682
953,539; 4106,929;    1,530;    0,591
954,093; 4032,838;    0,985;   -1,318
954,646; 4166,475;   -0,288;    1,318
955,199; 3966,111;    1,258;   -0,500
955,752; 3838,475;    1,985;    1,773
956,305; 3803,657;    0,894;    2,955
956,858; 3959,929;    0,621;   -0,318
957,411; 4170,020;    3,621;    2,136
957,964; 3983,838;    2,076;    2,136
958,517; 3981,475;    0,985;    3,136
959,070; 3803,566;   -1,197;    1,955
959,623; 3835,929;    1,076;    1,500
960,176; 3605,929;    0,712;    2,045
960,728; 3582,566;    1,712;    0,773
961,281; 3654,384;    2,258;    0,500
961,834; 3701,384;   -0,833;    0,864
962,386; 3608,111;    1,258;    1,045
962,939; 3534,293;    3,439;   -0,318
963,491; 3684,293;    2,621;    1,136
964,043; 3552,929;    0,076;    2,409
964,596; 3668,566;    1,712;    2,227
965,148; 3489,657;   -0,379;    1,773
965,700; 3416,384;   -0,015;   -0,227
966,253; 3572,293;   -0,833;    0,318
966,805; 3389,475;    1,894;    0,773
967,357; 3455,566;    0,439;   -1,500
967,909; 3390,293;    1,167;   -1,227
968,461; 3532,929;    0,894;    3,136
969,013; 3456,838;   -1,561;   -0,864
969,565; 3518,202;    1,803;   -1,136
970,117; 3554,929;    3,803;    1,045
970,669; 3402,384;    3,258;   -0,136
971,220; 3277,747;    2,167;   -1,500
971,772; 3181,566;    1,348;   -0,318
972,324; 3310,475;   -1,197;   -0,500
972,876; 3279,475;    0,167;   -0,045
973,427; 3388,838;   -1,197;   -1,045
973,979; 3358,111;    0,076;   -2,500
974,530; 3407,384;    0,803;    1,318
975,082; 3420,384;    2,167;    1,682
975,633; 3309,475;    2,894;    1,682
976,184; 3447,838;    2,076;    0,773
976,736; 3228,111;    0,348;    0,227
977,287; 3012,657;    0,258;   -0,500
977,838; 3215,475;   -0,924;   -0,318
978,389; 3267,111;    0,803;   -0,500
978,940; 3138,293;    1,258;   -0,409
979,491; 3181,111;    2,258;   -0,500
980,042; 3128,566;   -0,652;    3,045
980,593; 3187,293;    1,894;    0,227
981,144; 3233,566;    3,530;   -0,500
981,695; 3169,293;   -0,470;    1,500
982,246; 3153,747;   -1,833;    1,045
982,797; 3323,293;   -0,561;    0,682
983,347; 3444,838;    2,167;    0,591
983,898; 3579,384;    4,167;    0,409
984,449; 3393,293;    2,530;    0,773
984,999; 3333,111;    1,894;   -1,136
985,550; 3081,202;    3,167;   -0,318
986,100; 3144,747;    0,712;   -0,318
986,651; 3183,838;    0,258;    0,045
987,201; 3150,747;    0,894;   -0,591
987,751; 3225,293;   -0,288;    2,864
988,302; 3203,384;   -0,379;    1,500
988,852; 3246,566;    1,985;   -1,136
989,402; 3264,020;    0,985;    0,682
989,952; 3157,202;    1,621;    0,864
990,502; 3298,020;    1,076;    0,682
991,052; 3288,020;   -0,106;    0,045
991,602; 3129,384;    1,167;    1,318
992,152; 3113,929;    2,803;    0,682
992,702; 3098,747;    1,167;   -0,045
993,252; 3006,657;    0,076;   -0,500
993,802; 3092,293;    1,167;    1,318
994,352; 3372,929;   -0,742;    1,136
994,901; 3476,202;    1,076;    3,227
995,451; 3381,202;   -1,197;    0,318
996,000; 3461,384;    1,076;    0,318
996,550; 3139,293;    2,894;    0,227
997,100; 3159,111;   -0,561;   -0,045
997,649; 3440,111;   -0,197;    0,955
998,198; 3060,111;   -0,288;   -1,500
998,748; 3235,566;    0,348;   -2,318
999,297; 3156,838;    0,985;   -0,409
999,846; 3230,202;    1,894;   -0,773
1000,395; 3273,111;    1,530;    0,500
1000,945; 3224,657;    1,076;   -0,773
1001,494; 3310,293;    0,167;    0,682
1002,043; 3295,657;    0,712;    0,864
1002,592; 3153,929;    3,439;    1,955
1003,141; 3301,202;    2,439;   -0,682
1003,690; 3117,747;    1,258;    0,500
1004,238; 3207,475;   -0,106;   -0,045
1004,787; 2809,838;   -1,288;    1,227
1005,336; 3041,475;    1,621;    0,682
1005,885; 3219,838;   -0,197;   -2,773
1006,433; 3391,566;   -0,470;    0,955
1006,982; 3419,475;    2,167;    1,682
1007,531; 3346,202;    2,712;   -0,227
1008,079; 3318,838;    0,258;    0,500
1008,627; 3475,293;    1,621;    0,409
1009,176; 3187,475;    0,076;   -1,955
1009,724; 3236,838;   -2,742;    0,864
1010,273; 3282,111;    1,076;    0,500
1010,821; 3414,929;    1,076;    1,409
1011,369; 3138,475;    0,076;    1,318
1011,917; 3105,020;   -0,833;   -0,591
1012,465; 3401,838;    2,530;   -1,591
1013,013; 3534,111;    0,439;   -1,682
1013,561; 3374,293;   -1,288;   -0,773
1014,109; 3403,475;   -0,833;    1,682
1014,657; 3280,838;    1,348;    0,591
1015,205; 3445,020;    0,894;   -0,955
1015,753; 3489,020;    0,258;   -1,409
1016,301; 3537,020;    2,621;    3,045
1016,848; 3518,747;    2,167;    0,409
1017,396; 3555,929;    1,621;    0,045
1017,944; 3694,020;    2,621;    1,864
1018,491; 3464,475;   -0,197;    1,409
1019,039; 3588,293;   -0,652;    0,591
1019,586; 3512,475;    0,076;    1,682
1020,134; 3605,111;    0,712;    1,500
1020,681; 3628,384;    2,894;   -1,136
1021,228; 3655,020;   -0,561;   -2,227
1021,776; 3472,929;   -0,833;   -1,136
1022,323; 3681,566;    0,803;    0,773
1022,870; 3626,566;   -0,470;   -0,045
1023,417; 3510,475;    2,076;    1,864
1023,964; 3698,838;    0,621;    1,227
1024,511; 3507,111;   -0,652;    0,773
1025,058; 3281,747;    0,439;   -0,045
1025,605; 3330,111;   -1,742;    3,136
1026,152; 3542,747;   -0,106;   -0,591
1026,699; 3277,657;    0,167;    1,318
1027,245; 3466,384;    2,439;    0,318
1027,792; 3708,202;    0,712;    1,409
1028,339; 3551,384;    4,076;   -0,045
1028,885; 3391,293;    3,621;   -0,227
1029,432; 3343,838;   -0,106;    0,227
1029,978; 3395,566;    1,348;   -1,591
1030,525; 3295,566;    1,621;    0,409
1031,071; 3582,020;    0,348;    1,136
1031,618; 3643,020;    1,258;    1,682
1032,164; 3448,566;    2,076;    3,045
1032,710; 3491,747;    0,076;   -1,500
1033,256; 3428,202;    0,712;   -0,136
1033,803; 3413,929;   -0,288;    1,500
1034,349; 3128,929;    1,803;    0,136
1034,895; 3295,929;    2,621;   -0,318
1035,441; 3266,202;    0,439;    0,318
1035,987; 3266,384;   -2,288;   -0,682
1036,533; 3244,111;   -0,197;   -0,955
1037,078; 3436,929;    4,712;    1,682
1037,624; 3267,657;    2,439;   -0,955
1038,170; 3315,838;    1,712;   -0,318
1038,716; 3166,838;    2,167;   -0,409
1039,261; 3109,747;    2,167;   -0,773
1039,807; 3022,202;   -0,015;    3,409
1040,352; 3099,838;   -1,288;   -0,318
1040,898; 3161,747;    0,167;   -0,682
1041,443; 3077,929;    0,803;   -2,591
1041,989; 3056,475;    3,621;    1,591
1042,534; 2944,475;    0,985;    2,591
1043,079; 3111,020;    1,985;    0,955
1043,625; 2853,111;    0,258;    0,500
1044,170; 2884,747;    2,439;    1,045
1044,715; 3135,747;    0,167;    0,955
1045,260; 2946,293;   -0,833;   -0,955
1045,805; 3035,566;    0,258;   -0,591
1046,350; 2990,929;    0,530;   -0,409
1046,895; 2911,111;    0,803;    1,591
1047,440; 2833,293;    1,530;    0,409
1047,985; 2745,111;   -1,197;   -0,955
1048,530; 2653,929;    1,348;    1,227
1049,074; 2736,111;    2,803;    0,318
1049,619; 2698,929;   -0,924;    1,955
1050,164; 2489,475;    1,076;    0,227
1050,708; 2537,202;    2,621;    0,045
1051,253; 2897,293;    3,258;   -2,227
1051,797; 2622,475;   -0,197;   -1,318
1052,342; 2656,111;    1,348;    1,045
1052,886; 2618,929;    1,803;   -1,409
1053,430; 2519,657;    2,167;    0,136
1053,975; 2515,020;    0,894;   -0,318
1054,519; 2489,566;    1,803;    3,227
1055,063; 2463,657;    3,621;    1,318
1055,607; 2353,929;    1,348;    0,227
1056,151; 2396,838;    0,530;    1,682
1056,695; 2324,747;   -1,833;   -1,136
1057,239; 2396,566;   -1,197;   -0,682
1057,783; 2391,929;    2,258;   -1,500
1058,327; 2319,747;    3,076;    1,409
1058,871; 2552,929;    3,985;    1,318
1059,415; 2253,020;   -0,561;   -0,045
1059,958; 2484,475;    2,985;    2,591
1060,502; 2227,566;    1,348;   -0,773
1061,046; 2144,020;    1,712;   -0,955
1061,589; 2130,747;    2,803;   -1,136
1062,133; 2002,838;    0,985;    1,864
1062,676; 1925,111;    1,439;    0,864
1063,220; 1927,657;    0,985;    0,500
1063,763; 1938,384;    2,985;    1,136
1064,306; 2011,838;    0,985;    1,864
1064,849; 1903,566;    2,076;    0,591
1065,393; 1925,111;    2,894;   -1,500
1065,936; 2043,384;    2,530;   -0,409
1066,479; 1924,384;    2,621;    1,318
1067,022; 1942,020;    1,894;   -0,227
1067,565; 1841,929;   -1,197;   -1,318
1068,108; 1884,111;    1,258;   -0,591
1068,651; 1870,384;   -2,470;    1,409
1069,194; 1780,111;   -1,106;   -1,682
1069,736; 1750,929;    3,803;    0,955
1070,279; 1741,838;   -1,652;   -0,500
1070,822; 1789,929;    1,530;   -0,318
1071,364; 1850,475;    0,530;    1,318
1071,907; 1683,293;    0,348;    3,227
1072,450; 1607,657;    0,258;   -0,045
1072,992; 1585,293;   -0,561;    3,136
1073,535; 1695,384;    0,167;    2,136
1074,077; 1502,838;    2,985;    2,045
1074,619; 1483,020;    0,985;    0,591
1075,161; 1497,838;   -0,561;    1,500
1075,704; 1669,475;    0,258;    1,227
1076,246; 1486,111;    1,530;    0,682
1076,788; 1417,747;   -1,015;    1,773
1077,330; 1510,111;   -2,106;    2,136
1077,872; 1456,202;   -1,924;    0,955
1078,414; 1664,202;    3,712;    0,773
1078,956; 1392,202;    0,167;   -0,227
1079,498; 1639,020;    0,439;    0,318
1080,040; 1346,657;    0,985;   -1,318
1080,581; 1282,020;    0,621;   -0,318
1081,123; 1242,838;   -0,106;   -0,773
1081,665; 1281,566;    3,803;   -0,955
1082,206; 1563,475;    3,258;   -0,500
1082,748; 1425,111;    3,258;    2,045
1083,289; 1310,657;    0,167;    1,318
1083,831; 1215,838;    0,258;    0,227
1084,372; 1234,657;    0,894;    0,591
1084,913; 1231,202;    3,348;    0,864
1085,455; 1230,020;    1,530;   -2,045
1085,996; 1181,020;    0,530;    0,136
1086,537; 1195,929;    0,985;    0,864
1087,078; 1227,929;    0,439;   -2,136
1087,619; 1270,657;   -1,652;    0,227
1088,160; 1182,747;    1,439;    1,318
1088,701; 1173,657;   -0,742;    0,682
1089,242; 1114,929;   -0,561;   -2,227
1089,783; 1198,020;   -0,561;    1,409
1090,324; 1178,657;   -0,833;    0,682
1090,865; 1058,657;   -1,924;   -0,409
1091,405; 1047,111;   -0,561;    2,227
1091,946; 1062,384;   -0,197;   -0,955
1092,487;  988,384;   -1,288;   -1,409
1093,027; 1134,475;    1,803;   -1,500
1093,568;  994,566;    2,258;    1,227
1094,108; 1069,929;    0,621;    1,773
1094,649; 1031,747;   -0,470;    0,136
1095,189;  970,838;    1,167;   -0,682
1095,729;  902,475;    0,712;    0,955
1096,269;  928,384;    1,258;   -0,955
1096,810; 1233,020;   -0,197;    0,500
1097,350; 1050,475;   -0,561;   -0,773
1097,890;  957,384;    2,985;    1,227
1098,430; 1195,293;    4,985;    2,864
1098,970; 1066,384;    1,894;    1,682
1099,510;  953,747;   -0,833;   -2,318
1100,050;  875,293;    0,258;   -1,591
1100,589;  835,020;    0,076;   -0,318
1101,129;  948,929;    0,894;   -0,955
1101,669; 1092,657;    2,803;    2,136
1102,209;  925,111;    1,530;    2,227
1102,748;  880,202;    3,439;    0,955
1103,288;  865,475;    0,712;   -1,227
1103,827;  899,657;    3,530;   -2,227
1104,367;  775,657;    1,712;   -2,409
1104,906;  733,111;   -1,015;   -1,136
1105,445;  801,475;    0,985;   -1,136
1105,985;  747,929;   -0,652;    1,500
1106,524;  793,657;    1,530;   -0,682
1107,063;  764,202;    1,167;    1,409
1107,602;  744,566;    1,894;   -1,500
1108,141;  660,929;    1,621;    1,500
1108,680;  755,384;    3,985;   -0,591
1109,219;  699,202;    0,167;   -0,500
1109,758;  705,020;    4,167;    0,682
1110,297;  686,657;   -1,106;   -0,682
1110,836;  626,566;    1,439;    0,955
1111,375;  779,657;    0,348;    0,409
1111,913;  791,202;    0,985;    0,773
1112,452;  734,475;    0,894;    0,136
1112,991;  624,293;    1,076;    1,955
1113,529;  577,111;    0,167;   -0,045
1114,068;  648,747;    0,439;    2,955
1114,606;  544,657;   -0,561;   -0,955
1115,144;  696,657;    1,530;    1,045
1115,683;  627,747;    1,985;    0,318
1116,221;  686,384;    2,076;   -0,864
1116,759;  598,657;    1,621;   -0,864
1117,297;  784,929;    1,621;    1,864
1117,836;  605,111;    1,985;   -1,227
1118,374;  593,747;    0,258;   -0,682
1118,912;  543,293;    0,439;    2,682
1119,450;  534,657;    0,985;    0,864
1119,988;  586,111;    3,348;    2,136
1120,525; 1036,475;    7,258;    3,318
1121,063;  730,747;    0,530;    1,864
1121,601;  540,838;    1,076;   -1,227
1122,139;  500,747;    1,076;   -2,045
1122,676;  683,475;   -1,652;    2,773
1123,214;  621,566;    0,712;    4,409
1123,751;  448,929;    0,621;    2,227
1124,289;  577,475;    0,894;   -0,409
1124,826;  440,384;   -0,379;    0,227
1125,364;  371,475;    0,712;   -0,955
1125,901;  556,020;    6,258;    1,227
1126,438;  643,747;    3,530;    0,955
1126,975;  384,929;    2,985;   -0,773
1127,513;  462,020;    2,621;    2,136
1128,050;  367,929;   -0,561;   -0,682
1128,587;  448,293;    1,348;   -0,227
1129,124;  502,020;   -0,015;    1,318
1129,661;  375,020;   -1,924;    0,227
1130,198;  536,929;    2,439;    0,773
1130,734;  480,384;   -0,379;    1,409
1131,271;  337,566;   -1,197;    0,864
1131,808;  508,566;    1,621;    3,045
1132,345;  373,475;    4,530;    0,318
1132,881;  263,929;   -0,561;   -1,864
1133,418;  384,566;    0,348;   -1,136
1133,954;  328,657;    0,712;   -2,682
1134,491;  399,111;    1,712;   -0,773
1135,027;  308,657;    2,167;    0,864
1135,564;  380,202;    1,439;    2,955
1136,100;  366,475;   -0,742;    2,136
1136,636;  273,020;   -1,015;   -1,045
1137,172;  355,111;    0,894;   -1,045
1137,708;  292,111;   -1,561;   -1,045
1138,245;  290,566;    0,803;   -1,227
1138,781;  242,929;    1,803;   -3,318
1139,317;  298,293;    1,894;   -1,409
1139,852;  288,384;    3,076;    0,136
1140,388;  406,293;    2,076;   -0,409
1140,924;  287,202;    1,076;   -2,227
1141,460;  235,293;   -0,288;    0,136
1141,996;  172,838;   -0,652;    2,682
1142,531;  214,929;    1,076;    3,318
1143,067;  427,202;    1,167;    1,045
1143,602;  473,475;    3,439;   -0,318
1144,138;  328,838;    0,803;    1,045
1144,673;  200,384;    1,621;    1,409
1145,209;  254,384;    2,894;   -0,318
1145,744;  185,475;    0,803;    0,864
1146,279;  310,111;    1,530;   -0,136
1146,815;  239,566;    1,530;   -2,682
1147,350;  278,657;   -0,924;    0,045
1147,885;  187,747;   -1,924;   -1,318
1148,420;  184,929;    2,439;    0,773
1148,955;  170,020;   -1,470;    1,864
1149,490;  197,838;   -1,106;   -1,591
1150,025;  175,293;   -1,106;   -1,773
1150,560;  278,838;   -0,288;   -0,955
1151,094;  253,111;    0,258;   -0,591
1151,629;  256,475;   -3,742;    0,864
1152,164;  184,657;   -1,288;    1,318
1152,698;  161,293;    1,258;   -0,136
1153,233;  111,020;   -1,379;   -0,682
1153,767;  157,475;   -0,288;   -2,318
1154,302;  196,566;   -0,379;    1,773
1154,836;  191,293;    0,803;   -2,136
1155,371;  244,657;    2,258;    3,682
1155,905;  207,657;    1,985;    1,682
1156,439;  170,020;    0,530;   -0,500
1156,973;  194,566;    0,439;    0,318
1157,507;  133,747;   -1,742;    0,682
1158,042;  166,929;   -0,652;    1,045
1158,576;  216,657;   -0,561;    1,773
1159,110;  205,475;    0,076;    2,409
1159,643;  182,747;   -2,470;   -0,045
1160,177;  121,566;   -2,015;    1,500

