
Integration time [ms]:   0,050
Averaging Nr. [scans]: 11
Smoothing Nr. [pixels]: 0
Data measured with spectrometer [name]: 7318044SP
Wave   ;Sample   ;Dark     ;Reference
[nm]   ;[counts] ;[counts] ;[counts] 

186,757;   -5,975;   38,161;    1,318
187,357;   24,856;   26,706;    0,955
187,958;   10,606;   17,252;   -1,591
188,558;   56,815;   12,979;   -1,227
189,159;   25,899;   10,070;   -4,500
189,759;   -0,514;    5,797;   -3,591
190,360;   -8,981;    6,797;   -2,136
190,960;   48,194;    5,706;   -4,136
191,560;   55,829;    2,614;   -6,591
192,161;  292,404;    5,885;   -3,500
192,761;  132,571;    5,520;   -3,227
193,361;   80,152;    3,065;   -3,773
193,962;  136,304;    1,612;   -2,682
194,562;   74,269;   -0,114;   -3,955
195,162;  104,356;   -0,567;   -2,227
195,762;  268,780;    2,433;   -0,045
196,362;  213,769;    1,706;   -2,500
196,963;   85,593;    1,706;   -0,864
197,563;  158,829;    1,252;   -0,955
198,163;  113,546;   -0,111;   -0,682
198,763;  133,611;   -0,020;   -0,500
199,363;  237,073;    3,616;   -0,500
199,963;  195,712;    2,162;    0,409
200,563;  169,297;    6,344;   -1,409
201,163;  147,560;    5,435;   -0,227
201,763;  244,489;    1,435;    0,318
202,363;  185,309;    0,980;    1,500
202,963;  289,972;    1,526;    1,045
203,563;  402,850;    0,344;    0,500
204,162;  252,361;    1,889;   -1,864
204,762;  234,067;    2,071;    0,591
205,362;  217,516;    0,708;    1,955
205,962;  314,909;    3,435;    1,955
206,562;  326,695;    1,889;    2,318
207,161;  291,280;    1,708;    0,318
207,761;  446,185;    4,435;    2,409
208,361;  329,935;    1,889;    1,409
208,960;  418,694;    2,889;    1,500
209,560;  500,019;    0,435;    1,591
210,160;  477,091;    5,071;    1,864
210,759;  460,074;    0,708;    1,227
211,359;  455,415;   -0,474;    1,045
211,958;  728,498;    3,526;    2,045
212,558;  819,139;    0,799;    1,864
213,157;  652,507;   -0,929;    1,500
213,757; 1119,046;    5,617;   -0,227
214,356;  811,943;    1,708;   -0,409
214,956; 1154,221;    3,526;    0,409
215,555;  786,935;    0,617;    2,136
216,154;  715,243;   -0,292;   -0,591
216,754;  746,215;    1,253;    0,773
217,353;  898,789;   -0,383;   -1,045
217,952;  755,473;    2,072;    0,318
218,552;  982,760;    0,254;   -0,773
219,151;  912,967;   -1,110;    0,955
219,750;  926,399;    0,890;   -0,227
220,349; 1089,251;   -2,292;    1,045
220,948; 1124,178;    1,163;    1,136
221,548; 1213,856;    0,617;    1,227
222,147; 1331,274;   -1,292;   -0,409
222,746; 1614,135;    1,254;   -0,955
223,345; 1494,480;   -1,019;    0,500
223,944; 1525,628;    1,163;    0,773
224,543; 1749,897;    4,072;   -1,409
225,142; 1862,003;    1,345;    0,136
225,741; 1789,602;    1,163;    1,045
226,340; 1824,981;    1,254;   -0,955
226,939; 2333,791;    2,708;   -0,136
227,538; 2372,867;    1,163;   -0,773
228,137; 2525,551;    0,435;    0,864
228,735; 2757,809;    0,435;    1,227
229,334; 2468,508;   -0,474;   -0,227
229,933; 2841,243;    0,799;    0,591
230,532; 2979,254;   -1,201;   -0,409
231,131; 3066,447;    1,253;    0,318
231,729; 3264,626;    1,163;   -2,318
232,328; 3515,548;    0,435;   -1,500
232,927; 3658,235;    4,526;   -0,500
233,525; 3796,052;    0,981;    0,045
234,124; 4050,219;    1,890;   -1,591
234,723; 4119,333;    1,617;   -1,045
235,321; 4333,526;    1,163;    0,136
235,920; 4622,004;    2,526;   -1,227
236,518; 4937,289;    1,072;    0,318
237,117; 5229,017;    2,890;   -0,227
237,715; 5403,942;    1,163;   -0,500
238,314; 5450,751;    1,708;   -2,318
238,912; 5542,604;    0,526;   -1,409
239,510; 5661,456;    1,162;   -1,227
240,109; 5894,974;   -0,474;    3,773
240,707; 5962,647;   -0,474;    1,227
241,305; 6454,509;   -0,383;    0,136
241,904; 6689,964;   -0,292;   -2,045
242,502; 6641,098;    3,253;   -0,227
243,100; 6647,550;    3,344;   -0,955
243,698; 6950,020;    2,799;    1,682
244,297; 7143,159;   -0,656;    0,682
244,895; 7004,861;   -0,474;   -2,318
245,493; 7398,606;    2,981;   -0,591
246,091; 7492,513;    5,163;   -1,318
246,689; 7475,226;    2,163;    0,591
247,287; 7664,450;   -0,019;   -1,136
247,885; 8044,008;   -1,019;    1,227
248,483; 8231,855;   -0,201;   -0,500
249,081; 8380,699;    0,981;    1,591
249,679; 8550,495;   -1,019;    1,682
250,277; 8879,999;   -2,292;    0,864
250,875; 8857,564;    0,617;   -1,045
251,473; 8923,430;   -0,019;    0,500
252,071; 9160,673;   -0,383;    1,045
252,669; 9343,355;   -1,565;    0,318
253,267; 9701,932;    1,618;    0,773
253,864; 9680,722;    0,617;    0,682
254,462; 9470,874;    1,526;    1,591
255,060; 9500,076;    0,072;    1,318
255,658; 9887,900;   -3,292;   -0,136
256,255;10360,981;   -0,201;   -2,045
256,853;10234,281;    2,345;    1,409
257,451;10268,941;    1,981;    1,864
258,048;10540,233;    2,072;    1,864
258,646;10324,224;    0,436;   -1,045
259,243;10548,281;    2,981;    2,227
259,841;10655,607;    1,799;    0,318
260,438;10487,624;    0,254;    0,864
261,036;11325,117;    0,617;    1,409
261,633;11252,020;    1,526;    2,227
262,231;10998,256;   -0,110;   -0,045
262,828;11122,563;   -0,383;    1,136
263,425;11181,841;   -1,928;   -0,591
264,023;11476,348;    1,436;    0,045
264,620;10998,195;    1,526;   -0,318
265,217;11411,915;    2,890;    3,136
265,815;11549,852;    2,527;    2,136
266,412;11241,034;    0,072;    0,136
267,009;11323,108;    0,526;    0,773
267,606;11200,133;    0,345;   -0,955
268,203;11252,755;   -0,383;   -0,591
268,801;11587,558;   -0,474;    0,591
269,398;11915,995;   -0,564;    2,500
269,995;11909,926;    0,890;    1,591
270,592;11646,452;    0,799;   -0,500
271,189;11908,303;    1,981;    0,409
271,786;12047,981;    2,072;    1,227
272,383;11826,055;   -0,383;    0,227
272,980;12091,738;    1,617;    0,318
273,577;12650,281;    2,162;    1,227
274,174;12178,282;    1,435;    2,591
274,771;12168,719;    1,890;   -0,773
275,367;12309,812;    3,253;    1,409
275,964;12275,963;   -0,565;   -0,500
276,561;12435,852;   -2,474;   -1,045
277,158;12740,222;    1,799;   -1,773
277,755;12814,517;   -0,110;    0,409
278,351;12115,119;    0,436;   -1,500
278,948;12485,195;   -0,201;    0,045
279,545;12590,877;    0,527;    2,318
280,141;13253,884;    1,254;   -2,045
280,738;13104,145;    2,435;   -0,136
281,334;13427,359;   -0,383;    0,591
281,931;12795,068;    2,890;   -1,318
282,528;12893,850;    4,072;   -0,500
283,124;13722,511;    3,345;   -0,500
283,721;13653,465;    0,709;    1,409
284,317;13439,607;    0,163;    2,500
284,913;14014,822;   -0,110;    0,591
285,510;14277,186;    2,890;   -0,318
286,106;14340,238;    2,345;   -0,955
286,703;13880,663;    0,072;    1,955
287,299;14141,516;    1,254;   -0,591
287,895;14412,048;    0,890;   -1,045
288,491;15099,450;    0,163;    2,136
289,088;14764,725;    0,163;    2,409
289,684;14807,628;    2,890;    1,500
290,280;14840,386;    1,890;    0,682
290,876;14906,237;    0,163;    5,500
291,472;14819,621;    2,163;    2,227
292,068;14918,358;    1,254;    0,227
292,665;14642,607;   -0,564;    0,773
293,261;14155,059;   -1,292;    2,136
293,857;14578,085;    4,072;    2,136
294,453;14557,593;   -0,928;    0,955
295,049;14415,513;    0,253;    1,955
295,644;14442,787;   -1,292;    0,136
296,240;14354,328;    0,162;   -0,136
296,836;14432,195;   -0,747;    0,318
297,432;14711,246;    2,980;   -0,500
298,028;14722,043;    0,435;    0,773
298,624;15243,965;    0,889;    1,864
299,220;15577,438;    0,435;    0,591
299,815;15205,589;    0,526;   -0,409
300,411;14956,604;    0,435;    1,773
301,007;15010,637;    1,889;    0,227
301,602;15074,643;    2,071;   -2,318
302,198;15243,858;    1,435;   -0,773
302,794;15626,724;    1,526;   -0,500
303,389;15795,767;    1,071;    1,045
303,985;15848,229;    1,253;    1,409
304,580;15833,437;    0,889;    1,591
305,176;15817,660;    0,344;    0,136
305,771;15808,006;   -0,929;   -1,227
306,367;15555,616;    3,071;    0,136
306,962;16004,371;    2,889;    1,500
307,558;15718,937;    2,435;    0,136
308,153;15652,674;   -0,383;   -1,136
308,748;15935,463;    0,162;    1,682
309,344;15914,560;    0,253;   -1,318
309,939;15997,830;    2,071;   -1,318
310,534;16340,013;   -2,020;   -1,682
311,130;16320,184;   -0,656;   -2,500
311,725;16027,752;    0,526;   -0,500
312,320;16341,637;    1,253;    0,045
312,915;16201,937;    2,890;   -1,045
313,510;16248,984;    0,526;   -0,500
314,105;16871,330;   -3,565;    1,409
314,700;16219,535;   -1,656;   -1,045
315,295;15754,437;   -0,020;    0,045
315,890;15236,887;   -0,292;    0,864
316,485;15605,145;    0,253;   -0,318
317,080;15776,217;   -0,929;    1,591
317,675;16372,560;    3,071;   -0,682
318,270;15636,656;    6,889;    3,318
318,865;15691,460;    2,435;    3,045
319,460;15500,972;   -1,565;    0,591
320,055;15770,842;   -2,565;   -1,227
320,650;15427,645;   -1,838;   -0,591
321,244;15437,004;    0,889;   -1,409
321,839;16574,215;    0,980;   -0,227
322,434;16441,728;   -0,111;   -1,591
323,029;15973,854;   -0,474;    1,591
323,623;15817,645;    0,798;    0,773
324,218;15527,481;    2,707;    1,409
324,812;15458,011;    0,889;    1,591
325,407;15230,063;   -0,929;    2,045
326,002;15147,329;    0,526;   -0,409
326,596;15510,856;   -0,656;    1,318
327,191;15778,985;   -0,383;   -1,045
327,785;15276,674;   -0,747;   -0,227
328,379;15531,474;   -0,383;    0,136
328,974;15299,328;    1,798;   -3,955
329,568;15569,242;    2,889;   -2,409
330,163;15325,463;    2,435;    1,045
330,757;15705,334;    0,253;    1,591
331,351;14987,121;   -0,292;    0,682
331,945;15264,164;   -0,383;    1,409
332,540;14773,045;    1,617;   -0,591
333,134;14926,419;    3,344;    0,773
333,728;15202,464;    2,799;    0,318
334,322;15608,754;    0,889;   -0,864
334,916;14826,995;    0,344;    0,955
335,510;15172,400;   -0,111;   -0,136
336,105;15416,894;   -0,929;    1,591
336,699;15058,815;   -1,292;    0,591
337,293;14995,386;    1,071;    0,318
337,887;15180,126;    0,071;    1,955
338,481;15272,247;    2,980;    0,591
339,074;15421,163;    2,071;    2,682
339,668;15197,965;   -0,110;    1,227
340,262;15449,013;    7,708;    3,227
340,856;14971,103;    1,708;   -0,682
341,450;14236,378;    0,708;    1,864
342,044;15273,204;    1,799;    0,136
342,637;15002,338;    1,162;   -2,136
343,231;14823,920;   -1,474;    0,682
343,825;14734,709;   -0,747;   -0,591
344,419;14667,250;   -0,474;    0,500
345,012;14313,429;    2,889;    4,045
345,606;14332,399;   -0,656;    1,591
346,199;14209,612;   -0,111;   -0,227
346,793;13645,687;    2,525;    2,045
347,386;13847,052;    0,889;   -1,136
347,980;13845,824;   -0,838;   -0,045
348,573;13607,560;   -1,748;    0,409
349,167;13167,268;    6,161;    4,773
349,760;13545,513;    2,252;    2,682
350,354;13572,968;    1,616;    1,136
350,947;13215,939;    2,798;    1,682
351,540;12829,491;    0,616;   -1,409
352,134;12775,912;   -1,111;    1,136
352,727;12842,571;   -0,657;    1,136
353,320;12640,019;    2,343;    0,591
353,913;12475,139;   -1,929;    1,864
354,507;12677,938;    0,434;   -1,227
355,100;12663,489;    0,071;    0,864
355,693;11659,869;    4,798;    2,409
356,286;11735,807;    0,980;    2,773
356,879;12178,269;   -0,475;    1,227
357,472;11692,529;    0,980;    1,500
358,065;11902,538;    3,161;    2,500
358,658;11836,346;    0,798;    2,318
359,251;11378,647;    0,252;   -0,591
359,844;10761,132;    0,343;   -1,136
360,437;10915,119;    0,252;    0,045
361,030;11257,430;    0,525;   -0,682
361,623;10749,989;    0,434;    0,318
362,215;10794,894;    0,979;    2,045
362,808;10680,161;   -2,293;   -1,682
363,401;10870,748;    0,798;    0,136
363,994;10500,948;    3,252;   -1,500
364,586;10439,751;    0,888;   -1,500
365,179;10648,711;   -0,203;   -1,136
365,772;10069,556;   -0,930;    2,045
366,364;10426,525;    1,524;   -3,227
366,957;10654,322;    1,342;   -0,045
367,549;10699,459;   -0,203;   -0,864
368,142;10259,284;    0,978;   -1,500
368,734;10475,513;    2,523;   -2,136
369,327;10438,697;    2,341;   -0,500
369,919;10311,008;   -1,659;    0,409
370,512;10038,085;   -1,023;   -0,500
371,104; 9728,730;    2,704;    1,591
371,696; 9943,399;    1,703;   -0,955
372,289;10049,100;    0,157;    1,136
372,881;10196,906;    1,156;    1,318
373,473;10125,668;    4,064;    1,136
374,066; 9887,273;    1,336;    0,500
374,658; 9728,471;    0,879;    1,136
375,250;10163,825;   -1,668;   -1,409
375,842; 9962,311;   -0,124;   -0,045
376,434; 9812,413;   -2,762;   -0,409
377,026;10487,523;   -1,855;   -2,500
377,618;10349,460;    0,779;   -0,682
378,210;10197,449;    3,141;   -1,955
378,802;10053,142;    3,412;   -0,591
379,394; 9915,669;    3,411;    0,682
379,986;10664,507;    1,138;   -0,955
380,578;10816,708;    1,410;    0,773
381,170; 9987,584;    0,320;    0,045
381,762; 9969,790;   -0,224;    1,409
382,354;10241,572;   -0,223;   -1,318
382,945;10328,523;    0,870;    0,318
383,537;10516,724;    1,144;   -1,955
384,129;10499,038;    0,963;   -1,136
384,721;10742,181;    0,418;    0,955
385,312;10658,955;   -1,399;   -0,955
385,904;10721,491;   -0,945;    1,591
386,496;10015,278;    0,691;    1,045
387,087;10161,134;    0,418;    2,500
387,679;10218,175;   -0,401;    0,045
388,270;10386,755;   -2,401;    2,045
388,862;10532,019;   -0,401;   -0,318
389,453;10418,967;    1,054;    1,045
390,045;10706,386;    3,236;   -2,682
390,636;10647,602;    0,144;   -0,591
391,227;10466,360;    2,054;   -0,045
391,819;10567,876;    0,781;    0,773
392,410;10666,184;    0,600;    0,045
393,001;10585,778;    1,600;   -1,591
393,593;10935,301;    0,600;   -0,045
394,184;10762,352;    0,873;   -0,409
394,775;10715,220;    1,146;    2,136
395,366;10917,034;    1,782;    0,773
395,957;10963,338;   -2,400;    0,136
396,548;11332,164;    1,054;    2,682
397,139;11649,320;    2,236;    0,591
397,730;11345,516;    0,873;    0,955
398,321;11394,041;    0,509;    0,955
398,912;11432,736;   -0,764;    0,136
399,503;11470,560;   -1,945;   -1,409
400,094;10879,733;   -1,582;    1,682
400,685;10748,291;    3,600;    0,045
401,276;10832,177;   -0,400;   -0,955
401,867;11192,812;   -1,127;    0,773
402,458;11273,932;    1,509;   -2,318
403,048;11258,458;    0,146;    0,591
403,639;10840,560;    1,509;    0,864
404,230;11048,339;    0,691;    0,318
404,821;10973,560;   -0,127;    0,045
405,411;11111,853;   -0,763;   -2,591
406,002;10657,339;    3,237;   -1,136
406,592;10402,242;    2,691;    0,045
407,183;10778,203;    0,328;   -1,500
407,774;10680,346;    1,419;   -0,136
408,364;11104,364;    2,600;    0,409
408,954;10609,577;   -0,036;    1,227
409,545;10668,171;    1,873;    1,045
410,135;10103,662;   -1,581;    0,500
410,726;10342,502;    0,783;    0,318
411,316;10755,134;    2,237;    0,773
411,906;10407,665;    0,146;   -0,409
412,497; 9814,717;   -0,490;   -0,045
413,087;10485,998;    0,783;   -0,227
413,677;10920,264;   -2,490;    3,864
414,267;10712,172;   -1,035;    1,409
414,857;10783,803;    0,419;    4,227
415,448;11079,559;   -0,763;    0,500
416,038;10700,029;   -2,945;   -0,591
416,628;10709,221;    0,965;    0,409
417,218;10058,750;   -1,762;    3,318
417,808;10337,017;    0,965;   -0,409
418,398;10939,612;   -1,035;    2,682
418,988;10933,467;   -2,217;    0,591
419,578;11250,406;    3,601;    1,409
420,168;11645,058;    0,692;   -0,955
420,757;11152,776;    0,964;   -1,500
421,347;10826,236;    1,601;   -0,227
421,937;11035,137;    3,329;    1,409
422,527;10890,777;    2,602;   -0,773
423,116;10680,815;    2,692;   -0,045
423,706;11162,056;    2,965;    0,318
424,296;11113,119;    1,601;    0,682
424,885;11585,301;    1,510;   -3,045
425,475;11928,060;    1,147;   -2,864
426,065;11832,430;   -1,489;   -0,318
426,654;11395,086;    0,329;   -0,318
427,244;11532,698;    1,147;    1,409
427,833;10877,052;    1,056;   -0,500
428,423;11456,803;    0,147;    1,136
429,012;12359,371;    2,420;   -1,136
429,601;11748,606;    2,057;    0,136
430,191;12000,997;    2,511;    4,318
430,780;11595,615;   -1,671;   -0,409
431,369;11466,165;    1,329;   -0,045
431,959;12233,272;    1,693;    0,500
432,548;12017,259;   -1,398;   -0,045
433,137;12207,885;    0,329;   -1,318
433,726;12756,120;    0,148;    0,500
434,315;12032,668;    0,148;    2,409
434,905;12154,365;    0,693;    1,409
435,494;12021,478;    3,148;    0,955
436,083;12531,702;    1,420;   -0,955
436,672;12348,237;    1,148;    0,500
437,261;11853,516;    0,512;   -1,955
437,850;11965,429;   -1,125;    0,682
438,439;11957,923;    2,239;    1,955
439,027;11727,491;    3,421;    1,773
439,616;12200,267;    2,239;    1,227
440,205;12140,415;    0,057;   -2,136
440,794;12211,247;   -0,306;   -0,045
441,383;12481,933;    1,603;   -0,591
441,971;12334,603;   -0,306;    0,591
442,560;12176,890;    0,603;   -1,773
443,149;11959,317;    3,060;   -1,318
443,737;12160,647;    0,968;   -2,318
444,326;12355,206;    0,331;    0,318
444,915;12422,078;   -1,851;    0,864
445,503;12865,467;    0,058;   -0,318
446,092;12105,036;    7,876;    2,136
446,680;12699,523;    1,876;    0,318
447,269;12892,343;   -1,487;   -0,318
447,857;12618,356;    2,240;   -1,773
448,445;12747,582;    2,149;    1,318
449,034;13031,804;    0,876;   -1,136
449,622;13151,273;    1,240;    3,500
450,210;12170,160;    3,149;    2,227
450,799;12769,169;    2,604;   -0,591
451,387;12719,228;    1,786;   -0,591
451,975;12345,434;   -1,305;    0,864
452,563;12459,960;    0,422;    2,318
453,151;12495,920;   -1,032;   -1,227
453,739;12393,652;   -1,577;    0,136
454,328;12192,432;    0,604;   -2,136
454,916;11863,241;    1,150;   -0,136
455,504;12087,062;    3,513;    1,227
456,092;12323,365;    2,150;   -1,591
456,679;12301,555;    0,604;    0,682
457,267;12087,659;    3,604;    1,045
457,855;12342,704;    3,241;    1,409
458,443;12111,229;   -0,304;    1,682
459,031;12214,742;    1,332;    2,409
459,619;12740,339;   -3,577;    2,864
460,206;12940,321;   -0,759;    2,045
460,794;13040,011;   -0,668;   -0,227
461,382;13291,293;    0,878;   -0,864
461,970;12805,223;    0,605;    1,864
462,557;12841,320;    0,878;   -0,682
463,145;13072,037;   -0,304;   -1,682
463,732;13211,767;    2,514;   -1,045
464,320;13168,963;    1,514;   -3,045
464,907;12767,526;    0,423;   -0,773
465,495;12660,813;    2,696;   -1,227
466,082;12857,228;    2,060;   -0,045
466,670;12719,285;    2,605;    1,227
467,257;13153,610;    0,060;    2,045
467,844;13351,773;    1,514;    0,045
468,432;13359,138;   -0,031;    3,500
469,019;12804,867;    1,606;   -1,773
469,606;13318,694;    0,969;    3,682
470,193;13090,991;    2,151;    0,227
470,780;12569,542;    0,333;    0,864
471,368;12965,471;   -1,212;   -0,773
471,955;12715,160;    1,060;   -0,682
472,542;12330,385;   -0,303;   -1,136
473,129;12559,029;   -0,485;    0,136
473,716;12278,258;    0,060;    0,591
474,303;12519,286;    1,333;   -0,864
474,890;12825,265;    2,333;   -0,500
475,477;12834,143;   -0,576;    0,409
476,064;12767,921;    0,697;   -1,591
476,650;12686,368;    2,152;    0,318
477,237;12563,641;    1,879;    0,955
477,824;12724,852;    3,879;    0,864
478,411;12783,795;    0,606;   -0,318
478,997;12976,033;    0,606;   -0,773
479,584;13035,699;   -0,666;   -0,409
480,171;13847,528;    1,243;   -0,773
480,757;13470,585;   -0,848;    0,773
481,344;13812,794;    0,334;    0,409
481,931;13311,916;   -0,393;    1,045
482,517;14439,158;    0,425;    0,318
483,104;15164,664;    1,334;    2,864
483,690;15601,434;    0,243;    0,045
484,276;16078,329;    0,698;    0,227
484,863;15788,871;    2,152;    1,136
485,449;16473,950;    0,152;    0,318
486,035;16490,042;   -0,666;   -0,136
486,622;16970,469;   -2,393;    0,045
487,208;16938,452;    1,334;    1,500
487,794;16803,668;    0,971;    0,318
488,380;16873,146;    0,698;   -1,409
488,967;16920,339;   -1,120;   -0,409
489,553;17005,510;   -1,029;   -1,409
490,139;17167,412;    0,971;    0,773
490,725;16567,120;    0,789;   -0,227
491,311;16029,741;    1,516;    3,045
491,897;15120,693;   -0,665;    1,500
492,483;14827,751;    0,426;    1,227
493,069;14444,806;    5,426;    0,864
493,655;14483,749;    1,789;    0,682
494,241;14384,006;    1,517;   -0,955
494,826;14860,768;    0,335;   -1,045
495,412;14295,985;    0,335;   -0,682
495,998;14438,532;    0,971;   -0,318
496,584;14602,563;    2,244;    1,045
497,169;14530,867;    2,335;   -0,682
497,755;14501,800;    1,244;    1,227
498,341;15091,943;    2,153;    0,318
498,926;14624,228;    2,881;    1,955
499,512;14897,573;   -0,028;    2,955
500,097;15036,633;   -0,574;   -0,318
500,683;15006,280;   -0,028;    2,136
501,268;15377,434;    1,881;   -0,955
501,854;15054,480;   -0,119;    1,227
502,439;14972,425;   -0,573;   -1,773
503,024;15193,286;    1,608;    0,500
503,610;15276,733;    1,335;   -0,682
504,195;15332,289;    1,245;    1,955
504,780;15411,219;    2,335;    1,227
505,366;15228,224;    4,063;    2,864
505,951;14884,747;   -1,119;    1,045
506,536;14899,242;    1,427;   -3,682
507,121;14906,924;    1,699;   -0,318
507,706;15506,149;   -0,392;    1,045
508,291;15947,489;   -2,937;    1,136
508,876;15387,128;   -0,482;    2,591
509,461;14733,010;    1,427;   -0,773
510,046;15205,169;   -0,391;    0,318
510,631;15457,472;   -0,119;   -0,773
511,216;15098,000;   -0,664;   -0,500
511,801;15480,068;   -0,755;    2,591
512,386;15856,278;    0,972;    0,500
512,971;15742,315;    0,427;    0,955
513,555;15253,463;    1,154;   -1,500
514,140;16149,325;    1,336;   -3,136
514,725;16167,384;    1,791;   -1,136
515,309;16301,662;    1,064;    0,318
515,894;15667,339;   -0,300;   -2,227
516,479;16132,664;    1,973;   -0,955
517,063;16008,536;    0,882;    1,227
517,648;16209,956;    0,155;   -1,136
518,232;15821,600;   -1,300;   -1,409
518,817;16128,685;    1,337;    1,682
519,401;16319,200;    0,700;    0,591
519,985;15797,995;    2,700;    1,136
520,570;15660,106;   -0,118;   -1,955
521,154;16015,271;    0,064;    0,591
521,738;16219,580;    1,064;    2,409
522,323;16861,821;   -0,390;    1,682
522,907;16533,320;    2,428;   -0,136
523,491;16207,817;    1,155;    0,955
524,075;16220,993;    0,428;    0,591
524,659;16298,058;    0,973;    0,591
525,243;15659,150;    0,883;    0,409
525,827;15988,881;    0,883;   -0,045
526,411;16953,785;    1,155;   -0,136
526,995;17186,802;    0,337;    1,409
527,579;16727,512;    1,974;   -1,045
528,163;17043,867;    0,428;   -1,500
528,747;16971,704;    1,065;   -0,773
529,331;17313,668;    0,883;   -1,409
529,915;17512,748;    2,338;    0,955
530,499;17482,168;    0,247;    1,227
531,082;17136,756;    1,065;    1,591
531,666;16550,819;    0,520;    0,773
532,250;17300,061;    0,428;    2,682
532,833;17715,076;    0,610;    2,773
533,417;17574,867;    1,247;    0,864
534,001;17495,810;    0,429;   -0,318
534,584;18303,599;    1,974;    0,500
535,168;18114,480;    3,247;    1,409
535,751;18194,413;    4,520;    0,045
536,334;17577,451;    4,520;   -0,409
536,918;18254,171;    1,974;    1,591
537,501;18373,643;    1,520;    1,318
538,085;18338,652;    1,702;    1,045
538,668;18525,373;    0,883;    2,409
539,251;18906,367;    3,156;    3,773
539,834;18918,764;    0,156;    0,773
540,418;18855,654;    3,247;    4,318
541,001;18996,141;    2,702;    1,773
541,584;19013,686;    1,429;    2,227
542,167;18665,382;    0,702;    2,955
542,750;18879,091;    0,793;   -0,773
543,333;18422,710;    1,429;    2,136
543,916;19290,703;   -0,298;    2,500
544,499;20008,629;    2,520;    0,227
545,082;19993,455;    0,248;    3,591
545,665;20102,921;   -0,207;    1,500
546,248;20512,710;    0,520;   -0,318
546,830;20153,876;   -1,752;    1,955
547,413;20608,987;    0,157;   -0,773
547,996;21197,774;    0,157;    0,500
548,579;20929,346;   -0,843;    0,955
549,161;20754,626;    0,884;    2,682
549,744;20558,925;    0,612;    0,409
550,326;21123,317;    0,885;   -1,136
550,909;20824,300;    2,339;    0,591
551,492;21253,868;    0,521;    0,227
552,074;21034,086;   -0,024;   -1,318
552,657;21585,611;    2,430;    0,045
553,239;21333,591;   -3,024;   -0,773
553,821;21276,215;   -1,570;    1,045
554,404;20720,925;   -0,024;    1,136
554,986;21153,733;    2,248;    1,045
555,568;21798,713;    0,430;   -0,955
556,151;20938,798;    4,067;   -0,227
556,733;21170,298;   -1,388;   -0,864
557,315;21664,482;    4,703;    0,500
557,897;21469,208;    0,521;   -0,500
558,479;21618,817;    1,703;    1,318
559,061;21755,791;    1,067;   -0,864
559,643;22117,102;   -0,297;    0,045
560,225;22582,267;   -0,388;    2,864
560,807;22589,465;    0,340;    0,318
561,389;21990,971;   -1,206;    2,318
561,971;22780,513;   -0,660;    2,136
562,553;22624,023;    0,613;    1,591
563,135;22745,106;    1,249;    1,136
563,717;22343,238;    3,158;    1,136
564,298;23189,598;    3,976;   -0,045
564,880;22883,904;    0,340;   -1,409
565,462;23108,450;    1,977;    1,318
566,043;24409,013;   -0,933;    2,318
566,625;23958,363;    4,067;    1,227
567,207;23810,347;    0,704;    1,682
567,788;25035,328;   -0,114;    1,500
568,370;25963,923;   -1,841;   -0,500
568,951;25840,211;   -0,569;    0,227
569,533;26886,213;    0,977;   -0,500
570,114;27411,904;   -0,296;    0,682
570,695;28026,734;   -0,478;   -1,318
571,277;28676,178;   -0,205;   -1,682
571,858;29469,798;    2,704;   -1,136
572,439;30508,486;    0,795;   -1,045
573,021;30817,733;    0,432;   -2,773
573,602;31443,274;    1,795;    0,318
574,183;32470,334;   -0,114;    2,227
574,764;32747,165;    2,068;    0,409
575,345;33449,322;    0,250;   -0,136
575,926;34161,602;    2,704;    0,136
576,507;34134,442;    2,704;   -0,227
577,088;35335,407;    1,704;    1,682
577,669;35391,643;    1,704;    1,955
578,250;36224,971;   -0,750;   -1,045
578,831;37032,967;   -0,841;   -2,227
579,412;37418,637;   -1,205;    0,955
579,993;38417,826;    1,432;    0,227
580,573;38711,239;   -0,023;   -0,955
581,154;37621,965;    1,613;   -0,591
581,735;38573,958;    0,341;    0,773
582,315;38014,776;    0,523;    2,136
582,896;38338,256;   -1,750;    1,227
583,477;37871,054;    0,614;    1,227
584,057;38076,428;    1,159;    0,955
584,638;38265,372;   -2,750;    2,318
585,218;38264,308;    2,886;    2,682
585,799;38458,593;    1,977;   -0,227
586,379;38389,771;    1,250;    1,591
586,959;37000,041;    2,613;    0,318
587,540;36213,546;    0,432;    2,227
588,120;35558,981;   -1,113;   -0,045
588,700;34413,869;    2,977;    2,136
589,281;34710,078;    1,250;   -0,955
589,861;34653,745;   -0,296;   -1,682
590,441;34463,016;   -1,477;   -2,682
591,021;33294,630;    1,432;   -2,591
591,601;33467,433;    0,431;    0,500
592,181;33487,774;   -1,296;   -0,773
592,761;32637,151;    2,250;    1,409
593,341;32492,719;    1,522;    0,045
593,921;32434,917;   -0,569;    1,591
594,501;32265,348;    1,250;    1,318
595,081;32104,742;    0,522;   -0,318
595,661;32462,319;    1,068;    0,955
596,240;33012,013;   -1,023;    0,136
596,820;32676,868;    2,613;    1,955
597,400;32956,402;    1,977;    0,773
597,980;33236,116;   -0,750;    1,045
598,559;33204,813;    0,341;   -0,227
599,139;32871,354;   -0,750;   -1,227
599,718;32738,445;    0,795;   -0,409
600,298;32992,121;   -2,387;    0,682
600,877;33251,159;    4,795;    1,409
601,457;33523,013;    0,340;    1,136
602,036;33406,328;    1,795;    2,045
602,616;33666,829;    2,250;    1,682
603,195;34020,726;    0,431;    3,500
603,774;33486,232;   -0,296;    2,045
604,354;33399,498;    2,522;   -0,500
604,933;32838,026;    0,250;    1,864
605,512;32983,142;    2,340;    0,591
606,091;33007,773;    1,886;    3,773
606,671;33749,811;    0,249;    0,773
607,250;32797,476;    1,431;    3,136
607,829;33142,874;    1,158;    3,227
608,408;32905,164;    4,613;    2,591
608,987;31952,085;    2,704;    3,409
609,566;32191,969;    0,341;   -2,500
610,145;32215,652;    2,885;    0,682
610,723;32689,472;    1,613;    6,864
611,302;31850,411;    1,067;    1,682
611,881;31291,707;    5,158;   11,227
612,460;32227,624;    0,795;    3,955
613,039;32648,646;    1,703;    2,045
613,617;31317,694;    0,886;    4,773
614,196;31487,295;    1,613;    1,227
614,775;31841,673;    1,249;    2,409
615,353;31735,754;   -1,660;    0,864
615,932;31399,034;    0,249;    2,409
616,510;31985,659;    0,158;    0,591
617,089;31423,497;    8,794;   17,591
617,667;31133,867;    4,885;    6,136
618,246;30931,912;   -1,115;    1,318
618,824;31103,116;    1,612;   -0,955
619,402;30654,676;    0,431;   -1,773
619,981;31186,854;    1,067;   -1,045
620,559;31084,690;    0,794;    1,682
621,137;30522,650;    3,067;    1,864
621,715;30510,197;    3,703;   -0,682
622,293;30435,782;    1,885;   -0,773
622,871;30976,028;    0,340;    0,500
623,450;30454,699;    0,430;   -0,864
624,028;30319,711;   -0,388;   -0,955
624,606;29946,043;    2,339;    1,682
625,183;30343,445;   -0,661;   -1,136
625,761;29832,248;    1,885;    1,136
626,339;30140,443;    2,339;    2,591
626,917;30543,494;    0,339;   -0,045
627,495;30590,481;    2,794;    1,318
628,073;29986,211;    5,248;    2,864
628,650;29668,064;    3,067;    2,136
629,228;30130,677;    1,248;    4,409
629,806;29414,547;   -0,024;    1,136
630,383;29709,178;    0,066;   -0,318
630,961;29445,219;   -2,206;   -0,955
631,539;29159,387;   -2,479;    0,227
632,116;28370,855;   12,703;   15,409
632,694;29014,661;    4,885;    6,500
633,271;29353,239;    1,975;    2,682
633,848;29276,348;    1,430;    2,045
634,426;29284,880;    1,521;    1,773
635,003;28369,967;   -0,207;   -0,409
635,580;28674,455;    1,884;    3,682
636,158;29278,547;    3,793;    1,227
636,735;29227,638;    3,339;   -0,500
637,312;29383,112;    0,521;   -0,682
637,889;29497,046;    2,248;   -0,682
638,466;28936,006;    0,066;   -0,409
639,043;28981,172;    1,702;   -1,136
639,620;29339,486;    0,611;   -0,955
640,197;29619,555;    1,612;    1,682
640,774;29755,000;    1,430;    1,136
641,351;30195,626;    0,612;    1,136
641,928;29489,253;    2,794;    1,409
642,505;29154,152;    0,794;   -0,500
643,082;29240,869;    1,885;    1,227
643,658;28156,223;    1,157;    1,500
644,235;28997,485;   -2,479;    2,500
644,812;29264,112;    1,794;    0,773
645,388;29030,102;    1,612;    1,409
645,965;29139,364;    1,521;    1,682
646,542;29165,263;    3,430;   -0,227
647,118;29172,799;    3,703;   -0,955
647,695;29522,425;    0,339;    1,136
648,271;29402,506;   -2,115;    0,500
648,848;29726,133;    0,248;    2,227
649,424;29519,486;    0,976;    1,318
650,000;29271,567;   -0,388;   -1,045
650,577;29101,921;    0,158;   -0,955
651,153;29611,456;   -1,115;    0,955
651,729;30664,719;    0,521;    0,864
652,305;31000,254;    1,339;    2,773
652,881;36321,881;   -1,297;    1,136
653,458;44407,325;    0,249;    0,227
654,034;49141,315;    0,703;    1,591
654,610;51065,033;    0,339;    0,773
655,186;52583,204;    1,612;    3,045
655,762;52331,013;   -1,842;    0,409
656,338;52398,093;    0,703;    0,136
656,913;53412,538;   -0,297;    0,409
657,489;52719,346;    0,249;   -0,318
658,065;52609,154;    0,794;   -1,591
658,641;53170,781;    2,158;   -0,864
659,217;52452,225;    2,067;    0,409
659,792;51859,033;   -1,751;   -0,409
660,368;52108,023;   -0,388;   -0,682
660,944;51629,468;    1,794;    1,227
661,519;46277,549;    0,522;    0,409
662,095;38922,993;   -0,206;    0,591
662,670;33323,074;   -0,206;   -0,136
663,246;31831,882;   -0,660;   -0,409
663,821;30977,418;    0,431;    1,682
664,396;30418,044;    0,613;    1,864
664,972;30658,943;   -0,660;   -0,500
665,547;31025,297;    3,794;    0,136
666,122;30977,832;    1,340;    0,318
666,698;31286,095;    2,431;    0,318
667,273;30653,631;    0,885;    0,136
667,848;31468,348;    0,340;    1,500
668,423;31268,974;    1,795;    2,318
668,998;31856,782;    0,976;   -0,682
669,573;32472,500;    2,067;   -1,500
670,148;32271,671;    1,885;   -0,682
670,723;32100,298;   -0,024;    0,318
671,298;32541,470;   -1,296;    1,045
671,873;32631,096;   -0,296;   -0,136
672,448;32612,450;    1,704;    0,136
673,023;33035,349;    0,249;   -0,227
673,597;33328,066;    2,704;    2,318
674,172;33070,783;    2,431;    0,318
674,747;32536,773;   -0,205;   -1,045
675,321;32403,218;   -0,933;    3,318
675,896;31980,117;    2,158;    1,045
676,471;33056,470;    2,522;    1,591
677,045;32795,824;   -0,296;    0,682
677,620;32806,541;    2,158;    1,136
678,194;33121,168;    0,249;    1,136
678,769;32675,521;    0,886;   -0,318
679,343;32870,966;   -0,023;    1,773
679,917;32714,047;    0,340;    1,955
680,492;32801,582;    0,249;    3,227
681,066;32926,572;    0,613;    0,409
681,640;33011,926;    1,795;   -0,318
682,214;33850,643;    2,340;    0,500
682,788;33354,270;    0,613;   -0,773
683,363;33400,078;    1,977;    1,682
683,937;33033,340;    0,886;   -0,318
684,511;33859,149;   -1,023;   -0,591
685,085;33546,411;   -1,478;    0,318
685,659;33293,765;    1,431;    0,864
686,232;33532,391;    1,159;   -0,318
686,806;33229,199;    2,159;    0,409
687,380;33931,099;   -1,932;    0,591
687,954;34197,179;    2,432;    1,136
688,528;33826,079;    2,613;    1,955
689,101;34630,159;    0,432;    1,045
689,675;34225,240;    0,886;   -0,136
690,249;33580,503;    3,432;    0,409
690,822;33853,402;    1,159;    0,318
691,396;33947,574;    2,068;    1,227
691,969;33413,564;    2,523;    0,136
692,543;33844,190;   -0,568;   -1,955
693,116;33457,908;   -0,659;   -1,409
693,690;33312,170;   -0,296;    0,500
694,263;33957,342;    2,341;    2,955
694,836;33944,423;    2,795;    3,591
695,410;32477,686;    1,159;    1,773
695,983;32978,858;    1,614;    0,591
696,556;32955,302;   -0,750;   -1,045
697,129;33392,565;   -1,114;    1,409
697,703;33002,555;    1,341;    1,955
698,276;33023,636;    1,705;   -0,773
698,849;32747,171;   -1,023;    1,409
699,422;33093,888;    1,250;    0,591
699,995;32765,151;   -0,659;    0,136
700,568;33353,868;   -0,204;    3,045
701,140;33350,677;   -1,841;    1,682
701,713;33070,758;    0,341;    2,409
702,286;32809,020;    0,796;    0,864
702,859;32632,101;    0,614;   -0,591
703,432;31727,909;   -0,841;    0,682
704,004;32327,536;    1,978;    0,318
704,577;32173,889;    1,068;    0,136
705,150;32796,607;    0,887;    2,500
705,722;32536,415;    1,523;   -3,227
706,295;32319,314;    1,432;   -0,591
706,867;32114,577;    0,250;    1,955
707,440;32360,112;   -0,113;   -0,409
708,012;32622,829;   -0,022;    0,591
708,584;32473,547;    2,705;    0,227
709,157;32780,082;    1,160;   -0,591
709,729;32459,981;    1,069;    2,045
710,301;33352,698;   -1,204;    0,045
710,874;33340,779;    0,341;   -0,227
711,446;32173,951;   -0,295;    0,864
712,018;32103,396;   -3,022;    0,500
712,590;31774,386;   -0,204;    1,682
713,162;32327,012;   -0,477;    1,318
713,734;32685,002;    1,796;   -2,045
714,306;32533,992;    0,342;   -0,409
714,878;31117,527;   -0,295;    0,864
715,450;31932,336;   -0,113;    0,864
716,022;32174,871;    2,433;    1,318
716,593;32369,225;    0,978;    0,591
717,165;32300,124;    1,796;   -1,227
717,737;32023,023;    0,796;    0,409
718,309;31662,740;    1,160;   -0,045
718,880;31615,094;   -1,295;   -1,409
719,452;31843,629;    0,887;   -1,591
720,024;31319,710;    1,705;   -0,591
720,595;31923,882;    2,978;    0,955
721,167;31444,599;    1,160;   -2,045
721,738;30945,680;    2,069;   -1,045
722,309;30877,852;    1,251;   -1,227
722,881;30647,478;    2,705;    0,773
723,452;31353,468;    1,251;    2,864
724,023;31498,913;    1,524;    2,682
724,595;31298,903;    2,342;    0,682
725,166;31045,347;    1,524;   -0,409
725,737;30615,337;    1,887;    0,227
726,308;30675,055;    0,797;    0,318
726,879;31177,863;    1,069;    1,227
727,450;31020,489;   -2,022;   -0,045
728,021;30944,115;    1,069;    0,682
728,592;30828,378;    1,160;    0,500
729,163;31161,005;    1,433;   -0,136
729,734;31105,358;    2,160;   -0,227
730,305;31487,712;    0,615;    0,136
730,876;31868,793;    0,888;    2,955
731,447;31598,692;    0,797;    2,682
732,017;31754,682;   -0,840;    1,864
732,588;31169,672;   -0,021;    1,227
733,159;31358,207;    3,615;   -1,045
733,729;31207,015;    1,251;    0,409
734,300;30468,733;    0,160;    0,864
734,870;30840,632;   -1,385;    0,591
735,441;31479,167;    0,888;   -0,591
736,011;31197,612;    1,070;   -1,591
736,582;31181,511;    1,251;    0,045
737,152;30609,501;    0,979;   -2,045
737,722;31071,582;    1,070;   -0,682
738,293;30792,117;   -2,021;    1,318
738,863;30648,016;    1,797;    2,318
739,433;30396,006;    4,524;    0,318
740,003;31075,087;    1,524;   -0,682
740,573;30366,168;    2,252;   -1,591
741,143;30308,522;    3,615;    0,318
741,713;31120,966;    0,252;   -0,500
742,283;30783,320;    1,706;    1,591
742,853;30532,219;    0,524;    1,591
743,423;29921,754;    0,161;    0,045
743,993;30053,926;    1,070;    1,500
744,563;29365,280;    2,524;   -0,864
745,133;29338,452;   -0,112;   -0,864
745,702;30102,351;    2,797;    1,773
746,272;29225,432;    0,434;    0,591
746,842;28977,240;   -0,748;   -0,591
747,411;29474,048;   -0,839;   -0,318
747,981;29716,947;   -0,930;    0,500
748,551;29745,664;   -0,021;   -1,045
749,120;29534,836;   -0,112;   -0,227
749,690;29938,644;    2,161;    2,409
750,259;30223,907;    0,979;    2,955
750,828;30136,352;    4,070;   -1,955
751,398;30432,433;   -0,112;   -0,045
751,967;29852,241;    2,888;    0,409
752,536;30132,322;    1,161;   -0,227
753,105;30579,948;   -1,384;    0,227
753,675;30401,938;   -0,112;    1,773
754,244;30354,110;    0,888;    3,591
754,813;30377,827;    0,979;    1,227
755,382;30032,635;    0,798;    0,955
755,951;30493,807;   -0,112;    3,682
756,520;30020,615;    2,525;    1,864
757,089;30607,242;    1,888;    0,500
757,658;30807,595;    2,434;    1,227
758,227;30863,494;   -1,111;    0,318
758,795;31145,666;   -1,021;    1,136
759,364;31396,020;    0,525;   -0,591
759,933;30322,646;    1,343;   -0,045
760,501;29852,727;    0,252;   -1,318
761,070;30347,444;   -0,293;   -1,409
761,639;31076,162;    1,434;    1,318
762,207;30339,697;    0,889;   -0,955
762,776;30233,505;    2,889;    0,864
763,344;30215,222;    0,071;    0,591
763,913;29294,576;    1,616;    1,409
764,481;30049,111;    1,980;   -0,136
765,049;29834,101;    0,616;    1,409
765,618;29660,455;    1,434;    0,318
766,186;29736,900;    2,434;    0,136
766,754;29982,890;    1,798;    1,864
767,322;28880,243;    1,162;    0,409
767,890;28921,961;    0,525;   -1,773
768,459;29292,587;    2,616;   -0,318
769,027;29486,486;    2,525;    3,409
769,595;28431,749;    2,616;    2,591
770,163;28834,375;    3,344;    2,955
770,730;28553,274;    2,525;   -0,136
771,298;28422,901;    1,162;   -1,409
771,866;28544,072;    0,253;    4,955
772,434;28859,790;    1,162;   -1,864
773,002;29053,325;    2,616;    0,682
773,569;28646,770;    1,071;    1,682
774,137;28447,850;    0,889;   -0,045
774,705;29279,840;   -0,747;   -0,136
775,272;28714,194;    0,253;    0,682
775,840;28506,184;   -0,111;    2,682
776,407;27932,901;   -0,293;    1,955
776,975;27429,255;    1,162;    0,318
777,542;28544,154;    2,162;   -0,045
778,110;28440,780;    0,707;   -0,045
778,677;28142,498;    1,071;   -0,864
779,244;27804,033;   -1,020;    1,045
779,812;27933,841;    0,980;    0,864
780,379;27769,195;    2,435;    1,136
780,946;27989,912;    2,617;   -0,773
781,513;28340,902;   -0,565;    0,318
782,080;27604,529;    1,253;    2,864
782,647;28387,337;    1,708;    3,045
783,214;27996,054;   -0,201;    3,864
783,781;27541,226;    1,708;   -0,682
784,348;27458,034;    0,253;    1,500
784,915;27930,479;   -1,474;    0,318
785,482;27651,741;    2,708;    2,591
786,049;28103,095;    1,071;   -0,591
786,615;28227,539;    1,708;   -0,955
787,182;28041,439;   -3,201;   -0,682
787,749;27655,429;   -2,201;    1,409
788,315;26910,782;    0,253;   -0,409
788,882;27259,590;    0,981;   -1,227
789,448;27972,944;    1,435;   -0,955
790,015;27986,116;    1,799;    3,227
790,581;27520,833;    0,708;    0,227
791,148;27359,369;    1,344;    1,045
791,714;27654,995;   -1,019;    3,136
792,280;27302,712;    3,708;    1,591
792,847;26831,975;   -0,928;    2,500
793,413;27458,238;   -0,110;   -0,318
793,979;26888,137;    1,526;   -1,318
794,545;26936,036;    2,981;    2,682
795,111;26295,389;    2,435;    1,318
795,678;26552,925;    3,526;   -1,682
796,244;26166,915;    2,799;    0,136
796,810;26712,178;    0,799;    0,773
797,375;26459,622;   -0,292;   -2,136
797,941;26514,794;   -1,110;    0,591
798,507;26637,966;    0,254;   -0,955
799,073;26149,956;    2,708;    0,591
799,639;26172,309;    1,435;    3,136
800,205;26193,754;   -1,565;    2,682
800,770;25705,289;    1,345;    1,773
801,336;25766,825;    2,981;   -0,955
801,901;25380,178;    6,072;    3,136
802,467;25983,077;    0,526;    2,045
803,033;25268,795;   -0,019;    0,864
803,598;25524,603;    1,072;   -1,045
804,163;25583,138;    0,708;   -0,318
804,729;25476,765;   -0,110;    1,136
805,294;25882,300;    1,072;    2,227
805,859;25734,108;    0,890;   -0,409
806,425;25203,280;    3,890;    2,682
806,990;24827,361;    1,890;    4,318
807,555;25409,987;   -0,110;    2,591
808,120;25271,432;   -1,292;   -0,409
808,685;25315,695;    1,072;   -2,500
809,250;24842,321;    2,072;   -0,500
809,815;25156,493;   -0,201;    0,682
810,380;25666,483;    0,981;    1,591
810,945;26179,473;    2,890;    2,045
811,510;25386,554;   -0,200;    1,591
812,075;25122,453;    2,800;   -1,409
812,640;25121,625;    3,709;    1,409
813,204;25150,615;    2,163;   -0,227
813,769;25604,241;    0,254;   -0,045
814,334;24963,595;    0,527;    0,864
814,898;25003,494;    1,981;    0,591
815,463;24883,120;    0,981;   -0,773
816,027;24847,019;    1,345;   -2,318
816,592;24973,282;    2,163;   -2,045
817,156;24398,908;   -2,200;    1,136
817,721;24212,353;    0,982;    2,318
818,285;24160,797;    0,618;    1,500
818,849;24890,696;   -0,018;    1,682
819,414;24764,232;    0,073;    2,955
819,978;24317,767;   -0,291;    1,773
820,542;24941,576;    2,891;    0,500
821,106;24631,929;    2,800;    0,682
821,670;24634,374;    2,709;    2,591
822,234;24335,273;    1,073;    1,409
822,798;23704,263;   -0,836;    0,500
823,362;23660,889;    1,527;    4,227
823,926;22956,515;   -0,018;    1,136
824,490;23192,142;    3,527;   -0,682
825,054;23609,768;    2,527;   -1,136
825,618;23223,122;   -1,200;   -1,500
826,181;23140,021;    0,982;   -1,318
826,745;23070,556;   -0,745;   -1,045
827,309;23421,001;    2,255;    1,318
827,872;22756,082;    0,527;    0,955
828,436;23776,890;    1,982;   -0,773
828,999;23826,516;    2,436;    1,227
829,563;22580,415;   -0,654;    1,136
830,126;22455,042;   -0,018;   -0,591
830,690;22471,214;    0,709;    2,864
831,253;21921,658;   -0,473;    2,227
831,816;22033,194;   -0,018;    0,500
832,380;21954,184;    1,164;    0,864
832,943;22193,355;    3,073;   -0,500
833,506;21694,436;    0,255;   -1,227
834,069;22552,881;    2,164;   -0,955
834,632;22538,507;   -2,200;    1,318
835,195;22388,315;    1,346;    0,955
835,758;21574,851;    0,709;    1,955
836,321;21410,204;    1,073;   -1,045
836,884;21499,740;   -1,291;   -0,955
837,447;21507,094;    0,528;    1,773
838,010;21770,629;    1,800;    3,227
838,573;22109,164;    0,528;    0,773
839,135;22013,700;   -0,109;   -0,955
839,698;21455,054;    2,528;    0,409
840,261;20910,134;    0,255;   -0,227
840,823;20761,124;   -0,927;    0,864
841,386;21075,842;   -0,018;   -2,409
841,948;20886,104;    0,255;    1,773
842,511;20628,276;    0,255;    1,682
843,073;20785,448;    2,982;    0,227
843,636;20594,983;    0,619;   -0,227
844,198;20498,337;    1,255;    0,591
844,760;20691,691;    0,619;    1,955
845,322;20297,772;    0,164;    1,136
845,885;20742,034;   -0,290;    0,591
846,447;21152,479;    0,710;    0,227
847,009;20657,651;    3,983;   -0,682
847,571;21040,459;    1,346;   -2,045
848,133;21128,085;   -0,199;   -1,864
848,695;20989,621;    2,346;    1,409
849,257;20484,974;    1,346;   -1,682
849,819;20691,964;    2,983;   -0,409
850,381;20775,318;    1,801;   -0,864
850,942;21161,672;    1,892;   -0,591
851,504;21071,116;    0,983;    0,227
852,066;21091,197;    1,619;   -1,591
852,628;20623,823;    0,165;    1,955
853,189;20202,722;    0,256;    2,682
853,751;20322,440;   -0,654;    1,409
854,312;20101,975;    1,256;   -1,682
854,874;20600,147;   -0,108;   -0,773
855,435;21112,137;    0,528;   -1,682
855,997;21338,763;    3,983;   -0,136
856,558;20548,753;    0,801;    1,773
857,119;20661,471;   -0,744;    2,864
857,681;20293,370;   -0,108;    0,318
858,242;20329,723;    1,347;   -2,136
858,803;20798,895;    1,074;   -0,773
859,364;21355,067;    0,892;   -4,773
859,925;20702,693;   -0,290;   -0,955
860,486;20628,501;    0,529;   -0,955
861,047;20289,855;    0,165;   -1,227
861,608;20096,572;    0,165;   -0,773
862,169;20264,653;   -0,562;   -0,045
862,730;20041,734;   -0,290;    1,409
863,291;20272,088;    0,438;   -0,500
863,852;20628,441;   -0,926;    1,955
864,412;20027,704;   -1,835;   -0,864
864,973;18526,694;    1,892;    0,500
865,534;18373,866;    2,074;    0,227
866,094;19970,492;    2,620;    0,227
866,655;19593,028;    4,711;    3,318
867,215;19870,836;    0,074;    0,136
867,776;19734,553;   -1,199;   -0,136
868,336;19840,089;    1,529;    0,136
868,897;19262,715;    3,438;    1,682
869,457;19019,978;    3,256;    0,318
870,017;19226,059;    2,438;   -1,227
870,578;19770,321;    1,893;    0,773
871,138;19439,766;    2,620;   -0,955
871,698;18957,756;   -0,562;   -1,318
872,258;18794,837;    0,711;   -2,864
872,818;19164,645;    2,347;    0,045
873,378;19127,271;   -2,198;    1,045
873,938;18682,898;    4,984;    0,500
874,498;19009,888;    1,256;   -1,955
875,058;18906,605;    4,347;    1,773
875,618;18740,595;    1,438;   -2,682
876,177;18709,312;   -0,471;    0,136
876,737;18249,393;   -0,289;    1,955
877,297;18234,292;    2,711;    1,955
877,856;18236,646;    2,529;    0,318
878,416;18160,090;    2,438;   -0,136
878,976;18399,353;    3,438;    0,409
879,535;18631,798;    4,529;    3,136
880,095;18301,969;    1,347;    0,045
880,654;18432,050;    0,347;    1,318
881,213;18527,131;    2,347;    1,500
881,773;18176,030;    1,984;    2,682
882,332;18498,566;    6,075;    5,136
882,891;18342,101;    0,711;    2,136
883,451;18869,637;   -2,016;    1,682
884,010;18305,718;   -1,107;   -0,409
884,569;18389,889;   -2,289;   -0,045
885,128;18527,879;   -0,743;   -1,864
885,687;18620,142;   -0,743;    0,682
886,246;18318,678;    2,620;    2,136
886,805;18006,940;    1,620;    2,045
887,364;18345,294;    1,166;   -0,500
887,922;18725,375;   -0,016;    0,045
888,481;18181,183;    1,530;    0,591
889,040;18526,264;    3,711;    2,136
889,599;19213,799;    2,166;    1,409
890,157;19277,971;    2,166;    2,409
890,716;18946,052;    2,166;    0,227
891,274;18766,951;    0,075;   -1,136
891,833;19177,668;    1,166;    0,864
892,391;19045,204;    1,802;    0,500
892,950;19172,921;    0,166;   -0,773
893,508;19489,002;    0,984;   -0,409
894,067;18837,992;   -0,379;    0,136
894,625;18759,255;   -1,016;   -1,500
895,183;18933,790;   -0,198;   -0,682
895,741;18888,235;    2,257;   -1,773
896,299;18685,588;    1,621;   -2,409
896,858;18889,578;    1,530;   -1,591
897,416;19002,478;    0,166;   -1,318
897,974;18734,195;   -2,197;    0,318
898,532;18876,457;    6,530;    2,682
899,089;18773,538;    0,621;   -0,682
899,647;18831,892;    0,530;    1,318
900,205;18530,791;    0,257;    1,045
900,763;18761,872;    2,166;    0,227
901,321;18732,953;    3,530;   -1,409
901,878;18137,307;    3,257;   -0,773
902,436;18003,660;    0,257;    1,318
902,994;18397,832;    6,712;    3,682
903,551;17782,186;    1,439;    0,409
904,109;18180,448;    1,530;   -1,409
904,666;17808,984;    1,439;    1,045
905,224;17584,065;    3,894;   -0,409
905,781;17280,782;   -0,470;   -0,318
906,338;17374,863;    0,167;    1,045
906,895;17298,944;    1,894;    2,045
907,453;17242,297;    2,348;    1,136
908,010;17271,015;    3,348;    0,409
908,567;16877,459;   -0,561;    0,591
909,124;16376,449;    2,439;   -1,500
909,681;16472,348;   -1,288;    0,682
910,238;16589,884;   -0,106;   -1,318
910,795;16923,874;   -1,561;   -1,136
911,352;16563,328;   -0,379;   -2,682
911,909;15970,783;    2,803;   -0,864
912,466;16432,146;    1,985;    1,500
913,022;15936,783;   -0,924;    0,500
913,579;16327,692;   -0,470;    2,045
914,136;16010,965;   -2,561;    0,955
914,692;16352,510;    1,530;   -1,227
915,249;15900,510;    0,530;    0,409
915,806;16115,965;    1,803;    1,955
916,362;15817,601;    0,894;    1,864
916,918;15375,601;    2,439;    1,045
917,475;15369,874;    1,621;    0,955
918,031;15475,874;    0,076;   -0,045
918,587;14873,237;    0,621;   -0,318
919,144;15102,965;   -0,379;    0,227
919,700;15433,783;    0,167;    0,773
920,256;14999,783;    0,439;    0,045
920,812;14572,510;    1,439;   -1,045
921,368;14548,965;    1,348;   -1,045
921,924;14200,419;    0,439;   -0,136
922,480;13737,237;    0,076;    1,227
923,036;14390,146;   -0,652;    1,955
923,592;14353,783;    0,621;    0,318
924,148;14225,146;    1,894;   -0,955
924,704;13498,146;    0,258;   -0,409
925,259;13778,965;   -0,561;    0,591
925,815;13480,601;    3,803;    0,500
926,371;13019,510;    3,530;    1,409
926,926;12894,783;    1,621;    0,591
927,482;12429,328;    1,621;    0,773
928,037;12306,237;   -0,833;    2,045
928,593;12589,692;    0,258;    1,045
929,148;12405,510;    1,167;   -1,500
929,704;11905,783;    2,439;   -0,500
930,259;12075,692;    0,894;   -0,136
930,814;11111,510;    1,803;    1,955
931,369;10816,237;    0,258;   -0,773
931,925;10713,419;   -1,924;    0,136
932,480;10559,056;    3,076;   -2,591
933,035;10387,328;    3,985;   -0,318
933,590;10138,874;   -1,742;   -1,773
934,145; 9785,874;   -1,288;   -0,318
934,700;10171,601;    0,348;   -0,591
935,255; 9931,874;    4,803;    0,045
935,809; 9140,692;    6,258;    0,864
936,364; 8214,601;    2,167;   -0,136
936,919; 8148,510;    2,348;   -1,773
937,474; 8086,601;    1,348;    0,136
938,028; 7813,237;    3,076;    1,136
938,583; 7207,237;    6,348;    4,682
939,138; 7520,419;    0,167;    2,136
939,692; 6934,419;   -1,015;   -1,136
940,247; 6571,510;    1,167;   -1,045
940,801; 6094,783;    0,621;    0,227
941,355; 5981,692;    0,439;    2,591
941,910; 5629,601;    0,712;   -2,136
942,464; 5705,146;    2,712;   -0,318
943,018; 5474,783;    3,258;   -0,227
943,572; 5423,783;    2,803;   -0,682
944,126; 4791,328;   -0,924;   -0,409
944,681; 4674,237;    0,712;    0,227
945,235; 4667,601;    2,167;   -0,591
945,789; 4567,510;    1,258;   -1,864
946,342; 4633,510;   -0,561;   -0,591
946,896; 4477,692;    0,348;    0,955
947,450; 4234,328;   -0,561;   -0,227
948,004; 4372,601;    1,076;   -0,045
948,558; 4402,237;    1,258;   -0,864
949,111; 4344,419;   -1,197;   -0,318
949,665; 4355,510;   -0,106;   -0,682
950,219; 4197,328;    0,621;   -1,045
950,772; 4291,874;    0,258;    1,864
951,326; 4210,783;   -1,106;   -0,955
951,879; 4328,783;    1,076;   -2,318
952,433; 4325,328;    1,348;    2,227
952,986; 4154,328;    0,348;    0,682
953,539; 4109,056;    1,530;    0,591
954,093; 4038,510;    0,985;   -1,318
954,646; 4164,692;   -0,288;    1,318
955,199; 3966,783;    1,258;   -0,500
955,752; 3821,510;    1,985;    1,773
956,305; 3783,601;    0,894;    2,955
956,858; 3973,601;    0,621;   -0,318
957,411; 4172,874;    3,621;    2,136
957,964; 3975,601;    2,076;    2,136
958,517; 3973,601;    0,985;    3,136
959,070; 3796,419;   -1,197;    1,955
959,623; 3840,692;    1,076;    1,500
960,176; 3599,692;    0,712;    2,045
960,728; 3570,783;    1,712;    0,773
961,281; 3656,601;    2,258;    0,500
961,834; 3695,783;   -0,833;    0,864
962,386; 3596,237;    1,258;    1,045
962,939; 3520,419;    3,439;   -0,318
963,491; 3686,692;    2,621;    1,136
964,043; 3560,146;    0,076;    2,409
964,596; 3688,237;    1,712;    2,227
965,148; 3488,692;   -0,379;    1,773
965,700; 3426,692;   -0,015;   -0,227
966,253; 3580,510;   -0,833;    0,318
966,805; 3399,783;    1,894;    0,773
967,357; 3466,510;    0,439;   -1,500
967,909; 3372,965;    1,167;   -1,227
968,461; 3524,692;    0,894;    3,136
969,013; 3458,692;   -1,561;   -0,864
969,565; 3534,601;    1,803;   -1,136
970,117; 3562,874;    3,803;    1,045
970,669; 3409,146;    3,258;   -0,136
971,220; 3299,692;    2,167;   -1,500
971,772; 3190,692;    1,348;   -0,318
972,324; 3296,146;   -1,197;   -0,500
972,876; 3268,328;    0,167;   -0,045
973,427; 3382,510;   -1,197;   -1,045
973,979; 3355,237;    0,076;   -2,500
974,530; 3401,510;    0,803;    1,318
975,082; 3430,237;    2,167;    1,682
975,633; 3320,056;    2,894;    1,682
976,184; 3470,874;    2,076;    0,773
976,736; 3234,056;    0,348;    0,227
977,287; 2998,874;    0,258;   -0,500
977,838; 3212,056;   -0,924;   -0,318
978,389; 3272,510;    0,803;   -0,500
978,940; 3141,874;    1,258;   -0,409
979,491; 3183,146;    2,258;   -0,500
980,042; 3106,328;   -0,652;    3,045
980,593; 3195,510;    1,894;    0,227
981,144; 3223,510;    3,530;   -0,500
981,695; 3178,874;   -0,470;    1,500
982,246; 3160,146;   -1,833;    1,045
982,797; 3328,965;   -0,561;    0,682
983,347; 3442,237;    2,167;    0,591
983,898; 3577,510;    4,167;    0,409
984,449; 3402,328;    2,530;    0,773
984,999; 3343,328;    1,894;   -1,136
985,550; 3079,419;    3,167;   -0,318
986,100; 3147,419;    0,712;   -0,318
986,651; 3177,965;    0,258;    0,045
987,201; 3140,419;    0,894;   -0,591
987,751; 3227,510;   -0,288;    2,864
988,302; 3206,056;   -0,379;    1,500
988,852; 3235,965;    1,985;   -1,136
989,402; 3259,692;    0,985;    0,682
989,952; 3166,510;    1,621;    0,864
990,502; 3298,783;    1,076;    0,682
991,052; 3279,965;   -0,106;    0,045
991,602; 3106,692;    1,167;    1,318
992,152; 3100,419;    2,803;    0,682
992,702; 3087,419;    1,167;   -0,045
993,252; 3011,056;    0,076;   -0,500
993,802; 3079,510;    1,167;    1,318
994,352; 3358,601;   -0,742;    1,136
994,901; 3493,419;    1,076;    3,227
995,451; 3393,328;   -1,197;    0,318
996,000; 3484,419;    1,076;    0,318
996,550; 3156,692;    2,894;    0,227
997,100; 3162,419;   -0,561;   -0,045
997,649; 3453,874;   -0,197;    0,955
998,198; 3060,419;   -0,288;   -1,500
998,748; 3237,874;    0,348;   -2,318
999,297; 3173,510;    0,985;   -0,409
999,846; 3237,237;    1,894;   -0,773
1000,395; 3291,237;    1,530;    0,500
1000,945; 3228,874;    1,076;   -0,773
1001,494; 3305,328;    0,167;    0,682
1002,043; 3305,056;    0,712;    0,864
1002,592; 3148,510;    3,439;    1,955
1003,141; 3300,601;    2,439;   -0,682
1003,690; 3101,783;    1,258;    0,500
1004,238; 3229,237;   -0,106;   -0,045
1004,787; 2831,419;   -1,288;    1,227
1005,336; 3047,419;    1,621;    0,682
1005,885; 3218,328;   -0,197;   -2,773
1006,433; 3404,692;   -0,470;    0,955
1006,982; 3426,328;    2,167;    1,682
1007,531; 3345,328;    2,712;   -0,227
1008,079; 3324,146;    0,258;    0,500
1008,627; 3494,692;    1,621;    0,409
1009,176; 3184,510;    0,076;   -1,955
1009,724; 3232,874;   -2,742;    0,864
1010,273; 3271,601;    1,076;    0,500
1010,821; 3443,783;    1,076;    1,409
1011,369; 3132,510;    0,076;    1,318
1011,917; 3108,237;   -0,833;   -0,591
1012,465; 3414,419;    2,530;   -1,591
1013,013; 3539,419;    0,439;   -1,682
1013,561; 3367,419;   -1,288;   -0,773
1014,109; 3403,874;   -0,833;    1,682
1014,657; 3290,692;    1,348;    0,591
1015,205; 3442,965;    0,894;   -0,955
1015,753; 3485,419;    0,258;   -1,409
1016,301; 3521,783;    2,621;    3,045
1016,848; 3512,601;    2,167;    0,409
1017,396; 3546,874;    1,621;    0,045
1017,944; 3694,056;    2,621;    1,864
1018,491; 3464,146;   -0,197;    1,409
1019,039; 3578,601;   -0,652;    0,591
1019,586; 3509,146;    0,076;    1,682
1020,134; 3627,146;    0,712;    1,500
1020,681; 3633,783;    2,894;   -1,136
1021,228; 3671,692;   -0,561;   -2,227
1021,776; 3496,874;   -0,833;   -1,136
1022,323; 3683,146;    0,803;    0,773
1022,870; 3625,601;   -0,470;   -0,045
1023,417; 3519,965;    2,076;    1,864
1023,964; 3697,692;    0,621;    1,227
1024,511; 3486,601;   -0,652;    0,773
1025,058; 3287,419;    0,439;   -0,045
1025,605; 3343,601;   -1,742;    3,136
1026,152; 3546,419;   -0,106;   -0,591
1026,699; 3277,510;    0,167;    1,318
1027,245; 3465,146;    2,439;    0,318
1027,792; 3708,874;    0,712;    1,409
1028,339; 3555,419;    4,076;   -0,045
1028,885; 3404,056;    3,621;   -0,227
1029,432; 3357,510;   -0,106;    0,227
1029,978; 3388,237;    1,348;   -1,591
1030,525; 3289,237;    1,621;    0,409
1031,071; 3580,783;    0,348;    1,136
1031,618; 3646,056;    1,258;    1,682
1032,164; 3452,419;    2,076;    3,045
1032,710; 3489,146;    0,076;   -1,500
1033,256; 3423,328;    0,712;   -0,136
1033,803; 3400,146;   -0,288;    1,500
1034,349; 3145,601;    1,803;    0,136
1034,895; 3289,965;    2,621;   -0,318
1035,441; 3240,874;    0,439;    0,318
1035,987; 3252,146;   -2,288;   -0,682
1036,533; 3236,783;   -0,197;   -0,955
1037,078; 3445,237;    4,712;    1,682
1037,624; 3260,056;    2,439;   -0,955
1038,170; 3294,419;    1,712;   -0,318
1038,716; 3166,419;    2,167;   -0,409
1039,261; 3109,510;    2,167;   -0,773
1039,807; 3033,419;   -0,015;    3,409
1040,352; 3100,056;   -1,288;   -0,318
1040,898; 3150,783;    0,167;   -0,682
1041,443; 3060,237;    0,803;   -2,591
1041,989; 3048,965;    3,621;    1,591
1042,534; 2958,146;    0,985;    2,591
1043,079; 3110,692;    1,985;    0,955
1043,625; 2846,874;    0,258;    0,500
1044,170; 2874,874;    2,439;    1,045
1044,715; 3129,328;    0,167;    0,955
1045,260; 2953,601;   -0,833;   -0,955
1045,805; 3009,965;    0,258;   -0,591
1046,350; 2978,601;    0,530;   -0,409
1046,895; 2905,328;    0,803;    1,591
1047,440; 2843,510;    1,530;    0,409
1047,985; 2750,510;   -1,197;   -0,955
1048,530; 2665,328;    1,348;    1,227
1049,074; 2729,056;    2,803;    0,318
1049,619; 2707,419;   -0,924;    1,955
1050,164; 2485,056;    1,076;    0,227
1050,708; 2545,510;    2,621;    0,045
1051,253; 2889,601;    3,258;   -2,227
1051,797; 2605,510;   -0,197;   -1,318
1052,342; 2647,874;    1,348;    1,045
1052,886; 2608,692;    1,803;   -1,409
1053,430; 2513,328;    2,167;    0,136
1053,975; 2528,601;    0,894;   -0,318
1054,519; 2484,601;    1,803;    3,227
1055,063; 2484,601;    3,621;    1,318
1055,607; 2366,237;    1,348;    0,227
1056,151; 2400,328;    0,530;    1,682
1056,695; 2329,510;   -1,833;   -1,136
1057,239; 2398,692;   -1,197;   -0,682
1057,783; 2385,056;    2,258;   -1,500
1058,327; 2322,328;    3,076;    1,409
1058,871; 2550,783;    3,985;    1,318
1059,415; 2243,510;   -0,561;   -0,045
1059,958; 2484,601;    2,985;    2,591
1060,502; 2218,237;    1,348;   -0,773
1061,046; 2150,510;    1,712;   -0,955
1061,589; 2124,328;    2,803;   -1,136
1062,133; 1991,419;    0,985;    1,864
1062,676; 1922,692;    1,439;    0,864
1063,220; 1923,965;    0,985;    0,500
1063,763; 1924,419;    2,985;    1,136
1064,306; 2015,146;    0,985;    1,864
1064,849; 1890,328;    2,076;    0,591
1065,393; 1900,692;    2,894;   -1,500
1065,936; 2031,056;    2,530;   -0,409
1066,479; 1914,146;    2,621;    1,318
1067,022; 1951,510;    1,894;   -0,227
1067,565; 1851,965;   -1,197;   -1,318
1068,108; 1877,510;    1,258;   -0,591
1068,651; 1856,601;   -2,470;    1,409
1069,194; 1777,146;   -1,106;   -1,682
1069,736; 1758,874;    3,803;    0,955
1070,279; 1734,874;   -1,652;   -0,500
1070,822; 1784,237;    1,530;   -0,318
1071,364; 1841,146;    0,530;    1,318
1071,907; 1671,056;    0,348;    3,227
1072,450; 1613,874;    0,258;   -0,045
1072,992; 1581,874;   -0,561;    3,136
1073,535; 1697,965;    0,167;    2,136
1074,077; 1509,328;    2,985;    2,045
1074,619; 1472,237;    0,985;    0,591
1075,161; 1492,874;   -0,561;    1,500
1075,704; 1683,692;    0,258;    1,227
1076,246; 1495,874;    1,530;    0,682
1076,788; 1418,056;   -1,015;    1,773
1077,330; 1515,692;   -2,106;    2,136
1077,872; 1459,146;   -1,924;    0,955
1078,414; 1672,692;    3,712;    0,773
1078,956; 1399,237;    0,167;   -0,227
1079,498; 1632,874;    0,439;    0,318
1080,040; 1335,601;    0,985;   -1,318
1080,581; 1302,237;    0,621;   -0,318
1081,123; 1246,146;   -0,106;   -0,773
1081,665; 1284,510;    3,803;   -0,955
1082,206; 1544,783;    3,258;   -0,500
1082,748; 1416,601;    3,258;    2,045
1083,289; 1324,601;    0,167;    1,318
1083,831; 1217,056;    0,258;    0,227
1084,372; 1235,146;    0,894;    0,591
1084,913; 1243,783;    3,348;    0,864
1085,455; 1225,056;    1,530;   -2,045
1085,996; 1182,146;    0,530;    0,136
1086,537; 1196,965;    0,985;    0,864
1087,078; 1233,237;    0,439;   -2,136
1087,619; 1267,146;   -1,652;    0,227
1088,160; 1183,056;    1,439;    1,318
1088,701; 1175,328;   -0,742;    0,682
1089,242; 1110,965;   -0,561;   -2,227
1089,783; 1197,328;   -0,561;    1,409
1090,324; 1172,328;   -0,833;    0,682
1090,865; 1057,601;   -1,924;   -0,409
1091,405; 1050,237;   -0,561;    2,227
1091,946; 1081,510;   -0,197;   -0,955
1092,487;  995,874;   -1,288;   -1,409
1093,027; 1138,419;    1,803;   -1,500
1093,568;  983,965;    2,258;    1,227
1094,108; 1063,146;    0,621;    1,773
1094,649; 1027,056;   -0,470;    0,136
1095,189;  975,601;    1,167;   -0,682
1095,729;  916,419;    0,712;    0,955
1096,269;  933,510;    1,258;   -0,955
1096,810; 1226,783;   -0,197;    0,500
1097,350; 1046,328;   -0,561;   -0,773
1097,890;  947,056;    2,985;    1,227
1098,430; 1195,419;    4,985;    2,864
1098,970; 1060,601;    1,894;    1,682
1099,510;  945,965;   -0,833;   -2,318
1100,050;  876,237;    0,258;   -1,591
1100,589;  840,692;    0,076;   -0,318
1101,129;  958,328;    0,894;   -0,955
1101,669; 1086,510;    2,803;    2,136
1102,209;  929,056;    1,530;    2,227
1102,748;  872,328;    3,439;    0,955
1103,288;  857,874;    0,712;   -1,227
1103,827;  884,692;    3,530;   -2,227
1104,367;  776,874;    1,712;   -2,409
1104,906;  744,783;   -1,015;   -1,136
1105,445;  804,874;    0,985;   -1,136
1105,985;  745,510;   -0,652;    1,500
1106,524;  791,601;    1,530;   -0,682
1107,063;  764,510;    1,167;    1,409
1107,602;  745,874;    1,894;   -1,500
1108,141;  665,419;    1,621;    1,500
1108,680;  754,237;    3,985;   -0,591
1109,219;  702,692;    0,167;   -0,500
1109,758;  706,965;    4,167;    0,682
1110,297;  674,146;   -1,106;   -0,682
1110,836;  633,783;    1,439;    0,955
1111,375;  774,510;    0,348;    0,409
1111,913;  782,692;    0,985;    0,773
1112,452;  732,237;    0,894;    0,136
1112,991;  619,056;    1,076;    1,955
1113,529;  588,692;    0,167;   -0,045
1114,068;  637,965;    0,439;    2,955
1114,606;  538,692;   -0,561;   -0,955
1115,144;  699,692;    1,530;    1,045
1115,683;  631,874;    1,985;    0,318
1116,221;  695,056;    2,076;   -0,864
1116,759;  604,056;    1,621;   -0,864
1117,297;  777,146;    1,621;    1,864
1117,836;  589,692;    1,985;   -1,227
1118,374;  601,692;    0,258;   -0,682
1118,912;  551,783;    0,439;    2,682
1119,450;  533,874;    0,985;    0,864
1119,988;  578,783;    3,348;    2,136
1120,525; 1028,328;    7,258;    3,318
1121,063;  733,601;    0,530;    1,864
1121,601;  538,419;    1,076;   -1,227
1122,139;  493,601;    1,076;   -2,045
1122,676;  694,328;   -1,652;    2,773
1123,214;  634,328;    0,712;    4,409
1123,751;  443,328;    0,621;    2,227
1124,289;  565,237;    0,894;   -0,409
1124,826;  438,328;   -0,379;    0,227
1125,364;  363,874;    0,712;   -0,955
1125,901;  550,692;    6,258;    1,227
1126,438;  645,692;    3,530;    0,955
1126,975;  388,419;    2,985;   -0,773
1127,513;  452,419;    2,621;    2,136
1128,050;  365,328;   -0,561;   -0,682
1128,587;  456,965;    1,348;   -0,227
1129,124;  499,510;   -0,015;    1,318
1129,661;  373,056;   -1,924;    0,227
1130,198;  527,146;    2,439;    0,773
1130,734;  475,601;   -0,379;    1,409
1131,271;  338,146;   -1,197;    0,864
1131,808;  504,783;    1,621;    3,045
1132,345;  374,783;    4,530;    0,318
1132,881;  274,237;   -0,561;   -1,864
1133,418;  389,419;    0,348;   -1,136
1133,954;  339,874;    0,712;   -2,682
1134,491;  402,783;    1,712;   -0,773
1135,027;  307,237;    2,167;    0,864
1135,564;  374,965;    1,439;    2,955
1136,100;  363,874;   -0,742;    2,136
1136,636;  258,510;   -1,015;   -1,045
1137,172;  349,965;    0,894;   -1,045
1137,708;  283,146;   -1,561;   -1,045
1138,245;  284,965;    0,803;   -1,227
1138,781;  242,783;    1,803;   -3,318
1139,317;  303,146;    1,894;   -1,409
1139,852;  280,328;    3,076;    0,136
1140,388;  394,874;    2,076;   -0,409
1140,924;  287,510;    1,076;   -2,227
1141,460;  235,692;   -0,288;    0,136
1141,996;  182,328;   -0,652;    2,682
1142,531;  213,510;    1,076;    3,318
1143,067;  423,692;    1,167;    1,045
1143,602;  472,783;    3,439;   -0,318
1144,138;  319,874;    0,803;    1,045
1144,673;  205,874;    1,621;    1,409
1145,209;  264,692;    2,894;   -0,318
1145,744;  181,601;    0,803;    0,864
1146,279;  310,237;    1,530;   -0,136
1146,815;  237,783;    1,530;   -2,682
1147,350;  279,056;   -0,924;    0,045
1147,885;  192,601;   -1,924;   -1,318
1148,420;  190,056;    2,439;    0,773
1148,955;  172,601;   -1,470;    1,864
1149,490;  194,328;   -1,106;   -1,591
1150,025;  176,692;   -1,106;   -1,773
1150,560;  281,510;   -0,288;   -0,955
1151,094;  254,056;    0,258;   -0,591
1151,629;  250,056;   -3,742;    0,864
1152,164;  181,692;   -1,288;    1,318
1152,698;  147,601;    1,258;   -0,136
1153,233;  106,056;   -1,379;   -0,682
1153,767;  154,692;   -0,288;   -2,318
1154,302;  200,237;   -0,379;    1,773
1154,836;  198,601;    0,803;   -2,136
1155,371;  242,419;    2,258;    3,682
1155,905;  197,692;    1,985;    1,682
1156,439;  164,692;    0,530;   -0,500
1156,973;  206,965;    0,439;    0,318
1157,507;  149,874;   -1,742;    0,682
1158,042;  171,419;   -0,652;    1,045
1158,576;  207,874;   -0,561;    1,773
1159,110;  195,419;    0,076;    2,409
1159,643;  171,056;   -2,470;   -0,045
1160,177;  113,874;   -2,015;    1,500

