
Integration time [ms]:   0,050
Averaging Nr. [scans]: 11
Smoothing Nr. [pixels]: 0
Data measured with spectrometer [name]: 7318044SP
Wave   ;Sample   ;Dark     ;Reference
[nm]   ;[counts] ;[counts] ;[counts] 

186,757;    2,637;   38,161;    1,318
187,357;   14,957;   26,706;    0,955
187,958;    8,625;   17,252;   -1,591
188,558;   24,257;   12,979;   -1,227
189,159;    8,164;   10,070;   -4,500
189,759;    4,698;    5,797;   -3,591
190,360;    4,786;    6,797;   -2,136
190,960;   13,678;    5,706;   -4,136
191,560;   20,578;    2,614;   -6,591
192,161;  128,945;    5,885;   -3,500
192,761;   69,864;    5,520;   -3,227
193,361;   45,070;    3,065;   -3,773
193,962;   67,095;    1,612;   -2,682
194,562;   28,175;   -0,114;   -3,955
195,162;   23,341;   -0,567;   -2,227
195,762;   91,480;    2,433;   -0,045
196,362;   57,399;    1,706;   -2,500
196,963;   19,182;    1,706;   -0,864
197,563;   42,902;    1,252;   -0,955
198,163;   12,928;   -0,111;   -0,682
198,763;   27,878;   -0,020;   -0,500
199,363;   52,901;    3,616;   -0,500
199,963;   37,899;    2,162;    0,409
200,563;   33,193;    6,344;   -1,409
201,163;   24,514;    5,435;   -0,227
201,763;   47,653;    1,435;    0,318
202,363;   26,635;    0,980;    1,500
202,963;   55,595;    1,526;    1,045
203,563;   95,232;    0,344;    0,500
204,162;   49,357;    1,889;   -1,864
204,762;   42,630;    2,071;    0,591
205,362;   31,119;    0,708;    1,955
205,962;   53,869;    3,435;    1,955
206,562;   48,591;    1,889;    2,318
207,161;   40,902;    1,708;    0,318
207,761;  109,412;    4,435;    2,409
208,361;   54,646;    1,889;    1,409
208,960;   72,009;    2,889;    1,500
209,560;   72,837;    0,435;    1,591
210,160;   88,627;    5,071;    1,864
210,759;   70,364;    0,708;    1,227
211,359;   58,782;   -0,474;    1,045
211,958;  177,380;    3,526;    2,045
212,558;  183,875;    0,799;    1,864
213,157;  114,621;   -0,929;    1,500
213,757;  293,197;    5,617;   -0,227
214,356;  156,700;    1,708;   -0,409
214,956;  288,452;    3,526;    0,409
215,555;  136,966;    0,617;    2,136
216,154;   99,333;   -0,292;   -0,591
216,754;  103,134;    1,253;    0,773
217,353;  134,408;   -0,383;   -1,045
217,952;   61,959;    2,072;    0,318
218,552;  170,968;    0,254;   -0,773
219,151;  116,981;   -1,110;    0,955
219,750;  111,602;    0,890;   -0,227
220,349;  102,916;   -2,292;    1,045
220,948;  197,580;    1,163;    1,136
221,548;  137,008;    0,617;    1,227
222,147;  173,696;   -1,292;   -0,409
222,746;  314,737;    1,254;   -0,955
223,345;  218,052;   -1,019;    0,500
223,944;  220,525;    1,163;    0,773
224,543;  246,324;    4,072;   -1,409
225,142;  262,946;    1,345;    0,136
225,741;  248,763;    1,163;    1,045
226,340;  235,535;    1,254;   -0,955
226,939;  374,679;    2,708;   -0,136
227,538;  246,104;    1,163;   -0,773
228,137;  401,245;    0,435;    0,864
228,735;  349,054;    0,435;    1,227
229,334;  223,310;   -0,474;   -0,227
229,933;  447,969;    0,799;    0,591
230,532;  472,776;   -1,201;   -0,409
231,131;  546,166;    1,253;    0,318
231,729;  426,745;    1,163;   -2,318
232,328;  357,262;    0,435;   -1,500
232,927;  377,476;    4,526;   -0,500
233,525;  361,835;    0,981;    0,045
234,124;  420,046;    1,890;   -1,591
234,723;  343,660;    1,617;   -1,045
235,321;  347,247;    1,163;    0,136
235,920;  405,481;    2,526;   -1,227
236,518;  598,795;    1,072;    0,318
237,117;  432,377;    2,890;   -0,227
237,715;  450,952;    1,163;   -0,500
238,314;  510,529;    1,708;   -2,318
238,912;  683,987;    0,526;   -1,409
239,510;  545,044;    1,162;   -1,227
240,109;  684,866;   -0,474;    3,773
240,707;  639,814;   -0,474;    1,227
241,305;  487,149;   -0,383;    0,136
241,904;  613,604;   -0,292;   -2,045
242,502;  721,720;    3,253;   -0,227
243,100;  607,117;    3,344;   -0,955
243,698;  571,328;    2,799;    1,682
244,297;  620,955;   -0,656;    0,682
244,895;  606,775;   -0,474;   -2,318
245,493;  828,675;    2,981;   -0,591
246,091;  810,548;    5,163;   -1,318
246,689;  742,539;    2,163;    0,591
247,287;  700,255;   -0,019;   -1,136
247,885;  676,334;   -1,019;    1,227
248,483;  637,062;   -0,201;   -0,500
249,081;  736,583;    0,981;    1,591
249,679;  790,915;   -1,019;    1,682
250,277;  665,729;   -2,292;    0,864
250,875;  809,944;    0,617;   -1,045
251,473;  690,752;   -0,019;    0,500
252,071;  800,244;   -0,383;    1,045
252,669;  733,252;   -1,565;    0,318
253,267;  671,903;    1,618;    0,773
253,864;  703,619;    0,617;    0,682
254,462;  894,126;    1,526;    1,591
255,060;  658,720;    0,072;    1,318
255,658;  646,434;   -3,292;   -0,136
256,255;  772,156;   -0,201;   -2,045
256,853;  805,515;    2,345;    1,409
257,451;  787,022;    1,981;    1,864
258,048; 1290,798;    2,072;    1,864
258,646;  907,209;    0,436;   -1,045
259,243; 1034,334;    2,981;    2,227
259,841;  906,439;    1,799;    0,318
260,438;  739,521;    0,254;    0,864
261,036;  902,057;    0,617;    1,409
261,633;  820,723;    1,526;    2,227
262,231;  750,956;   -0,110;   -0,045
262,828;  775,816;   -0,383;    1,136
263,425;  824,963;   -1,928;   -0,591
264,023;  829,993;    1,436;    0,045
264,620;  964,010;    1,526;   -0,318
265,217; 1114,078;    2,890;    3,136
265,815;  825,838;    2,527;    2,136
266,412;  954,732;    0,072;    0,136
267,009;  990,377;    0,526;    0,773
267,606; 1084,663;    0,345;   -0,955
268,203;  852,094;   -0,383;   -0,591
268,801;  929,428;   -0,474;    0,591
269,398;  858,453;   -0,564;    2,500
269,995; 1005,634;    0,890;    1,591
270,592;  887,767;    0,799;   -0,500
271,189;  832,456;    1,981;    0,409
271,786;  836,519;    2,072;    1,227
272,383; 1107,801;   -0,383;    0,227
272,980;  942,573;    1,617;    0,318
273,577;  930,757;    2,162;    1,227
274,174;  829,884;    1,435;    2,591
274,771;  953,797;    1,890;   -0,773
275,367; 1417,112;    3,253;    1,409
275,964; 1219,128;   -0,565;   -0,500
276,561; 1003,277;   -2,474;   -1,045
277,158;  926,552;    1,799;   -1,773
277,755; 1196,583;   -0,110;    0,409
278,351;  980,291;    0,436;   -1,500
278,948; 1087,480;   -0,201;    0,045
279,545;  980,200;    0,527;    2,318
280,141; 1301,261;    1,254;   -2,045
280,738; 1167,326;    2,435;   -0,136
281,334;  966,362;   -0,383;    0,591
281,931;  966,002;    2,890;   -1,318
282,528; 1068,872;    4,072;   -0,500
283,124; 1238,308;    3,345;   -0,500
283,721; 1198,514;    0,709;    1,409
284,317; 1029,653;    0,163;    2,500
284,913; 1279,801;   -0,110;    0,591
285,510; 1597,619;    2,890;   -0,318
286,106; 1379,051;    2,345;   -0,955
286,703; 1027,179;    0,072;    1,955
287,299; 1010,621;    1,254;   -0,591
287,895; 1042,922;    0,890;   -1,045
288,491; 1113,998;    0,163;    2,136
289,088; 1196,617;    0,163;    2,409
289,684; 1216,434;    2,890;    1,500
290,280; 1375,781;    1,890;    0,682
290,876; 1340,908;    0,163;    5,500
291,472; 1225,554;    2,163;    2,227
292,068; 1234,614;    1,254;    0,227
292,665; 1055,894;   -0,564;    0,773
293,261;  928,473;   -1,292;    2,136
293,857; 1146,673;    4,072;    2,136
294,453; 1072,870;   -0,928;    0,955
295,049; 1289,228;    0,253;    1,955
295,644; 1107,644;   -1,292;    0,136
296,240;  966,497;    0,162;   -0,136
296,836; 1128,947;   -0,747;    0,318
297,432; 1302,798;    2,980;   -0,500
298,028; 1361,712;    0,435;    0,773
298,624; 1200,791;    0,889;    1,864
299,220; 1193,803;    0,435;    0,591
299,815; 1142,819;    0,526;   -0,409
300,411; 1236,864;    0,435;    1,773
301,007; 1375,051;    1,889;    0,227
301,602; 1190,234;    2,071;   -2,318
302,198; 1314,693;    1,435;   -0,773
302,794; 1174,229;    1,526;   -0,500
303,389; 1179,436;    1,071;    1,045
303,985; 1234,459;    1,253;    1,409
304,580; 1331,039;    0,889;    1,591
305,176; 1219,861;    0,344;    0,136
305,771; 1099,213;   -0,929;   -1,227
306,367; 1501,997;    3,071;    0,136
306,962; 1304,961;    2,889;    1,500
307,558; 1270,956;    2,435;    0,136
308,153; 1371,142;   -0,383;   -1,136
308,748; 1175,452;    0,162;    1,682
309,344; 1592,000;    0,253;   -1,318
309,939; 1607,472;    2,071;   -1,318
310,534; 1294,145;   -2,020;   -1,682
311,130; 1221,194;   -0,656;   -2,500
311,725; 1130,443;    0,526;   -0,500
312,320; 1229,884;    1,253;    0,045
312,915; 1386,062;    2,890;   -1,045
313,510; 1604,818;    0,526;   -0,500
314,105; 1403,539;   -3,565;    1,409
314,700; 1148,970;   -1,656;   -1,045
315,295; 1197,039;   -0,020;    0,045
315,890; 1077,762;   -0,292;    0,864
316,485; 1208,733;    0,253;   -0,318
317,080; 1187,887;   -0,929;    1,591
317,675; 1517,620;    3,071;   -0,682
318,270; 1676,372;    6,889;    3,318
318,865; 1594,272;    2,435;    3,045
319,460; 1360,504;   -1,565;    0,591
320,055; 1248,103;   -2,565;   -1,227
320,650; 1194,057;   -1,838;   -0,591
321,244; 1209,418;    0,889;   -1,409
321,839; 1389,814;    0,980;   -0,227
322,434; 1409,521;   -0,111;   -1,591
323,029; 1277,599;   -0,474;    1,591
323,623; 1222,816;    0,798;    0,773
324,218; 1354,449;    2,707;    1,409
324,812; 1288,510;    0,889;    1,591
325,407; 1291,049;   -0,929;    2,045
326,002; 1389,791;    0,526;   -0,409
326,596; 1356,945;   -0,656;    1,318
327,191; 1237,203;   -0,383;   -1,045
327,785; 1137,218;   -0,747;   -0,227
328,379; 1257,478;   -0,383;    0,136
328,974; 1232,299;    1,798;   -3,955
329,568; 1309,340;    2,889;   -2,409
330,163; 1361,073;    2,435;    1,045
330,757; 1257,028;    0,253;    1,591
331,351; 1171,574;   -0,292;    0,682
331,945; 1180,220;   -0,383;    1,409
332,540; 1294,492;    1,617;   -0,591
333,134; 1253,224;    3,344;    0,773
333,728; 1234,853;    2,799;    0,318
334,322; 1207,101;    0,889;   -0,864
334,916; 1093,678;    0,344;    0,955
335,510; 1306,833;   -0,111;   -0,136
336,105; 1337,657;   -0,929;    1,591
336,699; 1169,336;   -1,292;    0,591
337,293; 1199,840;    1,071;    0,318
337,887; 1134,342;    0,071;    1,955
338,481; 1308,123;    2,980;    0,591
339,074; 1455,033;    2,071;    2,682
339,668; 1393,079;   -0,110;    1,227
340,262; 2058,327;    7,708;    3,227
340,856; 1567,124;    1,708;   -0,682
341,450; 1141,743;    0,708;    1,864
342,044; 1281,749;    1,799;    0,136
342,637; 1431,320;    1,162;   -2,136
343,231; 1449,482;   -1,474;    0,682
343,825; 1232,509;   -0,747;   -0,591
344,419; 1218,453;   -0,474;    0,500
345,012; 1813,380;    2,889;    4,045
345,606; 1603,872;   -0,656;    1,591
346,199; 1260,310;   -0,111;   -0,227
346,793; 1365,628;    2,525;    2,045
347,386; 1196,135;    0,889;   -1,136
347,980; 1050,257;   -0,838;   -0,045
348,573; 1159,664;   -1,748;    0,409
349,167; 1426,872;    6,161;    4,773
349,760; 1401,165;    2,252;    2,682
350,354; 1302,406;    1,616;    1,136
350,947; 1339,314;    2,798;    1,682
351,540; 1131,118;    0,616;   -1,409
352,134;  976,622;   -1,111;    1,136
352,727; 1037,851;   -0,657;    1,136
353,320; 1080,667;    2,343;    0,591
353,913;  966,812;   -1,929;    1,864
354,507; 1212,036;    0,434;   -1,227
355,100; 1117,531;    0,071;    0,864
355,693; 1485,672;    4,798;    2,409
356,286; 1210,341;    0,980;    2,773
356,879; 1081,182;   -0,475;    1,227
357,472; 1016,119;    0,980;    1,500
358,065; 1105,981;    3,161;    2,500
358,658;  972,173;    0,798;    2,318
359,251;  875,463;    0,252;   -0,591
359,844; 1050,228;    0,343;   -1,136
360,437; 1164,272;    0,252;    0,045
361,030; 1026,551;    0,525;   -0,682
361,623;  981,325;    0,434;    0,318
362,215; 1231,867;    0,979;    2,045
362,808; 1067,282;   -2,293;   -1,682
363,401;  997,982;    0,798;    0,136
363,994; 1239,903;    3,252;   -1,500
364,586;  996,751;    0,888;   -1,500
365,179;  956,692;   -0,203;   -1,136
365,772;  754,538;   -0,930;    2,045
366,364;  909,144;    1,524;   -3,227
366,957; 1046,118;    1,342;   -0,045
367,549;  950,201;   -0,203;   -0,864
368,142;  937,353;    0,978;   -1,500
368,734;  918,659;    2,523;   -2,136
369,327;  840,680;    2,341;   -0,500
369,919;  879,307;   -1,659;    0,409
370,512;  920,176;   -1,023;   -0,500
371,104; 1160,354;    2,704;    1,591
371,696; 1229,403;    1,703;   -0,955
372,289; 1072,503;    0,157;    1,136
372,881; 1018,271;    1,156;    1,318
373,473;  859,029;    4,064;    1,136
374,066;  978,646;    1,336;    0,500
374,658;  939,988;    0,879;    1,136
375,250;  901,878;   -1,668;   -1,409
375,842;  948,705;   -0,124;   -0,045
376,434;  879,332;   -2,762;   -0,409
377,026;  958,262;   -1,855;   -2,500
377,618;  972,560;    0,779;   -0,682
378,210;  877,104;    3,141;   -1,955
378,802;  815,482;    3,412;   -0,591
379,394; 1317,648;    3,411;    0,682
379,986; 1082,907;    1,138;   -0,955
380,578;  983,303;    1,410;    0,773
381,170; 1201,218;    0,320;    0,045
381,762; 1070,401;   -0,224;    1,409
382,354; 1025,942;   -0,223;   -1,318
382,945;  933,966;    0,870;    0,318
383,537;  886,520;    1,144;   -1,955
384,129;  913,982;    0,963;   -1,136
384,721; 1032,917;    0,418;    0,955
385,312;  923,977;   -1,399;   -0,955
385,904; 1071,993;   -0,945;    1,591
386,496;  900,705;    0,691;    1,045
387,087; 1089,189;    0,418;    2,500
387,679; 1005,489;   -0,401;    0,045
388,270; 1027,476;   -2,401;    2,045
388,862;  982,523;   -0,401;   -0,318
389,453;  888,620;    1,054;    1,045
390,045;  970,436;    3,236;   -2,682
390,636;  898,659;    0,144;   -0,591
391,227;  908,401;    2,054;   -0,045
391,819;  916,363;    0,781;    0,773
392,410; 1205,745;    0,600;    0,045
393,001; 1005,804;    1,600;   -1,591
393,593; 1099,934;    0,600;   -0,045
394,184; 1136,094;    0,873;   -0,409
394,775;  944,559;    1,146;    2,136
395,366;  940,343;    1,782;    0,773
395,957; 1166,220;   -2,400;    0,136
396,548; 1039,713;    1,054;    2,682
397,139; 1210,283;    2,236;    0,591
397,730; 1064,050;    0,873;    0,955
398,321; 1070,799;    0,509;    0,955
398,912; 1003,506;   -0,764;    0,136
399,503; 1054,673;   -1,945;   -1,409
400,094; 1038,357;   -1,582;    1,682
400,685; 1031,222;    3,600;    0,045
401,276;  923,791;   -0,400;   -0,955
401,867;  952,225;   -1,127;    0,773
402,458;  926,680;    1,509;   -2,318
403,048; 1105,920;    0,146;    0,591
403,639;  971,749;    1,509;    0,864
404,230; 1181,122;    0,691;    0,318
404,821; 1238,673;   -0,127;    0,045
405,411; 1118,011;   -0,763;   -2,591
406,002;  957,213;    3,237;   -1,136
406,592; 1245,970;    2,691;    0,045
407,183; 1078,888;    0,328;   -1,500
407,774; 1015,503;    1,419;   -0,136
408,364; 1029,787;    2,600;    0,409
408,954; 1144,696;   -0,036;    1,227
409,545; 1150,761;    1,873;    1,045
410,135; 1028,635;   -1,581;    0,500
410,726;  999,697;    0,783;    0,318
411,316; 1249,662;    2,237;    0,773
411,906; 1008,488;    0,146;   -0,409
412,497;  989,087;   -0,490;   -0,045
413,087;  967,655;    0,783;   -0,227
413,677;  954,246;   -2,490;    3,864
414,267;  918,845;   -1,035;    1,409
414,857;  879,442;    0,419;    4,227
415,448;  916,154;   -0,763;    0,500
416,038;  919,745;   -2,945;   -0,591
416,628;  965,038;    0,965;    0,409
417,218; 1043,972;   -1,762;    3,318
417,808; 1253,569;    0,965;   -0,409
418,398; 1088,398;   -1,035;    2,682
418,988;  945,710;   -2,217;    0,591
419,578; 1051,748;    3,601;    1,409
420,168; 1082,414;    0,692;   -0,955
420,757; 1217,703;    0,964;   -1,500
421,347; 1039,533;    1,601;   -0,227
421,937;  996,601;    3,329;    1,409
422,527; 1152,893;    2,602;   -0,773
423,116; 1304,574;    2,692;   -0,045
423,706; 1022,136;    2,965;    0,318
424,296;  923,574;    1,601;    0,682
424,885; 1175,755;    1,510;   -3,045
425,475; 1124,973;    1,147;   -2,864
426,065;  974,232;   -1,489;   -0,318
426,654;  955,312;    0,329;   -0,318
427,244; 1331,919;    1,147;    1,409
427,833; 1236,496;    1,056;   -0,500
428,423; 1078,489;    0,147;    1,136
429,012; 1166,445;    2,420;   -1,136
429,601; 1257,384;    2,057;    0,136
430,191; 1115,621;    2,511;    4,318
430,780;  929,867;   -1,671;   -0,409
431,369; 1240,029;    1,329;   -0,045
431,959; 1204,620;    1,693;    0,500
432,548; 1049,648;   -1,398;   -0,045
433,137;  972,840;    0,329;   -1,318
433,726; 1158,310;    0,148;    0,500
434,315; 1086,474;    0,148;    2,409
434,905; 1243,725;    0,693;    1,409
435,494; 1299,831;    3,148;    0,955
436,083; 1135,440;    1,420;   -0,955
436,672; 1175,996;    1,148;    0,500
437,261; 1118,089;    0,512;   -1,955
437,850; 1491,547;   -1,125;    0,682
438,439; 1527,130;    2,239;    1,955
439,027; 1642,289;    3,421;    1,773
439,616; 1611,915;    2,239;    1,227
440,205; 1281,661;    0,057;   -2,136
440,794; 1157,503;   -0,306;   -0,045
441,383; 1075,348;    1,603;   -0,591
441,971;  980,587;   -0,306;    0,591
442,560;  996,339;    0,603;   -1,773
443,149;  864,820;    3,060;   -1,318
443,737;  990,076;    0,968;   -2,318
444,326; 1001,182;    0,331;    0,318
444,915; 1070,415;   -1,851;    0,864
445,503; 1123,231;    0,058;   -0,318
446,092; 1426,208;    7,876;    2,136
446,680; 1392,881;    1,876;    0,318
447,269; 1306,863;   -1,487;   -0,318
447,857; 1218,214;    2,240;   -1,773
448,445; 1158,731;    2,149;    1,318
449,034; 1138,047;    0,876;   -1,136
449,622; 1109,146;    1,240;    3,500
450,210; 1533,783;    3,149;    2,227
450,799; 1450,115;    2,604;   -0,591
451,387; 1302,094;    1,786;   -0,591
451,975; 1286,729;   -1,305;    0,864
452,563; 1443,210;    0,422;    2,318
453,151; 1138,001;   -1,032;   -1,227
453,739; 1194,254;   -1,577;    0,136
454,328; 1410,687;    0,604;   -2,136
454,916; 1246,825;    1,150;   -0,136
455,504; 1255,246;    3,513;    1,227
456,092; 1132,775;    2,150;   -1,591
456,679; 1030,252;    0,604;    0,682
457,267; 1720,876;    3,604;    1,045
457,855; 1222,066;    3,241;    1,409
458,443;  940,178;   -0,304;    1,682
459,031; 1300,597;    1,332;    2,409
459,619; 1255,484;   -3,577;    2,864
460,206; 1079,654;   -0,759;    2,045
460,794; 1106,048;   -0,668;   -0,227
461,382; 1199,759;    0,878;   -0,864
461,970; 1111,208;    0,605;    1,864
462,557; 1048,012;    0,878;   -0,682
463,145; 1291,825;   -0,304;   -1,682
463,732; 1618,278;    2,514;   -1,045
464,320; 1261,575;    1,514;   -3,045
464,907; 1477,405;    0,423;   -0,773
465,495; 1315,172;    2,696;   -1,227
466,082; 1183,643;    2,060;   -0,045
466,670; 1162,586;    2,605;    1,227
467,257; 1077,217;    0,060;    2,045
467,844; 1268,841;    1,514;    0,045
468,432; 1245,514;   -0,031;    3,500
469,019; 1118,203;    1,606;   -1,773
469,606; 1237,792;    0,969;    3,682
470,193; 1294,548;    2,151;    0,227
470,780; 1242,936;    0,333;    0,864
471,368; 1146,183;   -1,212;   -0,773
471,955; 1278,743;    1,060;   -0,682
472,542; 1182,057;   -0,303;   -1,136
473,129; 1009,154;   -0,485;    0,136
473,716;  999,092;    0,060;    0,591
474,303; 1060,745;    1,333;   -0,864
474,890; 1098,783;    2,333;   -0,500
475,477; 1250,435;   -0,576;    0,409
476,064; 1095,590;    0,697;   -1,591
476,650; 1242,824;    2,152;    0,318
477,237; 1134,915;    1,879;    0,955
477,824; 1102,787;    3,879;    0,864
478,411;  961,571;    0,606;   -0,318
478,997;  972,130;    0,606;   -0,773
479,584;  886,563;   -0,666;   -0,409
480,171; 1274,825;    1,243;   -0,773
480,757; 1368,965;   -0,848;    0,773
481,344; 1176,475;    0,334;    0,409
481,931;  943,522;   -0,393;    1,045
482,517; 1290,870;    0,425;    0,318
483,104; 1453,651;    1,334;    2,864
483,690; 1313,131;    0,243;    0,045
484,276; 1290,593;    0,698;    0,227
484,863; 1626,937;    2,152;    1,136
485,449; 1401,472;    0,152;    0,318
486,035; 1309,964;   -0,666;   -0,136
486,622; 1538,968;   -2,393;    0,045
487,208; 1384,811;    1,334;    1,500
487,794; 1272,974;    0,971;    0,318
488,380; 1310,133;    0,698;   -1,409
488,967; 1305,736;   -1,120;   -0,409
489,553; 1319,330;   -1,029;   -1,409
490,139; 1459,345;    0,971;    0,773
490,725; 1288,114;    0,789;   -0,227
491,311; 1296,160;    1,516;    3,045
491,897; 1119,094;   -0,665;    1,500
492,483; 1142,165;    0,426;    1,227
493,069; 1912,125;    5,426;    0,864
493,655; 1383,107;    1,789;    0,682
494,241; 1187,971;    1,517;   -0,955
494,826; 1281,867;    0,335;   -1,045
495,412; 1326,779;    0,335;   -0,682
495,998; 1214,848;    0,971;   -0,318
496,584; 1284,195;    2,244;    1,045
497,169; 1218,649;    2,335;   -0,682
497,755; 1093,860;    1,244;    1,227
498,341; 1470,277;    2,153;    0,318
498,926; 1623,500;    2,881;    1,955
499,512; 1236,717;   -0,028;    2,955
500,097; 1169,248;   -0,574;   -0,318
500,683; 1196,510;   -0,028;    2,136
501,268; 1171,075;    1,881;   -0,955
501,854; 1200,810;   -0,119;    1,227
502,439; 1124,502;   -0,573;   -1,773
503,024; 1239,784;    1,608;    0,500
503,610; 1299,216;    1,335;   -0,682
504,195; 1104,676;    1,245;    1,955
504,780; 1276,836;    2,335;    1,227
505,366; 1428,422;    4,063;    2,864
505,951; 1268,165;   -1,119;    1,045
506,536; 1178,753;    1,427;   -3,682
507,121; 1237,473;    1,699;   -0,318
507,706; 1230,044;   -0,392;    1,045
508,291; 1134,628;   -2,937;    1,136
508,876; 1092,460;   -0,482;    2,591
509,461; 1142,646;    1,427;   -0,773
510,046; 1241,161;   -0,391;    0,318
510,631; 1216,380;   -0,119;   -0,773
511,216; 1103,041;   -0,664;   -0,500
511,801; 1258,412;   -0,755;    2,591
512,386; 1283,354;    0,972;    0,500
512,971; 1306,409;    0,427;    0,955
513,555; 1340,518;    1,154;   -1,500
514,140; 1356,490;    1,336;   -3,136
514,725; 1458,849;    1,791;   -1,136
515,309; 1352,980;    1,064;    0,318
515,894; 1194,514;   -0,300;   -2,227
516,479; 1231,689;    1,973;   -0,955
517,063; 1208,068;    0,882;    1,227
517,648; 1204,829;    0,155;   -1,136
518,232; 1097,792;   -1,300;   -1,409
518,817; 1234,624;    1,337;    1,682
519,401; 1421,662;    0,700;    0,591
519,985; 1238,230;    2,700;    1,136
520,570; 1099,840;   -0,118;   -1,955
521,154; 1282,410;    0,064;    0,591
521,738; 1547,557;    1,064;    2,409
522,323; 1431,905;   -0,390;    1,682
522,907; 1335,983;    2,428;   -0,136
523,491; 1225,826;    1,155;    0,955
524,075; 1161,659;    0,428;    0,591
524,659; 1372,336;    0,973;    0,591
525,243; 1242,100;    0,883;    0,409
525,827; 1171,664;    0,883;   -0,045
526,411; 1239,972;    1,155;   -0,136
526,995; 1437,054;    0,337;    1,409
527,579; 1454,367;    1,974;   -1,045
528,163; 1378,778;    0,428;   -1,500
528,747; 1555,827;    1,065;   -0,773
529,331; 1504,242;    0,883;   -1,409
529,915; 1269,980;    2,338;    0,955
530,499; 1373,977;    0,247;    1,227
531,082; 1495,169;    1,065;    1,591
531,666; 1544,001;    0,520;    0,773
532,250; 1476,386;    0,428;    2,682
532,833; 1625,683;    0,610;    2,773
533,417; 1420,158;    1,247;    0,864
534,001; 1518,412;    0,429;   -0,318
534,584; 1478,320;    1,974;    0,500
535,168; 1287,576;    3,247;    1,409
535,751; 1699,649;    4,520;    0,045
536,334; 1323,361;    4,520;   -0,409
536,918; 1325,248;    1,974;    1,591
537,501; 1307,094;    1,520;    1,318
538,085; 1340,335;    1,702;    1,045
538,668; 1343,622;    0,883;    2,409
539,251; 1735,090;    3,156;    3,773
539,834; 1489,511;    0,156;    0,773
540,418; 1582,296;    3,247;    4,318
541,001; 1748,408;    2,702;    1,773
541,584; 1495,621;    1,429;    2,227
542,167; 1566,788;    0,702;    2,955
542,750; 1434,594;    0,793;   -0,773
543,333; 1212,234;    1,429;    2,136
543,916; 1542,596;   -0,298;    2,500
544,499; 1438,042;    2,520;    0,227
545,082; 1543,428;    0,248;    3,591
545,665; 1455,181;   -0,207;    1,500
546,248; 1613,780;    0,520;   -0,318
546,830; 1538,007;   -1,752;    1,955
547,413; 1579,563;    0,157;   -0,773
547,996; 1642,488;    0,157;    0,500
548,579; 1464,902;   -0,843;    0,955
549,161; 1721,288;    0,884;    2,682
549,744; 1603,702;    0,612;    0,409
550,326; 1562,264;    0,885;   -1,136
550,909; 2005,289;    2,339;    0,591
551,492; 1718,668;    0,521;    0,227
552,074; 1758,178;   -0,024;   -1,318
552,657; 1823,093;    2,430;    0,045
553,239; 1653,226;   -3,024;   -0,773
553,821; 1582,602;   -1,570;    1,045
554,404; 1766,718;   -0,024;    1,136
554,986; 1897,638;    2,248;    1,045
555,568; 1798,862;    0,430;   -0,955
556,151; 1952,421;    4,067;   -0,227
556,733; 1653,232;   -1,388;   -0,864
557,315; 1678,503;    4,703;    0,500
557,897; 1475,102;    0,521;   -0,500
558,479; 1499,849;    1,703;    1,318
559,061; 1614,103;    1,067;   -0,864
559,643; 1741,255;   -0,297;    0,045
560,225; 1774,975;   -0,388;    2,864
560,807; 1664,164;    0,340;    0,318
561,389; 1581,212;   -1,206;    2,318
561,971; 1649,806;   -0,660;    2,136
562,553; 1659,115;    0,613;    1,591
563,135; 1739,637;    1,249;    1,136
563,717; 2066,081;    3,158;    1,136
564,298; 1984,441;    3,976;   -0,045
564,880; 1703,348;    0,340;   -1,409
565,462; 1588,257;    1,977;    1,318
566,043; 1930,526;   -0,933;    2,318
566,625; 2057,244;    4,067;    1,227
567,207; 1825,670;    0,704;    1,682
567,788; 1833,348;   -0,114;    1,500
568,370; 1979,648;   -1,841;   -0,500
568,951; 1817,950;   -0,569;    0,227
569,533; 2002,403;    0,977;   -0,500
570,114; 2144,696;   -0,296;    0,682
570,695; 2165,480;   -0,478;   -1,318
571,277; 2139,036;   -0,205;   -1,682
571,858; 2359,955;    2,704;   -1,136
572,439; 2408,114;    0,795;   -1,045
573,021; 2377,657;    0,432;   -2,773
573,602; 2518,547;    1,795;    0,318
574,183; 2534,200;   -0,114;    2,227
574,764; 2569,899;    2,068;    0,409
575,345; 2668,628;    0,250;   -0,136
575,926; 2663,598;    2,704;    0,136
576,507; 2753,266;    2,704;   -0,227
577,088; 2844,990;    1,704;    1,682
577,669; 2982,057;    1,704;    1,955
578,250; 3213,836;   -0,750;   -1,045
578,831; 3068,212;   -0,841;   -2,227
579,412; 2940,344;   -1,205;    0,955
579,993; 3256,821;    1,432;    0,227
580,573; 3265,196;   -0,023;   -0,955
581,154; 2938,705;    1,613;   -0,591
581,735; 3145,500;    0,341;    0,773
582,315; 2988,228;    0,523;    2,136
582,896; 3174,444;   -1,750;    1,227
583,477; 3015,738;    0,614;    1,227
584,057; 3087,637;    1,159;    0,955
584,638; 3157,276;   -2,750;    2,318
585,218; 3352,620;    2,886;    2,682
585,799; 3254,827;    1,977;   -0,227
586,379; 3164,081;    1,250;    1,591
586,959; 3010,114;    2,613;    0,318
587,540; 2864,814;    0,432;    2,227
588,120; 2758,145;   -1,113;   -0,045
588,700; 2629,408;    2,977;    2,136
589,281; 2899,372;    1,250;   -0,955
589,861; 2780,790;   -0,296;   -1,682
590,441; 2697,026;   -1,477;   -2,682
591,021; 2481,813;    1,432;   -2,591
591,601; 2592,115;    0,431;    0,500
592,181; 2692,630;   -1,296;   -0,773
592,761; 2373,013;    2,250;    1,409
593,341; 2515,558;    1,522;    0,045
593,921; 2487,260;   -0,569;    1,591
594,501; 2379,299;    1,250;    1,318
595,081; 2365,246;    0,522;   -0,318
595,661; 2575,063;    1,068;    0,955
596,240; 2647,846;   -1,023;    0,136
596,820; 2762,869;    2,613;    1,955
597,400; 2508,586;    1,977;    0,773
597,980; 2544,599;   -0,750;    1,045
598,559; 2531,106;    0,341;   -0,227
599,139; 2501,703;   -0,750;   -1,227
599,718; 2479,612;    0,795;   -0,409
600,298; 2544,291;   -2,387;    0,682
600,877; 2884,442;    4,795;    1,409
601,457; 2806,193;    0,340;    1,136
602,036; 2681,925;    1,795;    2,045
602,616; 2626,227;    2,250;    1,682
603,195; 2759,549;    0,431;    3,500
603,774; 2670,415;   -0,296;    2,045
604,354; 2609,520;    2,522;   -0,500
604,933; 2503,363;    0,250;    1,864
605,512; 2694,270;    2,340;    0,591
606,091; 2689,214;    1,886;    3,773
606,671; 2746,199;    0,249;    0,773
607,250; 2720,671;    1,431;    3,136
607,829; 2750,385;    1,158;    3,227
608,408; 2637,467;    4,613;    2,591
608,987; 2567,022;    2,704;    3,409
609,566; 2450,526;    0,341;   -2,500
610,145; 2554,963;    2,885;    0,682
610,723; 2690,363;    1,613;    6,864
611,302; 2436,310;    1,067;    1,682
611,881; 2560,650;    5,158;   11,227
612,460; 2459,309;    0,795;    3,955
613,039; 2545,416;    1,703;    2,045
613,617; 2263,694;    0,886;    4,773
614,196; 2278,403;    1,613;    1,227
614,775; 2445,305;    1,249;    2,409
615,353; 2473,118;   -1,660;    0,864
615,932; 2370,231;    0,249;    2,409
616,510; 2509,478;    0,158;    0,591
617,089; 2882,163;    8,794;   17,591
617,667; 2553,694;    4,885;    6,136
618,246; 2181,323;   -1,115;    1,318
618,824; 2335,990;    1,612;   -0,955
619,402; 2288,544;    0,431;   -1,773
619,981; 2445,162;    1,067;   -1,045
620,559; 2438,082;    0,794;    1,682
621,137; 2446,767;    3,067;    1,864
621,715; 2114,258;    3,703;   -0,682
622,293; 2161,665;    1,885;   -0,773
622,871; 2438,957;    0,340;    0,500
623,450; 2279,126;    0,430;   -0,864
624,028; 2401,531;   -0,388;   -0,955
624,606; 2291,077;    2,339;    1,682
625,183; 2230,047;   -0,661;   -1,136
625,761; 2226,311;    1,885;    1,136
626,339; 2607,753;    2,339;    2,591
626,917; 2370,679;    0,339;   -0,045
627,495; 2380,434;    2,794;    1,318
628,073; 2333,856;    5,248;    2,864
628,650; 2282,965;    3,067;    2,136
629,228; 2367,550;    1,248;    4,409
629,806; 2091,528;   -0,024;    1,136
630,383; 2189,017;    0,066;   -0,318
630,961; 2169,985;   -2,206;   -0,955
631,539; 2114,179;   -2,479;    0,227
632,116; 2782,167;   12,703;   15,409
632,694; 2450,670;    4,885;    6,500
633,271; 2249,220;    1,975;    2,682
633,848; 2364,339;    1,430;    2,045
634,426; 2181,133;    1,521;    1,773
635,003; 2017,825;   -0,207;   -0,409
635,580; 2350,882;    1,884;    3,682
636,158; 2220,389;    3,793;    1,227
636,735; 2079,132;    3,339;   -0,500
637,312; 2078,560;    0,521;   -0,682
637,889; 2097,815;    2,248;   -0,682
638,466; 2080,832;    0,066;   -0,409
639,043; 2059,862;    1,702;   -1,136
639,620; 2053,578;    0,611;   -0,955
640,197; 2217,479;    1,612;    1,682
640,774; 2215,591;    1,430;    1,136
641,351; 2280,158;    0,612;    1,136
641,928; 2284,361;    2,794;    1,409
642,505; 2398,018;    0,794;   -0,500
643,082; 2324,494;    1,885;    1,227
643,658; 1974,060;    1,157;    1,500
644,235; 2088,445;   -2,479;    2,500
644,812; 2230,103;    1,794;    0,773
645,388; 2185,306;    1,612;    1,409
645,965; 1971,054;    1,521;    1,682
646,542; 2002,166;    3,430;   -0,227
647,118; 2437,187;    3,703;   -0,955
647,695; 2287,481;    0,339;    1,136
648,271; 2077,775;   -2,115;    0,500
648,848; 2198,069;    0,248;    2,227
649,424; 2313,454;    0,976;    1,318
650,000; 2020,748;   -0,388;   -1,045
650,577; 2117,223;    0,158;   -0,955
651,153; 2237,790;   -1,115;    0,955
651,729; 2219,720;    0,521;    0,864
652,305; 2465,741;    1,339;    2,773
652,881; 2823,126;   -1,297;    1,136
653,458; 3613,056;    0,249;    0,227
654,034; 4166,532;    0,703;    1,591
654,610; 4249,189;    0,339;    0,773
655,186; 4703,483;    1,612;    3,045
655,762; 4425,414;   -1,842;    0,409
656,338; 4381,162;    0,703;    0,136
656,913; 4706,183;   -0,297;    0,409
657,489; 4472,113;    0,249;   -0,318
658,065; 4588,771;    0,794;   -1,591
658,641; 4834,337;    2,158;   -0,864
659,217; 4586,995;    2,067;    0,409
659,792; 4328,562;   -1,751;   -0,409
660,368; 4467,401;   -0,388;   -0,682
660,944; 4705,786;    1,794;    1,227
661,519; 4131,989;    0,522;    0,409
662,095; 3232,646;   -0,206;    0,591
662,670; 2505,576;   -0,206;   -0,136
663,246; 2451,870;   -0,660;   -0,409
663,821; 2462,255;    0,431;    1,682
664,396; 2199,458;    0,613;    1,864
664,972; 2236,934;   -0,660;   -0,500
665,547; 2378,046;    3,794;    0,136
666,122; 2313,794;    1,340;    0,318
666,698; 2503,815;    2,431;    0,318
667,273; 2132,473;    0,885;    0,136
667,848; 2316,858;    0,340;    1,500
668,423; 2384,788;    1,795;    2,318
668,998; 2339,627;    0,976;   -0,682
669,573; 2402,285;    2,067;   -1,500
670,148; 2514,942;    1,885;   -0,682
670,723; 2255,327;   -0,024;    0,318
671,298; 2628,166;   -1,296;    1,045
671,873; 2493,460;   -0,296;   -0,136
672,448; 2477,300;    1,704;    0,136
673,023; 2508,502;    0,249;   -0,227
673,597; 2686,160;    2,704;    2,318
674,172; 2640,363;    2,431;    0,318
674,747; 2501,475;   -0,205;   -1,045
675,321; 2324,587;   -0,933;    3,318
675,896; 2189,063;    2,158;    1,045
676,471; 2433,266;    2,522;    1,591
677,045; 2332,014;   -0,296;    0,682
677,620; 2340,490;    2,158;    1,136
678,194; 2400,329;    0,249;    1,136
678,769; 2363,987;    0,886;   -0,318
679,343; 2426,099;   -0,023;    1,773
679,917; 2476,847;    0,340;    1,955
680,492; 2345,141;    0,249;    3,227
681,066; 2400,344;    0,613;    0,409
681,640; 2400,183;    1,795;   -0,318
682,214; 2519,841;    2,340;    0,500
682,788; 2428,226;    0,613;   -0,773
683,363; 2474,429;    1,977;    1,682
683,937; 2320,086;    0,886;   -0,318
684,511; 2547,107;   -1,023;   -0,591
685,085; 2493,037;   -1,478;    0,318
685,659; 2345,786;    1,431;    0,864
686,232; 2564,625;    1,159;   -0,318
686,806; 2469,101;    2,159;    0,409
687,380; 2544,577;   -1,932;    0,591
687,954; 2573,870;    2,432;    1,136
688,528; 2662,528;    2,613;    1,955
689,101; 2743,640;    0,432;    1,045
689,675; 2517,570;    0,886;   -0,136
690,249; 2568,682;    3,432;    0,409
690,822; 2645,249;    1,159;    0,318
691,396; 2517,816;    2,068;    1,227
691,969; 2407,746;    2,523;    0,136
692,543; 2508,403;   -0,568;   -1,955
693,116; 2300,061;   -0,659;   -1,409
693,690; 2351,355;   -0,296;    0,500
694,263; 2511,739;    2,341;    2,955
694,836; 2730,124;    2,795;    3,591
695,410; 2436,873;    1,159;    1,773
695,983; 2482,530;    1,614;    0,591
696,556; 2375,279;   -0,750;   -1,045
697,129; 2443,391;   -1,114;    1,409
697,703; 2421,230;    1,341;    1,955
698,276; 2444,524;    1,705;   -0,773
698,849; 2474,818;   -1,023;    1,409
699,422; 2339,657;    1,250;    0,591
699,995; 2227,405;   -0,659;    0,136
700,568; 2429,790;   -0,204;    3,045
701,140; 2432,993;   -1,841;    1,682
701,713; 2531,651;    0,341;    2,409
702,286; 2441,035;    0,796;    0,864
702,859; 2434,693;    0,614;   -0,591
703,432; 2374,896;   -0,841;    0,682
704,004; 2366,826;    1,978;    0,318
704,577; 2175,938;    1,068;    0,136
705,150; 2277,232;    0,887;    2,500
705,722; 2394,890;    1,523;   -3,227
706,295; 2418,547;    1,432;   -0,591
706,867; 2233,841;    0,250;    1,955
707,440; 2433,135;   -0,113;   -0,409
708,012; 2495,338;   -0,022;    0,591
708,584; 2353,632;    2,705;    0,227
709,157; 2341,380;    1,160;   -0,591
709,729; 2463,219;    1,069;    2,045
710,301; 2597,059;   -1,204;    0,045
710,874; 2546,444;    0,341;   -0,227
711,446; 2168,647;   -0,295;    0,864
712,018; 2268,940;   -3,022;    0,500
712,590; 2187,234;   -0,204;    1,682
713,162; 2501,619;   -0,477;    1,318
713,734; 2398,640;    1,796;   -2,045
714,306; 2361,480;    0,342;   -0,409
714,878; 2170,683;   -0,295;    0,864
715,450; 2313,522;   -0,113;    0,864
716,022; 2346,270;    2,433;    1,318
716,593; 2379,110;    0,978;    0,591
717,165; 2426,403;    1,796;   -1,227
717,737; 2554,061;    0,796;    0,409
718,309; 2380,628;    1,160;   -0,045
718,880; 2310,376;   -1,295;   -1,409
719,452; 2415,215;    0,887;   -1,591
720,024; 2363,236;    1,705;   -0,591
720,595; 2369,167;    2,978;    0,955
721,167; 2257,551;    1,160;   -2,045
721,738; 2253,936;    2,069;   -1,045
722,309; 2287,048;    1,251;   -1,227
722,881; 2155,706;    2,705;    0,773
723,452; 2376,818;    1,251;    2,864
724,023; 2428,021;    1,524;    2,682
724,595; 2442,951;    2,342;    0,682
725,166; 2237,518;    1,524;   -0,409
725,737; 2382,721;    1,887;    0,227
726,308; 2301,287;    0,797;    0,318
726,879; 2219,399;    1,069;    1,227
727,450; 2359,693;   -2,022;   -0,045
728,021; 2237,987;    1,069;    0,682
728,592; 2396,099;    1,160;    0,500
729,163; 2523,757;    1,433;   -0,136
729,734; 2495,687;    2,160;   -0,227
730,305; 2382,526;    0,615;    0,136
730,876; 2383,456;    0,888;    2,955
731,447; 2663,114;    0,797;    2,682
732,017; 2555,499;   -0,840;    1,864
732,588; 2422,793;   -0,021;    1,227
733,159; 2593,541;    3,615;   -1,045
733,729; 2340,380;    1,251;    0,409
734,300; 2368,765;    0,160;    0,864
734,870; 2309,786;   -1,385;    0,591
735,441; 2358,898;    0,888;   -0,591
736,011; 2229,556;    1,070;   -1,591
736,582; 2256,122;    1,251;    0,045
737,152; 2218,416;    0,979;   -2,045
737,722; 2315,892;    1,070;   -0,682
738,293; 2171,913;   -2,021;    1,318
738,863; 2337,389;    1,797;    2,318
739,433; 2562,137;    4,524;    0,318
740,003; 2457,067;    1,524;   -0,682
740,573; 2466,452;    2,252;   -1,591
741,143; 2404,746;    3,615;    0,318
741,713; 2400,676;    0,252;   -0,500
742,283; 2367,607;    1,706;    1,591
742,853; 2262,264;    0,524;    1,591
743,423; 2117,649;    0,161;    0,045
743,993; 2182,579;    1,070;    1,500
744,563; 2064,873;    2,524;   -0,864
745,133; 2115,440;   -0,112;   -0,864
745,702; 2233,643;    2,797;    1,773
746,272; 2241,118;    0,434;    0,591
746,842; 2237,776;   -0,748;   -0,591
747,411; 2164,615;   -0,839;   -0,318
747,981; 2100,909;   -0,930;    0,500
748,551; 2136,203;   -0,021;   -1,045
749,120; 2215,042;   -0,112;   -0,227
749,690; 2242,063;    2,161;    2,409
750,259; 2366,630;    0,979;    2,955
750,828; 2359,742;    4,070;   -1,955
751,398; 2243,854;   -0,112;   -0,045
751,967; 2568,693;    2,888;    0,409
752,536; 2316,624;    1,161;   -0,227
753,105; 2443,736;   -1,384;    0,227
753,675; 2253,939;   -0,112;    1,773
754,244; 2247,596;    0,888;    3,591
754,813; 2279,708;    0,979;    1,227
755,382; 2191,548;    0,798;    0,955
755,951; 2327,569;   -0,112;    3,682
756,520; 2398,226;    2,525;    1,864
757,089; 2611,156;    1,888;    0,500
757,658; 2330,087;    2,434;    1,227
758,227; 2213,562;   -1,111;    0,318
758,795; 2304,856;   -1,021;    1,136
759,364; 2443,605;    0,525;   -0,591
759,933; 2149,444;    1,343;   -0,045
760,501; 2089,556;    0,252;   -1,318
761,070; 2242,850;   -0,293;   -1,409
761,639; 2475,689;    1,434;    1,318
762,207; 2310,256;    0,889;   -0,955
762,776; 2349,095;    2,889;    0,864
763,344; 2225,025;    0,071;    0,591
763,913; 1908,592;    1,616;    1,409
764,481; 2544,159;    1,980;   -0,136
765,049; 2494,907;    0,616;    1,409
765,618; 2365,201;    1,434;    0,318
766,186; 2266,767;    2,434;    0,136
766,754; 2299,607;    1,798;    1,864
767,322; 2001,355;    1,162;    0,409
767,890; 1973,649;    0,525;   -1,773
768,459; 2169,943;    2,616;   -0,318
769,027; 2366,691;    2,525;    3,409
769,595; 2084,985;    2,616;    2,591
770,163; 2132,006;    3,344;    2,955
770,730; 2109,300;    2,525;   -0,136
771,298; 2100,958;    1,162;   -1,409
771,866; 2095,888;    0,253;    4,955
772,434; 2125,636;    1,162;   -1,864
773,002; 2387,658;    2,616;    0,682
773,569; 2241,679;    1,071;    1,682
774,137; 2309,973;    0,889;   -0,045
774,705; 2299,721;   -0,747;   -0,136
775,272; 2130,560;    0,253;    0,682
775,840; 2238,218;   -0,111;    2,682
776,407; 2181,512;   -0,293;    1,955
776,975; 1938,806;    1,162;    0,318
777,542; 2121,645;    2,162;   -0,045
778,110; 2147,121;    0,707;   -0,045
778,677; 1982,596;    1,071;   -0,864
779,244; 2016,072;   -1,020;    1,045
779,812; 2180,548;    0,980;    0,864
780,379; 2195,478;    2,435;    1,136
780,946; 2078,772;    2,617;   -0,773
781,513; 2114,884;   -0,565;    0,318
782,080; 1955,814;    1,253;    2,864
782,647; 2083,563;    1,708;    3,045
783,214; 2020,856;   -0,201;    3,864
783,781; 2113,241;    1,708;   -0,682
784,348; 2106,171;    0,253;    1,500
784,915; 1978,283;   -1,474;    0,318
785,482; 2122,305;    2,708;    2,591
786,049; 2209,598;    1,071;   -0,591
786,615; 2136,983;    1,708;   -0,955
787,182; 2064,914;   -3,201;   -0,682
787,749; 2036,207;   -2,201;    1,409
788,315; 2029,138;    0,253;   -0,409
788,882; 2058,159;    0,981;   -1,227
789,448; 2336,634;    1,435;   -0,955
790,015; 2156,383;    1,799;    3,227
790,581; 2246,677;    0,708;    0,227
791,148; 2044,607;    1,344;    1,045
791,714; 2050,355;   -1,019;    3,136
792,280; 2013,013;    3,708;    1,591
792,847; 1949,125;   -0,928;    2,500
793,413; 2029,692;   -0,110;   -0,318
793,979; 2099,349;    1,526;   -1,318
794,545; 2421,825;    2,981;    2,682
795,111; 2198,210;    2,435;    1,318
795,678; 2085,231;    3,526;   -1,682
796,244; 2255,797;    2,799;    0,136
796,810; 2204,000;    0,799;    0,773
797,375; 2171,021;   -0,292;   -2,136
797,941; 1826,861;   -1,110;    0,591
798,507; 1806,609;    0,254;   -0,955
799,073; 1811,903;    2,708;    0,591
799,639; 1902,106;    1,435;    3,136
800,205; 1846,854;   -1,565;    2,682
800,770; 1783,057;    1,345;    1,773
801,336; 1745,624;    2,981;   -0,955
801,901; 2355,009;    6,072;    3,136
802,467; 2106,212;    0,526;    2,045
803,033; 1757,687;   -0,019;    0,864
803,598; 1769,072;    1,072;   -1,045
804,163; 1834,457;    0,708;   -0,318
804,729; 1907,205;   -0,110;    1,136
805,294; 1835,136;    1,072;    2,227
805,859; 1738,611;    0,890;   -0,409
806,425; 2095,723;    3,890;    2,682
806,990; 2050,017;    1,890;    4,318
807,555; 1878,584;   -0,110;    2,591
808,120; 2020,787;   -1,292;   -0,409
808,685; 1745,081;    1,072;   -2,500
809,250; 1621,829;    2,072;   -0,500
809,815; 1732,305;   -0,201;    0,682
810,380; 1933,871;    0,981;    1,591
810,945; 2063,074;    2,890;    2,045
811,510; 1905,277;   -0,200;    1,591
812,075; 1829,480;    2,800;   -1,409
812,640; 2081,411;    3,709;    1,409
813,204; 1886,977;    2,163;   -0,227
813,769; 2111,816;    0,254;   -0,045
814,334; 2033,838;    0,527;    0,864
814,898; 1820,313;    1,981;    0,591
815,463; 1828,425;    0,981;   -0,773
816,027; 1766,901;    1,345;   -2,318
816,592; 1799,013;    2,163;   -2,045
817,156; 1817,125;   -2,200;    1,136
817,721; 1860,783;    0,982;    2,318
818,285; 1683,804;    0,618;    1,500
818,849; 1813,280;   -0,018;    1,682
819,414; 1712,210;    0,073;    2,955
819,978; 1635,958;   -0,291;    1,773
820,542; 2047,707;    2,891;    0,500
821,106; 1885,364;    2,800;    0,682
821,670; 2028,385;    2,709;    2,591
822,234; 1789,043;    1,073;    1,409
822,798; 1641,337;   -0,836;    0,500
823,362; 1929,267;    1,527;    4,227
823,926; 1659,015;   -0,018;    1,136
824,490; 1863,582;    3,527;   -0,682
825,054; 1785,148;    2,527;   -1,136
825,618; 1634,351;   -1,200;   -1,500
826,181; 1654,464;    0,982;   -1,318
826,745; 1713,030;   -0,745;   -1,045
827,309; 1990,324;    2,255;    1,318
827,872; 1833,527;    0,527;    0,955
828,436; 1826,366;    1,982;   -0,773
828,999; 1800,115;    2,436;    1,227
829,563; 1711,318;   -0,654;    1,136
830,126; 1644,975;   -0,018;   -0,591
830,690; 1675,269;    0,709;    2,864
831,253; 1547,199;   -0,473;    2,227
831,816; 1618,857;   -0,018;    0,500
832,380; 1542,605;    1,164;    0,864
832,943; 1545,808;    3,073;   -0,500
833,506; 1555,284;    0,255;   -1,227
834,069; 1794,760;    2,164;   -0,955
834,632; 1700,781;   -2,200;    1,318
835,195; 1692,802;    1,346;    0,955
835,758; 1580,550;    0,709;    1,955
836,321; 1512,390;    1,073;   -1,045
836,884; 1533,047;   -1,291;   -0,955
837,447; 1533,068;    0,528;    1,773
838,010; 1665,271;    1,800;    3,227
838,573; 1755,747;    0,528;    0,773
839,135; 1668,041;   -0,109;   -0,955
839,698; 1573,244;    2,528;    0,409
840,261; 1500,265;    0,255;   -0,227
840,823; 1462,104;   -0,927;    0,864
841,386; 1466,853;   -0,018;   -2,409
841,948; 1792,965;    0,255;    1,773
842,511; 1505,622;    0,255;    1,682
843,073; 1750,916;    2,982;    0,227
843,636; 1513,028;    0,619;   -0,227
844,198; 1724,777;    1,255;    0,591
844,760; 1692,889;    0,619;    1,955
845,322; 1454,728;    0,164;    1,136
845,885; 1609,931;   -0,290;    0,591
846,447; 1622,861;    0,710;    0,227
847,009; 1901,882;    3,983;   -0,682
847,571; 1627,994;    1,346;   -2,045
848,133; 1591,561;   -0,199;   -1,864
848,695; 1453,764;    2,346;    1,409
849,257; 1491,421;    1,346;   -1,682
849,819; 1665,443;    2,983;   -0,409
850,381; 1537,827;    1,801;   -0,864
850,942; 1617,485;    1,892;   -0,591
851,504; 1628,961;    0,983;    0,227
852,066; 1552,709;    1,619;   -1,591
852,628; 1552,821;    0,165;    1,955
853,189; 1381,479;    0,256;    2,682
853,751; 1440,409;   -0,654;    1,409
854,312; 1608,975;    1,256;   -1,682
854,874; 1769,087;   -0,108;   -0,773
855,435; 1592,290;    0,528;   -1,682
855,997; 1698,312;    3,983;   -0,136
856,558; 1685,060;    0,801;    1,773
857,119; 1556,536;   -0,744;    2,864
857,681; 1406,102;   -0,108;    0,318
858,242; 1634,214;    1,347;   -2,136
858,803; 1714,872;    1,074;   -0,773
859,364; 1655,347;    0,892;   -4,773
859,925; 1685,823;   -0,290;   -0,955
860,486; 1577,572;    0,529;   -0,955
861,047; 1449,411;    0,165;   -1,227
861,608; 1478,250;    0,165;   -0,773
862,169; 1449,090;   -0,562;   -0,045
862,730; 1482,838;   -0,290;    1,409
863,291; 1537,859;    0,438;   -0,500
863,852; 1518,608;   -0,926;    1,955
864,412; 1465,538;   -1,835;   -0,864
864,973; 1600,923;    1,892;    0,500
865,534; 1753,126;    2,074;    0,227
866,094; 1607,783;    2,620;    0,227
866,655; 1696,531;    4,711;    3,318
867,215; 1559,734;    0,074;    0,136
867,776; 1485,574;   -1,199;   -0,136
868,336; 1521,686;    1,529;    0,136
868,897; 1856,252;    3,438;    1,682
869,457; 1641,728;    3,256;    0,318
870,017; 1488,749;    2,438;   -1,227
870,578; 1519,861;    1,893;    0,773
871,138; 1472,519;    2,620;   -0,955
871,698; 1350,449;   -0,562;   -1,318
872,258; 1460,743;    0,711;   -2,864
872,818; 1697,673;    2,347;    0,045
873,378; 1503,058;   -2,198;    1,045
873,938; 1430,261;    4,984;    0,500
874,498; 1351,555;    1,256;   -1,955
875,058; 1414,485;    4,347;    1,773
875,618; 1415,688;    1,438;   -2,682
876,177; 1467,255;   -0,471;    0,136
876,737; 1220,094;   -0,289;    1,955
877,297; 1654,570;    2,711;    1,955
877,856; 1566,500;    2,529;    0,318
878,416; 1307,885;    2,438;   -0,136
878,976; 1315,633;    3,438;    0,409
879,535; 1391,109;    4,529;    3,136
880,095; 1371,312;    1,347;    0,045
880,654; 1263,696;    0,347;    1,318
881,213; 1602,990;    2,347;    1,500
881,773; 1403,830;    1,984;    2,682
882,332; 2021,760;    6,075;    5,136
882,891; 1451,872;    0,711;    2,136
883,451; 1463,075;   -2,016;    1,682
884,010; 1355,914;   -1,107;   -0,409
884,569; 1322,026;   -2,289;   -0,045
885,128; 1527,320;   -0,743;   -1,864
885,687; 1812,250;   -0,743;    0,682
886,246; 1968,544;    2,620;    2,136
886,805; 1667,293;    1,620;    2,045
887,364; 1365,950;    1,166;   -0,500
887,922; 1285,517;   -0,016;    0,045
888,481; 1415,447;    1,530;    0,591
889,040; 1577,286;    3,711;    2,136
889,599; 1478,762;    2,166;    1,409
890,157; 1469,238;    2,166;    2,409
890,716; 1367,350;    2,166;    0,227
891,274; 1452,462;    0,075;   -1,136
891,833; 1548,392;    1,166;    0,864
892,391; 1373,595;    1,802;    0,500
892,950; 1575,616;    0,166;   -0,773
893,508; 1378,546;    0,984;   -0,409
894,067; 1238,659;   -0,379;    0,136
894,625; 1345,771;   -1,016;   -1,500
895,183; 1307,246;   -0,198;   -0,682
895,741; 1620,358;    2,257;   -1,773
896,299; 1399,834;    1,621;   -2,409
896,858; 1308,582;    1,530;   -1,591
897,416; 1447,240;    0,166;   -1,318
897,974; 1380,716;   -2,197;    0,318
898,532; 1893,646;    6,530;    2,682
899,089; 1516,576;    0,621;   -0,682
899,647; 1400,597;    0,530;    1,318
900,205; 1431,618;    0,257;    1,045
900,763; 1449,549;    2,166;    0,227
901,321; 1416,661;    3,530;   -1,409
901,878; 1218,682;    3,257;   -0,773
902,436; 1255,703;    0,257;    1,318
902,994; 2086,542;    6,712;    3,682
903,551; 1559,927;    1,439;    0,409
904,109; 1460,948;    1,530;   -1,409
904,666; 1396,879;    1,439;    1,045
905,224; 1269,536;    3,894;   -0,409
905,781; 1404,375;   -0,470;   -0,318
906,338; 1332,396;    0,167;    1,045
906,895; 1218,418;    1,894;    2,045
907,453; 1504,621;    2,348;    1,136
908,010; 1346,824;    3,348;    0,409
908,567; 1277,481;   -0,561;    0,591
909,124; 1094,684;    2,439;   -1,500
909,681; 1153,978;   -1,288;    0,682
910,238; 1243,999;   -0,106;   -1,318
910,795; 1226,020;   -1,561;   -1,136
911,352; 1213,566;   -0,379;   -2,682
911,909; 1192,384;    2,803;   -0,864
912,466; 1245,838;    1,985;    1,500
913,022; 1248,657;   -0,924;    0,500
913,579; 1383,929;   -0,470;    2,045
914,136; 1231,747;   -2,561;    0,955
914,692; 1304,293;    1,530;   -1,227
915,249; 1220,111;    0,530;    0,409
915,806; 1313,838;    1,803;    1,955
916,362; 1211,293;    0,894;    1,864
916,918; 1110,202;    2,439;    1,045
917,475; 1324,657;    1,621;    0,955
918,031; 1150,838;    0,076;   -0,045
918,587; 1211,384;    0,621;   -0,318
919,144; 1141,657;   -0,379;    0,227
919,700; 1105,566;    0,167;    0,773
920,256; 1058,384;    0,439;    0,045
920,812; 1081,293;    1,439;   -1,045
921,368; 1041,566;    1,348;   -1,045
921,924; 1031,566;    0,439;   -0,136
922,480; 1114,475;    0,076;    1,227
923,036; 1158,202;   -0,652;    1,955
923,592; 1065,838;    0,621;    0,318
924,148; 1086,111;    1,894;   -0,955
924,704; 1220,929;    0,258;   -0,409
925,259; 1084,657;   -0,561;    0,591
925,815; 1016,929;    3,803;    0,500
926,371;  981,475;    3,530;    1,409
926,926; 1130,566;    1,621;    0,591
927,482; 1088,111;    1,621;    0,773
928,037; 1015,838;   -0,833;    2,045
928,593; 1230,747;    0,258;    1,045
929,148;  986,566;    1,167;   -1,500
929,704; 1037,475;    2,439;   -0,500
930,259;  921,475;    0,894;   -0,136
930,814; 1107,747;    1,803;    1,955
931,369; 1032,384;    0,258;   -0,773
931,925;  818,747;   -1,924;    0,136
932,480;  919,566;    3,076;   -2,591
933,035; 1310,293;    3,985;   -0,318
933,590; 1174,838;   -1,742;   -1,773
934,145;  779,838;   -1,288;   -0,318
934,700;  721,657;    0,348;   -0,591
935,255;  786,111;    4,803;    0,045
935,809; 1087,929;    6,258;    0,864
936,364;  693,747;    2,167;   -0,136
936,919;  703,020;    2,348;   -1,773
937,474;  622,747;    1,348;    0,136
938,028;  649,111;    3,076;    1,136
938,583; 1039,111;    6,348;    4,682
939,138;  705,657;    0,167;    2,136
939,692;  558,657;   -1,015;   -1,136
940,247;  581,202;    1,167;   -1,045
940,801;  645,747;    0,621;    0,227
941,355;  559,111;    0,439;    2,591
941,910;  452,020;    0,712;   -2,136
942,464;  491,293;    2,712;   -0,318
943,018;  737,747;    3,258;   -0,227
943,572;  569,838;    2,803;   -0,682
944,126;  603,475;   -0,924;   -0,409
944,681;  478,657;    0,712;    0,227
945,235;  429,929;    2,167;   -0,591
945,789;  398,566;    1,258;   -1,864
946,342;  684,202;   -0,561;   -0,591
946,896;  446,747;    0,348;    0,955
947,450;  414,384;   -0,561;   -0,227
948,004;  651,202;    1,076;   -0,045
948,558;  468,929;    1,258;   -0,864
949,111;  460,929;   -1,197;   -0,318
949,665;  655,293;   -0,106;   -0,682
950,219;  605,020;    0,621;   -1,045
950,772;  529,384;    0,258;    1,864
951,326;  531,929;   -1,106;   -0,955
951,879;  457,202;    1,076;   -2,318
952,433;  584,838;    1,348;    2,227
952,986;  418,293;    0,348;    0,682
953,539;  382,838;    1,530;    0,591
954,093;  344,929;    0,985;   -1,318
954,646;  468,020;   -0,288;    1,318
955,199;  386,020;    1,258;   -0,500
955,752;  596,020;    1,985;    1,773
956,305;  448,111;    0,894;    2,955
956,858;  498,566;    0,621;   -0,318
957,411;  564,475;    3,621;    2,136
957,964;  462,202;    2,076;    2,136
958,517;  391,384;    0,985;    3,136
959,070;  336,657;   -1,197;    1,955
959,623;  609,747;    1,076;    1,500
960,176;  556,566;    0,712;    2,045
960,728;  520,566;    1,712;    0,773
961,281;  467,657;    2,258;    0,500
961,834;  391,929;   -0,833;    0,864
962,386;  403,020;    1,258;    1,045
962,939;  362,111;    3,439;   -0,318
963,491;  413,384;    2,621;    1,136
964,043;  348,111;    0,076;    2,409
964,596;  522,657;    1,712;    2,227
965,148;  423,566;   -0,379;    1,773
965,700;  338,475;   -0,015;   -0,227
966,253;  502,293;   -0,833;    0,318
966,805;  458,384;    1,894;    0,773
967,357;  389,929;    0,439;   -1,500
967,909;  486,838;    1,167;   -1,227
968,461;  385,657;    0,894;    3,136
969,013;  341,293;   -1,561;   -0,864
969,565;  490,657;    1,803;   -1,136
970,117;  726,293;    3,803;    1,045
970,669;  495,929;    3,258;   -0,136
971,220;  302,838;    2,167;   -1,500
971,772;  381,475;    1,348;   -0,318
972,324;  472,838;   -1,197;   -0,500
972,876;  386,929;    0,167;   -0,045
973,427;  502,020;   -1,197;   -1,045
973,979;  572,475;    0,076;   -2,500
974,530;  374,202;    0,803;    1,318
975,082;  439,020;    2,167;    1,682
975,633;  379,838;    2,894;    1,682
976,184;  441,475;    2,076;    0,773
976,736;  433,202;    0,348;    0,227
977,287;  435,929;    0,258;   -0,500
977,838;  407,838;   -0,924;   -0,318
978,389;  413,475;    0,803;   -0,500
978,940;  290,384;    1,258;   -0,409
979,491;  285,566;    2,258;   -0,500
980,042;  374,566;   -0,652;    3,045
980,593;  389,929;    1,894;    0,227
981,144;  479,475;    3,530;   -0,500
981,695;  509,566;   -0,470;    1,500
982,246;  458,384;   -1,833;    1,045
982,797;  333,202;   -0,561;    0,682
983,347;  480,747;    2,167;    0,591
983,898;  674,384;    4,167;    0,409
984,449;  627,384;    2,530;    0,773
984,999;  474,929;    1,894;   -1,136
985,550;  427,747;    3,167;   -0,318
986,100;  305,111;    0,712;   -0,318
986,651;  299,657;    0,258;    0,045
987,201;  329,929;    0,894;   -0,591
987,751;  345,202;   -0,288;    2,864
988,302;  381,111;   -0,379;    1,500
988,852;  423,657;    1,985;   -1,136
989,402;  481,747;    0,985;    0,682
989,952;  504,293;    1,621;    0,864
990,502;  371,111;    1,076;    0,682
991,052;  279,657;   -0,106;    0,045
991,602;  314,111;    1,167;    1,318
992,152;  361,020;    2,803;    0,682
992,702;  396,202;    1,167;   -0,045
993,252;  342,747;    0,076;   -0,500
993,802;  431,475;    1,167;    1,318
994,352;  400,111;   -0,742;    1,136
994,901;  321,838;    1,076;    3,227
995,451;  310,475;   -1,197;    0,318
996,000;  337,111;    1,076;    0,318
996,550;  337,475;    2,894;    0,227
997,100;  375,838;   -0,561;   -0,045
997,649;  514,384;   -0,197;    0,955
998,198;  344,838;   -0,288;   -1,500
998,748;  445,929;    0,348;   -2,318
999,297;  381,384;    0,985;   -0,409
999,846;  505,111;    1,894;   -0,773
1000,395;  426,020;    1,530;    0,500
1000,945;  531,566;    1,076;   -0,773
1001,494;  526,111;    0,167;    0,682
1002,043;  508,838;    0,712;    0,864
1002,592;  345,838;    3,439;    1,955
1003,141;  337,566;    2,439;   -0,682
1003,690;  477,657;    1,258;    0,500
1004,238;  367,384;   -0,106;   -0,045
1004,787;  280,566;   -1,288;    1,227
1005,336;  453,111;    1,621;    0,682
1005,885;  415,838;   -0,197;   -2,773
1006,433;  407,929;   -0,470;    0,955
1006,982;  587,657;    2,167;    1,682
1007,531;  443,838;    2,712;   -0,227
1008,079;  396,929;    0,258;    0,500
1008,627;  344,111;    1,621;    0,409
1009,176;  361,384;    0,076;   -1,955
1009,724;  316,929;   -2,742;    0,864
1010,273;  452,475;    1,076;    0,500
1010,821;  351,747;    1,076;    1,409
1011,369;  311,657;    0,076;    1,318
1011,917;  324,929;   -0,833;   -0,591
1012,465;  419,293;    2,530;   -1,591
1013,013;  400,929;    0,439;   -1,682
1013,561;  491,747;   -1,288;   -0,773
1014,109;  580,293;   -0,833;    1,682
1014,657;  460,747;    1,348;    0,591
1015,205;  359,929;    0,894;   -0,955
1015,753;  314,747;    0,258;   -1,409
1016,301;  390,475;    2,621;    3,045
1016,848;  459,838;    2,167;    0,409
1017,396;  461,384;    1,621;    0,045
1017,944;  454,929;    2,621;    1,864
1018,491;  372,566;   -0,197;    1,409
1019,039;  671,384;   -0,652;    0,591
1019,586;  437,929;    0,076;    1,682
1020,134;  418,020;    0,712;    1,500
1020,681;  488,111;    2,894;   -1,136
1021,228;  404,657;   -0,561;   -2,227
1021,776;  378,657;   -0,833;   -1,136
1022,323;  592,657;    0,803;    0,773
1022,870;  509,293;   -0,470;   -0,045
1023,417;  552,657;    2,076;    1,864
1023,964;  393,838;    0,621;    1,227
1024,511;  369,747;   -0,652;    0,773
1025,058;  399,657;    0,439;   -0,045
1025,605;  360,020;   -1,742;    3,136
1026,152;  564,111;   -0,106;   -0,591
1026,699;  418,202;    0,167;    1,318
1027,245;  409,111;    2,439;    0,318
1027,792;  366,293;    0,712;    1,409
1028,339;  565,566;    4,076;   -0,045
1028,885;  423,929;    3,621;   -0,227
1029,432;  376,293;   -0,106;    0,227
1029,978;  477,747;    1,348;   -1,591
1030,525;  462,384;    1,621;    0,409
1031,071;  354,020;    0,348;    1,136
1031,618;  622,747;    1,258;    1,682
1032,164;  464,747;    2,076;    3,045
1032,710;  503,384;    0,076;   -1,500
1033,256;  466,929;    0,712;   -0,136
1033,803;  333,020;   -0,288;    1,500
1034,349;  218,475;    1,803;    0,136
1034,895;  268,657;    2,621;   -0,318
1035,441;  327,838;    0,439;    0,318
1035,987;  375,384;   -2,288;   -0,682
1036,533;  440,202;   -0,197;   -0,955
1037,078;  626,475;    4,712;    1,682
1037,624;  484,838;    2,439;   -0,955
1038,170;  361,020;    1,712;   -0,318
1038,716;  434,838;    2,167;   -0,409
1039,261;  318,111;    2,167;   -0,773
1039,807;  335,293;   -0,015;    3,409
1040,352;  367,111;   -1,288;   -0,318
1040,898;  357,293;    0,167;   -0,682
1041,443;  294,929;    0,803;   -2,591
1041,989;  575,111;    3,621;    1,591
1042,534;  381,293;    0,985;    2,591
1043,079;  288,020;    1,985;    0,955
1043,625;  369,838;    0,258;    0,500
1044,170;  393,475;    2,439;    1,045
1044,715;  581,838;    0,167;    0,955
1045,260;  476,838;   -0,833;   -0,955
1045,805;  347,111;    0,258;   -0,591
1046,350;  309,747;    0,530;   -0,409
1046,895;  478,020;    0,803;    1,591
1047,440;  466,111;    1,530;    0,409
1047,985;  345,747;   -1,197;   -0,955
1048,530;  313,747;    1,348;    1,227
1049,074;  374,293;    2,803;    0,318
1049,619;  314,838;   -0,924;    1,955
1050,164;  302,020;    1,076;    0,227
1050,708;  383,747;    2,621;    0,045
1051,253;  619,566;    3,258;   -2,227
1051,797;  423,202;   -0,197;   -1,318
1052,342;  279,384;    1,348;    1,045
1052,886;  359,838;    1,803;   -1,409
1053,430;  256,384;    2,167;    0,136
1053,975;  341,929;    0,894;   -0,318
1054,519;  350,202;    1,803;    3,227
1055,063;  407,929;    3,621;    1,318
1055,607;  393,111;    1,348;    0,227
1056,151;  387,384;    0,530;    1,682
1056,695;  309,293;   -1,833;   -1,136
1057,239;  302,747;   -1,197;   -0,682
1057,783;  339,384;    2,258;   -1,500
1058,327;  409,384;    3,076;    1,409
1058,871;  552,657;    3,985;    1,318
1059,415;  419,111;   -0,561;   -0,045
1059,958;  556,111;    2,985;    2,591
1060,502;  343,838;    1,348;   -0,773
1061,046;  254,929;    1,712;   -0,955
1061,589;  239,202;    2,803;   -1,136
1062,133;  210,929;    0,985;    1,864
1062,676;  247,657;    1,439;    0,864
1063,220;  284,293;    0,985;    0,500
1063,763;  310,566;    2,985;    1,136
1064,306;  326,929;    0,985;    1,864
1064,849;  322,202;    2,076;    0,591
1065,393;  303,202;    2,894;   -1,500
1065,936;  306,293;    2,530;   -0,409
1066,479;  238,384;    2,621;    1,318
1067,022;  262,475;    1,894;   -0,227
1067,565;  240,384;   -1,197;   -1,318
1068,108;  220,384;    1,258;   -0,591
1068,651;  195,747;   -2,470;    1,409
1069,194;  200,020;   -1,106;   -1,682
1069,736;  215,929;    3,803;    0,955
1070,279;  196,657;   -1,652;   -0,500
1070,822;  276,202;    1,530;   -0,318
1071,364;  390,657;    0,530;    1,318
1071,907;  259,929;    0,348;    3,227
1072,450;  134,657;    0,258;   -0,045
1072,992;  200,020;   -0,561;    3,136
1073,535;  268,293;    0,167;    2,136
1074,077;  193,202;    2,985;    2,045
1074,619;  185,384;    0,985;    0,591
1075,161;  212,202;   -0,561;    1,500
1075,704;  328,293;    0,258;    1,227
1076,246;  209,384;    1,530;    0,682
1076,788;  151,657;   -1,015;    1,773
1077,330;  155,384;   -2,106;    2,136
1077,872;  191,020;   -1,924;    0,955
1078,414;  350,566;    3,712;    0,773
1078,956;  218,384;    0,167;   -0,227
1079,498;  337,475;    0,439;    0,318
1080,040;  210,929;    0,985;   -1,318
1080,581;  174,111;    0,621;   -0,318
1081,123;  125,020;   -0,106;   -0,773
1081,665;  141,384;    3,803;   -0,955
1082,206;  313,838;    3,258;   -0,500
1082,748;  235,111;    3,258;    2,045
1083,289;  155,111;    0,167;    1,318
1083,831;  147,566;    0,258;    0,227
1084,372;  187,747;    0,894;    0,591
1084,913;  178,566;    3,348;    0,864
1085,455;  145,020;    1,530;   -2,045
1085,996;  136,384;    0,530;    0,136
1086,537;  165,384;    0,985;    0,864
1087,078;  171,838;    0,439;   -2,136
1087,619;  217,293;   -1,652;    0,227
1088,160;  184,838;    1,439;    1,318
1088,701;  166,384;   -0,742;    0,682
1089,242;  149,202;   -0,561;   -2,227
1089,783;  195,202;   -0,561;    1,409
1090,324;  177,475;   -0,833;    0,682
1090,865;  130,111;   -1,924;   -0,409
1091,405;  108,838;   -0,561;    2,227
1091,946;  150,566;   -0,197;   -0,955
1092,487;  103,747;   -1,288;   -1,409
1093,027;  202,384;    1,803;   -1,500
1093,568;  140,384;    2,258;    1,227
1094,108;  172,929;    0,621;    1,773
1094,649;  144,111;   -0,470;    0,136
1095,189;  112,657;    1,167;   -0,682
1095,729;  109,929;    0,712;    0,955
1096,269;  109,293;    1,258;   -0,955
1096,810;  239,020;   -0,197;    0,500
1097,350;  178,566;   -0,561;   -0,773
1097,890;  134,020;    2,985;    1,227
1098,430;  286,657;    4,985;    2,864
1098,970;  224,838;    1,894;    1,682
1099,510;  129,293;   -0,833;   -2,318
1100,050;  111,384;    0,258;   -1,591
1100,589;  120,838;    0,076;   -0,318
1101,129;  162,657;    0,894;   -0,955
1101,669;  235,838;    2,803;    2,136
1102,209;  166,202;    1,530;    2,227
1102,748;  132,111;    3,439;    0,955
1103,288;  141,838;    0,712;   -1,227
1103,827;  136,111;    3,530;   -2,227
1104,367;   99,657;    1,712;   -2,409
1104,906;  102,020;   -1,015;   -1,136
1105,445;  140,929;    0,985;   -1,136
1105,985;  112,020;   -0,652;    1,500
1106,524;  131,202;    1,530;   -0,682
1107,063;  121,111;    1,167;    1,409
1107,602;   99,202;    1,894;   -1,500
1108,141;   84,838;    1,621;    1,500
1108,680;  133,566;    3,985;   -0,591
1109,219;  110,020;    0,167;   -0,500
1109,758;  105,929;    4,167;    0,682
1110,297;  101,020;   -1,106;   -0,682
1110,836;   82,657;    1,439;    0,955
1111,375;  107,475;    0,348;    0,409
1111,913;  143,293;    0,985;    0,773
1112,452;  114,475;    0,894;    0,136
1112,991;   79,657;    1,076;    1,955
1113,529;   77,384;    0,167;   -0,045
1114,068;   97,293;    0,439;    2,955
1114,606;   70,111;   -0,561;   -0,955
1115,144;  121,657;    1,530;    1,045
1115,683;  102,838;    1,985;    0,318
1116,221;  127,475;    2,076;   -0,864
1116,759;   90,929;    1,621;   -0,864
1117,297;  155,202;    1,621;    1,864
1117,836;   95,384;    1,985;   -1,227
1118,374;   90,657;    0,258;   -0,682
1118,912;   91,475;    0,439;    2,682
1119,450;   83,384;    0,985;    0,864
1119,988;   89,747;    3,348;    2,136
1120,525;  334,202;    7,258;    3,318
1121,063;  174,838;    0,530;    1,864
1121,601;   88,202;    1,076;   -1,227
1122,139;   69,929;    1,076;   -2,045
1122,676;  157,657;   -1,652;    2,773
1123,214;  136,020;    0,712;    4,409
1123,751;   67,566;    0,621;    2,227
1124,289;  100,929;    0,894;   -0,409
1124,826;   71,838;   -0,379;    0,227
1125,364;   34,475;    0,712;   -0,955
1125,901;  130,747;    6,258;    1,227
1126,438;  133,657;    3,530;    0,955
1126,975;   42,929;    2,985;   -0,773
1127,513;   67,202;    2,621;    2,136
1128,050;   51,202;   -0,561;   -0,682
1128,587;   76,838;    1,348;   -0,227
1129,124;   94,111;   -0,015;    1,318
1129,661;   55,838;   -1,924;    0,227
1130,198;  115,566;    2,439;    0,773
1130,734;   81,111;   -0,379;    1,409
1131,271;   42,838;   -1,197;    0,864
1131,808;  103,293;    1,621;    3,045
1132,345;   61,747;    4,530;    0,318
1132,881;   21,657;   -0,561;   -1,864
1133,418;   65,838;    0,348;   -1,136
1133,954;   47,657;    0,712;   -2,682
1134,491;   74,202;    1,712;   -0,773
1135,027;   45,293;    2,167;    0,864
1135,564;   70,293;    1,439;    2,955
1136,100;   64,475;   -0,742;    2,136
1136,636;   41,475;   -1,015;   -1,045
1137,172;   53,293;    0,894;   -1,045
1137,708;   41,020;   -1,561;   -1,045
1138,245;   34,384;    0,803;   -1,227
1138,781;   26,747;    1,803;   -3,318
1139,317;   43,657;    1,894;   -1,409
1139,852;   51,202;    3,076;    0,136
1140,388;   76,111;    2,076;   -0,409
1140,924;   42,566;    1,076;   -2,227
1141,460;   32,657;   -0,288;    0,136
1141,996;   18,020;   -0,652;    2,682
1142,531;   25,293;    1,076;    3,318
1143,067;   91,293;    1,167;    1,045
1143,602;  114,202;    3,439;   -0,318
1144,138;   58,657;    0,803;    1,045
1144,673;   27,384;    1,621;    1,409
1145,209;   39,020;    2,894;   -0,318
1145,744;   23,657;    0,803;    0,864
1146,279;   55,657;    1,530;   -0,136
1146,815;   36,020;    1,530;   -2,682
1147,350;   46,475;   -0,924;    0,045
1147,885;   25,475;   -1,924;   -1,318
1148,420;   25,111;    2,439;    0,773
1148,955;   22,020;   -1,470;    1,864
1149,490;   25,020;   -1,106;   -1,591
1150,025;   18,747;   -1,106;   -1,773
1150,560;   51,475;   -0,288;   -0,955
1151,094;   46,293;    0,258;   -0,591
1151,629;   43,293;   -3,742;    0,864
1152,164;   25,929;   -1,288;    1,318
1152,698;   21,475;    1,258;   -0,136
1153,233;    9,838;   -1,379;   -0,682
1153,767;   15,475;   -0,288;   -2,318
1154,302;   30,566;   -0,379;    1,773
1154,836;   27,929;    0,803;   -2,136
1155,371;   38,111;    2,258;    3,682
1155,905;   25,293;    1,985;    1,682
1156,439;   28,111;    0,530;   -0,500
1156,973;   33,747;    0,439;    0,318
1157,507;   17,929;   -1,742;    0,682
1158,042;   23,747;   -0,652;    1,045
1158,576;   35,384;   -0,561;    1,773
1159,110;   29,475;    0,076;    2,409
1159,643;   26,384;   -2,470;   -0,045
1160,177;   14,838;   -2,015;    1,500

