
Integration time [ms]:   0,050
Averaging Nr. [scans]: 11
Smoothing Nr. [pixels]: 0
Data measured with spectrometer [name]: 7318044SP
Wave   ;Sample   ;Dark     ;Reference
[nm]   ;[counts] ;[counts] ;[counts] 

186,757;    6,244;   38,161;    1,318
187,357;   11,224;   26,706;    0,955
187,958;   10,979;   17,252;   -1,591
188,558;   24,502;   12,979;   -1,227
189,159;    8,338;   10,070;   -4,500
189,759;    5,146;    5,797;   -3,591
190,360;    6,818;    6,797;   -2,136
190,960;   17,932;    5,706;   -4,136
191,560;   23,466;    2,614;   -6,591
192,161;  121,471;    5,885;   -3,500
192,761;   67,564;    5,520;   -3,227
193,361;   43,150;    3,065;   -3,773
193,962;   57,076;    1,612;   -2,682
194,562;   21,833;   -0,114;   -3,955
195,162;   16,430;   -0,567;   -2,227
195,762;   77,424;    2,433;   -0,045
196,362;   53,243;    1,706;   -2,500
196,963;   16,919;    1,706;   -0,864
197,563;   38,055;    1,252;   -0,955
198,163;   16,686;   -0,111;   -0,682
198,763;   24,833;   -0,020;   -0,500
199,363;   53,853;    3,616;   -0,500
199,963;   42,822;    2,162;    0,409
200,563;   36,378;    6,344;   -1,409
201,163;   20,319;    5,435;   -0,227
201,763;   46,100;    1,435;    0,318
202,363;   27,711;    0,980;    1,500
202,963;   41,473;    1,526;    1,045
203,563;   84,665;    0,344;    0,500
204,162;   42,786;    1,889;   -1,864
204,762;   37,748;    2,071;    0,591
205,362;   24,708;    0,708;    1,955
205,962;   43,312;    3,435;    1,955
206,562;   46,369;    1,889;    2,318
207,161;   35,192;    1,708;    0,318
207,761;  104,281;    4,435;    2,409
208,361;   49,529;    1,889;    1,409
208,960;   65,609;    2,889;    1,500
209,560;   66,589;    0,435;    1,591
210,160;   79,301;    5,071;    1,864
210,759;   60,410;    0,708;    1,227
211,359;   51,793;   -0,474;    1,045
211,958;  159,597;    3,526;    2,045
212,558;  171,369;    0,799;    1,864
213,157;  105,377;   -0,929;    1,500
213,757;  264,202;    5,617;   -0,227
214,356;  144,447;    1,708;   -0,409
214,956;  262,044;    3,526;    0,409
215,555;  121,422;    0,617;    2,136
216,154;   88,606;   -0,292;   -0,591
216,754;   95,500;    1,253;    0,773
217,353;  124,612;   -0,383;   -1,045
217,952;   48,215;    2,072;    0,318
218,552;  149,677;    0,254;   -0,773
219,151;  101,861;   -1,110;    0,955
219,750;   95,555;    0,890;   -0,227
220,349;   91,167;   -2,292;    1,045
220,948;  181,000;    1,163;    1,136
221,548;  119,540;    0,617;    1,227
222,147;  154,687;   -1,292;   -0,409
222,746;  283,886;    1,254;   -0,955
223,345;  192,651;   -1,019;    0,500
223,944;  203,232;    1,163;    0,773
224,543;  224,770;    4,072;   -1,409
225,142;  230,346;    1,345;    0,136
225,741;  222,919;    1,163;    1,045
226,340;  211,778;    1,254;   -0,955
226,939;  347,035;    2,708;   -0,136
227,538;  224,263;    1,163;   -0,773
228,137;  364,700;    0,435;    0,864
228,735;  312,783;    0,435;    1,227
229,334;  194,677;   -0,474;   -0,227
229,933;  409,788;    0,799;    0,591
230,532;  426,425;   -1,201;   -0,409
231,131;  503,548;    1,253;    0,318
231,729;  385,478;    1,163;   -2,318
232,328;  319,270;    0,435;   -1,500
232,927;  337,319;    4,526;   -0,500
233,525;  323,184;    0,981;    0,045
234,124;  382,331;    1,890;   -1,591
234,723;  307,210;    1,617;   -1,045
235,321;  312,692;    1,163;    0,136
235,920;  368,031;    2,526;   -1,227
236,518;  543,513;    1,072;    0,318
237,117;  379,818;    2,890;   -0,227
237,715;  401,409;    1,163;   -0,500
238,314;  463,538;    1,708;   -2,318
238,912;  615,450;    0,526;   -1,409
239,510;  490,420;    1,162;   -1,227
240,109;  626,806;   -0,474;    3,773
240,707;  584,932;   -0,474;    1,227
241,305;  437,079;   -0,383;    0,136
241,904;  560,897;   -0,292;   -2,045
242,502;  668,920;    3,253;   -0,227
243,100;  556,121;    3,344;   -0,955
243,698;  499,985;    2,799;    1,682
244,297;  541,230;   -0,656;    0,682
244,895;  536,677;   -0,474;   -2,318
245,493;  761,750;    2,981;   -0,591
246,091;  742,717;    5,163;   -1,318
246,689;  664,164;    2,163;    0,591
247,287;  634,790;   -0,019;   -1,136
247,885;  613,578;   -1,019;    1,227
248,483;  566,326;   -0,201;   -0,500
249,081;  665,265;    0,981;    1,591
249,679;  725,055;   -1,019;    1,682
250,277;  582,616;   -2,292;    0,864
250,875;  726,493;    0,617;   -1,045
251,473;  609,010;   -0,019;    0,500
252,071;  716,417;   -0,383;    1,045
252,669;  646,687;   -1,565;    0,318
253,267;  600,217;    1,618;    0,773
253,864;  642,154;    0,617;    0,682
254,462;  810,919;    1,526;    1,591
255,060;  574,245;    0,072;    1,318
255,658;  566,141;   -3,292;   -0,136
256,255;  685,965;   -0,201;   -2,045
256,853;  723,396;    2,345;    1,409
257,451;  704,371;    1,981;    1,864
258,048; 1187,697;    2,072;    1,864
258,646;  821,639;    0,436;   -1,045
259,243;  935,760;    2,981;    2,227
259,841;  813,692;    1,799;    0,318
260,438;  647,038;    0,254;    0,864
261,036;  805,331;    0,617;    1,409
261,633;  713,611;    1,526;    2,227
262,231;  664,303;   -0,110;   -0,045
262,828;  682,551;   -0,383;    1,136
263,425;  733,955;   -1,928;   -0,591
264,023;  741,609;    1,436;    0,045
264,620;  875,260;    1,526;   -0,318
265,217; 1021,603;    2,890;    3,136
265,815;  731,613;    2,527;    2,136
266,412;  859,255;    0,072;    0,136
267,009;  887,545;    0,526;    0,773
267,606;  995,548;    0,345;   -0,955
268,203;  763,273;   -0,383;   -0,591
268,801;  828,136;   -0,474;    0,591
269,398;  749,058;   -0,564;    2,500
269,995;  911,733;    0,890;    1,591
270,592;  803,770;    0,799;   -0,500
271,189;  745,060;    1,981;    0,409
271,786;  734,419;    2,072;    1,227
272,383; 1008,801;   -0,383;    0,227
272,980;  839,831;    1,617;    0,318
273,577;  813,043;    2,162;    1,227
274,174;  730,622;    1,435;    2,591
274,771;  858,596;    1,890;   -0,773
275,367; 1310,854;    3,253;    1,409
275,964; 1113,859;   -0,565;   -0,500
276,561;  893,073;   -2,474;   -1,045
277,158;  818,055;    1,799;   -1,773
277,755; 1084,083;   -0,110;    0,409
278,351;  890,813;    0,436;   -1,500
278,948;  982,618;   -0,201;    0,045
279,545;  892,985;    0,527;    2,318
280,141; 1188,432;    1,254;   -2,045
280,738; 1065,035;    2,435;   -0,136
281,334;  860,785;   -0,383;    0,591
281,931;  863,941;    2,890;   -1,318
282,528;  966,815;    4,072;   -0,500
283,124; 1114,737;    3,345;   -0,500
283,721; 1086,638;    0,709;    1,409
284,317;  915,409;    0,163;    2,500
284,913; 1161,378;   -0,110;    0,591
285,510; 1483,742;    2,890;   -0,318
286,106; 1253,459;    2,345;   -0,955
286,703;  924,411;    0,072;    1,955
287,299;  898,692;    1,254;   -0,591
287,895;  927,717;    0,890;   -1,045
288,491;  968,058;    0,163;    2,136
289,088; 1067,123;    0,163;    2,409
289,684; 1090,960;    2,890;    1,500
290,280; 1259,227;    1,890;    0,682
290,876; 1218,068;    0,163;    5,500
291,472; 1101,785;    2,163;    2,227
292,068; 1116,929;    1,254;    0,227
292,665;  953,783;   -0,564;    0,773
293,261;  821,894;   -1,292;    2,136
293,857; 1036,849;    4,072;    2,136
294,453;  964,235;   -0,928;    0,955
295,049; 1185,279;    0,253;    1,955
295,644;  992,851;   -1,292;    0,136
296,240;  863,993;    0,162;   -0,136
296,836; 1023,190;   -0,747;    0,318
297,432; 1190,238;    2,980;   -0,500
298,028; 1236,698;    0,435;    0,773
298,624; 1073,758;    0,889;    1,864
299,220; 1069,233;    0,435;    0,591
299,815; 1013,147;    0,526;   -0,409
300,411; 1123,824;    0,435;    1,773
301,007; 1262,130;    1,889;    0,227
301,602; 1072,021;    2,071;   -2,318
302,198; 1201,145;    1,435;   -0,773
302,794; 1050,117;    1,526;   -0,500
303,389; 1041,867;    1,071;    1,045
303,985; 1101,160;    1,253;    1,409
304,580; 1190,837;    0,889;    1,591
305,176; 1091,731;    0,344;    0,136
305,771;  971,347;   -0,929;   -1,227
306,367; 1379,852;    3,071;    0,136
306,962; 1162,567;    2,889;    1,500
307,558; 1153,289;    2,435;    0,136
308,153; 1259,102;   -0,383;   -1,136
308,748; 1051,599;    0,162;    1,682
309,344; 1459,036;    0,253;   -1,318
309,939; 1479,425;    2,071;   -1,318
310,534; 1151,003;   -2,020;   -1,682
311,130; 1084,885;   -0,656;   -2,500
311,725;  995,854;    0,526;   -0,500
312,320; 1090,125;    1,253;    0,045
312,915; 1238,102;    2,890;   -1,045
313,510; 1468,319;    0,526;   -0,500
314,105; 1258,342;   -3,565;    1,409
314,700; 1007,857;   -1,656;   -1,045
315,295; 1065,201;   -0,020;    0,045
315,890;  955,461;   -0,292;    0,864
316,485; 1085,869;    0,253;   -0,318
317,080; 1048,491;   -0,929;    1,591
317,675; 1382,950;    3,071;   -0,682
318,270; 1561,819;    6,889;    3,318
318,865; 1467,085;    2,435;    3,045
319,460; 1238,564;   -1,565;    0,591
320,055; 1117,559;   -2,565;   -1,227
320,650; 1077,792;   -1,838;   -0,591
321,244; 1100,143;    0,889;   -1,409
321,839; 1233,152;    0,980;   -0,227
322,434; 1250,670;   -0,111;   -1,591
323,029; 1126,860;   -0,474;    1,591
323,623; 1074,054;    0,798;    0,773
324,218; 1221,989;    2,707;    1,409
324,812; 1162,034;    0,889;    1,591
325,407; 1159,382;   -0,929;    2,045
326,002; 1254,577;    0,526;   -0,409
326,596; 1223,925;   -0,656;    1,318
327,191; 1083,902;   -0,383;   -1,045
327,785; 1015,925;   -0,747;   -0,227
328,379; 1123,450;   -0,383;    0,136
328,974; 1125,180;    1,798;   -3,955
329,568; 1183,135;    2,889;   -2,409
330,163; 1234,150;    2,435;    1,045
330,757; 1124,890;    0,253;    1,591
331,351; 1032,809;   -0,292;    0,682
331,945; 1045,382;   -0,383;    1,409
332,540; 1163,816;    1,617;   -0,591
333,134; 1121,811;    3,344;    0,773
333,728; 1099,905;    2,799;    0,318
334,322; 1056,892;    0,889;   -0,864
334,916;  972,528;    0,344;    0,955
335,510; 1192,614;   -0,111;   -0,136
336,105; 1213,539;   -0,929;    1,591
336,699; 1041,476;   -1,292;    0,591
337,293; 1072,602;    1,071;    0,318
337,887; 1011,491;    0,071;    1,955
338,481; 1179,175;    2,980;    0,591
339,074; 1319,975;    2,071;    2,682
339,668; 1267,117;   -0,110;    1,227
340,262; 1923,458;    7,708;    3,227
340,856; 1434,692;    1,708;   -0,682
341,450; 1021,849;    0,708;    1,864
342,044; 1159,147;    1,799;    0,136
342,637; 1300,715;    1,162;   -2,136
343,231; 1318,558;   -1,474;    0,682
343,825; 1111,013;   -0,747;   -0,591
344,419; 1098,246;   -0,474;    0,500
345,012; 1706,726;    2,889;    4,045
345,606; 1479,860;   -0,656;    1,591
346,199; 1130,946;   -0,111;   -0,227
346,793; 1254,814;    2,525;    2,045
347,386; 1074,478;    0,889;   -1,136
347,980;  919,726;   -0,838;   -0,045
348,573; 1038,421;   -1,748;    0,409
349,167; 1306,100;    6,161;    4,773
349,760; 1258,300;    2,252;    2,682
350,354; 1179,492;    1,616;    1,136
350,947; 1224,744;    2,798;    1,682
351,540; 1023,277;    0,616;   -1,409
352,134;  877,211;   -1,111;    1,136
352,727;  935,597;   -0,657;    1,136
353,320;  975,797;    2,343;    0,591
353,913;  862,391;   -1,929;    1,864
354,507; 1101,701;    0,434;   -1,227
355,100; 1003,747;    0,071;    0,864
355,693; 1384,012;    4,798;    2,409
356,286; 1115,931;    0,980;    2,773
356,879;  973,315;   -0,475;    1,227
357,472;  918,067;    0,980;    1,500
358,065; 1003,035;    3,161;    2,500
358,658;  862,035;    0,798;    2,318
359,251;  768,050;    0,252;   -0,591
359,844;  950,830;    0,343;   -1,136
360,437; 1070,668;    0,252;    0,045
361,030;  924,229;    0,525;   -0,682
361,623;  882,391;    0,434;    0,318
362,215; 1135,196;    0,979;    2,045
362,808;  982,424;   -2,293;   -1,682
363,401;  894,964;    0,798;    0,136
363,994; 1139,348;    3,252;   -1,500
364,586;  908,313;    0,888;   -1,500
365,179;  847,634;   -0,203;   -1,136
365,772;  663,419;   -0,930;    2,045
366,364;  820,530;    1,524;   -3,227
366,957;  946,273;    1,342;   -0,045
367,549;  851,367;   -0,203;   -0,864
368,142;  853,178;    0,978;   -1,500
368,734;  823,984;    2,523;   -2,136
369,327;  737,931;    2,341;   -0,500
369,919;  791,224;   -1,659;    0,409
370,512;  828,318;   -1,023;   -0,500
371,104; 1087,210;    2,704;    1,591
371,696; 1146,169;    1,703;   -0,955
372,289;  979,962;    0,157;    1,136
372,881;  928,741;    1,156;    1,318
373,473;  792,310;    4,064;    1,136
374,066;  894,994;    1,336;    0,500
374,658;  850,451;    0,879;    1,136
375,250;  811,809;   -1,668;   -1,409
375,842;  860,221;   -0,124;   -0,045
376,434;  795,751;   -2,762;   -0,409
377,026;  862,193;   -1,855;   -2,500
377,618;  880,721;    0,779;   -0,682
378,210;  792,377;    3,141;   -1,955
378,802;  736,445;    3,412;   -0,591
379,394; 1224,274;    3,411;    0,682
379,986;  978,440;    1,138;   -0,955
380,578;  886,134;    1,410;    0,773
381,170; 1110,598;    0,320;    0,045
381,762;  978,574;   -0,224;    1,409
382,354;  938,769;   -0,223;   -1,318
382,945;  842,171;    0,870;    0,318
383,537;  790,813;    1,144;   -1,955
384,129;  812,584;    0,963;   -1,136
384,721;  938,740;    0,418;    0,955
385,312;  832,855;   -1,399;   -0,955
385,904;  979,535;   -0,945;    1,591
386,496;  816,005;    0,691;    1,045
387,087; 1003,362;    0,418;    2,500
387,679;  928,415;   -0,401;    0,045
388,270;  934,787;   -2,401;    2,045
388,862;  894,365;   -0,401;   -0,318
389,453;  811,107;    1,054;    1,045
390,045;  877,832;    3,236;   -2,682
390,636;  794,353;    0,144;   -0,591
391,227;  816,064;    2,054;   -0,045
391,819;  827,011;    0,781;    0,773
392,410; 1114,008;    0,600;    0,045
393,001;  900,912;    1,600;   -1,591
393,593;  995,664;    0,600;   -0,045
394,184; 1034,654;    0,873;   -0,409
394,775;  842,937;    1,146;    2,136
395,366;  839,935;    1,782;    0,773
395,957; 1059,390;   -2,400;    0,136
396,548;  945,586;    1,054;    2,682
397,139; 1112,738;    2,236;    0,591
397,730;  969,553;    0,873;    0,955
398,321;  956,099;    0,509;    0,955
398,912;  894,616;   -0,764;    0,136
399,503;  948,967;   -1,945;   -1,409
400,094;  945,000;   -1,582;    1,682
400,685;  939,434;    3,600;    0,045
401,276;  831,919;   -0,400;   -0,955
401,867;  858,336;   -1,127;    0,773
402,458;  826,447;    1,509;   -2,318
403,048; 1014,571;    0,146;    0,591
403,639;  887,427;    1,509;    0,864
404,230; 1079,406;    0,691;    0,318
404,821; 1137,149;   -0,127;    0,045
405,411; 1016,651;   -0,763;   -2,591
406,002;  876,134;    3,237;   -1,136
406,592; 1163,141;    2,691;    0,045
407,183;  994,757;    0,328;   -1,500
407,774;  926,292;    1,419;   -0,136
408,364;  924,131;    2,600;    0,409
408,954; 1058,575;   -0,036;    1,227
409,545; 1056,371;    1,873;    1,045
410,135;  940,401;   -1,581;    0,500
410,726;  909,872;    0,783;    0,318
411,316; 1158,416;    2,237;    0,773
411,906;  916,948;    0,146;   -0,409
412,497;  900,489;   -0,490;   -0,045
413,087;  881,146;    0,783;   -0,227
413,677;  857,511;   -2,490;    3,864
414,267;  817,751;   -1,035;    1,409
414,857;  777,888;    0,419;    4,227
415,448;  813,186;   -0,763;    0,500
416,038;  828,408;   -2,945;   -0,591
416,628;  871,125;    0,965;    0,409
417,218;  956,047;   -1,762;    3,318
417,808; 1162,637;    0,965;   -0,409
418,398; 1000,284;   -1,035;    2,682
418,988;  847,865;   -2,217;    0,591
419,578;  953,736;    3,601;    1,409
420,168;  974,873;    0,692;   -0,955
420,757; 1128,643;    0,964;   -1,500
421,347;  948,486;    1,601;   -0,227
421,937;  899,374;    3,329;    1,409
422,527; 1064,564;    2,602;   -0,773
423,116; 1223,461;    2,692;   -0,045
423,706;  917,920;    2,965;    0,318
424,296;  826,905;    1,601;    0,682
424,885; 1067,450;    1,510;   -3,045
425,475; 1021,837;    1,147;   -2,864
426,065;  878,097;   -1,489;   -0,318
426,654;  849,776;    0,329;   -0,318
427,244; 1224,778;    1,147;    1,409
427,833; 1136,362;    1,056;   -0,500
428,423;  966,690;    0,147;    1,136
429,012; 1051,803;    2,420;   -1,136
429,601; 1173,548;    2,057;    0,136
430,191; 1024,536;    2,511;    4,318
430,780;  835,521;   -1,671;   -0,409
431,369; 1142,101;    1,329;   -0,045
431,959; 1089,778;    1,693;    0,500
432,548;  943,621;   -1,398;   -0,045
433,137;  863,712;    0,329;   -1,318
433,726; 1033,280;    0,148;    0,500
434,315;  982,891;    0,148;    2,409
434,905; 1139,924;    0,693;    1,409
435,494; 1198,684;    3,148;    0,955
436,083; 1009,952;    1,420;   -0,955
436,672; 1060,406;    1,148;    0,500
437,261; 1009,025;    0,512;   -1,955
437,850; 1389,219;   -1,125;    0,682
438,439; 1422,315;    2,239;    1,955
439,027; 1533,921;    3,421;    1,773
439,616; 1499,256;    2,239;    1,227
440,205; 1169,110;    0,057;   -2,136
440,794; 1057,476;   -0,306;   -0,045
441,383;  969,390;    1,603;   -0,591
441,971;  877,360;   -0,306;    0,591
442,560;  893,544;    0,603;   -1,773
443,149;  764,134;    3,060;   -1,318
443,737;  876,758;    0,968;   -2,318
444,326;  898,839;    0,331;    0,318
444,915;  981,713;   -1,851;    0,864
445,503; 1005,357;    0,058;   -0,318
446,092; 1333,327;    7,876;    2,136
446,680; 1289,895;    1,876;    0,318
447,269; 1196,324;   -1,487;   -0,318
447,857; 1118,021;    2,240;   -1,773
448,445; 1052,803;    2,149;    1,318
449,034; 1015,215;    0,876;   -1,136
449,622;  991,859;    1,240;    3,500
450,210; 1434,457;    3,149;    2,227
450,799; 1337,874;    2,604;   -0,591
451,387; 1189,573;    1,786;   -0,591
451,975; 1170,126;   -1,305;    0,864
452,563; 1330,987;    0,422;    2,318
453,151; 1028,389;   -1,032;   -1,227
453,739; 1092,605;   -1,577;    0,136
454,328; 1300,414;    0,604;   -2,136
454,916; 1141,355;    1,150;   -0,136
455,504; 1150,063;    3,513;    1,227
456,092; 1025,330;    2,150;   -1,591
456,679;  930,351;    0,604;    0,682
457,267; 1619,320;    3,604;    1,045
457,855; 1110,772;    3,241;    1,409
458,443;  832,954;   -0,304;    1,682
459,031; 1186,204;    1,332;    2,409
459,619; 1139,285;   -3,577;    2,864
460,206;  954,446;   -0,759;    2,045
460,794;  989,100;   -0,668;   -0,227
461,382; 1088,602;    0,878;   -0,864
461,970; 1010,597;    0,605;    1,864
462,557;  947,676;    0,878;   -0,682
463,145; 1174,590;   -0,304;   -1,682
463,732; 1503,650;    2,514;   -1,045
464,320; 1141,652;    1,514;   -3,045
464,907; 1357,945;    0,423;   -0,773
465,495; 1217,670;    2,696;   -1,227
466,082; 1074,541;    2,060;   -0,045
466,670; 1056,662;    2,605;    1,227
467,257;  962,102;    0,060;    2,045
467,844; 1161,718;    1,514;    0,045
468,432; 1141,751;   -0,031;    3,500
469,019; 1011,960;    1,606;   -1,773
469,606; 1129,382;    0,969;    3,682
470,193; 1184,379;    2,151;    0,227
470,780; 1142,975;    0,333;    0,864
471,368; 1038,023;   -1,212;   -0,773
471,955; 1169,864;    1,060;   -0,682
472,542; 1072,336;   -0,303;   -1,136
473,129;  896,998;   -0,485;    0,136
473,716;  884,669;    0,060;    0,591
474,303;  951,048;    1,333;   -0,864
474,890;  988,679;    2,333;   -0,500
475,477; 1152,593;   -0,576;    0,409
476,064;  986,540;    0,697;   -1,591
476,650; 1137,798;    2,152;    0,318
477,237; 1034,525;    1,879;    0,955
477,824; 1001,391;    3,879;    0,864
478,411;  858,361;    0,606;   -0,318
478,997;  856,353;    0,606;   -0,773
479,584;  759,032;   -0,666;   -0,409
480,171; 1163,850;    1,243;   -0,773
480,757; 1258,421;   -0,848;    0,773
481,344; 1062,499;    0,334;    0,409
481,931;  838,291;   -0,393;    1,045
482,517; 1181,125;    0,425;    0,318
483,104; 1344,211;    1,334;    2,864
483,690; 1190,597;    0,243;    0,045
484,276; 1156,039;    0,698;    0,227
484,863; 1506,850;    2,152;    1,136
485,449; 1270,084;    0,152;    0,318
486,035; 1172,481;   -0,666;   -0,136
486,622; 1387,595;   -2,393;    0,045
487,208; 1242,153;    1,334;    1,500
487,794; 1122,572;    0,971;    0,318
488,380; 1151,541;    0,698;   -1,409
488,967; 1152,564;   -1,120;   -0,409
489,553; 1181,627;   -1,029;   -1,409
490,139; 1308,094;    0,971;    0,773
490,725; 1136,132;    0,789;   -0,227
491,311; 1165,546;    1,516;    3,045
491,897;  990,387;   -0,665;    1,500
492,483; 1018,632;    0,426;    1,227
493,069; 1800,233;    5,426;    0,864
493,655; 1264,379;    1,789;    0,682
494,241; 1071,248;    1,517;   -0,955
494,826; 1150,983;    0,335;   -1,045
495,412; 1213,895;    0,335;   -0,682
495,998; 1080,917;    0,971;   -0,318
496,584; 1157,185;    2,244;    1,045
497,169; 1105,720;    2,335;   -0,682
497,755;  980,444;    1,244;    1,227
498,341; 1345,167;    2,153;    0,318
498,926; 1508,013;    2,881;    1,955
499,512; 1109,340;   -0,028;    2,955
500,097; 1046,719;   -0,574;   -0,318
500,683; 1076,537;   -0,028;    2,136
501,268; 1032,010;    1,881;   -0,955
501,854; 1068,189;   -0,119;    1,227
502,439; 1001,946;   -0,573;   -1,773
503,024; 1111,156;    1,608;    0,500
503,610; 1174,045;    1,335;   -0,682
504,195;  998,676;    1,245;    1,955
504,780; 1156,040;    2,335;    1,227
505,366; 1310,176;    4,063;    2,864
505,951; 1160,133;   -1,119;    1,045
506,536; 1061,363;    1,427;   -3,682
507,121; 1113,002;    1,699;   -0,318
507,706; 1084,206;   -0,392;    1,045
508,291; 1007,686;   -2,937;    1,136
508,876;  965,923;   -0,482;    2,591
509,461; 1021,218;    1,427;   -0,773
510,046; 1110,190;   -0,391;    0,318
510,631; 1107,244;   -0,119;   -0,773
511,216;  985,983;   -0,664;   -0,500
511,801; 1127,565;   -0,755;    2,591
512,386; 1148,120;    0,972;    0,500
512,971; 1170,604;    0,427;    0,955
513,555; 1224,913;    1,154;   -1,500
514,140; 1209,332;    1,336;   -3,136
514,725; 1334,026;    1,791;   -1,136
515,309; 1214,435;    1,064;    0,318
515,894; 1060,334;   -0,300;   -2,227
516,479; 1091,137;    1,973;   -0,955
517,063; 1086,160;    0,882;    1,227
517,648; 1074,099;    0,155;   -1,136
518,232;  981,836;   -1,300;   -1,409
518,817; 1102,394;    1,337;    1,682
519,401; 1290,619;    0,700;    0,591
519,985; 1133,831;    2,700;    1,136
520,570;  978,879;   -0,118;   -1,955
521,154; 1165,619;    0,064;    0,591
521,738; 1418,467;    1,064;    2,409
522,323; 1283,301;   -0,390;    1,682
522,907; 1203,351;    2,428;   -0,136
523,491; 1082,282;    1,155;    0,955
524,075; 1025,386;    0,428;    0,591
524,659; 1239,351;    0,973;    0,591
525,243; 1116,475;    0,883;    0,409
525,827; 1047,573;    0,883;   -0,045
526,411; 1114,078;    1,155;   -0,136
526,995; 1294,242;    0,337;    1,409
527,579; 1313,704;    1,974;   -1,045
528,163; 1242,737;    0,428;   -1,500
528,747; 1415,517;    1,065;   -0,773
529,331; 1359,754;    0,883;   -1,409
529,915; 1125,300;    2,338;    0,955
530,499; 1222,752;    0,247;    1,227
531,082; 1356,143;    1,065;    1,591
531,666; 1419,390;    0,520;    0,773
532,250; 1336,620;    0,428;    2,682
532,833; 1495,532;    0,610;    2,773
533,417; 1279,368;    1,247;    0,864
534,001; 1393,423;    0,429;   -0,318
534,584; 1331,493;    1,974;    0,500
535,168; 1138,751;    3,247;    1,409
535,751; 1548,219;    4,520;    0,045
536,334; 1181,287;    4,520;   -0,409
536,918; 1155,266;    1,974;    1,591
537,501; 1141,191;    1,520;    1,318
538,085; 1191,789;    1,702;    1,045
538,668; 1203,529;    0,883;    2,409
539,251; 1589,814;    3,156;    3,773
539,834; 1330,875;    0,156;    0,773
540,418; 1423,998;    3,247;    4,318
541,001; 1603,390;    2,702;    1,773
541,584; 1351,106;    1,429;    2,227
542,167; 1417,304;    0,702;    2,955
542,750; 1282,284;    0,793;   -0,773
543,333; 1054,076;    1,429;    2,136
543,916; 1386,549;   -0,298;    2,500
544,499; 1279,713;    2,520;    0,227
545,082; 1381,096;    0,248;    3,591
545,665; 1288,675;   -0,207;    1,500
546,248; 1449,440;    0,520;   -0,318
546,830; 1403,308;   -1,752;    1,955
547,413; 1411,389;    0,157;   -0,773
547,996; 1462,121;    0,157;    0,500
548,579; 1289,793;   -0,843;    0,955
549,161; 1560,449;    0,884;    2,682
549,744; 1443,575;    0,612;    0,409
550,326; 1369,772;    0,885;   -1,136
550,909; 1844,603;    2,339;    0,591
551,492; 1523,454;    0,521;    0,227
552,074; 1593,484;   -0,024;   -1,318
552,657; 1653,944;    2,430;    0,045
553,239; 1478,254;   -3,024;   -0,773
553,821; 1402,194;   -1,570;    1,045
554,404; 1590,843;   -0,024;    1,136
554,986; 1720,752;    2,248;    1,045
555,568; 1603,790;    0,430;   -0,955
556,151; 1788,620;    4,067;   -0,227
556,733; 1460,714;   -1,388;   -0,864
557,315; 1474,229;    4,703;    0,500
557,897; 1296,014;    0,521;   -0,500
558,479; 1318,850;    1,703;    1,318
559,061; 1442,622;    1,067;   -0,864
559,643; 1546,514;   -0,297;    0,045
560,225; 1593,537;   -0,388;    2,864
560,807; 1464,514;    0,340;    0,318
561,389; 1404,011;   -1,206;    2,318
561,971; 1465,481;   -0,660;    2,136
562,553; 1459,269;    0,613;    1,591
563,135; 1540,703;    1,249;    1,136
563,717; 1890,511;    3,158;    1,136
564,298; 1778,590;    3,976;   -0,045
564,880; 1508,003;    0,340;   -1,409
565,462; 1384,185;    1,977;    1,318
566,043; 1704,029;   -0,933;    2,318
566,625; 1872,749;    4,067;    1,227
567,207; 1636,976;    0,704;    1,682
567,788; 1614,286;   -0,114;    1,500
568,370; 1726,291;   -1,841;   -0,500
568,951; 1587,427;   -0,569;    0,227
569,533; 1771,124;    0,977;   -0,500
570,114; 1888,372;   -0,296;    0,682
570,695; 1901,394;   -0,478;   -1,318
571,277; 1884,758;   -0,205;   -1,682
571,858; 2115,594;    2,704;   -1,136
572,439; 2111,675;    0,795;   -1,045
573,021; 2098,806;    0,432;   -2,773
573,602; 2222,798;    1,795;    0,318
574,183; 2239,985;   -0,114;    2,227
574,764; 2265,232;    2,068;    0,409
575,345; 2383,134;    0,250;   -0,136
575,926; 2341,763;    2,704;    0,136
576,507; 2430,882;    2,704;   -0,227
577,088; 2516,606;    1,704;    1,682
577,669; 2657,020;    1,704;    1,955
578,250; 2872,712;   -0,750;   -1,045
578,831; 2708,785;   -0,841;   -2,227
579,412; 2583,578;   -1,205;    0,955
579,993; 2875,326;    1,432;    0,227
580,573; 2846,154;   -0,023;   -0,955
581,154; 2584,121;    1,613;   -0,591
581,735; 2739,283;    0,341;    0,773
582,315; 2667,737;    0,523;    2,136
582,896; 2791,414;   -1,750;    1,227
583,477; 2662,323;    0,614;    1,227
584,057; 2728,141;    1,159;    0,955
584,638; 2808,144;   -2,750;    2,318
585,218; 3017,490;    2,886;    2,682
585,799; 2895,886;    1,977;   -0,227
586,379; 2780,152;    1,250;    1,591
586,959; 2668,626;    2,613;    0,318
587,540; 2521,937;    0,432;    2,227
588,120; 2437,060;   -1,113;   -0,045
588,700; 2335,889;    2,977;    2,136
589,281; 2584,694;    1,250;   -0,955
589,861; 2450,833;   -0,296;   -1,682
590,441; 2364,437;   -1,477;   -2,682
591,021; 2203,500;    1,432;   -2,591
591,601; 2283,829;    0,431;    0,500
592,181; 2382,437;   -1,296;   -0,773
592,761; 2066,214;    2,250;    1,409
593,341; 2226,707;    1,522;    0,045
593,921; 2209,604;   -0,569;    1,591
594,501; 2082,538;    1,250;    1,318
595,081; 2067,500;    0,522;   -0,318
595,661; 2289,763;    1,068;    0,955
596,240; 2324,377;   -1,023;    0,136
596,820; 2488,508;    2,613;    1,955
597,400; 2220,924;    1,977;    0,773
597,980; 2250,137;   -0,750;    1,045
598,559; 2241,629;    0,341;   -0,227
599,139; 2201,129;   -0,750;   -1,227
599,718; 2179,583;    0,795;   -0,409
600,298; 2247,904;   -2,387;    0,682
600,877; 2599,978;    4,795;    1,409
601,457; 2486,473;    0,340;    1,136
602,036; 2331,366;    1,795;    2,045
602,616; 2290,038;    2,250;    1,682
603,195; 2440,465;    0,431;    3,500
603,774; 2394,599;   -0,296;    2,045
604,354; 2327,248;    2,522;   -0,500
604,933; 2200,442;    0,250;    1,864
605,512; 2391,904;    2,340;    0,591
606,091; 2381,501;    1,886;    3,773
606,671; 2421,205;    0,249;    0,773
607,250; 2444,402;    1,431;    3,136
607,829; 2455,228;    1,158;    3,227
608,408; 2338,938;    4,613;    2,591
608,987; 2313,430;    2,704;    3,409
609,566; 2179,679;    0,341;   -2,500
610,145; 2268,185;    2,885;    0,682
610,723; 2401,673;    1,613;    6,864
611,302; 2152,999;    1,067;    1,682
611,881; 2315,605;    5,158;   11,227
612,460; 2163,443;    0,795;    3,955
613,039; 2227,658;    1,703;    2,045
613,617; 1985,897;    0,886;    4,773
614,196; 2012,991;    1,613;    1,227
614,775; 2155,640;    1,249;    2,409
615,353; 2195,554;   -1,660;    0,864
615,932; 2099,847;    0,249;    2,409
616,510; 2234,451;    0,158;    0,591
617,089; 2652,686;    8,794;   17,591
617,667; 2271,946;    4,885;    6,136
618,246; 1900,039;   -1,115;    1,318
618,824; 2062,885;    1,612;   -0,955
619,402; 2020,984;    0,431;   -1,773
619,981; 2158,067;    1,067;   -1,045
620,559; 2157,815;    0,794;    1,682
621,137; 2164,312;    3,067;    1,864
621,715; 1854,799;    3,703;   -0,682
622,293; 1889,575;    1,885;   -0,773
622,871; 2151,774;    0,340;    0,500
623,450; 1996,146;    0,430;   -0,864
624,028; 2144,082;   -0,388;   -0,955
624,606; 2043,002;    2,339;    1,682
625,183; 1951,621;   -0,661;   -1,136
625,761; 1966,613;    1,885;    1,136
626,339; 2363,492;    2,339;    2,591
626,917; 2092,909;    0,339;   -0,045
627,495; 2096,388;    2,794;    1,318
628,073; 2070,641;    5,248;    2,864
628,650; 2037,638;    3,067;    2,136
629,228; 2095,300;    1,248;    4,409
629,806; 1830,199;   -0,024;    1,136
630,383; 1918,613;    0,066;   -0,318
630,961; 1901,565;   -2,206;   -0,955
631,539; 1870,414;   -2,479;    0,227
632,116; 2565,383;   12,703;   15,409
632,694; 2216,537;    4,885;    6,500
633,271; 2008,934;    1,975;    2,682
633,848; 2141,677;    1,430;    2,045
634,426; 1954,856;    1,521;    1,773
635,003; 1785,672;   -0,207;   -0,409
635,580; 2129,642;    1,884;    3,682
636,158; 1979,397;    3,793;    1,227
636,735; 1827,028;    3,339;   -0,500
637,312; 1843,712;    0,521;   -0,682
637,889; 1839,088;    2,248;   -0,682
638,466; 1812,869;    0,066;   -0,409
639,043; 1822,652;    1,702;   -1,136
639,620; 1811,733;    0,611;   -0,955
640,197; 1961,821;    1,612;    1,682
640,774; 1937,113;    1,430;    1,136
641,351; 1993,677;    0,612;    1,136
641,928; 2041,423;    2,794;    1,409
642,505; 2161,442;    0,794;   -0,500
643,082; 2057,097;    1,885;    1,227
643,658; 1729,207;    1,157;    1,500
644,235; 1836,135;   -2,479;    2,500
644,812; 1998,427;    1,794;    0,773
645,388; 1949,355;    1,612;    1,409
645,965; 1736,101;    1,521;    1,682
646,542; 1749,756;    3,430;   -0,227
647,118; 2201,320;    3,703;   -0,955
647,695; 2038,703;    0,339;    1,136
648,271; 1813,358;   -2,115;    0,500
648,848; 1948,650;    0,248;    2,227
649,424; 2083,396;    0,976;    1,318
650,000; 1782,324;   -0,388;   -1,045
650,577; 1874,070;    0,158;   -0,955
651,153; 1990,998;   -1,115;    0,955
651,729; 1967,472;    0,521;    0,864
652,305; 2228,127;    1,339;    2,773
652,881; 2497,600;   -1,297;    1,136
653,458; 3204,619;    0,249;    0,227
654,034; 3690,456;    0,703;    1,591
654,610; 3780,839;    0,339;    0,773
655,186; 4206,585;    1,612;    3,045
655,762; 3913,149;   -1,842;    0,409
656,338; 3895,532;    0,703;    0,136
656,913; 4201,096;   -0,297;    0,409
657,489; 3975,570;    0,249;   -0,318
658,065; 4066,407;    0,794;   -1,591
658,641; 4287,244;    2,158;   -0,864
659,217; 4060,444;    2,067;    0,409
659,792; 3850,736;   -1,751;   -0,409
660,368; 3934,119;   -0,388;   -0,682
660,944; 4157,865;    1,794;    1,227
661,519; 3653,702;    0,522;    0,409
662,095; 2853,721;   -0,206;    0,591
662,670; 2207,649;   -0,206;   -0,136
663,246; 2155,031;   -0,660;   -0,409
663,821; 2182,686;    0,431;    1,682
664,396; 1952,524;    0,613;    1,864
664,972; 1964,906;   -0,660;   -0,500
665,547; 2110,198;    3,794;    0,136
666,122; 2030,217;    1,340;    0,318
666,698; 2220,508;    2,431;    0,318
667,273; 1879,982;    0,885;    0,136
667,848; 2045,819;    0,340;    1,500
668,423; 2132,201;    1,795;    2,318
668,998; 2058,129;    0,976;   -0,682
669,573; 2092,421;    2,067;   -1,500
670,148; 2237,712;    1,885;   -0,682
670,723; 1976,640;   -0,024;    0,318
671,298; 2343,478;   -1,296;    1,045
671,873; 2220,951;   -0,296;   -0,136
672,448; 2207,061;    1,704;    0,136
673,023; 2215,443;    0,249;   -0,227
673,597; 2380,008;    2,704;    2,318
674,172; 2355,663;    2,431;    0,318
674,747; 2226,318;   -0,205;   -1,045
675,321; 2031,701;   -0,933;    3,318
675,896; 1905,174;    2,158;    1,045
676,471; 2133,375;    2,522;    1,591
677,045; 2048,303;   -0,296;    0,682
677,620; 2084,504;    2,158;    1,136
678,194; 2091,159;    0,249;    1,136
678,769; 2066,996;    0,886;   -0,318
679,343; 2144,197;   -0,023;    1,773
679,917; 2214,488;    0,340;    1,955
680,492; 2070,416;    0,249;    3,227
681,066; 2113,890;    0,613;    0,409
681,640; 2104,818;    1,795;   -0,318
682,214; 2212,382;    2,340;    0,500
682,788; 2141,855;    0,613;   -0,773
683,363; 2191,965;    1,977;    1,682
683,937; 2025,075;    0,886;   -0,318
684,511; 2244,730;   -1,023;   -0,591
685,085; 2208,840;   -1,478;    0,318
685,659; 2054,041;    1,431;    0,864
686,232; 2291,151;    1,159;   -0,318
686,806; 2186,897;    2,159;    0,409
687,380; 2237,370;   -1,932;    0,591
687,954; 2262,844;    2,432;    1,136
688,528; 2387,408;    2,613;    1,955
689,101; 2435,154;    0,432;    1,045
689,675; 2210,900;    0,886;   -0,136
690,249; 2294,192;    3,432;    0,409
690,822; 2353,847;    1,159;    0,318
691,396; 2213,230;    2,068;    1,227
691,969; 2113,521;    2,523;    0,136
692,543; 2211,177;   -0,568;   -1,955
693,116; 2019,650;   -0,659;   -1,409
693,690; 2078,305;   -0,296;    0,500
694,263; 2190,779;    2,341;    2,955
694,836; 2457,252;    2,795;    3,591
695,410; 2173,907;    1,159;    1,773
695,983; 2194,472;    1,614;    0,591
696,556; 2068,036;   -0,750;   -1,045
697,129; 2136,055;   -1,114;    1,409
697,703; 2140,892;    1,341;    1,955
698,276; 2138,820;    1,705;   -0,773
698,849; 2197,384;   -1,023;    1,409
699,422; 2063,131;    1,250;    0,591
699,995; 1937,331;   -0,659;    0,136
700,568; 2141,714;   -0,204;    3,045
701,140; 2130,096;   -1,841;    1,682
701,713; 2247,206;    0,341;    2,409
702,286; 2146,861;    0,796;    0,864
702,859; 2153,789;    0,614;   -0,591
703,432; 2104,354;   -0,841;    0,682
704,004; 2090,282;    1,978;    0,318
704,577; 1914,119;    1,068;    0,136
705,150; 1999,683;    0,887;    2,500
705,722; 2103,884;    1,523;   -3,227
706,295; 2141,721;    1,432;   -0,591
706,867; 1948,558;    0,250;    1,955
707,440; 2166,304;   -0,113;   -0,409
708,012; 2226,141;   -0,022;    0,591
708,584; 2073,342;    2,705;    0,227
709,157; 2057,361;    1,160;   -0,591
709,729; 2188,743;    1,069;    2,045
710,301; 2274,853;   -1,204;    0,045
710,874; 2236,690;    0,341;   -0,227
711,446; 1884,982;   -0,295;    0,864
712,018; 1994,728;   -3,022;    0,500
712,590; 1918,565;   -0,204;    1,682
713,162; 2230,039;   -0,477;    1,318
713,734; 2101,330;    1,796;   -2,045
714,306; 2071,531;    0,342;   -0,409
714,878; 1910,095;   -0,295;    0,864
715,450; 2025,296;   -0,113;    0,864
716,022; 2064,315;    2,433;    1,318
716,593; 2082,879;    0,978;    0,591
717,165; 2115,080;    1,796;   -1,227
717,737; 2291,372;    0,796;    0,409
718,309; 2105,845;    1,160;   -0,045
718,880; 2029,409;   -1,295;   -1,409
719,452; 2135,337;    0,887;   -1,591
720,024; 2100,720;    1,705;   -0,591
720,595; 2099,375;    2,978;    0,955
721,167; 2002,576;    1,160;   -2,045
721,738; 1995,595;    2,069;   -1,045
722,309; 2045,250;    1,251;   -1,227
722,881; 1894,178;    2,705;    0,773
723,452; 2094,833;    1,251;    2,864
724,023; 2139,943;    1,524;    2,682
724,595; 2166,417;    2,342;    0,682
725,166; 1965,708;    1,524;   -0,409
725,737; 2128,636;    1,887;    0,227
726,308; 2032,473;    0,797;    0,318
726,879; 1950,038;    1,069;    1,227
727,450; 2104,784;   -2,022;   -0,045
728,021; 1980,621;    1,069;    0,682
728,592; 2125,731;    1,160;    0,500
729,163; 2267,659;    1,433;   -0,136
729,734; 2244,950;    2,160;   -0,227
730,305; 2091,696;    0,615;    0,136
730,876; 2083,079;    0,888;    2,955
731,447; 2390,825;    0,797;    2,682
732,017; 2288,571;   -0,840;    1,864
732,588; 2157,772;   -0,021;    1,227
733,159; 2332,882;    3,615;   -1,045
733,729; 2067,173;    1,251;    0,409
734,300; 2136,283;    0,160;    0,864
734,870; 2050,302;   -1,385;    0,591
735,441; 2077,594;    0,888;   -0,591
736,011; 1943,703;    1,070;   -1,591
736,582; 1979,631;    1,251;    0,045
737,152; 1981,559;    0,979;   -2,045
737,722; 2055,397;    1,070;   -0,682
738,293; 1922,597;   -2,021;    1,318
738,863; 2071,889;    1,797;    2,318
739,433; 2325,726;    4,524;    0,318
740,003; 2186,563;    1,524;   -0,682
740,573; 2217,855;    2,252;   -1,591
741,143; 2150,601;    3,615;    0,318
741,713; 2105,620;    0,252;   -0,500
742,283; 2089,366;    1,706;    1,591
742,853; 1998,839;    0,524;    1,591
743,423; 1846,131;    0,161;    0,045
743,993; 1935,150;    1,070;    1,500
744,563; 1815,987;    2,524;   -0,864
745,133; 1866,369;   -0,112;   -0,864
745,702; 1952,206;    2,797;    1,773
746,272; 1998,680;    0,434;    0,591
746,842; 1997,153;   -0,748;   -0,591
747,411; 1898,990;   -0,839;   -0,318
747,981; 1831,282;   -0,930;    0,500
748,551; 1861,756;   -0,021;   -1,045
749,120; 1945,320;   -0,112;   -0,227
749,690; 1961,430;    2,161;    2,409
750,259; 2104,085;    0,979;    2,955
750,828; 2122,104;    4,070;   -1,955
751,398; 1971,668;   -0,112;   -0,045
751,967; 2330,687;    2,888;    0,409
752,536; 2051,160;    1,161;   -0,227
753,105; 2184,270;   -1,384;    0,227
753,675; 1977,562;   -0,112;    1,773
754,244; 1993,217;    0,888;    3,591
754,813; 2020,963;    0,979;    1,227
755,382; 1916,528;    0,798;    0,955
755,951; 2076,274;   -0,112;    3,682
756,520; 2136,202;    2,525;    1,864
757,089; 2359,948;    1,888;    0,500
757,658; 2064,240;    2,434;    1,227
758,227; 1941,349;   -1,111;    0,318
758,795; 2027,277;   -1,021;    1,136
759,364; 2148,205;    0,525;   -0,591
759,933; 1868,588;    1,343;   -0,045
760,501; 1815,880;    0,252;   -1,318
761,070; 1976,626;   -0,293;   -1,409
761,639; 2185,008;    1,434;    1,318
762,207; 2055,482;    0,889;   -0,955
762,776; 2111,046;    2,889;    0,864
763,344; 1954,610;    0,071;    0,591
763,913; 1663,538;    1,616;    1,409
764,481; 2301,375;    1,980;   -0,136
765,049; 2250,576;    0,616;    1,409
765,618; 2126,868;    1,434;    0,318
766,186; 2014,614;    2,434;    0,136
766,754; 2036,269;    1,798;    1,864
767,322; 1771,379;    1,162;    0,409
767,890; 1741,216;    0,525;   -1,773
768,459; 1897,326;    2,616;   -0,318
769,027; 2115,527;    2,525;    3,409
769,595; 1846,727;    2,616;    2,591
770,163; 1895,473;    3,344;    2,955
770,730; 1869,129;    2,525;   -0,136
771,298; 1868,148;    1,162;   -1,409
771,866; 1857,257;    0,253;    4,955
772,434; 1872,367;    1,162;   -1,864
773,002; 2130,295;    2,616;    0,682
773,569; 1990,132;    1,071;    1,682
774,137; 2079,788;    0,889;   -0,045
774,705; 2038,352;   -0,747;   -0,136
775,272; 1881,644;    0,253;    0,682
775,840; 1964,935;   -0,111;    2,682
776,407; 1947,227;   -0,293;    1,955
776,975; 1714,427;    1,162;    0,318
777,542; 1860,446;    2,162;   -0,045
778,110; 1885,829;    0,707;   -0,045
778,677; 1728,302;    1,071;   -0,864
779,244; 1778,958;   -1,020;    1,045
779,812; 1933,431;    0,980;    0,864
780,379; 1961,632;    2,435;    1,136
780,946; 1844,287;    2,617;   -0,773
781,513; 1865,397;   -0,565;    0,318
782,080; 1720,688;    1,253;    2,864
782,647; 1835,707;    1,708;    3,045
783,214; 1771,453;   -0,201;    3,864
783,781; 1898,381;    1,708;   -0,682
784,348; 1876,037;    0,253;    1,500
784,915; 1717,692;   -1,474;    0,318
785,482; 1888,438;    2,708;    2,591
786,049; 1943,366;    1,071;   -0,591
786,615; 1854,294;    1,708;   -0,955
787,182; 1801,677;   -3,201;   -0,682
787,749; 1771,241;   -2,201;    1,409
788,315; 1815,987;    0,253;   -0,409
788,882; 1807,370;    0,981;   -1,227
789,448; 2107,480;    1,435;   -0,955
790,015; 1912,135;    1,799;    3,227
790,581; 2019,426;    0,708;    0,227
791,148; 1814,263;    1,344;    1,045
791,714; 1781,828;   -1,019;    3,136
792,280; 1775,483;    3,708;    1,591
792,847; 1699,593;   -0,928;    2,500
793,413; 1790,884;   -0,110;   -0,318
793,979; 1876,540;    1,526;   -1,318
794,545; 2211,740;    2,981;    2,682
795,111; 2011,123;    2,435;    1,318
795,678; 1863,415;    3,526;   -1,682
796,244; 2053,343;    2,799;    0,136
796,810; 1979,089;    0,799;    0,773
797,375; 1953,835;   -0,292;   -2,136
797,941; 1602,036;   -1,110;    0,591
798,507; 1589,691;    0,254;   -0,955
799,073; 1603,346;    2,708;    0,591
799,639; 1656,547;    1,435;    3,136
800,205; 1617,566;   -1,565;    2,682
800,770; 1568,221;    1,345;    1,773
801,336; 1526,967;    2,981;   -0,955
801,901; 2163,077;    6,072;    3,136
802,467; 1880,096;    0,526;    2,045
803,033; 1547,297;   -0,019;    0,864
803,598; 1546,406;    1,072;   -1,045
804,163; 1611,153;    0,708;   -0,318
804,729; 1714,262;   -0,110;    1,136
805,294; 1635,554;    1,072;    2,227
805,859; 1541,482;    0,890;   -0,409
806,425; 1921,046;    3,890;    2,682
806,990; 1863,338;    1,890;    4,318
807,555; 1675,539;   -0,110;    2,591
808,120; 1831,012;   -1,292;   -0,409
808,685; 1569,667;    1,072;   -2,500
809,250; 1438,959;    2,072;   -0,500
809,815; 1518,705;   -0,201;    0,682
810,380; 1705,633;    0,981;    1,591
810,945; 1864,470;    2,890;    2,045
811,510; 1687,944;   -0,200;    1,591
812,075; 1637,508;    2,800;   -1,409
812,640; 1909,891;    3,709;    1,409
813,204; 1705,819;    2,163;   -0,227
813,769; 1913,656;    0,254;   -0,045
814,334; 1843,947;    0,527;    0,864
814,898; 1605,148;    1,981;    0,591
815,463; 1639,530;    0,981;   -0,773
816,027; 1564,549;    1,345;   -2,318
816,592; 1584,750;    2,163;   -2,045
817,156; 1628,314;   -2,200;    1,136
817,721; 1688,333;    0,982;    2,318
818,285; 1471,625;    0,618;    1,500
818,849; 1610,917;   -0,018;    1,682
819,414; 1500,754;    0,073;    2,955
819,978; 1433,136;   -0,291;    1,773
820,542; 1839,246;    2,891;    0,500
821,106; 1669,356;    2,800;    0,682
821,670; 1838,829;    2,709;    2,591
822,234; 1583,212;    1,073;    1,409
822,798; 1438,049;   -0,836;    0,500
823,362; 1740,795;    1,527;    4,227
823,926; 1469,723;   -0,018;    1,136
824,490; 1683,560;    3,527;   -0,682
825,054; 1593,943;    2,527;   -1,136
825,618; 1436,780;   -1,200;   -1,500
826,181; 1469,799;    0,982;   -1,318
826,745; 1541,999;   -0,745;   -1,045
827,309; 1814,927;    2,255;    1,318
827,872; 1657,219;    0,527;    0,955
828,436; 1632,783;    1,982;   -0,773
828,999; 1578,802;    2,436;    1,227
829,563; 1504,366;   -0,654;    1,136
830,126; 1461,204;   -0,018;   -0,591
830,690; 1495,859;    0,709;    2,864
831,253; 1367,059;   -0,473;    2,227
831,816; 1421,260;   -0,018;    0,500
832,380; 1347,734;    1,164;    0,864
832,943; 1364,389;    3,073;   -0,500
833,506; 1391,953;    0,255;   -1,227
834,069; 1615,518;    2,164;   -0,955
834,632; 1500,355;   -2,200;    1,318
835,195; 1497,646;    1,346;    0,955
835,758; 1416,392;    0,709;    1,955
836,321; 1349,230;    1,073;   -1,045
836,884; 1351,885;   -1,291;   -0,955
837,447; 1336,540;    0,528;    1,773
838,010; 1495,104;    1,800;    3,227
838,573; 1560,941;    0,528;    0,773
839,135; 1466,779;   -0,109;   -0,955
839,698; 1409,707;    2,528;    0,409
840,261; 1334,180;    0,255;   -0,227
840,823; 1304,835;   -0,927;    0,864
841,386; 1292,218;   -0,018;   -2,409
841,948; 1621,873;    0,255;    1,773
842,511; 1344,619;    0,255;    1,682
843,073; 1614,002;    2,982;    0,227
843,636; 1351,202;    0,619;   -0,227
844,198; 1560,312;    1,255;    0,591
844,760; 1522,604;    0,619;    1,955
845,322; 1285,259;    0,164;    1,136
845,885; 1439,278;   -0,290;    0,591
846,447; 1419,024;    0,710;    0,227
847,009; 1739,952;    3,983;   -0,682
847,571; 1450,153;    1,346;   -2,045
848,133; 1408,081;   -0,199;   -1,864
848,695; 1264,100;    2,346;    1,409
849,257; 1325,755;    1,346;   -1,682
849,819; 1496,319;    2,983;   -0,409
850,381; 1353,338;    1,801;   -0,864
850,942; 1445,266;    1,892;   -0,591
851,504; 1452,740;    0,983;    0,227
852,066; 1389,940;    1,619;   -1,591
852,628; 1383,777;    0,165;    1,955
853,189; 1214,433;    0,256;    2,682
853,751; 1267,179;   -0,654;    1,409
854,312; 1437,834;    1,256;   -1,682
854,874; 1600,853;   -0,108;   -0,773
855,435; 1416,599;    0,528;   -1,682
855,997; 1511,073;    3,983;   -0,136
856,558; 1531,182;    0,801;    1,773
857,119; 1397,383;   -0,744;    2,864
857,681; 1244,493;   -0,108;    0,318
858,242; 1477,330;    1,347;   -2,136
858,803; 1545,258;    1,074;   -0,773
859,364; 1469,731;    0,892;   -4,773
859,925; 1517,023;   -0,290;   -0,955
860,486; 1406,769;    0,529;   -0,955
861,047; 1286,515;    0,165;   -1,227
861,608; 1311,534;    0,165;   -0,773
862,169; 1264,190;   -0,562;   -0,045
862,730; 1312,299;   -0,290;    1,409
863,291; 1370,409;    0,438;   -0,500
863,852; 1342,883;   -0,926;    1,955
864,412; 1301,629;   -1,835;   -0,864
864,973; 1456,011;    1,892;    0,500
865,534; 1604,394;    2,074;    0,227
866,094; 1439,413;    2,620;    0,227
866,655; 1547,977;    4,711;    3,318
867,215; 1412,178;    0,074;    0,136
867,776; 1293,833;   -1,199;   -0,136
868,336; 1345,852;    1,529;    0,136
868,897; 1703,325;    3,438;    1,682
869,457; 1501,799;    3,256;    0,318
870,017; 1330,909;    2,438;   -1,227
870,578; 1344,655;    1,893;    0,773
871,138; 1311,037;    2,620;   -0,955
871,698; 1201,693;   -0,562;   -1,318
872,258; 1313,802;    0,711;   -2,864
872,818; 1528,821;    2,347;    0,045
873,378; 1337,567;   -2,198;    1,045
873,938; 1285,950;    4,984;    0,500
874,498; 1198,969;    1,256;   -1,955
875,058; 1272,624;    4,347;    1,773
875,618; 1267,007;    1,438;   -2,682
876,177; 1328,026;   -0,471;    0,136
876,737; 1088,408;   -0,289;    1,955
877,297; 1514,063;    2,711;    1,955
877,856; 1423,537;    2,529;    0,318
878,416; 1165,556;    2,438;   -0,136
878,976; 1165,847;    3,438;    0,409
879,535; 1236,503;    4,529;    3,136
880,095; 1210,340;    1,347;    0,045
880,654; 1109,995;    0,347;    1,318
881,213; 1452,468;    2,347;    1,500
881,773; 1261,578;    1,984;    2,682
882,332; 1880,870;    6,075;    5,136
882,891; 1296,707;    0,711;    2,136
883,451; 1293,180;   -2,016;    1,682
884,010; 1201,836;   -1,107;   -0,409
884,569; 1156,309;   -2,289;   -0,045
885,128; 1367,782;   -0,743;   -1,864
885,687; 1664,074;   -0,743;    0,682
886,246; 1827,638;    2,620;    2,136
886,805; 1541,748;    1,620;    2,045
887,364; 1210,767;    1,166;   -0,500
887,922; 1133,240;   -0,016;    0,045
888,481; 1281,987;    1,530;    0,591
889,040; 1425,460;    3,711;    2,136
889,599; 1307,570;    2,166;    1,409
890,157; 1316,589;    2,166;    2,409
890,716; 1219,426;    2,166;    0,227
891,274; 1319,172;    0,075;   -1,136
891,833; 1405,736;    1,166;    0,864
892,391; 1241,755;    1,802;    0,500
892,950; 1419,411;    0,166;   -0,773
893,508; 1221,611;    0,984;   -0,409
894,067; 1096,267;   -0,379;    0,136
894,625; 1199,831;   -1,016;   -1,500
895,183; 1155,941;   -0,198;   -0,682
895,741; 1476,323;    2,257;   -1,773
896,299; 1247,615;    1,621;   -2,409
896,858; 1165,634;    1,530;   -1,591
897,416; 1299,744;    0,166;   -1,318
897,974; 1230,671;   -2,197;    0,318
898,532; 1745,418;    6,530;    2,682
899,089; 1370,709;    0,621;   -0,682
899,647; 1264,455;    0,530;    1,318
900,205; 1290,383;    0,257;    1,045
900,763; 1307,039;    2,166;    0,227
901,321; 1262,148;    3,530;   -1,409
901,878; 1079,713;    3,257;   -0,773
902,436; 1123,641;    0,257;    1,318
902,994; 1939,296;    6,712;    3,682
903,551; 1421,133;    1,439;    0,409
904,109; 1307,425;    1,530;   -1,409
904,666; 1238,444;    1,439;    1,045
905,224; 1115,735;    3,894;   -0,409
905,781; 1262,481;   -0,470;   -0,318
906,338; 1189,046;    0,167;    1,045
906,895; 1072,792;    1,894;    2,045
907,453; 1362,265;    2,348;    1,136
908,010; 1207,012;    3,348;    0,409
908,567; 1141,667;   -0,561;    0,591
909,124;  956,686;    2,439;   -1,500
909,681; 1022,341;   -1,288;    0,682
910,238; 1100,996;   -0,106;   -1,318
910,795; 1082,742;   -1,561;   -1,136
911,352; 1068,470;   -0,379;   -2,682
911,909; 1063,833;    2,803;   -0,864
912,466; 1113,924;    1,985;    1,500
913,022; 1130,652;   -0,924;    0,500
913,579; 1243,197;   -0,470;    2,045
914,136; 1098,924;   -2,561;    0,955
914,692; 1174,742;    1,530;   -1,227
915,249; 1106,106;    0,530;    0,409
915,806; 1205,470;    1,803;    1,955
916,362; 1083,561;    0,894;    1,864
916,918;  991,924;    2,439;    1,045
917,475; 1215,561;    1,621;    0,955
918,031; 1036,470;    0,076;   -0,045
918,587; 1085,924;    0,621;   -0,318
919,144; 1010,379;   -0,379;    0,227
919,700;  969,652;    0,167;    0,773
920,256;  941,742;    0,439;    0,045
920,812;  970,015;    1,439;   -1,045
921,368;  935,470;    1,348;   -1,045
921,924;  927,470;    0,439;   -0,136
922,480; 1017,742;    0,076;    1,227
923,036; 1045,106;   -0,652;    1,955
923,592;  955,924;    0,621;    0,318
924,148;  969,652;    1,894;   -0,955
924,704; 1120,015;    0,258;   -0,409
925,259;  965,106;   -0,561;    0,591
925,815;  902,379;    3,803;    0,500
926,371;  868,470;    3,530;    1,409
926,926; 1036,288;    1,621;    0,591
927,482;  990,742;    1,621;    0,773
928,037;  913,470;   -0,833;    2,045
928,593; 1121,652;    0,258;    1,045
929,148;  877,742;    1,167;   -1,500
929,704;  929,379;    2,439;   -0,500
930,259;  822,379;    0,894;   -0,136
930,814; 1011,470;    1,803;    1,955
931,369;  940,652;    0,258;   -0,773
931,925;  739,288;   -1,924;    0,136
932,480;  836,833;    3,076;   -2,591
933,035; 1217,379;    3,985;   -0,318
933,590; 1092,742;   -1,742;   -1,773
934,145;  710,833;   -1,288;   -0,318
934,700;  635,106;    0,348;   -0,591
935,255;  693,379;    4,803;    0,045
935,809; 1011,197;    6,258;    0,864
936,364;  630,924;    2,167;   -0,136
936,919;  632,197;    2,348;   -1,773
937,474;  561,833;    1,348;    0,136
938,028;  574,106;    3,076;    1,136
938,583;  963,561;    6,348;    4,682
939,138;  639,652;    0,167;    2,136
939,692;  508,197;   -1,015;   -1,136
940,247;  536,561;    1,167;   -1,045
940,801;  595,197;    0,621;    0,227
941,355;  501,924;    0,439;    2,591
941,910;  411,106;    0,712;   -2,136
942,464;  444,470;    2,712;   -0,318
943,018;  675,742;    3,258;   -0,227
943,572;  517,015;    2,803;   -0,682
944,126;  564,197;   -0,924;   -0,409
944,681;  436,561;    0,712;    0,227
945,235;  389,470;    2,167;   -0,591
945,789;  351,742;    1,258;   -1,864
946,342;  631,015;   -0,561;   -0,591
946,896;  399,288;    0,348;    0,955
947,450;  371,561;   -0,561;   -0,227
948,004;  601,561;    1,076;   -0,045
948,558;  438,015;    1,258;   -0,864
949,111;  430,561;   -1,197;   -0,318
949,665;  607,197;   -0,106;   -0,682
950,219;  560,652;    0,621;   -1,045
950,772;  490,288;    0,258;    1,864
951,326;  488,379;   -1,106;   -0,955
951,879;  419,561;    1,076;   -2,318
952,433;  538,561;    1,348;    2,227
952,986;  379,561;    0,348;    0,682
953,539;  346,742;    1,530;    0,591
954,093;  304,561;    0,985;   -1,318
954,646;  431,924;   -0,288;    1,318
955,199;  355,015;    1,258;   -0,500
955,752;  558,742;    1,985;    1,773
956,305;  410,379;    0,894;    2,955
956,858;  458,106;    0,621;   -0,318
957,411;  525,197;    3,621;    2,136
957,964;  420,379;    2,076;    2,136
958,517;  348,833;    0,985;    3,136
959,070;  311,197;   -1,197;    1,955
959,623;  571,742;    1,076;    1,500
960,176;  516,924;    0,712;    2,045
960,728;  475,561;    1,712;    0,773
961,281;  421,924;    2,258;    0,500
961,834;  352,015;   -0,833;    0,864
962,386;  361,470;    1,258;    1,045
962,939;  325,924;    3,439;   -0,318
963,491;  376,197;    2,621;    1,136
964,043;  318,924;    0,076;    2,409
964,596;  486,379;    1,712;    2,227
965,148;  391,470;   -0,379;    1,773
965,700;  311,924;   -0,015;   -0,227
966,253;  457,379;   -0,833;    0,318
966,805;  423,197;    1,894;    0,773
967,357;  356,652;    0,439;   -1,500
967,909;  453,015;    1,167;   -1,227
968,461;  361,652;    0,894;    3,136
969,013;  312,924;   -1,561;   -0,864
969,565;  452,288;    1,803;   -1,136
970,117;  672,379;    3,803;    1,045
970,669;  452,106;    3,258;   -0,136
971,220;  270,470;    2,167;   -1,500
971,772;  355,288;    1,348;   -0,318
972,324;  436,015;   -1,197;   -0,500
972,876;  345,561;    0,167;   -0,045
973,427;  460,833;   -1,197;   -1,045
973,979;  517,742;    0,076;   -2,500
974,530;  339,015;    0,803;    1,318
975,082;  396,833;    2,167;    1,682
975,633;  351,015;    2,894;    1,682
976,184;  406,742;    2,076;    0,773
976,736;  389,742;    0,348;    0,227
977,287;  401,015;    0,258;   -0,500
977,838;  368,379;   -0,924;   -0,318
978,389;  377,833;    0,803;   -0,500
978,940;  257,288;    1,258;   -0,409
979,491;  253,924;    2,258;   -0,500
980,042;  343,470;   -0,652;    3,045
980,593;  349,106;    1,894;    0,227
981,144;  430,106;    3,530;   -0,500
981,695;  469,288;   -0,470;    1,500
982,246;  414,833;   -1,833;    1,045
982,797;  301,106;   -0,561;    0,682
983,347;  444,197;    2,167;    0,591
983,898;  632,015;    4,167;    0,409
984,449;  587,652;    2,530;    0,773
984,999;  434,924;    1,894;   -1,136
985,550;  385,652;    3,167;   -0,318
986,100;  268,197;    0,712;   -0,318
986,651;  265,106;    0,258;    0,045
987,201;  292,470;    0,894;   -0,591
987,751;  307,015;   -0,288;    2,864
988,302;  346,833;   -0,379;    1,500
988,852;  393,470;    1,985;   -1,136
989,402;  444,742;    0,985;    0,682
989,952;  465,742;    1,621;    0,864
990,502;  335,561;    1,076;    0,682
991,052;  250,379;   -0,106;    0,045
991,602;  287,106;    1,167;    1,318
992,152;  326,561;    2,803;    0,682
992,702;  359,652;    1,167;   -0,045
993,252;  313,106;    0,076;   -0,500
993,802;  400,197;    1,167;    1,318
994,352;  366,652;   -0,742;    1,136
994,901;  288,379;    1,076;    3,227
995,451;  276,742;   -1,197;    0,318
996,000;  308,470;    1,076;    0,318
996,550;  311,379;    2,894;    0,227
997,100;  341,833;   -0,561;   -0,045
997,649;  474,470;   -0,197;    0,955
998,198;  305,470;   -0,288;   -1,500
998,748;  406,742;    0,348;   -2,318
999,297;  352,470;    0,985;   -0,409
999,846;  470,106;    1,894;   -0,773
1000,395;  390,015;    1,530;    0,500
1000,945;  484,197;    1,076;   -0,773
1001,494;  484,197;    0,167;    0,682
1002,043;  468,015;    0,712;    0,864
1002,592;  307,106;    3,439;    1,955
1003,141;  310,015;    2,439;   -0,682
1003,690;  448,742;    1,258;    0,500
1004,238;  340,924;   -0,106;   -0,045
1004,787;  256,379;   -1,288;    1,227
1005,336;  413,742;    1,621;    0,682
1005,885;  378,742;   -0,197;   -2,773
1006,433;  374,015;   -0,470;    0,955
1006,982;  541,106;    2,167;    1,682
1007,531;  410,833;    2,712;   -0,227
1008,079;  363,924;    0,258;    0,500
1008,627;  316,379;    1,621;    0,409
1009,176;  334,742;    0,076;   -1,955
1009,724;  285,561;   -2,742;    0,864
1010,273;  424,197;    1,076;    0,500
1010,821;  322,015;    1,076;    1,409
1011,369;  276,833;    0,076;    1,318
1011,917;  292,652;   -0,833;   -0,591
1012,465;  374,379;    2,530;   -1,591
1013,013;  361,379;    0,439;   -1,682
1013,561;  456,106;   -1,288;   -0,773
1014,109;  542,288;   -0,833;    1,682
1014,657;  422,833;    1,348;    0,591
1015,205;  332,015;    0,894;   -0,955
1015,753;  282,924;    0,258;   -1,409
1016,301;  355,015;    2,621;    3,045
1016,848;  424,106;    2,167;    0,409
1017,396;  411,652;    1,621;    0,045
1017,944;  411,015;    2,621;    1,864
1018,491;  332,015;   -0,197;    1,409
1019,039;  621,833;   -0,652;    0,591
1019,586;  400,379;    0,076;    1,682
1020,134;  381,742;    0,712;    1,500
1020,681;  451,106;    2,894;   -1,136
1021,228;  372,470;   -0,561;   -2,227
1021,776;  346,197;   -0,833;   -1,136
1022,323;  556,833;    0,803;    0,773
1022,870;  463,833;   -0,470;   -0,045
1023,417;  506,833;    2,076;    1,864
1023,964;  358,197;    0,621;    1,227
1024,511;  334,833;   -0,652;    0,773
1025,058;  358,288;    0,439;   -0,045
1025,605;  325,470;   -1,742;    3,136
1026,152;  517,924;   -0,106;   -0,591
1026,699;  383,652;    0,167;    1,318
1027,245;  367,924;    2,439;    0,318
1027,792;  323,470;    0,712;    1,409
1028,339;  515,833;    4,076;   -0,045
1028,885;  390,197;    3,621;   -0,227
1029,432;  342,652;   -0,106;    0,227
1029,978;  438,379;    1,348;   -1,591
1030,525;  426,106;    1,621;    0,409
1031,071;  318,379;    0,348;    1,136
1031,618;  581,742;    1,258;    1,682
1032,164;  426,379;    2,076;    3,045
1032,710;  454,197;    0,076;   -1,500
1033,256;  426,470;    0,712;   -0,136
1033,803;  303,833;   -0,288;    1,500
1034,349;  183,106;    1,803;    0,136
1034,895;  235,652;    2,621;   -0,318
1035,441;  293,652;    0,439;    0,318
1035,987;  340,197;   -2,288;   -0,682
1036,533;  409,379;   -0,197;   -0,955
1037,078;  589,288;    4,712;    1,682
1037,624;  449,379;    2,439;   -0,955
1038,170;  323,106;    1,712;   -0,318
1038,716;  394,652;    2,167;   -0,409
1039,261;  296,015;    2,167;   -0,773
1039,807;  306,015;   -0,015;    3,409
1040,352;  332,470;   -1,288;   -0,318
1040,898;  325,288;    0,167;   -0,682
1041,443;  264,833;    0,803;   -2,591
1041,989;  536,924;    3,621;    1,591
1042,534;  356,742;    0,985;    2,591
1043,079;  261,742;    1,985;    0,955
1043,625;  337,470;    0,258;    0,500
1044,170;  353,652;    2,439;    1,045
1044,715;  537,833;    0,167;    0,955
1045,260;  443,742;   -0,833;   -0,955
1045,805;  313,288;    0,258;   -0,591
1046,350;  281,106;    0,530;   -0,409
1046,895;  441,924;    0,803;    1,591
1047,440;  425,379;    1,530;    0,409
1047,985;  317,833;   -1,197;   -0,955
1048,530;  285,288;    1,348;    1,227
1049,074;  336,742;    2,803;    0,318
1049,619;  284,015;   -0,924;    1,955
1050,164;  271,015;    1,076;    0,227
1050,708;  354,924;    2,621;    0,045
1051,253;  574,288;    3,258;   -2,227
1051,797;  387,106;   -0,197;   -1,318
1052,342;  249,924;    1,348;    1,045
1052,886;  325,015;    1,803;   -1,409
1053,430;  235,652;    2,167;    0,136
1053,975;  317,924;    0,894;   -0,318
1054,519;  317,470;    1,803;    3,227
1055,063;  371,833;    3,621;    1,318
1055,607;  358,015;    1,348;    0,227
1056,151;  358,652;    0,530;    1,682
1056,695;  276,106;   -1,833;   -1,136
1057,239;  279,288;   -1,197;   -0,682
1057,783;  314,379;    2,258;   -1,500
1058,327;  375,652;    3,076;    1,409
1058,871;  505,924;    3,985;    1,318
1059,415;  388,652;   -0,561;   -0,045
1059,958;  524,288;    2,985;    2,591
1060,502;  314,106;    1,348;   -0,773
1061,046;  228,470;    1,712;   -0,955
1061,589;  214,288;    2,803;   -1,136
1062,133;  190,106;    0,985;    1,864
1062,676;  228,379;    1,439;    0,864
1063,220;  255,833;    0,985;    0,500
1063,763;  284,379;    2,985;    1,136
1064,306;  299,652;    0,985;    1,864
1064,849;  298,833;    2,076;    0,591
1065,393;  278,652;    2,894;   -1,500
1065,936;  282,833;    2,530;   -0,409
1066,479;  215,288;    2,621;    1,318
1067,022;  238,652;    1,894;   -0,227
1067,565;  214,379;   -1,197;   -1,318
1068,108;  196,288;    1,258;   -0,591
1068,651;  178,652;   -2,470;    1,409
1069,194;  179,652;   -1,106;   -1,682
1069,736;  193,924;    3,803;    0,955
1070,279;  175,288;   -1,652;   -0,500
1070,822;  249,561;    1,530;   -0,318
1071,364;  359,197;    0,530;    1,318
1071,907;  236,561;    0,348;    3,227
1072,450;  122,015;    0,258;   -0,045
1072,992;  182,288;   -0,561;    3,136
1073,535;  238,652;    0,167;    2,136
1074,077;  177,197;    2,985;    2,045
1074,619;  164,470;    0,985;    0,591
1075,161;  196,652;   -0,561;    1,500
1075,704;  302,561;    0,258;    1,227
1076,246;  185,652;    1,530;    0,682
1076,788;  135,833;   -1,015;    1,773
1077,330;  141,197;   -2,106;    2,136
1077,872;  174,197;   -1,924;    0,955
1078,414;  320,197;    3,712;    0,773
1078,956;  193,470;    0,167;   -0,227
1079,498;  312,288;    0,439;    0,318
1080,040;  189,924;    0,985;   -1,318
1080,581;  155,288;    0,621;   -0,318
1081,123;  112,379;   -0,106;   -0,773
1081,665;  126,379;    3,803;   -0,955
1082,206;  285,106;    3,258;   -0,500
1082,748;  214,197;    3,258;    2,045
1083,289;  141,470;    0,167;    1,318
1083,831;  130,561;    0,258;    0,227
1084,372;  163,106;    0,894;    0,591
1084,913;  159,652;    3,348;    0,864
1085,455;  128,197;    1,530;   -2,045
1085,996;  121,470;    0,530;    0,136
1086,537;  145,288;    0,985;    0,864
1087,078;  154,652;    0,439;   -2,136
1087,619;  196,379;   -1,652;    0,227
1088,160;  165,470;    1,439;    1,318
1088,701;  150,197;   -0,742;    0,682
1089,242;  134,742;   -0,561;   -2,227
1089,783;  178,197;   -0,561;    1,409
1090,324;  157,561;   -0,833;    0,682
1090,865;  117,106;   -1,924;   -0,409
1091,405;   95,833;   -0,561;    2,227
1091,946;  129,288;   -0,197;   -0,955
1092,487;   90,742;   -1,288;   -1,409
1093,027;  185,742;    1,803;   -1,500
1093,568;  126,742;    2,258;    1,227
1094,108;  155,470;    0,621;    1,773
1094,649;  125,924;   -0,470;    0,136
1095,189;  103,924;    1,167;   -0,682
1095,729;  100,197;    0,712;    0,955
1096,269;   98,197;    1,258;   -0,955
1096,810;  220,561;   -0,197;    0,500
1097,350;  165,197;   -0,561;   -0,773
1097,890;  126,742;    2,985;    1,227
1098,430;  264,470;    4,985;    2,864
1098,970;  211,652;    1,894;    1,682
1099,510;  121,561;   -0,833;   -2,318
1100,050;  107,015;    0,258;   -1,591
1100,589;  110,015;    0,076;   -0,318
1101,129;  153,197;    0,894;   -0,955
1101,669;  220,197;    2,803;    2,136
1102,209;  153,742;    1,530;    2,227
1102,748;  122,379;    3,439;    0,955
1103,288;  131,833;    0,712;   -1,227
1103,827;  124,015;    3,530;   -2,227
1104,367;   92,561;    1,712;   -2,409
1104,906;   92,288;   -1,015;   -1,136
1105,445;  127,015;    0,985;   -1,136
1105,985;  102,470;   -0,652;    1,500
1106,524;  114,379;    1,530;   -0,682
1107,063;  111,106;    1,167;    1,409
1107,602;   89,379;    1,894;   -1,500
1108,141;   73,106;    1,621;    1,500
1108,680;  125,197;    3,985;   -0,591
1109,219;  102,015;    0,167;   -0,500
1109,758;   99,288;    4,167;    0,682
1110,297;   96,288;   -1,106;   -0,682
1110,836;   72,015;    1,439;    0,955
1111,375;   93,924;    0,348;    0,409
1111,913;  130,924;    0,985;    0,773
1112,452;  106,106;    0,894;    0,136
1112,991;   69,561;    1,076;    1,955
1113,529;   68,924;    0,167;   -0,045
1114,068;   91,015;    0,439;    2,955
1114,606;   63,197;   -0,561;   -0,955
1115,144;  114,652;    1,530;    1,045
1115,683;   92,106;    1,985;    0,318
1116,221;  117,742;    2,076;   -0,864
1116,759;   77,470;    1,621;   -0,864
1117,297;  139,742;    1,621;    1,864
1117,836;   85,833;    1,985;   -1,227
1118,374;   83,833;    0,258;   -0,682
1118,912;   87,197;    0,439;    2,682
1119,450;   84,470;    0,985;    0,864
1119,988;   80,833;    3,348;    2,136
1120,525;  320,742;    7,258;    3,318
1121,063;  166,379;    0,530;    1,864
1121,601;   85,470;    1,076;   -1,227
1122,139;   66,470;    1,076;   -2,045
1122,676;  150,561;   -1,652;    2,773
1123,214;  129,652;    0,712;    4,409
1123,751;   64,652;    0,621;    2,227
1124,289;   93,470;    0,894;   -0,409
1124,826;   67,742;   -0,379;    0,227
1125,364;   40,833;    0,712;   -0,955
1125,901;  125,379;    6,258;    1,227
1126,438;  126,288;    3,530;    0,955
1126,975;   38,197;    2,985;   -0,773
1127,513;   55,379;    2,621;    2,136
1128,050;   45,561;   -0,561;   -0,682
1128,587;   70,197;    1,348;   -0,227
1129,124;   89,015;   -0,015;    1,318
1129,661;   51,470;   -1,924;    0,227
1130,198;  105,652;    2,439;    0,773
1130,734;   74,924;   -0,379;    1,409
1131,271;   38,379;   -1,197;    0,864
1131,808;   93,379;    1,621;    3,045
1132,345;   59,379;    4,530;    0,318
1132,881;   20,652;   -0,561;   -1,864
1133,418;   61,561;    0,348;   -1,136
1133,954;   45,742;    0,712;   -2,682
1134,491;   70,561;    1,712;   -0,773
1135,027;   42,470;    2,167;    0,864
1135,564;   63,106;    1,439;    2,955
1136,100;   61,742;   -0,742;    2,136
1136,636;   34,652;   -1,015;   -1,045
1137,172;   50,379;    0,894;   -1,045
1137,708;   37,197;   -1,561;   -1,045
1138,245;   34,197;    0,803;   -1,227
1138,781;   27,833;    1,803;   -3,318
1139,317;   42,833;    1,894;   -1,409
1139,852;   48,742;    3,076;    0,136
1140,388;   63,924;    2,076;   -0,409
1140,924;   38,833;    1,076;   -2,227
1141,460;   23,924;   -0,288;    0,136
1141,996;   15,652;   -0,652;    2,682
1142,531;   24,561;    1,076;    3,318
1143,067;   84,561;    1,167;    1,045
1143,602;  109,197;    3,439;   -0,318
1144,138;   55,924;    0,803;    1,045
1144,673;   24,924;    1,621;    1,409
1145,209;   39,652;    2,894;   -0,318
1145,744;   18,924;    0,803;    0,864
1146,279;   51,015;    1,530;   -0,136
1146,815;   33,924;    1,530;   -2,682
1147,350;   48,924;   -0,924;    0,045
1147,885;   29,197;   -1,924;   -1,318
1148,420;   24,015;    2,439;    0,773
1148,955;   23,470;   -1,470;    1,864
1149,490;   22,652;   -1,106;   -1,591
1150,025;   18,561;   -1,106;   -1,773
1150,560;   50,288;   -0,288;   -0,955
1151,094;   41,288;    0,258;   -0,591
1151,629;   36,652;   -3,742;    0,864
1152,164;   24,379;   -1,288;    1,318
1152,698;   16,470;    1,258;   -0,136
1153,233;    7,288;   -1,379;   -0,682
1153,767;   16,106;   -0,288;   -2,318
1154,302;   29,561;   -0,379;    1,773
1154,836;   27,742;    0,803;   -2,136
1155,371;   32,742;    2,258;    3,682
1155,905;   23,833;    1,985;    1,682
1156,439;   22,379;    0,530;   -0,500
1156,973;   26,833;    0,439;    0,318
1157,507;   14,379;   -1,742;    0,682
1158,042;   19,197;   -0,652;    1,045
1158,576;   30,561;   -0,561;    1,773
1159,110;   27,379;    0,076;    2,409
1159,643;   23,015;   -2,470;   -0,045
1160,177;   13,106;   -2,015;    1,500

