
Integration time [ms]:   0,050
Averaging Nr. [scans]: 11
Smoothing Nr. [pixels]: 0
Data measured with spectrometer [name]: 7318044SP
Wave   ;Sample   ;Dark     ;Reference
[nm]   ;[counts] ;[counts] ;[counts] 

186,757;    3,079;   38,161;    1,318
187,357;   20,851;   26,706;    0,955
187,958;   10,155;   17,252;   -1,591
188,558;   26,789;   12,979;   -1,227
189,159;    9,968;   10,070;   -4,500
189,759;    5,957;    5,797;   -3,591
190,360;    6,860;    6,797;   -2,136
190,960;   17,112;    5,706;   -4,136
191,560;   23,824;    2,614;   -6,591
192,161;  127,542;    5,885;   -3,500
192,761;   72,449;    5,520;   -3,227
193,361;   45,563;    3,065;   -3,773
193,962;   63,867;    1,612;   -2,682
194,562;   27,236;   -0,114;   -3,955
195,162;   26,774;   -0,567;   -2,227
195,762;   87,007;    2,433;   -0,045
196,362;   59,201;    1,706;   -2,500
196,963;   20,258;    1,706;   -0,864
197,563;   41,070;    1,252;   -0,955
198,163;   20,554;   -0,111;   -0,682
198,763;   28,502;   -0,020;   -0,500
199,363;   53,252;    3,616;   -0,500
199,963;   39,253;    2,162;    0,409
200,563;   33,185;    6,344;   -1,409
201,163;   25,051;    5,435;   -0,227
201,763;   46,372;    1,435;    0,318
202,363;   29,992;    0,980;    1,500
202,963;   51,316;    1,526;    1,045
203,563;   97,225;    0,344;    0,500
204,162;   49,259;    1,889;   -1,864
204,762;   42,716;    2,071;    0,591
205,362;   28,114;    0,708;    1,955
205,962;   50,679;    3,435;    1,955
206,562;   52,131;    1,889;    2,318
207,161;   39,080;    1,708;    0,318
207,761;  108,770;    4,435;    2,409
208,361;   54,912;    1,889;    1,409
208,960;   78,276;    2,889;    1,500
209,560;   74,106;    0,435;    1,591
210,160;   89,804;    5,071;    1,864
210,759;   71,631;    0,708;    1,227
211,359;   57,597;   -0,474;    1,045
211,958;  174,194;    3,526;    2,045
212,558;  193,415;    0,799;    1,864
213,157;  114,526;   -0,929;    1,500
213,757;  292,376;    5,617;   -0,227
214,356;  159,424;    1,708;   -0,409
214,956;  288,719;    3,526;    0,409
215,555;  130,691;    0,617;    2,136
216,154;  100,694;   -0,292;   -0,591
216,754;  105,859;    1,253;    0,773
217,353;  134,768;   -0,383;   -1,045
217,952;   61,686;    2,072;    0,318
218,552;  172,240;    0,254;   -0,773
219,151;  117,981;   -1,110;    0,955
219,750;  110,149;    0,890;   -0,227
220,349;  106,916;   -2,292;    1,045
220,948;  201,035;    1,163;    1,136
221,548;  131,370;    0,617;    1,227
222,147;  169,512;   -1,292;   -0,409
222,746;  306,282;    1,254;   -0,955
223,345;  206,689;   -1,019;    0,500
223,944;  224,160;    1,163;    0,773
224,543;  249,776;    4,072;   -1,409
225,142;  265,402;    1,345;    0,136
225,741;  251,490;    1,163;    1,045
226,340;  240,899;    1,254;   -0,955
226,939;  388,677;    2,708;   -0,136
227,538;  251,558;    1,163;   -0,773
228,137;  395,606;    0,435;    0,864
228,735;  353,597;    0,435;    1,227
229,334;  227,217;   -0,474;   -0,227
229,933;  452,058;    0,799;    0,591
230,532;  479,864;   -1,201;   -0,409
231,131;  555,072;    1,253;    0,318
231,729;  427,651;    1,163;   -2,318
232,328;  364,441;    0,435;   -1,500
232,927;  376,927;    4,526;   -0,500
233,525;  358,379;    0,981;    0,045
234,124;  424,589;    1,890;   -1,591
234,723;  347,930;    1,617;   -1,045
235,321;  351,336;    1,163;    0,136
235,920;  416,660;    2,526;   -1,227
236,518;  603,157;    1,072;    0,318
237,117;  430,194;    2,890;   -0,227
237,715;  451,859;    1,163;   -0,500
238,314;  521,072;    1,708;   -2,318
238,912;  684,256;    0,526;   -1,409
239,510;  547,040;    1,162;   -1,227
240,109;  687,861;   -0,474;    3,773
240,707;  642,265;   -0,474;    1,227
241,305;  491,327;   -0,383;    0,136
241,904;  629,691;   -0,292;   -2,045
242,502;  744,080;    3,253;   -0,227
243,100;  621,478;    3,344;   -0,955
243,698;  562,961;    2,799;    1,682
244,297;  611,498;   -0,656;    0,682
244,895;  614,683;   -0,474;   -2,318
245,493;  833,583;    2,981;   -0,591
246,091;  821,001;    5,163;   -1,318
246,689;  743,356;    2,163;    0,591
247,287;  698,526;   -0,019;   -1,136
247,885;  685,515;   -1,019;    1,227
248,483;  649,606;   -0,201;   -0,500
249,081;  744,493;    0,981;    1,591
249,679;  798,007;   -1,019;    1,682
250,277;  663,546;   -2,292;    0,864
250,875;  803,577;    0,617;   -1,045
251,473;  689,478;   -0,019;    0,500
252,071;  801,697;   -0,383;    1,045
252,669;  732,251;   -1,565;    0,318
253,267;  688,905;    1,618;    0,773
253,864;  725,890;    0,617;    0,682
254,462;  900,308;    1,526;    1,591
255,060;  661,265;    0,072;    1,318
255,658;  651,342;   -3,292;   -0,136
256,255;  781,700;   -0,201;   -2,045
256,853;  818,424;    2,345;    1,409
257,451;  799,384;    1,981;    1,864
258,048; 1288,524;    2,072;    1,864
258,646;  907,027;    0,436;   -1,045
259,243; 1027,061;    2,981;    2,227
259,841;  905,802;    1,799;    0,318
260,438;  743,339;    0,254;    0,864
261,036;  912,964;    0,617;    1,409
261,633;  817,723;    1,526;    2,227
262,231;  751,228;   -0,110;   -0,045
262,828;  787,268;   -0,383;    1,136
263,425;  836,234;   -1,928;   -0,591
264,023;  839,356;    1,436;    0,045
264,620;  965,828;    1,526;   -0,318
265,217; 1114,987;    2,890;    3,136
265,815;  837,657;    2,527;    2,136
266,412;  963,277;    0,072;    0,136
267,009;  987,194;    0,526;    0,773
267,606; 1101,663;    0,345;   -0,955
268,203;  864,910;   -0,383;   -0,591
268,801;  936,518;   -0,474;    0,591
269,398;  869,362;   -0,564;    2,500
269,995; 1017,540;    0,890;    1,591
270,592;  906,674;    0,799;   -0,500
271,189;  851,547;    1,981;    0,409
271,786;  845,882;    2,072;    1,227
272,383; 1112,890;   -0,383;    0,227
272,980;  947,663;    1,617;    0,318
273,577;  936,663;    2,162;    1,227
274,174;  834,063;    1,435;    2,591
274,771;  961,796;    1,890;   -0,773
275,367; 1424,472;    3,253;    1,409
275,964; 1223,217;   -0,565;   -0,500
276,561; 1004,004;   -2,474;   -1,045
277,158;  934,370;    1,799;   -1,773
277,755; 1201,765;   -0,110;    0,409
278,351;  994,927;    0,436;   -1,500
278,948; 1109,845;   -0,201;    0,045
279,545; 1003,473;    0,527;    2,318
280,141; 1318,987;    1,254;   -2,045
280,738; 1182,598;    2,435;   -0,136
281,334;  976,089;   -0,383;    0,591
281,931;  968,004;    2,890;   -1,318
282,528; 1079,692;    4,072;   -0,500
283,124; 1240,944;    3,345;   -0,500
283,721; 1204,788;    0,709;    1,409
284,317; 1028,564;    0,163;    2,500
284,913; 1288,893;   -0,110;    0,591
285,510; 1598,893;    2,890;   -0,318
286,106; 1380,416;    2,345;   -0,955
286,703; 1030,362;    0,072;    1,955
287,299; 1013,711;    1,254;   -0,591
287,895; 1058,376;    0,890;   -1,045
288,491; 1118,362;    0,163;    2,136
289,088; 1204,709;    0,163;    2,409
289,684; 1232,796;    2,890;    1,500
290,280; 1383,870;    1,890;    0,682
290,876; 1356,725;    0,163;    5,500
291,472; 1245,555;    2,163;    2,227
292,068; 1253,615;    1,254;    0,227
292,665; 1083,257;   -0,564;    0,773
293,261;  944,473;   -1,292;    2,136
293,857; 1167,944;    4,072;    2,136
294,453; 1096,322;   -0,928;    0,955
295,049; 1302,222;    0,253;    1,955
295,644; 1114,367;   -1,292;    0,136
296,240;  980,492;    0,162;   -0,136
296,836; 1141,031;   -0,747;    0,318
297,432; 1318,335;    2,980;   -0,500
298,028; 1380,432;    0,435;    0,773
298,624; 1219,239;    0,889;    1,864
299,220; 1207,887;    0,435;    0,591
299,815; 1150,540;    0,526;   -0,409
300,411; 1253,222;    0,435;    1,773
301,007; 1398,588;    1,889;    0,227
301,602; 1209,318;    2,071;   -2,318
302,198; 1328,412;    1,435;   -0,773
302,794; 1190,040;    1,526;   -0,500
303,389; 1190,066;    1,071;    1,045
303,985; 1251,906;    1,253;    1,409
304,580; 1339,850;    0,889;    1,591
305,176; 1233,583;    0,344;    0,136
305,771; 1105,208;   -0,929;   -1,227
306,367; 1506,719;    3,071;    0,136
306,962; 1308,137;    2,889;    1,500
307,558; 1276,495;    2,435;    0,136
308,153; 1381,864;   -0,383;   -1,136
308,748; 1193,537;    0,162;    1,682
309,344; 1595,449;    0,253;   -1,318
309,939; 1618,830;    2,071;   -1,318
310,534; 1299,867;   -2,020;   -1,682
311,130; 1231,097;   -0,656;   -2,500
311,725; 1135,892;    0,526;   -0,500
312,320; 1235,787;    1,253;    0,045
312,915; 1395,239;    2,890;   -1,045
313,510; 1612,813;    0,526;   -0,500
314,105; 1420,804;   -3,565;    1,409
314,700; 1145,690;   -1,656;   -1,045
315,295; 1212,031;   -0,020;    0,045
315,890; 1096,301;   -0,292;    0,864
316,485; 1222,819;    0,253;   -0,318
317,080; 1182,426;   -0,929;    1,591
317,675; 1537,705;    3,071;   -0,682
318,270; 1695,636;    6,889;    3,318
318,865; 1605,901;    2,435;    3,045
319,460; 1374,497;   -1,565;    0,591
320,055; 1268,276;   -2,565;   -1,227
320,650; 1213,503;   -1,838;   -0,591
321,244; 1218,955;    0,889;   -1,409
321,839; 1395,625;    0,980;   -0,227
322,434; 1416,060;   -0,111;   -1,591
323,029; 1280,318;   -0,474;    1,591
323,623; 1226,355;    0,798;    0,773
324,218; 1362,259;    2,707;    1,409
324,812; 1297,776;    0,889;    1,591
325,407; 1295,588;   -0,929;    2,045
326,002; 1391,057;    0,526;   -0,409
326,596; 1361,029;   -0,656;    1,318
327,191; 1236,651;   -0,383;   -1,045
327,785; 1152,665;   -0,747;   -0,227
328,379; 1270,745;   -0,383;    0,136
328,974; 1242,566;    1,798;   -3,955
329,568; 1322,242;    2,889;   -2,409
330,163; 1373,156;    2,435;    1,045
330,757; 1265,750;    0,253;    1,591
331,351; 1168,478;   -0,292;    0,682
331,945; 1170,577;   -0,383;    1,409
332,540; 1302,122;    1,617;   -0,591
333,134; 1260,401;    3,344;    0,773
333,728; 1244,574;    2,799;    0,318
334,322; 1215,730;    0,889;   -0,864
334,916; 1106,310;    0,344;    0,955
335,510; 1324,191;   -0,111;   -0,136
336,105; 1348,378;   -0,929;    1,591
336,699; 1176,603;   -1,292;    0,591
337,293; 1209,290;    1,071;    0,318
337,887; 1152,972;    0,071;    1,955
338,481; 1323,117;    2,980;    0,591
339,074; 1475,938;    2,071;    2,682
339,668; 1413,347;   -0,110;    1,227
340,262; 2074,321;    7,708;    3,227
340,856; 1582,211;    1,708;   -0,682
341,450; 1156,830;    0,708;    1,864
342,044; 1301,927;    1,799;    0,136
342,637; 1434,316;    1,162;   -2,136
343,231; 1454,026;   -1,474;    0,682
343,825; 1228,776;   -0,747;   -0,591
344,419; 1232,264;   -0,474;    0,500
345,012; 1840,918;    2,889;    4,045
345,606; 1607,773;   -0,656;    1,591
346,199; 1263,574;   -0,111;   -0,227
346,793; 1381,347;    2,525;    2,045
347,386; 1199,310;    0,889;   -1,136
347,980; 1048,429;   -0,838;   -0,045
348,573; 1160,835;   -1,748;    0,409
349,167; 1426,497;    6,161;    4,773
349,760; 1402,426;    2,252;    2,682
350,354; 1308,755;    1,616;    1,136
350,947; 1343,300;    2,798;    1,682
351,540; 1150,014;    0,616;   -1,409
352,134;  991,065;   -1,111;    1,136
352,727; 1057,023;   -0,657;    1,136
353,320; 1091,747;    2,343;    0,591
353,913;  971,710;   -1,929;    1,864
354,507; 1213,934;    0,434;   -1,227
355,100; 1128,792;    0,071;    0,864
355,693; 1500,658;    4,798;    2,409
356,286; 1222,147;    0,980;    2,773
356,879; 1087,534;   -0,475;    1,227
357,472; 1026,017;    0,980;    1,500
358,065; 1111,150;    3,161;    2,500
358,658;  971,707;    0,798;    2,318
359,251;  886,997;    0,252;   -0,591
359,844; 1056,488;    0,343;   -1,136
360,437; 1171,534;    0,252;    0,045
361,030; 1038,176;    0,525;   -0,682
361,623;  992,948;    0,434;    0,318
362,215; 1238,491;    0,979;    2,045
362,808; 1077,724;   -2,293;   -1,682
363,401; 1002,150;    0,798;    0,136
363,994; 1250,343;    3,252;   -1,500
364,586; 1014,008;    0,888;   -1,500
365,179;  954,130;   -0,203;   -1,136
365,772;  763,707;   -0,930;    2,045
366,364;  922,581;    1,524;   -3,227
366,957; 1059,189;    1,342;   -0,045
367,549;  952,453;   -0,203;   -0,864
368,142;  943,603;    0,978;   -1,500
368,734;  923,907;    2,523;   -2,136
369,327;  844,563;    2,341;   -0,500
369,919;  878,097;   -1,659;    0,409
370,512;  920,508;   -1,023;   -0,500
371,104; 1165,772;    2,704;    1,591
371,696; 1242,177;    1,703;   -0,955
372,289; 1087,092;    0,157;    1,136
372,881; 1026,216;    1,156;    1,318
373,473;  880,786;    4,064;    1,136
374,066;  999,574;    1,336;    0,500
374,658;  957,902;    0,879;    1,136
375,250;  911,778;   -1,668;   -1,409
375,842;  961,043;   -0,124;   -0,045
376,434;  894,113;   -2,762;   -0,409
377,026;  959,662;   -1,855;   -2,500
377,618;  981,580;    0,779;   -0,682
378,210;  889,564;    3,141;   -1,955
378,802;  825,114;    3,412;   -0,591
379,394; 1309,817;    3,411;    0,682
379,986; 1091,978;    1,138;   -0,955
380,578;  995,009;    1,410;    0,773
381,170; 1222,385;    0,320;    0,045
381,762; 1083,395;   -0,224;    1,409
382,354; 1040,584;   -0,223;   -1,318
382,945;  936,528;    0,870;    0,318
383,537;  894,914;    1,144;   -1,955
384,129;  915,023;    0,963;   -1,136
384,721; 1046,052;    0,418;    0,955
385,312;  937,569;   -1,399;   -0,955
385,904; 1086,947;   -0,945;    1,591
386,496;  896,475;    0,691;    1,045
387,087; 1088,045;    0,418;    2,500
387,679; 1028,071;   -0,401;    0,045
388,270; 1039,965;   -2,401;    2,045
388,862;  981,832;   -0,401;   -0,318
389,453;  904,929;    1,054;    1,045
390,045;  979,108;    3,236;   -2,682
390,636;  903,602;    0,144;   -0,591
391,227;  913,983;    2,054;   -0,045
391,819;  937,764;    0,781;    0,773
392,410; 1220,239;    0,600;    0,045
393,001; 1007,120;    1,600;   -1,591
393,593; 1095,887;    0,600;   -0,045
394,184; 1130,501;    0,873;   -0,409
394,775;  937,330;    1,146;    2,136
395,366;  950,747;    1,782;    0,773
395,957; 1165,077;   -2,400;    0,136
396,548; 1047,208;    1,054;    2,682
397,139; 1224,412;    2,236;    0,591
397,730; 1079,909;    0,873;    0,955
398,321; 1076,114;    0,509;    0,955
398,912; 1005,094;   -0,764;    0,136
399,503; 1059,716;   -1,945;   -1,409
400,094; 1042,856;   -1,582;    1,682
400,685; 1027,628;    3,600;    0,045
401,276;  934,560;   -0,400;   -0,955
401,867;  957,995;   -1,127;    0,773
402,458;  943,631;    1,509;   -2,318
403,048; 1117,145;    0,146;    0,591
403,639;  972,063;    1,509;    0,864
404,230; 1185,711;    0,691;    0,318
404,821; 1242,898;   -0,127;    0,045
405,411; 1134,782;   -0,763;   -2,591
406,002;  963,620;    3,237;   -1,136
406,592; 1262,015;    2,691;    0,045
407,183; 1088,118;    0,328;   -1,500
407,774; 1025,186;    1,419;   -0,136
408,364; 1032,561;    2,600;    0,409
408,954; 1150,833;   -0,036;    1,227
409,545; 1154,717;    1,873;    1,045
410,135; 1037,319;   -1,581;    0,500
410,726; 1004,931;    0,783;    0,318
411,316; 1249,166;    2,237;    0,773
411,906; 1007,084;    0,146;   -0,409
412,497;  994,771;   -0,490;   -0,045
413,087;  984,703;    0,783;   -0,227
413,677;  963,752;   -2,490;    3,864
414,267;  926,533;   -1,035;    1,409
414,857;  888,584;    0,419;    4,227
415,448;  921,748;   -0,763;    0,500
416,038;  940,703;   -2,945;   -0,591
416,628;  977,271;    0,965;    0,409
417,218; 1051,297;   -1,762;    3,318
417,808; 1256,621;    0,965;   -0,409
418,398; 1102,269;   -1,035;    2,682
418,988;  953,945;   -2,217;    0,591
419,578; 1060,709;    3,601;    1,409
420,168; 1085,374;    0,692;   -0,955
420,757; 1224,933;    0,964;   -1,500
421,347; 1045,042;    1,601;   -0,227
421,937;  998,383;    3,329;    1,409
422,527; 1168,130;    2,602;   -0,773
423,116; 1318,354;    2,692;   -0,045
423,706; 1029,098;    2,965;    0,318
424,296;  916,718;    1,601;    0,682
424,885; 1176,900;    1,510;   -3,045
425,475; 1134,846;    1,147;   -2,864
426,065;  989,195;   -1,489;   -0,318
426,654;  952,369;    0,329;   -0,318
427,244; 1339,337;    1,147;    1,409
427,833; 1239,732;    1,056;   -0,500
428,423; 1080,727;    0,147;    1,136
429,012; 1180,321;    2,420;   -1,136
429,601; 1276,897;    2,057;    0,136
430,191; 1139,769;    2,511;    4,318
430,780;  937,286;   -1,671;   -0,409
431,369; 1256,542;    1,329;   -0,045
431,959; 1199,133;    1,693;    0,500
432,548; 1052,343;   -1,398;   -0,045
433,137;  976,900;    0,329;   -1,318
433,726; 1158,915;    0,148;    0,500
434,315; 1104,534;    0,148;    2,409
434,905; 1251,605;    0,693;    1,409
435,494; 1307,801;    3,148;    0,955
436,083; 1132,045;    1,420;   -0,955
436,672; 1177,784;    1,148;    0,500
437,261; 1124,060;    0,512;   -1,955
437,850; 1502,517;   -1,125;    0,682
438,439; 1534,921;    2,239;    1,955
439,027; 1648,625;    3,421;    1,773
439,616; 1612,253;    2,239;    1,227
440,205; 1282,452;    0,057;   -2,136
440,794; 1160,751;   -0,306;   -0,045
441,383; 1079,597;    1,603;   -0,591
441,971;  983,654;   -0,306;    0,591
442,560; 1005,225;    0,603;   -1,773
443,149;  880,816;    3,060;   -1,318
443,737; 1004,058;    0,968;   -2,318
444,326; 1013,887;    0,331;    0,318
444,915; 1084,393;   -1,851;    0,864
445,503; 1122,845;    0,058;   -0,318
446,092; 1435,095;    7,876;    2,136
446,680; 1406,586;    1,876;    0,318
447,269; 1314,024;   -1,487;   -0,318
447,857; 1222,922;    2,240;   -1,773
448,445; 1168,712;    2,149;    1,318
449,034; 1144,572;    0,876;   -1,136
449,622; 1117,308;    1,240;    3,500
450,210; 1544,584;    3,149;    2,227
450,799; 1450,916;    2,604;   -0,591
451,387; 1302,169;    1,786;   -0,591
451,975; 1284,621;   -1,305;    0,864
452,563; 1442,374;    0,422;    2,318
453,151; 1140,803;   -1,032;   -1,227
453,739; 1206,968;   -1,577;    0,136
454,328; 1408,400;    0,604;   -2,136
454,916; 1250,175;    1,150;   -0,136
455,504; 1256,959;    3,513;    1,227
456,092; 1138,669;    2,150;   -1,591
456,679; 1035,783;    0,604;    0,682
457,267; 1733,226;    3,604;    1,045
457,855; 1231,235;    3,241;    1,409
458,443;  942,167;   -0,304;    1,682
459,031; 1298,948;    1,332;    2,409
459,619; 1255,289;   -3,577;    2,864
460,206; 1083,914;   -0,759;    2,045
460,794; 1109,400;   -0,668;   -0,227
461,382; 1202,204;    0,878;   -0,864
461,970; 1123,289;    0,605;    1,864
462,557; 1069,912;    0,878;   -0,682
463,145; 1307,179;   -0,304;   -1,682
463,732; 1632,270;    2,514;   -1,045
464,320; 1273,568;    1,514;   -3,045
464,907; 1467,670;    0,423;   -0,773
465,495; 1321,713;    2,696;   -1,227
466,082; 1192,273;    2,060;   -0,045
466,670; 1168,398;    2,605;    1,227
467,257; 1082,938;    0,060;    2,045
467,844; 1288,563;    1,514;    0,045
468,432; 1263,781;   -0,031;    3,500
469,019; 1135,018;    1,606;   -1,773
469,606; 1255,515;    0,969;    3,682
470,193; 1299,819;    2,151;    0,227
470,780; 1249,205;    0,333;    0,864
471,368; 1159,816;   -1,212;   -0,773
471,955; 1293,830;    1,060;   -0,682
472,542; 1188,509;   -0,303;   -1,136
473,129; 1016,787;   -0,485;    0,136
473,716;  996,361;    0,060;    0,591
474,303; 1065,106;    1,333;   -0,864
474,890; 1110,237;    2,333;   -0,500
475,477; 1260,436;   -0,576;    0,409
476,064; 1100,774;    0,697;   -1,591
476,650; 1249,643;    2,152;    0,318
477,237; 1134,370;    1,879;    0,955
477,824; 1097,152;    3,879;    0,864
478,411;  968,663;    0,606;   -0,318
478,997;  983,768;    0,606;   -0,773
479,584;  888,385;   -0,666;   -0,409
480,171; 1294,373;    1,243;   -0,773
480,757; 1382,334;   -0,848;    0,773
481,344; 1198,024;    0,334;    0,409
481,931;  955,167;   -0,393;    1,045
482,517; 1303,968;    0,425;    0,318
483,104; 1475,291;    1,334;    2,864
483,690; 1331,953;    0,243;    0,045
484,276; 1304,235;    0,698;    0,227
484,863; 1651,669;    2,152;    1,136
485,449; 1427,752;    0,152;    0,318
486,035; 1313,789;   -0,666;   -0,136
486,622; 1549,973;   -2,393;    0,045
487,208; 1385,544;    1,334;    1,500
487,794; 1284,891;    0,971;    0,318
488,380; 1320,868;    0,698;   -1,409
488,967; 1315,565;   -1,120;   -0,409
489,553; 1335,977;   -1,029;   -1,409
490,139; 1469,445;    0,971;    0,773
490,725; 1295,943;    0,789;   -0,227
491,311; 1298,079;    1,516;    3,045
491,897; 1119,286;   -0,665;    1,500
492,483; 1154,994;    0,426;    1,227
493,069; 1925,136;    5,426;    0,864
493,655; 1375,210;    1,789;    0,682
494,241; 1191,892;    1,517;   -0,955
494,826; 1283,423;    0,335;   -1,045
495,412; 1330,516;    0,335;   -0,682
495,998; 1213,406;    0,971;   -0,318
496,584; 1294,571;    2,244;    1,045
497,169; 1229,298;    2,335;   -0,682
497,755; 1117,420;    1,244;    1,227
498,341; 1483,199;    2,153;    0,318
498,926; 1641,514;    2,881;    1,955
499,512; 1250,464;   -0,028;    2,955
500,097; 1182,355;   -0,574;   -0,318
500,683; 1204,707;   -0,028;    2,136
501,268; 1179,455;    1,881;   -0,955
501,854; 1216,827;   -0,119;    1,227
502,439; 1128,248;   -0,573;   -1,773
503,024; 1238,074;    1,608;    0,500
503,610; 1300,779;    1,335;   -0,682
504,195; 1127,603;    1,245;    1,955
504,780; 1287,125;    2,335;    1,227
505,366; 1433,619;    4,063;    2,864
505,951; 1283,367;   -1,119;    1,045
506,536; 1196,864;    1,427;   -3,682
507,121; 1245,765;    1,699;   -0,318
507,706; 1240,608;   -0,392;    1,045
508,291; 1146,467;   -2,937;    1,136
508,876; 1104,575;   -0,482;    2,591
509,461; 1157,759;    1,427;   -0,773
510,046; 1246,819;   -0,391;    0,318
510,631; 1227,674;   -0,119;   -0,773
511,216; 1109,245;   -0,664;   -0,500
511,801; 1266,614;   -0,755;    2,591
512,386; 1280,921;    0,972;    0,500
512,971; 1307,978;    0,427;    0,955
513,555; 1357,268;    1,154;   -1,500
514,140; 1363,330;    1,336;   -3,136
514,725; 1482,601;    1,791;   -1,136
515,309; 1364,459;    1,064;    0,318
515,894; 1210,174;   -0,300;   -2,227
516,479; 1242,714;    1,973;   -0,955
517,063; 1227,910;    0,882;    1,227
517,648; 1214,944;    0,155;   -1,136
518,232; 1102,183;   -1,300;   -1,409
518,817; 1231,379;    1,337;    1,682
519,401; 1434,144;    0,700;    0,591
519,985; 1242,984;    2,700;    1,136
520,570; 1111,868;   -0,118;   -1,955
521,154; 1289,348;    0,064;    0,591
521,738; 1560,042;    1,064;    2,409
522,323; 1435,206;   -0,390;    1,682
522,907; 1348,559;    2,428;   -0,136
523,491; 1227,130;    1,155;    0,955
524,075; 1162,962;    0,428;    0,591
524,659; 1372,365;    0,973;    0,591
525,243; 1253,766;    0,883;    0,409
525,827; 1191,877;    0,883;   -0,045
526,411; 1258,547;    1,155;   -0,136
526,995; 1446,357;    0,337;    1,409
527,579; 1458,036;    1,974;   -1,045
528,163; 1384,176;    0,428;   -1,500
528,747; 1562,678;    1,065;   -0,773
529,331; 1518,911;    0,883;   -1,409
529,915; 1289,741;    2,338;    0,955
530,499; 1384,465;    0,247;    1,227
531,082; 1499,383;    1,065;    1,591
531,666; 1555,946;    0,520;    0,773
532,250; 1491,784;    0,428;    2,682
532,833; 1643,173;    0,610;    2,773
533,417; 1431,284;    1,247;    0,864
534,001; 1530,812;    0,429;   -0,318
534,584; 1492,994;    1,974;    0,500
535,168; 1303,523;    3,247;    1,409
535,751; 1710,503;    4,520;    0,045
536,334; 1330,034;    4,520;   -0,409
536,918; 1328,011;    1,974;    1,591
537,501; 1307,221;    1,520;    1,318
538,085; 1341,645;    1,702;    1,045
538,668; 1356,841;    0,883;    2,409
539,251; 1742,673;    3,156;    3,773
539,834; 1491,912;    0,156;    0,773
540,418; 1587,790;    3,247;    4,318
541,001; 1766,537;    2,702;    1,773
541,584; 1528,299;    1,429;    2,227
542,167; 1579,736;    0,702;    2,955
542,750; 1451,179;    0,793;   -0,773
543,333; 1231,912;    1,429;    2,136
543,916; 1559,819;   -0,298;    2,500
544,499; 1442,174;    2,520;    0,227
545,082; 1538,833;    0,248;    3,591
545,665; 1461,404;   -0,207;    1,500
546,248; 1613,003;    0,520;   -0,318
546,830; 1560,231;   -1,752;    1,955
547,413; 1588,606;    0,157;   -0,773
547,996; 1652,350;    0,157;    0,500
548,579; 1479,856;   -0,843;    0,955
549,161; 1738,242;    0,884;    2,682
549,744; 1627,021;    0,612;    0,409
550,326; 1581,856;    0,885;   -1,136
550,909; 2018,518;    2,339;    0,591
551,492; 1711,169;    0,521;    0,227
552,074; 1764,135;   -0,024;   -1,318
552,657; 1855,868;    2,430;    0,045
553,239; 1687,365;   -3,024;   -0,773
553,821; 1601,194;   -1,570;    1,045
554,404; 1757,220;   -0,024;    1,136
554,986; 1893,322;    2,248;    1,045
555,568; 1805,820;    0,430;   -0,955
556,151; 1966,288;    4,067;   -0,227
556,733; 1668,189;   -1,388;   -0,864
557,315; 1679,825;    4,703;    0,500
557,897; 1492,334;    0,521;   -0,500
558,479; 1504,808;    1,703;    1,318
559,061; 1641,428;    1,067;   -0,864
559,643; 1769,669;   -0,297;    0,045
560,225; 1803,297;   -0,388;    2,864
560,807; 1682,669;    0,340;    0,318
561,389; 1605,627;   -1,206;    2,318
561,971; 1647,315;   -0,660;    2,136
562,553; 1677,167;    0,613;    1,591
563,135; 1763,417;    1,249;    1,136
563,717; 2080,769;    3,158;    1,136
564,298; 1990,766;    3,976;   -0,045
564,880; 1708,130;    0,340;   -1,409
565,462; 1593,494;    1,977;    1,318
566,043; 1947,851;   -0,933;    2,318
566,625; 2072,843;    4,067;    1,227
567,207; 1832,996;    0,704;    1,682
567,788; 1835,948;   -0,114;    1,500
568,370; 1986,431;   -1,841;   -0,500
568,951; 1831,460;   -0,569;    0,227
569,533; 2015,369;    0,977;   -0,500
570,114; 2151,113;   -0,296;    0,682
570,695; 2179,991;   -0,478;   -1,318
571,277; 2151,366;   -0,205;   -1,682
571,858; 2394,647;    2,704;   -1,136
572,439; 2431,261;    0,795;   -1,045
573,021; 2399,261;    0,432;   -2,773
573,602; 2512,696;    1,795;    0,318
574,183; 2560,622;   -0,114;    2,227
574,764; 2596,321;    2,068;    0,409
575,345; 2685,960;    0,250;   -0,136
575,926; 2669,201;    2,704;    0,136
576,507; 2754,324;    2,704;   -0,227
577,088; 2869,048;    1,704;    1,682
577,669; 3006,662;    1,704;    1,955
578,250; 3227,167;   -0,750;   -1,045
578,831; 3070,364;   -0,841;   -2,227
579,412; 2947,858;   -1,205;    0,955
579,993; 3281,699;    1,432;    0,227
580,573; 3301,165;   -0,023;   -0,955
581,154; 2947,582;    1,613;   -0,591
581,735; 3126,378;    0,341;    0,773
582,315; 3000,650;    0,523;    2,136
582,896; 3204,048;   -1,750;    1,227
583,477; 3034,616;    0,614;    1,227
584,057; 3120,696;    1,159;    0,955
584,638; 3161,881;   -2,750;    2,318
585,218; 3379,042;    2,886;    2,682
585,799; 3291,523;    1,977;   -0,227
586,379; 3192,503;    1,250;    1,591
586,959; 3043,355;    2,613;    0,318
587,540; 2890,057;    0,432;    2,227
588,120; 2791,844;   -1,113;   -0,045
588,700; 2652,469;    2,977;    2,136
589,281; 2905,977;    1,250;   -0,955
589,861; 2782,304;   -0,296;   -1,682
590,441; 2701,994;   -1,477;   -2,682
591,021; 2493,327;    1,432;   -2,591
591,601; 2613,718;    0,431;    0,500
592,181; 2712,505;   -1,296;   -0,773
592,761; 2394,074;    2,250;    1,409
593,341; 2539,253;    1,522;    0,045
593,921; 2519,772;   -0,569;    1,591
594,501; 2393,812;    1,250;    1,318
595,081; 2373,031;    0,522;   -0,318
595,661; 2596,122;    1,068;    0,955
596,240; 2656,812;   -1,023;    0,136
596,820; 2777,380;    2,613;    1,955
597,400; 2516,463;    1,977;    0,773
597,980; 2552,656;   -0,750;    1,045
598,559; 2565,346;    0,341;   -0,227
599,139; 2508,670;   -0,750;   -1,227
599,718; 2506,943;    0,795;   -0,409
600,298; 2595,895;   -2,387;    0,682
600,877; 2907,409;    4,795;    1,409
601,457; 2840,340;    0,340;    1,136
602,036; 2687,619;    1,795;    2,045
602,616; 2638,466;    2,250;    1,682
603,195; 2789,968;    0,431;    3,500
603,774; 2697,198;   -0,296;    2,045
604,354; 2634,031;    2,522;   -0,500
604,933; 2522,602;    0,250;    1,864
605,512; 2702,599;    2,340;    0,591
606,091; 2728,906;    1,886;    3,773
606,671; 2783,710;    0,249;    0,773
607,250; 2758,181;    1,431;    3,136
607,829; 2765,440;    1,158;    3,227
608,408; 2658,068;    4,613;    2,591
608,987; 2601,621;    2,704;    3,409
609,566; 2470,676;    0,341;   -2,500
610,145; 2546,925;    2,885;    0,682
610,723; 2727,871;    1,613;    6,864
611,302; 2461,181;    1,067;    1,682
611,881; 2580,431;    5,158;   11,227
612,460; 2481,726;    0,795;    3,955
613,039; 2561,922;    1,703;    2,045
613,617; 2280,840;    0,886;    4,773
614,196; 2308,093;    1,613;    1,227
614,775; 2472,630;    1,249;    2,409
615,353; 2470,169;   -1,660;    0,864
615,932; 2388,828;    0,249;    2,409
616,510; 2556,803;    0,158;    0,591
617,089; 2919,397;    8,794;   17,591
617,667; 2571,473;    4,885;    6,136
618,246; 2215,556;   -1,115;    1,318
618,824; 2369,587;    1,612;   -0,955
619,402; 2313,232;    0,431;   -1,773
619,981; 2479,212;    1,067;   -1,045
620,559; 2469,405;    0,794;    1,682
621,137; 2462,817;    3,067;    1,864
621,715; 2135,854;    3,703;   -0,682
622,293; 2195,806;    1,885;   -0,773
622,871; 2478,553;    0,340;    0,500
623,450; 2291,266;    0,430;   -0,864
624,028; 2415,127;   -0,388;   -0,955
624,606; 2303,126;    2,339;    1,682
625,183; 2243,186;   -0,661;   -1,136
625,761; 2250,632;    1,885;    1,136
626,339; 2638,621;    2,339;    2,591
626,917; 2390,998;    0,339;   -0,045
627,495; 2417,118;    2,794;    1,318
628,073; 2357,720;    5,248;    2,864
628,650; 2293,558;    3,067;    2,136
629,228; 2373,325;    1,248;    4,409
629,806; 2117,030;   -0,024;    1,136
630,383; 2203,336;    0,066;   -0,318
630,961; 2184,487;   -2,206;   -0,955
631,539; 2130,953;   -2,479;    0,227
632,116; 2784,578;   12,703;   15,409
632,694; 2463,626;    4,885;    6,500
633,271; 2271,265;    1,975;    2,682
633,848; 2371,930;    1,430;    2,045
634,426; 2214,995;    1,521;    1,773
635,003; 2049,503;   -0,207;   -0,409
635,580; 2370,924;    1,884;    3,682
636,158; 2225,069;    3,793;    1,227
636,735; 2086,268;    3,339;   -0,500
637,312; 2104,515;    0,521;   -0,682
637,889; 2122,404;    2,248;   -0,682
638,466; 2093,691;    0,066;   -0,409
639,043; 2072,992;    1,702;   -1,136
639,620; 2072,798;    0,611;   -0,955
640,197; 2218,433;    1,612;    1,682
640,774; 2239,909;    1,430;    1,136
641,351; 2297,839;    0,612;    1,136
641,928; 2315,497;    2,794;    1,409
642,505; 2433,428;    0,794;   -0,500
643,082; 2322,449;    1,885;    1,227
643,658; 1984,834;    1,157;    1,500
644,235; 2104,037;   -2,479;    2,500
644,812; 2257,876;    1,794;    0,773
645,388; 2204,807;    1,612;    1,409
645,965; 2003,010;    1,521;    1,682
646,542; 2022,395;    3,430;   -0,227
647,118; 2454,325;    3,703;   -0,955
647,695; 2304,165;    0,339;    1,136
648,271; 2103,004;   -2,115;    0,500
648,848; 2209,753;    0,248;    2,227
649,424; 2312,320;    0,976;    1,318
650,000; 2037,704;   -0,388;   -1,045
650,577; 2138,271;    0,158;   -0,955
651,153; 2262,565;   -1,115;    0,955
651,729; 2259,587;    0,521;    0,864
652,305; 2499,881;    1,339;    2,773
652,881; 2847,175;   -1,297;    1,136
653,458; 3651,651;    0,249;    0,227
654,034; 4183,581;    0,703;    1,591
654,610; 4280,148;    0,339;    0,773
655,186; 4738,805;    1,612;    3,045
655,762; 4470,554;   -1,842;    0,409
656,338; 4415,030;    0,703;    0,136
656,913; 4747,597;   -0,297;    0,409
657,489; 4490,436;    0,249;   -0,318
658,065; 4624,821;    0,794;   -1,591
658,641; 4869,660;    2,158;   -0,864
659,217; 4610,136;    2,067;    0,409
659,792; 4360,703;   -1,751;   -0,409
660,368; 4497,179;   -0,388;   -0,682
660,944; 4734,927;    1,794;    1,227
661,519; 4152,676;    0,522;    0,409
662,095; 3262,970;   -0,206;    0,591
662,670; 2527,628;   -0,206;   -0,136
663,246; 2464,467;   -0,660;   -0,409
663,821; 2472,761;    0,431;    1,682
664,396; 2223,964;    0,613;    1,864
664,972; 2259,440;   -0,660;   -0,500
665,547; 2395,734;    3,794;    0,136
666,122; 2324,392;    1,340;    0,318
666,698; 2503,322;    2,431;    0,318
667,273; 2153,798;    0,885;    0,136
667,848; 2342,820;    0,340;    1,500
668,423; 2400,477;    1,795;    2,318
668,998; 2347,680;    0,976;   -0,682
669,573; 2427,793;    2,067;   -1,500
670,148; 2539,723;    1,885;   -0,682
670,723; 2274,744;   -0,024;    0,318
671,298; 2641,947;   -1,296;    1,045
671,873; 2504,969;   -0,296;   -0,136
672,448; 2501,717;    1,704;    0,136
673,023; 2534,829;    0,249;   -0,227
673,597; 2702,305;    2,704;    2,318
674,172; 2650,690;    2,431;    0,318
674,747; 2521,439;   -0,205;   -1,045
675,321; 2328,006;   -0,933;    3,318
675,896; 2198,391;    2,158;    1,045
676,471; 2432,139;    2,522;    1,591
677,045; 2352,069;   -0,296;    0,682
677,620; 2371,000;    2,158;    1,136
678,194; 2406,930;    0,249;    1,136
678,769; 2369,861;    0,886;   -0,318
679,343; 2447,155;   -0,023;    1,773
679,917; 2502,449;    0,340;    1,955
680,492; 2371,106;    0,249;    3,227
681,066; 2421,400;    0,613;    0,409
681,640; 2413,967;    1,795;   -0,318
682,214; 2535,079;    2,340;    0,500
682,788; 2449,464;    0,613;   -0,773
683,363; 2473,395;    1,977;    1,682
683,937; 2317,962;    0,886;   -0,318
684,511; 2573,528;   -1,023;   -0,591
685,085; 2523,186;   -1,478;    0,318
685,659; 2375,298;    1,431;    0,864
686,232; 2585,865;    1,159;   -0,318
686,806; 2490,068;    2,159;    0,409
687,380; 2567,089;   -1,932;    0,591
687,954; 2607,474;    2,432;    1,136
688,528; 2683,859;    2,613;    1,955
689,101; 2793,881;    0,432;    1,045
689,675; 2551,084;    0,886;   -0,136
690,249; 2582,105;    3,432;    0,409
690,822; 2659,126;    1,159;    0,318
691,396; 2531,238;    2,068;    1,227
691,969; 2429,896;    2,523;    0,136
692,543; 2551,099;   -0,568;   -1,955
693,116; 2328,302;   -0,659;   -1,409
693,690; 2400,051;   -0,296;    0,500
694,263; 2537,709;    2,341;    2,955
694,836; 2763,094;    2,795;    3,591
695,410; 2458,569;    1,159;    1,773
695,983; 2480,863;    1,614;    0,591
696,556; 2384,521;   -0,750;   -1,045
697,129; 2470,270;   -1,114;    1,409
697,703; 2437,746;    1,341;    1,955
698,276; 2460,131;    1,705;   -0,773
698,849; 2488,334;   -1,023;    1,409
699,422; 2367,446;    1,250;    0,591
699,995; 2252,194;   -0,659;    0,136
700,568; 2452,398;   -0,204;    3,045
701,140; 2467,237;   -1,841;    1,682
701,713; 2560,077;    0,341;    2,409
702,286; 2470,280;    0,796;    0,864
702,859; 2448,665;    0,614;   -0,591
703,432; 2383,050;   -0,841;    0,682
704,004; 2385,889;    1,978;    0,318
704,577; 2191,183;    1,068;    0,136
705,150; 2306,841;    0,887;    2,500
705,722; 2416,589;    1,523;   -3,227
706,295; 2424,247;    1,432;   -0,591
706,867; 2230,086;    0,250;    1,955
707,440; 2444,199;   -0,113;   -0,409
708,012; 2509,402;   -0,022;    0,591
708,584; 2374,423;    2,705;    0,227
709,157; 2383,899;    1,160;   -0,591
709,729; 2493,011;    1,069;    2,045
710,301; 2622,032;   -1,204;    0,045
710,874; 2572,327;    0,341;   -0,227
711,446; 2189,984;   -0,295;    0,864
712,018; 2299,096;   -3,022;    0,500
712,590; 2208,572;   -0,204;    1,682
713,162; 2521,412;   -0,477;    1,318
713,734; 2408,615;    1,796;   -2,045
714,306; 2372,909;    0,342;   -0,409
714,878; 2185,567;   -0,295;    0,864
715,450; 2334,406;   -0,113;    0,864
716,022; 2380,064;    2,433;    1,318
716,593; 2411,176;    0,978;    0,591
717,165; 2436,925;    1,796;   -1,227
717,737; 2548,946;    0,796;    0,409
718,309; 2393,331;    1,160;   -0,045
718,880; 2330,170;   -1,295;   -1,409
719,452; 2434,101;    0,887;   -1,591
720,024; 2386,031;    1,705;   -0,591
720,595; 2412,598;    2,978;    0,955
721,167; 2294,165;    1,160;   -2,045
721,738; 2266,186;    2,069;   -1,045
722,309; 2300,753;    1,251;   -1,227
722,881; 2147,047;    2,705;    0,773
723,452; 2365,886;    1,251;    2,864
724,023; 2442,271;    1,524;    2,682
724,595; 2457,201;    2,342;    0,682
725,166; 2258,132;    1,524;   -0,409
725,737; 2413,699;    1,887;    0,227
726,308; 2332,174;    0,797;    0,318
726,879; 2253,469;    1,069;    1,227
727,450; 2363,217;   -2,022;   -0,045
728,021; 2262,329;    1,069;    0,682
728,592; 2408,169;    1,160;    0,500
729,163; 2543,554;    1,433;   -0,136
729,734; 2522,393;    2,160;   -0,227
730,305; 2404,324;    0,615;    0,136
730,876; 2380,890;    0,888;    2,955
731,447; 2666,730;    0,797;    2,682
732,017; 2579,569;   -0,840;    1,864
732,588; 2451,682;   -0,021;    1,227
733,159; 2611,157;    3,615;   -1,045
733,729; 2352,724;    1,251;    0,409
734,300; 2387,291;    0,160;    0,864
734,870; 2333,676;   -1,385;    0,591
735,441; 2378,606;    0,888;   -0,591
736,011; 2230,900;    1,070;   -1,591
736,582; 2270,103;    1,251;    0,045
737,152; 2230,397;    0,979;   -2,045
737,722; 2326,419;    1,070;   -0,682
738,293; 2177,713;   -2,021;    1,318
738,863; 2342,552;    1,797;    2,318
739,433; 2573,846;    4,524;    0,318
740,003; 2476,959;    1,524;   -0,682
740,573; 2480,344;    2,252;   -1,591
741,143; 2433,728;    3,615;    0,318
741,713; 2421,750;    0,252;   -0,500
742,283; 2371,589;    1,706;    1,591
742,853; 2278,883;    0,524;    1,591
743,423; 2147,814;    0,161;    0,045
743,993; 2215,199;    1,070;    1,500
744,563; 2075,947;    2,524;   -0,864
745,133; 2117,696;   -0,112;   -0,864
745,702; 2244,899;    2,797;    1,773
746,272; 2259,375;    0,434;    0,591
746,842; 2249,214;   -0,748;   -0,591
747,411; 2178,963;   -0,839;   -0,318
747,981; 2110,802;   -0,930;    0,500
748,551; 2151,187;   -0,021;   -1,045
749,120; 2222,481;   -0,112;   -0,227
749,690; 2253,230;    2,161;    2,409
750,259; 2400,342;    0,979;    2,955
750,828; 2383,909;    4,070;   -1,955
751,398; 2273,021;   -0,112;   -0,045
751,967; 2566,588;    2,888;    0,409
752,536; 2323,791;    1,161;   -0,227
753,105; 2477,994;   -1,384;    0,227
753,675; 2279,379;   -0,112;    1,773
754,244; 2284,764;    0,888;    3,591
754,813; 2310,876;    0,979;    1,227
755,382; 2209,897;    0,798;    0,955
755,951; 2348,373;   -0,112;    3,682
756,520; 2400,667;    2,525;    1,864
757,089; 2635,325;    1,888;    0,500
757,658; 2344,619;    2,434;    1,227
758,227; 2223,186;   -1,111;    0,318
758,795; 2316,571;   -1,021;    1,136
759,364; 2465,047;    0,525;   -0,591
759,933; 2170,613;    1,343;   -0,045
760,501; 2118,089;    0,252;   -1,318
761,070; 2256,474;   -0,293;   -1,409
761,639; 2500,495;    1,434;    1,318
762,207; 2318,789;    0,889;   -0,955
762,776; 2380,902;    2,889;    0,864
763,344; 2256,287;    0,071;    0,591
763,913; 1928,217;    1,616;    1,409
764,481; 2557,693;    1,980;   -0,136
765,049; 2493,532;    0,616;    1,409
765,618; 2380,190;    1,434;    0,318
766,186; 2296,575;    2,434;    0,136
766,754; 2325,869;    1,798;    1,864
767,322; 2017,436;    1,162;    0,409
767,890; 1997,003;    0,525;   -1,773
768,459; 2169,933;    2,616;   -0,318
769,027; 2360,954;    2,525;    3,409
769,595; 2104,430;    2,616;    2,591
770,163; 2149,724;    3,344;    2,955
770,730; 2115,655;    2,525;   -0,136
771,298; 2115,130;    1,162;   -1,409
771,866; 2125,152;    0,253;    4,955
772,434; 2148,446;    1,162;   -1,864
773,002; 2394,285;    2,616;    0,682
773,569; 2253,488;    1,071;    1,682
774,137; 2325,146;    0,889;   -0,045
774,705; 2319,167;   -0,747;   -0,136
775,272; 2152,370;    0,253;    0,682
775,840; 2258,028;   -0,111;    2,682
776,407; 2190,958;   -0,293;    1,955
776,975; 1944,525;    1,162;    0,318
777,542; 2140,001;    2,162;   -0,045
778,110; 2158,386;    0,707;   -0,045
778,677; 2000,316;    1,071;   -0,864
779,244; 2034,247;   -1,020;    1,045
779,812; 2191,086;    0,980;    0,864
780,379; 2216,289;    2,435;    1,136
780,946; 2107,129;    2,617;   -0,773
781,513; 2125,423;   -0,565;    0,318
782,080; 1971,172;    1,253;    2,864
782,647; 2115,738;    1,708;    3,045
783,214; 2042,032;   -0,201;    3,864
783,781; 2130,781;    1,708;   -0,682
784,348; 2115,620;    0,253;    1,500
784,915; 2003,005;   -1,474;    0,318
785,482; 2149,390;    2,708;    2,591
786,049; 2226,775;    1,071;   -0,591
786,615; 2142,524;    1,708;   -0,955
787,182; 2077,727;   -3,201;   -0,682
787,749; 2040,475;   -2,201;    1,409
788,315; 2039,588;    0,253;   -0,409
788,882; 2078,700;    0,981;   -1,227
789,448; 2356,539;    1,435;   -0,955
790,015; 2166,015;    1,799;    3,227
790,581; 2259,218;    0,708;    0,227
791,148; 2051,603;    1,344;    1,045
791,714; 2037,988;   -1,019;    3,136
792,280; 2023,646;    3,708;    1,591
792,847; 1959,213;   -0,928;    2,500
793,413; 2051,052;   -0,110;   -0,318
793,979; 2120,710;    1,526;   -1,318
794,545; 2431,458;    2,981;    2,682
795,111; 2209,571;    2,435;    1,318
795,678; 2087,047;    3,526;   -1,682
796,244; 2263,704;    2,799;    0,136
796,810; 2227,998;    0,799;    0,773
797,375; 2187,201;   -0,292;   -2,136
797,941; 1842,132;   -1,110;    0,591
798,507; 1821,426;    0,254;   -0,955
799,073; 1837,174;    2,708;    0,591
799,639; 1916,559;    1,435;    3,136
800,205; 1859,762;   -1,565;    2,682
800,770; 1794,875;    1,345;    1,773
801,336; 1741,987;    2,981;   -0,955
801,901; 2348,554;    6,072;    3,136
802,467; 2110,757;    0,526;    2,045
803,033; 1762,869;   -0,019;    0,864
803,598; 1766,618;    1,072;   -1,045
804,163; 1853,275;    0,708;   -0,318
804,729; 1931,842;   -0,110;    1,136
805,294; 1862,772;    1,072;    2,227
805,859; 1761,430;    0,890;   -0,409
806,425; 2114,451;    3,890;    2,682
806,990; 2063,291;    1,890;    4,318
807,555; 1897,312;   -0,110;    2,591
808,120; 2040,333;   -1,292;   -0,409
808,685; 1780,627;    1,072;   -2,500
809,250; 1629,012;    2,072;   -0,500
809,815; 1738,034;   -0,201;    0,682
810,380; 1932,146;    0,981;    1,591
810,945; 2070,622;    2,890;    2,045
811,510; 1920,007;   -0,200;    1,591
812,075; 1846,210;    2,800;   -1,409
812,640; 2103,231;    3,709;    1,409
813,204; 1920,434;    2,163;   -0,227
813,769; 2133,456;    0,254;   -0,045
814,334; 2057,386;    0,527;    0,864
814,898; 1836,680;    1,981;    0,591
815,463; 1840,338;    0,981;   -0,773
816,027; 1759,177;    1,345;   -2,318
816,592; 1791,835;    2,163;   -2,045
817,156; 1820,311;   -2,200;    1,136
817,721; 1872,150;    0,982;    2,318
818,285; 1691,717;    0,618;    1,500
818,849; 1837,102;   -0,018;    1,682
819,414; 1713,123;    0,073;    2,955
819,978; 1647,508;   -0,291;    1,773
820,542; 2061,257;    2,891;    0,500
821,106; 1894,096;    2,800;    0,682
821,670; 2042,663;    2,709;    2,591
822,234; 1797,048;    1,073;    1,409
822,798; 1654,160;   -0,836;    0,500
823,362; 1951,727;    1,527;    4,227
823,926; 1672,839;   -0,018;    1,136
824,490; 1866,769;    3,527;   -0,682
825,054; 1803,336;    2,527;   -1,136
825,618; 1645,812;   -1,200;   -1,500
826,181; 1678,924;    0,982;   -1,318
826,745; 1728,946;   -0,745;   -1,045
827,309; 2012,785;    2,255;    1,318
827,872; 1857,806;    0,527;    0,955
828,436; 1853,282;    1,982;   -0,773
828,999; 1820,304;    2,436;    1,227
829,563; 1722,416;   -0,654;    1,136
830,126; 1662,346;   -0,018;   -0,591
830,690; 1690,186;    0,709;    2,864
831,253; 1559,934;   -0,473;    2,227
831,816; 1611,501;   -0,018;    0,500
832,380; 1541,704;    1,164;    0,864
832,943; 1558,362;    3,073;   -0,500
833,506; 1565,383;    0,255;   -1,227
834,069; 1798,313;    2,164;   -0,955
834,632; 1710,426;   -2,200;    1,318
835,195; 1700,083;    1,346;    0,955
835,758; 1599,559;    0,709;    1,955
836,321; 1530,035;    1,073;   -1,045
836,884; 1539,238;   -1,291;   -0,955
837,447; 1537,805;    0,528;    1,773
838,010; 1674,917;    1,800;    3,227
838,573; 1758,484;    0,528;    0,773
839,135; 1687,960;   -0,109;   -0,955
839,698; 1592,436;    2,528;    0,409
840,261; 1523,457;    0,255;   -0,227
840,823; 1486,660;   -0,927;    0,864
841,386; 1479,045;   -0,018;   -2,409
841,948; 1798,066;    0,255;    1,773
842,511; 1516,633;    0,255;    1,682
843,073; 1774,109;    2,982;    0,227
843,636; 1531,130;    0,619;   -0,227
844,198; 1726,606;    1,255;    0,591
844,760; 1709,446;    0,619;    1,955
845,322; 1469,012;    0,164;    1,136
845,885; 1620,670;   -0,290;    0,591
846,447; 1608,600;    0,710;    0,227
847,009; 1909,258;    3,983;   -0,682
847,571; 1642,461;    1,346;   -2,045
848,133; 1589,210;   -0,199;   -1,864
848,695; 1457,049;    2,346;    1,409
849,257; 1505,434;    1,346;   -1,682
849,819; 1662,819;    2,983;   -0,409
850,381; 1536,477;    1,801;   -0,864
850,942; 1624,953;    1,892;   -0,591
851,504; 1629,156;    0,983;    0,227
852,066; 1572,086;    1,619;   -1,591
852,628; 1555,744;    0,165;    1,955
853,189; 1397,401;    0,256;    2,682
853,751; 1462,786;   -0,654;    1,409
854,312; 1616,899;    1,256;   -1,682
854,874; 1771,829;   -0,108;   -0,773
855,435; 1590,123;    0,528;   -1,682
855,997; 1707,599;    3,983;   -0,136
856,558; 1706,075;    0,801;    1,773
857,119; 1572,914;   -0,744;    2,864
857,681; 1423,117;   -0,108;    0,318
858,242; 1639,593;    1,347;   -2,136
858,803; 1721,069;    1,074;   -0,773
859,364; 1674,363;    0,892;   -4,773
859,925; 1696,475;   -0,290;   -0,955
860,486; 1589,588;    0,529;   -0,955
861,047; 1460,791;    0,165;   -1,227
861,608; 1484,812;    0,165;   -0,773
862,169; 1453,651;   -0,562;   -0,045
862,730; 1490,673;   -0,290;    1,409
863,291; 1559,149;    0,438;   -0,500
863,852; 1528,079;   -0,926;    1,955
864,412; 1462,373;   -1,835;   -0,864
864,973; 1603,303;    1,892;    0,500
865,534; 1747,052;    2,074;    0,227
866,094; 1612,528;    2,620;    0,227
866,655; 1710,731;    4,711;    3,318
867,215; 1573,843;    0,074;    0,136
867,776; 1467,501;   -1,199;   -0,136
868,336; 1527,522;    1,529;    0,136
868,897; 1874,089;    3,438;    1,682
869,457; 1661,928;    3,256;    0,318
870,017; 1504,041;    2,438;   -1,227
870,578; 1527,426;    1,893;    0,773
871,138; 1464,356;    2,620;   -0,955
871,698; 1349,923;   -0,562;   -1,318
872,258; 1466,853;    0,711;   -2,864
872,818; 1706,056;    2,347;    0,045
873,378; 1513,532;   -2,198;    1,045
873,938; 1440,917;    4,984;    0,500
874,498; 1371,302;    1,256;   -1,955
875,058; 1430,687;    4,347;    1,773
875,618; 1433,436;    1,438;   -2,682
876,177; 1476,457;   -0,471;    0,136
876,737; 1238,569;   -0,289;    1,955
877,297; 1667,227;    2,711;    1,955
877,856; 1576,884;    2,529;    0,318
878,416; 1330,451;    2,438;   -0,136
878,976; 1327,200;    3,438;    0,409
879,535; 1399,039;    4,529;    3,136
880,095; 1374,061;    1,347;    0,045
880,654; 1272,082;    0,347;    1,318
881,213; 1609,558;    2,347;    1,500
881,773; 1425,852;    1,984;    2,682
882,332; 2034,509;    6,075;    5,136
882,891; 1462,803;    0,711;    2,136
883,451; 1468,461;   -2,016;    1,682
884,010; 1353,119;   -1,107;   -0,409
884,569; 1320,504;   -2,289;   -0,045
885,128; 1533,161;   -0,743;   -1,864
885,687; 1814,910;   -0,743;    0,682
886,246; 1967,840;    2,620;    2,136
886,805; 1677,043;    1,620;    2,045
887,364; 1369,974;    1,166;   -0,500
887,922; 1304,541;   -0,016;    0,045
888,481; 1421,835;    1,530;    0,591
889,040; 1586,492;    3,711;    2,136
889,599; 1486,332;    2,166;    1,409
890,157; 1473,808;    2,166;    2,409
890,716; 1377,738;    2,166;    0,227
891,274; 1458,578;    0,075;   -1,136
891,833; 1564,599;    1,166;    0,864
892,391; 1380,711;    1,802;    0,500
892,950; 1580,278;    0,166;   -0,773
893,508; 1392,299;    0,984;   -0,409
894,067; 1251,411;   -0,379;    0,136
894,625; 1348,433;   -1,016;   -1,500
895,183; 1310,181;   -0,198;   -0,682
895,741; 1628,112;    2,257;   -1,773
896,299; 1401,860;    1,621;   -2,409
896,858; 1317,882;    1,530;   -1,591
897,416; 1451,630;    0,166;   -1,318
897,974; 1389,106;   -2,197;    0,318
898,532; 1897,309;    6,530;    2,682
899,089; 1529,694;    0,621;   -0,682
899,647; 1418,806;    0,530;    1,318
900,205; 1445,282;    0,257;    1,045
900,763; 1461,485;    2,166;    0,227
901,321; 1426,416;    3,530;   -1,409
901,878; 1228,982;    3,257;   -0,773
902,436; 1277,276;    0,257;    1,318
902,994; 2102,025;    6,712;    3,682
903,551; 1576,683;    1,439;    0,409
904,109; 1462,522;    1,530;   -1,409
904,666; 1405,089;    1,439;    1,045
905,224; 1283,383;    3,894;   -0,409
905,781; 1408,222;   -0,470;   -0,318
906,338; 1350,516;    0,167;    1,045
906,895; 1229,992;    1,894;    2,045
907,453; 1502,377;    2,348;    1,136
908,010; 1342,308;    3,348;    0,409
908,567; 1275,420;   -0,561;    0,591
909,124; 1091,987;    2,439;   -1,500
909,681; 1155,735;   -1,288;    0,682
910,238; 1230,756;   -0,106;   -1,318
910,795; 1241,141;   -1,561;   -1,136
911,352; 1224,232;   -0,379;   -2,682
911,909; 1194,141;    2,803;   -0,864
912,466; 1252,687;    1,985;    1,500
913,022; 1255,596;   -0,924;    0,500
913,579; 1389,960;   -0,470;    2,045
914,136; 1247,232;   -2,561;    0,955
914,692; 1309,051;    1,530;   -1,227
915,249; 1227,596;    0,530;    0,409
915,806; 1328,778;    1,803;    1,955
916,362; 1214,778;    0,894;    1,864
916,918; 1120,051;    2,439;    1,045
917,475; 1347,778;    1,621;    0,955
918,031; 1168,141;    0,076;   -0,045
918,587; 1209,778;    0,621;   -0,318
919,144; 1146,869;   -0,379;    0,227
919,700; 1108,141;    0,167;    0,773
920,256; 1069,505;    0,439;    0,045
920,812; 1097,505;    1,439;   -1,045
921,368; 1057,323;    1,348;   -1,045
921,924; 1045,414;    0,439;   -0,136
922,480; 1120,232;    0,076;    1,227
923,036; 1169,232;   -0,652;    1,955
923,592; 1081,869;    0,621;    0,318
924,148; 1091,778;    1,894;   -0,955
924,704; 1230,141;    0,258;   -0,409
925,259; 1099,323;   -0,561;    0,591
925,815; 1033,232;    3,803;    0,500
926,371;  979,141;    3,530;    1,409
926,926; 1140,505;    1,621;    0,591
927,482; 1081,051;    1,621;    0,773
928,037; 1014,596;   -0,833;    2,045
928,593; 1239,323;    0,258;    1,045
929,148;  996,778;    1,167;   -1,500
929,704; 1030,960;    2,439;   -0,500
930,259;  924,505;    0,894;   -0,136
930,814; 1118,505;    1,803;    1,955
931,369; 1044,778;    0,258;   -0,773
931,925;  835,232;   -1,924;    0,136
932,480;  922,687;    3,076;   -2,591
933,035; 1312,051;    3,985;   -0,318
933,590; 1190,505;   -1,742;   -1,773
934,145;  796,778;   -1,288;   -0,318
934,700;  723,414;    0,348;   -0,591
935,255;  786,141;    4,803;    0,045
935,809; 1088,596;    6,258;    0,864
936,364;  704,141;    2,167;   -0,136
936,919;  705,414;    2,348;   -1,773
937,474;  635,687;    1,348;    0,136
938,028;  660,414;    3,076;    1,136
938,583; 1039,414;    6,348;    4,682
939,138;  714,596;    0,167;    2,136
939,692;  563,051;   -1,015;   -1,136
940,247;  590,323;    1,167;   -1,045
940,801;  652,778;    0,621;    0,227
941,355;  565,414;    0,439;    2,591
941,910;  452,505;    0,712;   -2,136
942,464;  495,960;    2,712;   -0,318
943,018;  742,505;    3,258;   -0,227
943,572;  573,051;    2,803;   -0,682
944,126;  614,960;   -0,924;   -0,409
944,681;  481,141;    0,712;    0,227
945,235;  431,960;    2,167;   -0,591
945,789;  397,505;    1,258;   -1,864
946,342;  679,869;   -0,561;   -0,591
946,896;  440,960;    0,348;    0,955
947,450;  411,141;   -0,561;   -0,227
948,004;  656,869;    1,076;   -0,045
948,558;  481,687;    1,258;   -0,864
949,111;  471,232;   -1,197;   -0,318
949,665;  650,505;   -0,106;   -0,682
950,219;  608,323;    0,621;   -1,045
950,772;  534,869;    0,258;    1,864
951,326;  528,505;   -1,106;   -0,955
951,879;  460,596;    1,076;   -2,318
952,433;  590,869;    1,348;    2,227
952,986;  426,051;    0,348;    0,682
953,539;  389,778;    1,530;    0,591
954,093;  346,687;    0,985;   -1,318
954,646;  478,778;   -0,288;    1,318
955,199;  399,414;    1,258;   -0,500
955,752;  605,232;    1,985;    1,773
956,305;  450,232;    0,894;    2,955
956,858;  502,505;    0,621;   -0,318
957,411;  566,051;    3,621;    2,136
957,964;  462,687;    2,076;    2,136
958,517;  390,414;    0,985;    3,136
959,070;  341,960;   -1,197;    1,955
959,623;  614,687;    1,076;    1,500
960,176;  568,051;    0,712;    2,045
960,728;  520,869;    1,712;    0,773
961,281;  465,778;    2,258;    0,500
961,834;  402,778;   -0,833;    0,864
962,386;  401,323;    1,258;    1,045
962,939;  360,596;    3,439;   -0,318
963,491;  411,869;    2,621;    1,136
964,043;  352,141;    0,076;    2,409
964,596;  526,141;    1,712;    2,227
965,148;  423,869;   -0,379;    1,773
965,700;  344,596;   -0,015;   -0,227
966,253;  506,960;   -0,833;    0,318
966,805;  457,141;    1,894;    0,773
967,357;  393,414;    0,439;   -1,500
967,909;  496,414;    1,167;   -1,227
968,461;  393,687;    0,894;    3,136
969,013;  340,596;   -1,561;   -0,864
969,565;  493,232;    1,803;   -1,136
970,117;  726,687;    3,803;    1,045
970,669;  494,778;    3,258;   -0,136
971,220;  301,414;    2,167;   -1,500
971,772;  384,141;    1,348;   -0,318
972,324;  477,414;   -1,197;   -0,500
972,876;  389,232;    0,167;   -0,045
973,427;  497,505;   -1,197;   -1,045
973,979;  564,505;    0,076;   -2,500
974,530;  374,323;    0,803;    1,318
975,082;  434,960;    2,167;    1,682
975,633;  388,232;    2,894;    1,682
976,184;  454,687;    2,076;    0,773
976,736;  437,505;    0,348;    0,227
977,287;  438,232;    0,258;   -0,500
977,838;  403,414;   -0,924;   -0,318
978,389;  414,051;    0,803;   -0,500
978,940;  291,232;    1,258;   -0,409
979,491;  288,323;    2,258;   -0,500
980,042;  378,232;   -0,652;    3,045
980,593;  396,232;    1,894;    0,227
981,144;  472,869;    3,530;   -0,500
981,695;  510,687;   -0,470;    1,500
982,246;  465,414;   -1,833;    1,045
982,797;  340,869;   -0,561;    0,682
983,347;  491,505;    2,167;    0,591
983,898;  680,414;    4,167;    0,409
984,449;  632,323;    2,530;    0,773
984,999;  470,414;    1,894;   -1,136
985,550;  422,596;    3,167;   -0,318
986,100;  298,869;    0,712;   -0,318
986,651;  297,141;    0,258;    0,045
987,201;  332,051;    0,894;   -0,591
987,751;  347,414;   -0,288;    2,864
988,302;  385,414;   -0,379;    1,500
988,852;  429,596;    1,985;   -1,136
989,402;  483,414;    0,985;    0,682
989,952;  507,505;    1,621;    0,864
990,502;  370,778;    1,076;    0,682
991,052;  278,505;   -0,106;    0,045
991,602;  312,869;    1,167;    1,318
992,152;  363,869;    2,803;    0,682
992,702;  395,687;    1,167;   -0,045
993,252;  342,596;    0,076;   -0,500
993,802;  439,323;    1,167;    1,318
994,352;  405,141;   -0,742;    1,136
994,901;  333,414;    1,076;    3,227
995,451;  307,051;   -1,197;    0,318
996,000;  340,323;    1,076;    0,318
996,550;  338,869;    2,894;    0,227
997,100;  382,051;   -0,561;   -0,045
997,649;  511,051;   -0,197;    0,955
998,198;  345,505;   -0,288;   -1,500
998,748;  449,960;    0,348;   -2,318
999,297;  383,141;    0,985;   -0,409
999,846;  512,596;    1,894;   -0,773
1000,395;  430,687;    1,530;    0,500
1000,945;  531,141;    1,076;   -0,773
1001,494;  530,869;    0,167;    0,682
1002,043;  513,141;    0,712;    0,864
1002,592;  342,960;    3,439;    1,955
1003,141;  340,414;    2,439;   -0,682
1003,690;  481,141;    1,258;    0,500
1004,238;  372,687;   -0,106;   -0,045
1004,787;  286,778;   -1,288;    1,227
1005,336;  456,778;    1,621;    0,682
1005,885;  418,323;   -0,197;   -2,773
1006,433;  412,505;   -0,470;    0,955
1006,982;  586,596;    2,167;    1,682
1007,531;  439,141;    2,712;   -0,227
1008,079;  397,687;    0,258;    0,500
1008,627;  351,869;    1,621;    0,409
1009,176;  365,960;    0,076;   -1,955
1009,724;  321,778;   -2,742;    0,864
1010,273;  464,414;    1,076;    0,500
1010,821;  362,323;    1,076;    1,409
1011,369;  312,051;    0,076;    1,318
1011,917;  327,141;   -0,833;   -0,591
1012,465;  413,687;    2,530;   -1,591
1013,013;  402,323;    0,439;   -1,682
1013,561;  501,778;   -1,288;   -0,773
1014,109;  587,960;   -0,833;    1,682
1014,657;  468,869;    1,348;    0,591
1015,205;  371,960;    0,894;   -0,955
1015,753;  329,596;    0,258;   -1,409
1016,301;  393,323;    2,621;    3,045
1016,848;  461,414;    2,167;    0,409
1017,396;  460,960;    1,621;    0,045
1017,944;  458,869;    2,621;    1,864
1018,491;  367,141;   -0,197;    1,409
1019,039;  667,869;   -0,652;    0,591
1019,586;  435,323;    0,076;    1,682
1020,134;  416,687;    0,712;    1,500
1020,681;  487,505;    2,894;   -1,136
1021,228;  407,051;   -0,561;   -2,227
1021,776;  385,414;   -0,833;   -1,136
1022,323;  606,596;    0,803;    0,773
1022,870;  512,778;   -0,470;   -0,045
1023,417;  554,960;    2,076;    1,864
1023,964;  402,323;    0,621;    1,227
1024,511;  378,232;   -0,652;    0,773
1025,058;  400,323;    0,439;   -0,045
1025,605;  362,051;   -1,742;    3,136
1026,152;  561,687;   -0,106;   -0,591
1026,699;  422,232;    0,167;    1,318
1027,245;  417,051;    2,439;    0,318
1027,792;  368,778;    0,712;    1,409
1028,339;  562,232;    4,076;   -0,045
1028,885;  429,778;    3,621;   -0,227
1029,432;  379,869;   -0,106;    0,227
1029,978;  476,414;    1,348;   -1,591
1030,525;  469,869;    1,621;    0,409
1031,071;  360,960;    0,348;    1,136
1031,618;  625,323;    1,258;    1,682
1032,164;  462,323;    2,076;    3,045
1032,710;  503,051;    0,076;   -1,500
1033,256;  471,505;    0,712;   -0,136
1033,803;  335,323;   -0,288;    1,500
1034,349;  216,051;    1,803;    0,136
1034,895;  263,687;    2,621;   -0,318
1035,441;  333,323;    0,439;    0,318
1035,987;  379,687;   -2,288;   -0,682
1036,533;  448,960;   -0,197;   -0,955
1037,078;  631,414;    4,712;    1,682
1037,624;  485,687;    2,439;   -0,955
1038,170;  364,414;    1,712;   -0,318
1038,716;  441,141;    2,167;   -0,409
1039,261;  325,778;    2,167;   -0,773
1039,807;  341,778;   -0,015;    3,409
1040,352;  370,687;   -1,288;   -0,318
1040,898;  361,232;    0,167;   -0,682
1041,443;  292,141;    0,803;   -2,591
1041,989;  570,323;    3,621;    1,591
1042,534;  380,051;    0,985;    2,591
1043,079;  287,596;    1,985;    0,955
1043,625;  375,051;    0,258;    0,500
1044,170;  392,414;    2,439;    1,045
1044,715;  584,869;    0,167;    0,955
1045,260;  482,960;   -0,833;   -0,955
1045,805;  344,414;    0,258;   -0,591
1046,350;  316,051;    0,530;   -0,409
1046,895;  480,596;    0,803;    1,591
1047,440;  463,505;    1,530;    0,409
1047,985;  343,778;   -1,197;   -0,955
1048,530;  322,141;    1,348;    1,227
1049,074;  377,232;    2,803;    0,318
1049,619;  314,051;   -0,924;    1,955
1050,164;  301,596;    1,076;    0,227
1050,708;  384,141;    2,621;    0,045
1051,253;  625,414;    3,258;   -2,227
1051,797;  429,960;   -0,197;   -1,318
1052,342;  275,596;    1,348;    1,045
1052,886;  363,596;    1,803;   -1,409
1053,430;  258,414;    2,167;    0,136
1053,975;  345,051;    0,894;   -0,318
1054,519;  349,141;    1,803;    3,227
1055,063;  405,960;    3,621;    1,318
1055,607;  392,778;    1,348;    0,227
1056,151;  386,232;    0,530;    1,682
1056,695;  313,960;   -1,833;   -1,136
1057,239;  308,869;   -1,197;   -0,682
1057,783;  348,505;    2,258;   -1,500
1058,327;  413,323;    3,076;    1,409
1058,871;  548,323;    3,985;    1,318
1059,415;  422,778;   -0,561;   -0,045
1059,958;  557,051;    2,985;    2,591
1060,502;  343,141;    1,348;   -0,773
1061,046;  256,232;    1,712;   -0,955
1061,589;  243,505;    2,803;   -1,136
1062,133;  212,687;    0,985;    1,864
1062,676;  252,323;    1,439;    0,864
1063,220;  282,323;    0,985;    0,500
1063,763;  312,414;    2,985;    1,136
1064,306;  331,869;    0,985;    1,864
1064,849;  327,232;    2,076;    0,591
1065,393;  308,051;    2,894;   -1,500
1065,936;  318,414;    2,530;   -0,409
1066,479;  242,232;    2,621;    1,318
1067,022;  262,232;    1,894;   -0,227
1067,565;  241,869;   -1,197;   -1,318
1068,108;  216,596;    1,258;   -0,591
1068,651;  194,687;   -2,470;    1,409
1069,194;  200,505;   -1,106;   -1,682
1069,736;  223,232;    3,803;    0,955
1070,279;  190,596;   -1,652;   -0,500
1070,822;  271,687;    1,530;   -0,318
1071,364;  386,414;    0,530;    1,318
1071,907;  258,869;    0,348;    3,227
1072,450;  133,869;    0,258;   -0,045
1072,992;  200,596;   -0,561;    3,136
1073,535;  266,960;    0,167;    2,136
1074,077;  196,414;    2,985;    2,045
1074,619;  190,869;    0,985;    0,591
1075,161;  214,960;   -0,561;    1,500
1075,704;  329,051;    0,258;    1,227
1076,246;  207,687;    1,530;    0,682
1076,788;  152,596;   -1,015;    1,773
1077,330;  156,232;   -2,106;    2,136
1077,872;  193,414;   -1,924;    0,955
1078,414;  346,687;    3,712;    0,773
1078,956;  214,141;    0,167;   -0,227
1079,498;  339,414;    0,439;    0,318
1080,040;  213,960;    0,985;   -1,318
1080,581;  179,051;    0,621;   -0,318
1081,123;  126,960;   -0,106;   -0,773
1081,665;  138,596;    3,803;   -0,955
1082,206;  309,778;    3,258;   -0,500
1082,748;  236,051;    3,258;    2,045
1083,289;  156,505;    0,167;    1,318
1083,831;  150,778;    0,258;    0,227
1084,372;  185,960;    0,894;    0,591
1084,913;  179,414;    3,348;    0,864
1085,455;  145,778;    1,530;   -2,045
1085,996;  139,596;    0,530;    0,136
1086,537;  160,960;    0,985;    0,864
1087,078;  173,414;    0,439;   -2,136
1087,619;  215,414;   -1,652;    0,227
1088,160;  181,687;    1,439;    1,318
1088,701;  166,141;   -0,742;    0,682
1089,242;  148,596;   -0,561;   -2,227
1089,783;  195,414;   -0,561;    1,409
1090,324;  180,960;   -0,833;    0,682
1090,865;  134,414;   -1,924;   -0,409
1091,405;  111,687;   -0,561;    2,227
1091,946;  154,232;   -0,197;   -0,955
1092,487;  104,505;   -1,288;   -1,409
1093,027;  201,596;    1,803;   -1,500
1093,568;  142,051;    2,258;    1,227
1094,108;  168,596;    0,621;    1,773
1094,649;  140,869;   -0,470;    0,136
1095,189;  115,505;    1,167;   -0,682
1095,729;  113,141;    0,712;    0,955
1096,269;  107,687;    1,258;   -0,955
1096,810;  246,141;   -0,197;    0,500
1097,350;  186,414;   -0,561;   -0,773
1097,890;  143,232;    2,985;    1,227
1098,430;  286,960;    4,985;    2,864
1098,970;  226,051;    1,894;    1,682
1099,510;  128,232;   -0,833;   -2,318
1100,050;  114,778;    0,258;   -1,591
1100,589;  120,051;    0,076;   -0,318
1101,129;  166,323;    0,894;   -0,955
1101,669;  239,505;    2,803;    2,136
1102,209;  167,323;    1,530;    2,227
1102,748;  135,141;    3,439;    0,955
1103,288;  142,505;    0,712;   -1,227
1103,827;  134,596;    3,530;   -2,227
1104,367;  101,051;    1,712;   -2,409
1104,906;  108,505;   -1,015;   -1,136
1105,445;  142,141;    0,985;   -1,136
1105,985;  114,232;   -0,652;    1,500
1106,524;  126,869;    1,530;   -0,682
1107,063;  118,596;    1,167;    1,409
1107,602;   96,960;    1,894;   -1,500
1108,141;   83,232;    1,621;    1,500
1108,680;  138,778;    3,985;   -0,591
1109,219;  111,414;    0,167;   -0,500
1109,758;  102,596;    4,167;    0,682
1110,297;  103,051;   -1,106;   -0,682
1110,836;   80,505;    1,439;    0,955
1111,375;  107,778;    0,348;    0,409
1111,913;  142,778;    0,985;    0,773
1112,452;  114,687;    0,894;    0,136
1112,991;   72,960;    1,076;    1,955
1113,529;   76,051;    0,167;   -0,045
1114,068;   99,596;    0,439;    2,955
1114,606;   70,141;   -0,561;   -0,955
1115,144;  125,687;    1,530;    1,045
1115,683;  101,232;    1,985;    0,318
1116,221;  130,505;    2,076;   -0,864
1116,759;   92,778;    1,621;   -0,864
1117,297;  156,051;    1,621;    1,864
1117,836;   89,960;    1,985;   -1,227
1118,374;   87,323;    0,258;   -0,682
1118,912;   95,414;    0,439;    2,682
1119,450;   90,414;    0,985;    0,864
1119,988;   92,323;    3,348;    2,136
1120,525;  332,505;    7,258;    3,318
1121,063;  173,414;    0,530;    1,864
1121,601;   90,232;    1,076;   -1,227
1122,139;   74,323;    1,076;   -2,045
1122,676;  160,051;   -1,652;    2,773
1123,214;  139,141;    0,712;    4,409
1123,751;   69,051;    0,621;    2,227
1124,289;  100,596;    0,894;   -0,409
1124,826;   72,505;   -0,379;    0,227
1125,364;   36,869;    0,712;   -0,955
1125,901;  131,051;    6,258;    1,227
1126,438;  137,323;    3,530;    0,955
1126,975;   43,596;    2,985;   -0,773
1127,513;   63,596;    2,621;    2,136
1128,050;   49,414;   -0,561;   -0,682
1128,587;   74,323;    1,348;   -0,227
1129,124;   93,687;   -0,015;    1,318
1129,661;   53,323;   -1,924;    0,227
1130,198;  118,141;    2,439;    0,773
1130,734;   84,505;   -0,379;    1,409
1131,271;   42,778;   -1,197;    0,864
1131,808;  104,141;    1,621;    3,045
1132,345;   62,232;    4,530;    0,318
1132,881;   25,596;   -0,561;   -1,864
1133,418;   67,687;    0,348;   -1,136
1133,954;   45,232;    0,712;   -2,682
1134,491;   72,687;    1,712;   -0,773
1135,027;   43,141;    2,167;    0,864
1135,564;   68,687;    1,439;    2,955
1136,100;   64,869;   -0,742;    2,136
1136,636;   34,687;   -1,015;   -1,045
1137,172;   54,960;    0,894;   -1,045
1137,708;   41,414;   -1,561;   -1,045
1138,245;   34,960;    0,803;   -1,227
1138,781;   29,051;    1,803;   -3,318
1139,317;   47,596;    1,894;   -1,409
1139,852;   51,869;    3,076;    0,136
1140,388;   71,505;    2,076;   -0,409
1140,924;   43,778;    1,076;   -2,227
1141,460;   27,778;   -0,288;    0,136
1141,996;   18,778;   -0,652;    2,682
1142,531;   24,596;    1,076;    3,318
1143,067;   91,232;    1,167;    1,045
1143,602;  117,505;    3,439;   -0,318
1144,138;   59,141;    0,803;    1,045
1144,673;   27,323;    1,621;    1,409
1145,209;   37,596;    2,894;   -0,318
1145,744;   17,323;    0,803;    0,864
1146,279;   56,505;    1,530;   -0,136
1146,815;   37,414;    1,530;   -2,682
1147,350;   52,051;   -0,924;    0,045
1147,885;   22,505;   -1,924;   -1,318
1148,420;   24,414;    2,439;    0,773
1148,955;   21,414;   -1,470;    1,864
1149,490;   27,141;   -1,106;   -1,591
1150,025;   16,141;   -1,106;   -1,773
1150,560;   53,505;   -0,288;   -0,955
1151,094;   40,960;    0,258;   -0,591
1151,629;   42,778;   -3,742;    0,864
1152,164;   24,960;   -1,288;    1,318
1152,698;   22,778;    1,258;   -0,136
1153,233;    6,232;   -1,379;   -0,682
1153,767;   18,323;   -0,288;   -2,318
1154,302;   34,323;   -0,379;    1,773
1154,836;   33,960;    0,803;   -2,136
1155,371;   41,414;    2,258;    3,682
1155,905;   26,414;    1,985;    1,682
1156,439;   25,232;    0,530;   -0,500
1156,973;   32,869;    0,439;    0,318
1157,507;   21,596;   -1,742;    0,682
1158,042;   27,414;   -0,652;    1,045
1158,576;   34,505;   -0,561;    1,773
1159,110;   37,596;    0,076;    2,409
1159,643;   26,596;   -2,470;   -0,045
1160,177;   13,323;   -2,015;    1,500

