
Integration time [ms]:   0,050
Averaging Nr. [scans]: 11
Smoothing Nr. [pixels]: 0
Data measured with spectrometer [name]: 7318044SP
Wave   ;Sample   ;Dark     ;Reference
[nm]   ;[counts] ;[counts] ;[counts] 

186,757;  -13,675;   38,161;    1,318
187,357;   19,066;   26,706;    0,955
187,958;    5,633;   17,252;   -1,591
188,558;   59,932;   12,979;   -1,227
189,159;   31,563;   10,070;   -4,500
189,759;    1,514;    5,797;   -3,591
190,360;   -2,953;    6,797;   -2,136
190,960;   35,679;    5,706;   -4,136
191,560;   52,226;    2,614;   -6,591
192,161;  290,353;    5,885;   -3,500
192,761;  134,708;    5,520;   -3,227
193,361;   84,017;    3,065;   -3,773
193,962;  134,620;    1,612;   -2,682
194,562;   70,304;   -0,114;   -3,955
195,162;  103,478;   -0,567;   -2,227
195,762;  273,445;    2,433;   -0,045
196,362;  221,980;    1,706;   -2,500
196,963;   93,803;    1,706;   -0,864
197,563;  164,492;    1,252;   -0,955
198,163;  103,481;   -0,111;   -0,682
198,763;  133,455;   -0,020;   -0,500
199,363;  242,826;    3,616;   -0,500
199,963;  207,101;    2,162;    0,409
200,563;  175,503;    6,344;   -1,409
201,163;  145,948;    5,435;   -0,227
201,763;  239,422;    1,435;    0,318
202,363;  186,788;    0,980;    1,500
202,963;  294,541;    1,526;    1,045
203,563;  410,510;    0,344;    0,500
204,162;  254,112;    1,889;   -1,864
204,762;  242,634;    2,071;    0,591
205,362;  223,721;    0,708;    1,955
205,962;  320,115;    3,435;    1,955
206,562;  321,627;    1,889;    2,318
207,161;  293,574;    1,708;    0,318
207,761;  439,844;    4,435;    2,409
208,361;  321,141;    1,889;    1,409
208,960;  419,535;    2,889;    1,500
209,560;  504,859;    0,435;    1,591
210,160;  481,296;    5,071;    1,864
210,759;  460,006;    0,708;    1,227
211,359;  464,527;   -0,474;    1,045
211,958;  736,702;    3,526;    2,045
212,558;  821,071;    0,799;    1,864
213,157;  657,984;   -0,929;    1,500
213,757; 1125,522;    5,617;   -0,227
214,356;  830,874;    1,708;   -0,409
214,956; 1168,517;    3,526;    0,409
215,555;  803,230;    0,617;    2,136
216,154;  724,265;   -0,292;   -0,591
216,754;  750,236;    1,253;    0,773
217,353;  898,538;   -0,383;   -1,045
217,952;  774,857;    2,072;    0,318
218,552;  993,599;    0,254;   -0,773
219,151;  921,987;   -1,110;    0,955
219,750;  920,601;    0,890;   -0,227
220,349; 1107,090;   -2,292;    1,045
220,948; 1131,926;    1,163;    1,136
221,548; 1192,150;    0,617;    1,227
222,147; 1315,932;   -1,292;   -0,409
222,746; 1624,519;    1,254;   -0,955
223,345; 1505,500;   -1,019;    0,500
223,944; 1541,194;    1,163;    0,773
224,543; 1759,281;    4,072;   -1,409
225,142; 1876,750;    1,345;    0,136
225,741; 1805,077;    1,163;    1,045
226,340; 1834,910;    1,254;   -0,955
226,939; 2347,631;    2,708;   -0,136
227,538; 2395,523;    1,163;   -0,773
228,137; 2535,118;    0,435;    0,864
228,735; 2781,740;    0,435;    1,227
229,334; 2488,984;   -0,474;   -0,227
229,933; 2893,992;    0,799;    0,591
230,532; 3028,548;   -1,201;   -0,409
231,131; 3079,469;    1,253;    0,318
231,729; 3298,284;    1,163;   -2,318
232,328; 3543,479;    0,435;   -1,500
232,927; 3672,985;    4,526;   -0,500
233,525; 3837,346;    0,981;    0,045
234,124; 4085,149;    1,890;   -1,591
234,723; 4141,445;    1,617;   -1,045
235,321; 4344,729;    1,163;    0,136
235,920; 4648,662;    2,526;   -1,227
236,518; 4952,855;    1,072;    0,318
237,117; 5243,038;    2,890;   -0,227
237,715; 5450,145;    1,163;   -0,500
238,314; 5479,864;    1,708;   -2,318
238,912; 5586,080;    0,526;   -1,409
239,510; 5715,296;    1,162;   -1,227
240,109; 5911,360;   -0,474;    3,773
240,707; 6003,851;   -0,474;    1,227
241,305; 6490,804;   -0,383;    0,136
241,904; 6734,895;   -0,292;   -2,045
242,502; 6687,847;    3,253;   -0,227
243,100; 6696,208;    3,344;   -0,955
243,698; 6972,769;    2,799;    1,682
244,297; 7187,271;   -0,656;    0,682
244,895; 7027,519;   -0,474;   -2,318
245,493; 7451,535;    2,981;   -0,591
246,091; 7521,989;    5,163;   -1,318
246,689; 7523,156;    2,163;    0,591
247,287; 7730,925;   -0,019;   -1,136
247,885; 8109,574;   -1,019;    1,227
248,483; 8236,512;   -0,201;   -0,500
249,081; 8410,810;    0,981;    1,591
249,679; 8611,970;   -1,019;    1,682
250,277; 8964,020;   -2,292;    0,864
250,875; 8932,495;    0,617;   -1,045
251,473; 8983,360;   -0,019;    0,500
252,071; 9167,058;   -0,383;    1,045
252,669; 9372,557;   -1,565;    0,318
253,267; 9744,769;    1,618;    0,773
253,864; 9692,289;    0,617;    0,682
254,462; 9507,077;    1,526;    1,591
255,060; 9570,278;    0,072;    1,318
255,658; 9956,376;   -3,292;   -0,136
256,255;10405,638;   -0,201;   -2,045
256,853;10280,119;    2,345;    1,409
257,451;10329,416;    1,981;    1,864
258,048;10585,254;    2,072;    1,864
258,646;10327,608;    0,436;   -1,045
259,243;10539,029;    2,981;    2,227
259,841;10628,355;    1,799;    0,318
260,438;10459,280;    0,254;    0,864
261,036;11368,048;    0,617;    1,409
261,633;11327,040;    1,526;    2,227
262,231;11059,004;   -0,110;   -0,045
262,828;11151,857;   -0,383;    1,136
263,425;11198,225;   -1,928;   -0,591
264,023;11489,278;    1,436;    0,045
264,620;10993,579;    1,526;   -0,318
265,217;11413,572;    2,890;    3,136
265,815;11567,054;    2,527;    2,136
266,412;11271,146;    0,072;    0,136
267,009;11327,947;    0,526;    0,773
267,606;11214,699;    0,345;   -0,955
268,203;11241,140;   -0,383;   -0,591
268,801;11603,215;   -0,474;    0,591
269,398;11968,652;   -0,564;    2,500
269,995;11932,493;    0,890;    1,591
270,592;11660,110;    0,799;   -0,500
271,189;11935,778;    1,981;    0,409
271,786;12081,184;    2,072;    1,227
272,383;11855,258;   -0,383;    0,227
272,980;12104,941;    1,617;    0,318
273,577;12726,030;    2,162;    1,227
274,174;12228,486;    1,435;    2,591
274,771;12198,285;    1,890;   -0,773
275,367;12353,470;    3,253;    1,409
275,964;12302,166;   -0,565;   -0,500
276,561;12462,418;   -2,474;   -1,045
277,158;12761,242;    1,799;   -1,773
277,755;12853,719;   -0,110;    0,409
278,351;12168,503;    0,436;   -1,500
278,948;12553,397;   -0,201;    0,045
279,545;12610,443;    0,527;    2,318
280,141;13284,541;    1,254;   -2,045
280,738;13133,074;    2,435;   -0,136
281,334;13456,197;   -0,383;    0,591
281,931;12809,905;    2,890;   -1,318
282,528;12943,869;    4,072;   -0,500
283,124;13774,531;    3,345;   -0,500
283,721;13678,394;    0,709;    1,409
284,317;13483,808;    0,163;    2,500
284,913;14089,842;   -0,110;    0,591
285,510;14324,114;    2,890;   -0,318
286,106;14357,894;    2,345;   -0,955
286,703;13920,137;    0,072;    1,955
287,299;14147,627;    1,254;   -0,591
287,895;14392,796;    0,890;   -1,045
288,491;15074,288;    0,163;    2,136
289,088;14766,836;    0,163;    2,409
289,684;14844,557;    2,890;    1,500
290,280;14857,862;    1,890;    0,682
290,876;14978,439;    0,163;    5,500
291,472;14846,459;    2,163;    2,227
292,068;14925,741;    1,254;    0,227
292,665;14683,355;   -0,564;    0,773
293,261;14176,352;   -1,292;    2,136
293,857;14621,015;    4,072;    2,136
294,453;14583,887;   -0,928;    0,955
295,049;14409,991;    0,253;    1,955
295,644;14465,719;   -1,292;    0,136
296,240;14368,169;    0,162;   -0,136
296,836;14449,946;   -0,747;    0,318
297,432;14731,906;    2,980;   -0,500
298,028;14766,340;    0,435;    0,773
298,624;15261,171;    0,889;    1,864
299,220;15639,825;    0,435;    0,591
299,815;15210,430;    0,526;   -0,409
300,411;14945,718;    0,435;    1,773
301,007;15038,661;    1,889;    0,227
301,602;15131,849;    2,071;   -2,318
302,198;15261,155;    1,435;   -0,773
302,794;15608,293;    1,526;   -0,500
303,389;15796,154;    1,071;    1,045
303,985;15889,798;    1,253;    1,409
304,580;15830,733;    0,889;    1,591
305,176;15847,683;    0,344;    0,136
305,771;15808,847;   -0,929;   -1,227
306,367;15563,366;    3,071;    0,136
306,962;16007,121;    2,889;    1,500
307,558;15723,233;    2,435;    0,136
308,153;15702,243;   -0,383;   -1,136
308,748;15972,213;    0,162;    1,682
309,344;15924,219;    0,253;   -1,318
309,939;15990,308;    2,071;   -1,318
310,534;16386,945;   -2,020;   -1,682
311,130;16354,661;   -0,656;   -2,500
311,725;16043,503;    0,526;   -0,500
312,320;16392,024;    1,253;    0,045
312,915;16219,959;    2,890;   -1,045
313,510;16243,370;    0,526;   -0,500
314,105;16863,354;   -3,565;    1,409
314,700;16216,832;   -1,656;   -1,045
315,295;15787,006;   -0,020;    0,045
315,890;15268,547;   -0,292;    0,864
316,485;15643,895;    0,253;   -0,318
317,080;15817,786;   -0,929;    1,591
317,675;16408,038;    3,071;   -0,682
318,270;15594,862;    6,889;    3,318
318,865;15651,575;    2,435;    3,045
319,460;15522,995;   -1,565;    0,591
320,055;15785,321;   -2,565;   -1,227
320,650;15404,851;   -1,838;   -0,591
321,244;15474,483;    0,889;   -1,409
321,839;16544,057;    0,980;   -0,227
322,434;16434,024;   -0,111;   -1,591
323,029;16031,605;   -0,474;    1,591
323,623;15839,941;    0,798;    0,773
324,218;15561,687;    2,707;    1,409
324,812;15446,944;    0,889;    1,591
325,407;15229,995;   -0,929;    2,045
326,002;15136,716;    0,526;   -0,409
326,596;15483,971;   -0,656;    1,318
327,191;15768,736;   -0,383;   -1,045
327,785;15247,062;   -0,747;   -0,227
328,379;15498,225;   -0,383;    0,136
328,974;15316,442;    1,798;   -3,955
329,568;15517,357;    2,889;   -2,409
330,163;15296,669;    2,435;    1,045
330,757;15714,266;    0,253;    1,591
331,351;14997,690;   -0,292;    0,682
331,945;15285,552;   -0,383;    1,409
332,540;14818,613;    1,617;   -0,591
333,134;14953,987;    3,344;    0,773
333,728;15232,305;    2,799;    0,318
334,322;15610,505;    0,889;   -0,864
334,916;14821,109;    0,344;    0,955
335,510;15165,333;   -0,111;   -0,136
336,105;15424,645;   -0,929;    1,591
336,699;15076,020;   -1,292;    0,591
337,293;15018,954;    1,071;    0,318
337,887;15233,059;    0,071;    1,955
338,481;15281,452;    2,980;    0,591
339,074;15451,094;    2,071;    2,682
339,668;15217,352;   -0,110;    1,227
340,262;15481,127;    7,708;    3,227
340,856;14949,034;    1,708;   -0,682
341,450;14233,218;    0,708;    1,864
342,044;15244,318;    1,799;    0,136
342,637;14991,270;    1,162;   -2,136
343,231;14846,122;   -1,474;    0,682
343,825;14778,005;   -0,747;   -0,591
344,419;14663,819;   -0,474;    0,500
345,012;14334,271;    2,889;    4,045
345,606;14359,150;   -0,656;    1,591
346,199;14235,455;   -0,111;   -0,227
346,793;13649,621;    2,525;    2,045
347,386;13872,076;    0,889;   -1,136
347,980;13830,940;   -0,838;   -0,045
348,573;13605,040;   -1,748;    0,409
349,167;13150,476;    6,161;    4,773
349,760;13536,812;    2,252;    2,682
350,354;13555,996;    1,616;    1,136
350,947;13198,694;    2,798;    1,682
351,540;12810,700;    0,616;   -1,409
352,134;12750,665;   -1,111;    1,136
352,727;12852,778;   -0,657;    1,136
353,320;12664,226;    2,343;    0,591
353,913;12476,165;   -1,929;    1,864
354,507;12608,873;    0,434;   -1,227
355,100;12611,060;    0,071;    0,864
355,693;11672,260;    4,798;    2,409
356,286;11747,288;    0,980;    2,773
356,879;12173,659;   -0,475;    1,227
357,472;11737,282;    0,980;    1,500
358,065;11908,019;    3,161;    2,500
358,658;11837,008;    0,798;    2,318
359,251;11423,128;    0,252;   -0,591
359,844;10790,613;    0,343;   -1,136
360,437;10963,417;    0,252;    0,045
361,030;11276,547;    0,525;   -0,682
361,623;10776,561;    0,434;    0,318
362,215;10786,011;    0,979;    2,045
362,808;10636,006;   -2,293;   -1,682
363,401;10842,776;    0,798;    0,136
363,994;10519,521;    3,252;   -1,500
364,586;10447,052;    0,888;   -1,500
365,179;10685,558;   -0,203;   -1,136
365,772;10093,947;   -0,930;    2,045
366,364;10423,008;    1,524;   -3,227
366,957;10602,080;    1,342;   -0,045
367,549;10657,217;   -0,203;   -0,864
368,142;10246,769;    0,978;   -1,500
368,734;10476,001;    2,523;   -2,136
369,327;10419,639;    2,341;   -0,500
369,919;10339,225;   -1,659;    0,409
370,512;10044,939;   -1,023;   -0,500
371,104; 9729,769;    2,704;    1,591
371,696; 9916,259;    1,703;   -0,955
372,289;10065,417;    0,157;    1,136
372,881;10225,771;    1,156;    1,318
373,473;10161,809;    4,064;    1,136
374,066; 9889,511;    1,336;    0,500
374,658; 9720,989;    0,879;    1,136
375,250;10170,986;   -1,668;   -1,409
375,842; 9955,935;   -0,124;   -0,045
376,434; 9805,225;   -2,762;   -0,409
377,026;10510,979;   -1,855;   -2,500
377,618;10376,470;    0,779;   -0,682
378,210;10229,466;    3,141;   -1,955
378,802;10032,165;    3,412;   -0,591
379,394; 9939,423;    3,411;    0,682
379,986;10654,082;    1,138;   -0,955
380,578;10791,739;    1,410;    0,773
381,170; 9997,339;    0,320;    0,045
381,762; 9943,814;   -0,224;    1,409
382,354;10211,499;   -0,223;   -1,318
382,945;10348,171;    0,870;    0,318
383,537;10529,365;    1,144;   -1,955
384,129;10516,765;    0,963;   -1,136
384,721;10758,725;    0,418;    0,955
385,312;10694,316;   -1,399;   -0,955
385,904;10747,580;   -0,945;    1,591
386,496;10030,096;    0,691;    1,045
387,087;10169,772;    0,418;    2,500
387,679;10251,449;   -0,401;    0,045
388,270;10370,485;   -2,401;    2,045
388,862;10514,657;   -0,401;   -0,318
389,453;10414,878;    1,054;    1,045
390,045;10703,116;    3,236;   -2,682
390,636;10670,241;    0,144;   -0,591
391,227;10529,362;    2,054;   -0,045
391,819;10575,150;    0,781;    0,773
392,410;10669,730;    0,600;    0,045
393,001;10607,504;    1,600;   -1,591
393,593;10904,390;    0,600;   -0,045
394,184;10746,896;    0,873;   -0,409
394,775;10707,764;    1,146;    2,136
395,366;10921,398;    1,782;    0,773
395,957;10995,248;   -2,400;    0,136
396,548;11346,800;    1,054;    2,682
397,139;11636,412;    2,236;    0,591
397,730;11316,425;    0,873;    0,955
398,321;11404,312;    0,509;    0,955
398,912;11438,916;   -0,764;    0,136
399,503;11519,650;   -1,945;   -1,409
400,094;10892,822;   -1,582;    1,682
400,685;10722,927;    3,600;    0,045
401,276;10845,722;   -0,400;   -0,955
401,867;11181,629;   -1,127;    0,773
402,458;11284,749;    1,509;   -2,318
403,048;11278,547;    0,146;    0,591
403,639;10822,923;    1,509;    0,864
404,230;11057,883;    0,691;    0,318
404,821;10943,014;   -0,127;    0,045
405,411;11075,123;   -0,763;   -2,591
406,002;10639,792;    3,237;   -1,136
406,592;10396,785;    2,691;    0,045
407,183;10766,836;    0,328;   -1,500
407,774;10674,070;    1,419;   -0,136
408,364;11103,452;    2,600;    0,409
408,954;10577,938;   -0,036;    1,227
409,545;10654,259;    1,873;    1,045
410,135;10130,749;   -1,581;    0,500
410,726;10332,405;    0,783;    0,318
411,316;10754,494;    2,237;    0,773
411,906;10410,024;    0,146;   -0,409
412,497; 9780,532;   -0,490;   -0,045
413,087;10521,176;    0,783;   -0,227
413,677;10961,441;   -2,490;    3,864
414,267;10734,712;   -1,035;    1,409
414,857;10775,525;    0,419;    4,227
415,448;11072,373;   -0,763;    0,500
416,038;10705,752;   -2,945;   -0,591
416,628;10673,398;    0,965;    0,409
417,218;10064,835;   -1,762;    3,318
417,808;10364,011;    0,965;   -0,409
418,398;10942,697;   -1,035;    2,682
418,988;10965,642;   -2,217;    0,591
419,578;11259,400;    3,601;    1,409
420,168;11657,871;    0,692;   -0,955
420,757;11169,499;    0,964;   -1,500
421,347;10810,774;    1,601;   -0,227
421,937;10992,039;    3,329;    1,409
422,527;10881,679;    2,602;   -0,773
423,116;10708,718;    2,692;   -0,045
423,706;11161,595;    2,965;    0,318
424,296;11143,021;    1,601;    0,682
424,885;11588,476;    1,510;   -3,045
425,475;11940,326;    1,147;   -2,864
426,065;11865,060;   -1,489;   -0,318
426,654;11401,896;    0,329;   -0,318
427,244;11520,691;    1,147;    1,409
427,833;10855,955;    1,056;   -0,500
428,423;11460,068;    0,147;    1,136
429,012;12338,271;    2,420;   -1,136
429,601;11756,142;    2,057;    0,136
430,191;12044,625;    2,511;    4,318
430,780;11593,698;   -1,671;   -0,409
431,369;11465,884;    1,329;   -0,045
431,959;12233,354;    1,693;    0,500
432,548;12026,340;   -1,398;   -0,045
433,137;12227,057;    0,329;   -1,318
433,726;12764,111;    0,148;    0,500
434,315;12041,204;    0,148;    2,409
434,905;12154,082;    0,693;    1,409
435,494;12049,013;    3,148;    0,955
436,083;12537,783;    1,420;   -0,955
436,672;12419,772;    1,148;    0,500
437,261;11891,596;    0,512;   -1,955
437,850;11956,146;   -1,125;    0,682
438,439;11963,547;    2,239;    1,955
439,027;11766,661;    3,421;    1,773
439,616;12183,072;    2,239;    1,227
440,205;12084,039;    0,057;   -2,136
440,794;12203,053;   -0,306;   -0,045
441,383;12483,101;    1,603;   -0,591
441,971;12370,863;   -0,306;    0,591
442,560;12195,876;    0,603;   -1,773
443,149;11958,931;    3,060;   -1,318
443,737;12140,358;    0,968;   -2,318
444,326;12355,464;    0,331;    0,318
444,915;12421,974;   -1,851;    0,864
445,503;12885,544;    0,058;   -0,318
446,092;12080,658;    7,876;    2,136
446,680;12688,417;    1,876;    0,318
447,269;12904,511;   -1,487;   -0,318
447,857;12642,159;    2,240;   -1,773
448,445;12781,567;    2,149;    1,318
449,034;13002,971;    0,876;   -1,136
449,622;13153,531;    1,240;    3,500
450,210;12171,143;    3,149;    2,227
450,799;12788,698;    2,604;   -0,591
451,387;12771,574;    1,786;   -0,591
451,975;12349,326;   -1,305;    0,864
452,563;12460,398;    0,422;    2,318
453,151;12517,539;   -1,032;   -1,227
453,739;12412,179;   -1,577;    0,136
454,328;12237,232;    0,604;   -2,136
454,916;11882,222;    1,150;   -0,136
455,504;12086,862;    3,513;    1,227
456,092;12300,348;    2,150;   -1,591
456,679;12271,537;    0,604;    0,682
457,267;12103,459;    3,604;    1,045
457,855;12339,595;    3,241;    1,409
458,443;12137,028;   -0,304;    1,682
459,031;12209,541;    1,332;    2,409
459,619;12771,139;   -3,577;    2,864
460,206;12954,120;   -0,759;    2,045
460,794;13028,264;   -0,668;   -0,227
461,382;13294,909;    0,878;   -0,864
461,970;12810,020;    0,605;    1,864
462,557;12859,118;    0,878;   -0,682
463,145;13086,653;   -0,304;   -1,682
463,732;13244,018;    2,514;   -1,045
464,320;13196,032;    1,514;   -3,045
464,907;12754,323;    0,423;   -0,773
465,495;12619,518;    2,696;   -1,227
466,082;12826,842;    2,060;   -0,045
466,670;12727,990;    2,605;    1,227
467,257;13199,860;    0,060;    2,045
467,844;13386,114;    1,514;    0,045
468,432;13369,752;   -0,031;    3,500
469,019;12822,661;    1,606;   -1,773
469,606;13299,126;    0,969;    3,682
470,193;13077,058;    2,151;    0,227
470,780;12591,064;    0,333;    0,864
471,368;13022,720;   -1,212;   -0,773
471,955;12728,228;    1,060;   -0,682
472,542;12292,542;   -0,303;   -1,136
473,129;12567,824;   -0,485;    0,136
473,716;12301,507;    0,060;    0,591
474,303;12551,626;    1,333;   -0,864
474,890;12897,059;    2,333;   -0,500
475,477;12878,118;   -0,576;    0,409
476,064;12753,804;    0,697;   -1,591
476,650;12716,161;    2,152;    0,318
477,237;12543,524;    1,879;    0,955
477,824;12734,827;    3,879;    0,864
478,411;12764,224;    0,606;   -0,318
478,997;12997,734;    0,606;   -0,773
479,584;13084,854;   -0,666;   -0,409
480,171;13892,774;    1,243;   -0,773
480,757;13546,921;   -0,848;    0,773
481,344;13893,949;    0,334;    0,409
481,931;13370,068;   -0,393;    1,045
482,517;14434,493;    0,425;    0,318
483,104;15146,182;    1,334;    2,864
483,690;15580,952;    0,243;    0,045
484,276;16070,483;    0,698;    0,227
484,863;15820,570;    2,152;    1,136
485,449;16535,012;    0,152;    0,318
486,035;16500,104;   -0,666;   -0,136
486,622;16990,078;   -2,393;    0,045
487,208;16909,878;    1,334;    1,500
487,794;16777,275;    0,971;    0,318
488,380;16847,753;    0,698;   -1,409
488,967;16924,127;   -1,120;   -0,409
489,553;17018,570;   -1,029;   -1,409
490,139;17217,564;    0,971;    0,773
490,725;16551,635;    0,789;   -0,227
491,311;15982,620;    1,516;    3,045
491,897;15121,662;   -0,665;    1,500
492,483;14819,539;    0,426;    1,227
493,069;14489,412;    5,426;    0,864
493,655;14498,263;    1,789;    0,682
494,241;14441,520;    1,517;   -0,955
494,826;14882,738;    0,335;   -1,045
495,412;14279,773;    0,335;   -0,682
495,998;14408,409;    0,971;   -0,318
496,584;14625,441;    2,244;    1,045
497,169;14587,471;    2,335;   -0,682
497,755;14561,040;    1,244;    1,227
498,341;15155,457;    2,153;    0,318
498,926;14651,014;    2,881;    1,955
499,512;14917,175;   -0,028;    2,955
500,097;15069,872;   -0,574;   -0,318
500,683;15030,610;   -0,028;    2,136
501,268;15409,674;    1,881;   -0,955
501,854;15124,537;   -0,119;    1,227
502,439;15017,300;   -0,573;   -1,773
503,024;15229,616;    1,608;    0,500
503,610;15328,699;    1,335;   -0,682
504,195;15351,527;    1,245;    1,955
504,780;15432,003;    2,335;    1,227
505,366;15204,827;    4,063;    2,864
505,951;14914,985;   -1,119;    1,045
506,536;14961,843;    1,427;   -3,682
507,121;14951,253;    1,699;   -0,318
507,706;15483,295;   -0,392;    1,045
508,291;15912,999;   -2,937;    1,136
508,876;15356,091;   -0,482;    2,591
509,461;14782,428;    1,427;   -0,773
510,046;15174,497;   -0,391;    0,318
510,631;15406,254;   -0,119;   -0,773
511,216;15075,782;   -0,664;   -0,500
511,801;15491,851;   -0,755;    2,591
512,386;15817,061;    0,972;    0,500
512,971;15768,187;    0,427;    0,955
513,555;15277,063;    1,154;   -1,500
514,140;16148,016;    1,336;   -3,136
514,725;16165,073;    1,791;   -1,136
515,309;16299,533;    1,064;    0,318
515,894;15704,029;   -0,300;   -2,227
516,479;16156,717;    1,973;   -0,955
517,063;15984,589;    0,882;    1,227
517,648;16140,282;    0,155;   -1,136
518,232;15782,380;   -1,300;   -1,409
518,817;16137,373;    1,337;    1,682
519,401;16359,525;    0,700;    0,591
519,985;15812,320;    2,700;    1,136
520,570;15680,703;   -0,118;   -1,955
521,154;16025,322;    0,064;    0,591
521,738;16234,357;    1,064;    2,409
522,323;16838,054;   -0,390;    1,682
522,907;16539,279;    2,428;   -0,136
523,491;16228,777;    1,155;    0,955
524,075;16232,134;    0,428;    0,591
524,659;16328,563;    0,973;    0,591
525,243;15672,928;    0,883;    0,409
525,827;15924,840;    0,883;   -0,045
526,411;16898,199;    1,155;   -0,136
526,995;17176,580;    0,337;    1,409
527,579;16675,107;    1,974;   -1,045
528,163;17018,552;    0,428;   -1,500
528,747;16980,571;    1,065;   -0,773
529,331;17306,353;    0,883;   -1,409
529,915;17537,797;    2,338;    0,955
530,499;17502,853;    0,247;    1,227
531,082;17140,806;    1,065;    1,591
531,666;16555,685;    0,520;    0,773
532,250;17330,110;    0,428;    2,682
532,833;17706,306;    0,610;    2,773
533,417;17551,369;    1,247;    0,864
534,001;17505,857;    0,429;   -0,318
534,584;18283,737;    1,974;    0,500
535,168;18108,254;    3,247;    1,409
535,751;18183,916;    4,520;    0,045
536,334;17593,953;    4,520;   -0,409
536,918;18286,764;    1,974;    1,591
537,501;18362,236;    1,520;    1,318
538,085;18351,245;    1,702;    1,045
538,668;18565,511;    0,883;    2,409
539,251;18879,595;    3,156;    3,773
539,834;18908,720;    0,156;    0,773
540,418;18830,064;    3,247;    4,318
541,001;19005,914;    2,702;    1,773
541,584;19005,640;    1,429;    2,227
542,167;18684,428;    0,702;    2,955
542,750;18888,683;    0,793;   -0,773
543,333;18411,845;    1,429;    2,136
543,916;19269,930;   -0,298;    2,500
544,499;19943,856;    2,520;    0,227
545,082;19959,227;    0,248;    3,591
545,665;20111,057;   -0,207;    1,500
546,248;20524,481;    0,520;   -0,318
546,830;20182,921;   -1,752;    1,955
547,413;20603,668;    0,157;   -0,773
547,996;21187,909;    0,157;    0,500
548,579;20938,753;   -0,843;    0,955
549,161;20766,488;    0,884;    2,682
549,744;20563,877;    0,612;    0,409
550,326;21102,542;    0,885;   -1,136
550,909;20747,797;    2,339;    0,591
551,492;21197,183;    0,521;    0,227
552,074;20989,583;   -0,024;   -1,318
552,657;21587,834;    2,430;    0,045
553,239;21353,997;   -3,024;   -0,773
553,821;21266,075;   -1,570;    1,045
554,404;20733,967;   -0,024;    1,136
554,986;21151,047;    2,248;    1,045
555,568;21798,573;    0,430;   -0,955
556,151;20900,566;    4,067;   -0,227
556,733;21111,158;   -1,388;   -0,864
557,315;21652,250;    4,703;    0,500
557,897;21490,340;    0,521;   -0,500
558,479;21652,858;    1,703;    1,318
559,061;21785,922;    1,067;   -0,864
559,643;22109,596;   -0,297;    0,045
560,225;22479,399;   -0,388;    2,864
560,807;22531,142;    0,340;    0,318
561,389;22046,101;   -1,206;    2,318
561,971;22833,552;   -0,660;    2,136
562,553;22622,789;    0,613;    1,591
563,135;22783,236;    1,249;    1,136
563,717;22372,642;    3,158;    1,136
564,298;23179,819;    3,976;   -0,045
564,880;22916,215;    0,340;   -1,409
565,462;23090,761;    1,977;    1,318
566,043;24366,325;   -0,933;    2,318
566,625;23891,402;    4,067;    1,227
567,207;23797,477;    0,704;    1,682
567,788;25035,184;   -0,114;    1,500
568,370;25967,324;   -1,841;   -0,500
568,951;25857,249;   -0,569;    0,227
569,533;26872,705;    0,977;   -0,500
570,114;27418,398;   -0,296;    0,682
570,695;27997,590;   -0,478;   -1,318
571,277;28651,579;   -0,205;   -1,682
571,858;29533,290;    2,704;   -1,136
572,439;30562,979;    0,795;   -1,045
573,021;30792,587;    0,432;   -2,773
573,602;31388,493;    1,795;    0,318
574,183;32465,825;   -0,114;    2,227
574,764;32786,747;    2,068;    0,409
575,345;33427,813;    0,250;   -0,136
575,926;34125,184;    2,704;    0,136
576,507;34153,933;    2,704;   -0,227
577,088;35330,807;    1,704;    1,682
577,669;35403,588;    1,704;    1,955
578,250;36242,098;   -0,750;   -1,045
578,831;37067,638;   -0,841;   -2,227
579,412;37388,946;   -1,205;    0,955
579,993;38426,408;    1,432;    0,227
580,573;38817,639;   -0,023;   -0,955
581,154;37686,910;    1,613;   -0,591
581,735;38610,176;    0,341;    0,773
582,315;38110,903;    0,523;    2,136
582,896;38435,202;   -1,750;    1,227
583,477;37832,453;    0,614;    1,227
584,057;38002,555;    1,159;    0,955
584,638;38274,681;   -2,750;    2,318
585,218;38321,799;    2,886;    2,682
585,799;38433,811;    1,977;   -0,227
586,379;38359,262;    1,250;    1,591
586,959;37003,531;    2,613;    0,318
587,540;36194,490;    0,432;    2,227
588,120;35589,288;   -1,113;   -0,045
588,700;34356,268;    2,977;    2,136
589,281;34649,569;    1,250;   -0,955
589,861;34582,508;   -0,296;   -1,682
590,441;34388,779;   -1,477;   -2,682
591,021;33240,575;    1,432;   -2,591
591,601;33441,379;    0,431;    0,500
592,181;33436,084;   -1,296;   -0,773
592,761;32637,550;    2,250;    1,409
593,341;32490,573;    1,522;    0,045
593,921;32444,136;   -0,569;    1,591
594,501;32279,021;    1,250;    1,318
595,081;32178,961;    0,522;   -0,318
595,661;32510,446;    1,068;    0,955
596,240;33093,050;   -1,023;    0,136
596,820;32707,087;    2,613;    1,955
597,400;32944,620;    1,977;    0,773
597,980;33165,062;   -0,750;    1,045
598,559;33155,032;    0,341;   -0,227
599,139;32849,208;   -0,750;   -1,227
599,718;32791,208;    0,795;   -0,409
600,298;33027,521;   -2,387;    0,682
600,877;33222,832;    4,795;    1,409
601,457;33538,324;    0,340;    1,136
602,036;33475,728;    1,795;    2,045
602,616;33707,593;    2,250;    1,682
603,195;34031,582;    0,431;    3,500
603,774;33506,724;   -0,296;    2,045
604,354;33402,353;    2,522;   -0,500
604,933;32811,336;    0,250;    1,864
605,512;32933,725;    2,340;    0,591
606,091;32949,811;    1,886;    3,773
606,671;33845,576;    0,249;    0,773
607,250;32801,150;    1,431;    3,136
607,829;33093,276;    1,158;    3,227
608,408;32932,202;    4,613;    2,591
608,987;31918,306;    2,704;    3,409
609,566;32214,460;    0,341;   -2,500
610,145;32261,328;    2,885;    0,682
610,723;32699,147;    1,613;    6,864
611,302;31902,268;    1,067;    1,682
611,881;31299,564;    5,158;   11,227
612,460;32205,299;    0,795;    3,955
613,039;32654,685;    1,703;    2,045
613,617;31247,005;    0,886;    4,773
614,196;31441,243;    1,613;    1,227
614,775;31830,895;    1,249;    2,409
615,353;31789,157;   -1,660;    0,864
615,932;31396,256;    0,249;    2,409
616,510;31964,971;    0,158;    0,591
617,089;31415,536;    8,794;   17,591
617,667;31137,088;    4,885;    6,136
618,246;30923,043;   -1,115;    1,318
618,824;31115,974;    1,612;   -0,955
619,402;30703,534;    0,431;   -1,773
619,981;31182,894;    1,067;   -1,045
620,559;31061,549;    0,794;    1,682
621,137;30572,236;    3,067;    1,864
621,715;30476,055;    3,703;   -0,682
622,293;30390,732;    1,885;   -0,773
622,871;30880,250;    0,340;    0,500
623,450;30398,104;    0,430;   -0,864
624,028;30249,388;   -0,388;   -0,955
624,606;29842,630;    2,339;    1,682
625,183;30248,486;   -0,661;   -1,136
625,761;29844,290;    1,885;    1,136
626,339;30143,393;    2,339;    2,591
626,917;30572,900;    0,339;   -0,045
627,495;30613,432;    2,794;    1,318
628,073;29998,072;    5,248;    2,864
628,650;29659,379;    3,067;    2,136
629,228;30084,173;    1,248;    4,409
629,806;29436,953;   -0,024;    1,136
630,383;29725,312;    0,066;   -0,318
630,961;29445,897;   -2,206;   -0,955
631,539;29156,794;   -2,479;    0,227
632,116;28325,715;   12,703;   15,409
632,694;28990,431;    4,885;    6,500
633,271;29343,919;    1,975;    2,682
633,848;29223,937;    1,430;    2,045
634,426;29314,105;    1,521;    1,773
635,003;28380,284;   -0,207;   -0,409
635,580;28649,500;    1,884;    3,682
636,158;29245,137;    3,793;    1,227
636,735;29221,500;    3,339;   -0,500
637,312;29350,609;    0,521;   -0,682
637,889;29515,272;    2,248;   -0,682
638,466;28959,778;    0,066;   -0,409
639,043;28952,854;    1,702;   -1,136
639,620;29300,896;    0,611;   -0,955
640,197;29584,780;    1,612;    1,682
640,774;29738,134;    1,430;    1,136
641,351;30143,942;    0,612;    1,136
641,928;29512,114;    2,794;    1,409
642,505;29145,376;    0,794;   -0,500
643,082;29263,912;    1,885;    1,227
643,658;28197,992;    1,157;    1,500
644,235;29021,891;   -2,479;    2,500
644,812;29271,790;    1,794;    0,773
645,388;29018,053;    1,612;    1,409
645,965;29064,679;    1,521;    1,682
646,542;29166,124;    3,430;   -0,227
647,118;29182,114;    3,703;   -0,955
647,695;29526,831;    0,339;    1,136
648,271;29429,821;   -2,115;    0,500
648,848;29760,174;    0,248;    2,227
649,424;29513,892;    0,976;    1,318
650,000;29287,609;   -0,388;   -1,045
650,577;29095,690;    0,158;   -0,955
651,153;29601,680;   -1,115;    0,955
651,729;30671,215;    0,521;    0,864
652,305;30985,932;    1,339;    2,773
652,881;36270,467;   -1,297;    1,136
653,458;44489,639;    0,249;    0,227
654,034;49217,084;    0,703;    1,591
654,610;51030,710;    0,339;    0,773
655,186;52499,518;    1,612;    3,045
655,762;52308,781;   -1,842;    0,409
656,338;52355,134;    0,703;    0,136
656,913;53405,670;   -0,297;    0,409
657,489;52671,569;    0,249;   -0,318
658,065;52564,468;    0,794;   -1,591
658,641;53190,730;    2,158;   -0,864
659,217;52450,629;    2,067;    0,409
659,792;51801,437;   -1,751;   -0,409
660,368;52157,973;   -0,388;   -0,682
660,944;51603,417;    1,794;    1,227
661,519;46264,043;    0,522;    0,409
662,095;38924,852;   -0,206;    0,591
662,670;33320,751;   -0,206;   -0,136
663,246;31792,104;   -0,660;   -0,409
663,821;30934,821;    0,431;    1,682
664,396;30410,539;    0,613;    1,864
664,972;30688,892;   -0,660;   -0,500
665,547;31043,791;    3,794;    0,136
666,122;31023,963;    1,340;    0,318
666,698;31346,771;    2,431;    0,318
667,273;30608,124;    0,885;    0,136
667,848;31468,933;    0,340;    1,500
668,423;31222,195;    1,795;    2,318
668,998;31875,276;    0,976;   -0,682
669,573;32459,084;    2,067;   -1,500
670,148;32278,710;    1,885;   -0,682
670,723;32076,882;   -0,024;    0,318
671,298;32533,781;   -1,296;    1,045
671,873;32662,226;   -0,296;   -0,136
672,448;32597,397;    1,704;    0,136
673,023;32998,296;    0,249;   -0,227
673,597;33273,195;    2,704;    2,318
674,172;33032,913;    2,431;    0,318
674,747;32517,357;   -0,205;   -1,045
675,321;32410,438;   -0,933;    3,318
675,896;31977,973;    2,158;    1,045
676,471;32957,236;    2,522;    1,591
677,045;32719,135;   -0,296;    0,682
677,620;32769,579;    2,158;    1,136
678,194;33123,296;    0,249;    1,136
678,769;32661,377;    0,886;   -0,318
679,343;32857,094;   -0,023;    1,773
679,917;32732,175;    0,340;    1,955
680,492;32846,529;    0,249;    3,227
681,066;33010,882;    0,613;    0,409
681,640;33067,600;    1,795;   -0,318
682,214;33896,317;    2,340;    0,500
682,788;33345,216;    0,613;   -0,773
683,363;33301,660;    1,977;    1,682
683,937;33032,559;    0,886;   -0,318
684,511;33868,731;   -1,023;   -0,591
685,085;33565,721;   -1,478;    0,318
685,659;33327,711;    1,431;    0,864
686,232;33504,883;    1,159;   -0,318
686,806;33274,236;    2,159;    0,409
687,380;33923,226;   -1,932;    0,591
687,954;34219,307;    2,432;    1,136
688,528;33877,206;    2,613;    1,955
689,101;34651,650;    0,432;    1,045
689,675;34251,549;    0,886;   -0,136
690,249;33567,357;    3,432;    0,409
690,822;33853,075;    1,159;    0,318
691,396;33942,155;    2,068;    1,227
691,969;33397,782;    2,523;    0,136
692,543;33839,681;   -0,568;   -1,955
693,116;33500,307;   -0,659;   -1,409
693,690;33310,388;   -0,296;    0,500
694,263;33803,287;    2,341;    2,955
694,836;33858,095;    2,795;    3,591
695,410;32474,358;    1,159;    1,773
695,983;33047,711;    1,614;    0,591
696,556;32960,246;   -0,750;   -1,045
697,129;33402,600;   -1,114;    1,409
697,703;33029,226;    1,341;    1,955
698,276;32973,398;    1,705;   -0,773
698,849;32727,752;   -1,023;    1,409
699,422;33167,014;    1,250;    0,591
699,995;32793,368;   -0,659;    0,136
700,568;33322,721;   -0,204;    3,045
701,140;33326,348;   -1,841;    1,682
701,713;33026,701;    0,341;    2,409
702,286;32820,237;    0,796;    0,864
702,859;32619,226;    0,614;   -0,591
703,432;31733,398;   -0,841;    0,682
704,004;32324,934;    1,978;    0,318
704,577;32168,105;    1,068;    0,136
705,150;32707,641;    0,887;    2,500
705,722;32557,540;    1,523;   -3,227
706,295;32327,166;    1,432;   -0,591
706,867;32090,156;    0,250;    1,955
707,440;32300,509;   -0,113;   -0,409
708,012;32539,318;   -0,022;    0,591
708,584;32414,489;    2,705;    0,227
709,157;32806,661;    1,160;   -0,591
709,729;32399,924;    1,069;    2,045
710,301;33310,732;   -1,204;    0,045
710,874;33341,813;    0,341;   -0,227
711,446;32206,075;   -0,295;    0,864
712,018;32100,974;   -3,022;    0,500
712,590;31778,328;   -0,204;    1,682
713,162;32343,863;   -0,477;    1,318
713,734;32610,217;    1,796;   -2,045
714,306;32494,843;    0,342;   -0,409
714,878;31129,560;   -0,295;    0,864
715,450;31958,732;   -0,113;    0,864
716,022;32222,085;    2,433;    1,318
716,593;32348,530;    0,978;    0,591
717,165;32289,702;    1,796;   -1,227
717,737;31967,055;    0,796;    0,409
718,309;31636,136;    1,160;   -0,045
718,880;31587,035;   -1,295;   -1,409
719,452;31820,479;    0,887;   -1,591
720,024;31293,742;    1,705;   -0,591
720,595;31840,641;    2,978;    0,955
721,167;31394,358;    1,160;   -2,045
721,738;30925,075;    2,069;   -1,045
722,309;30815,974;    1,251;   -1,227
722,881;30612,328;    2,705;    0,773
723,452;31367,954;    1,251;    2,864
724,023;31511,490;    1,524;    2,682
724,595;31251,116;    2,342;    0,682
725,166;31029,469;    1,524;   -0,409
725,737;30625,278;    1,887;    0,227
726,308;30671,813;    0,797;    0,318
726,879;31102,894;    1,069;    1,227
727,450;31017,884;   -2,022;   -0,045
728,021;30964,146;    1,069;    0,682
728,592;30813,682;    1,160;    0,500
729,163;31148,490;    1,433;   -0,136
729,734;31104,298;    2,160;   -0,227
730,305;31472,197;    0,615;    0,136
730,876;31827,914;    0,888;    2,955
731,447;31533,359;    0,797;    2,682
732,017;31677,076;   -0,840;    1,864
732,588;31184,884;   -0,021;    1,227
733,159;31360,419;    3,615;   -1,045
733,729;31182,955;    1,251;    0,409
734,300;30426,308;    0,160;    0,864
734,870;30861,298;   -1,385;    0,591
735,441;31453,743;    0,888;   -0,591
736,011;31229,732;    1,070;   -1,591
736,582;31126,813;    1,251;    0,045
737,152;30569,349;    0,979;   -2,045
737,722;31019,248;    1,070;   -0,682
738,293;30704,419;   -2,021;    1,318
738,863;30588,318;    1,797;    2,318
739,433;30350,399;    4,524;    0,318
740,003;31045,207;    1,524;   -0,682
740,573;30382,470;    2,252;   -1,591
741,143;30360,187;    3,615;    0,318
741,713;31112,813;    0,252;   -0,500
742,283;30726,440;    1,706;    1,591
742,853;30479,066;    0,524;    1,591
743,423;29942,420;    0,161;    0,045
743,993;30110,046;    1,070;    1,500
744,563;29428,854;    2,524;   -0,864
745,133;29346,207;   -0,112;   -0,864
745,702;30091,106;    2,797;    1,773
746,272;29229,278;    0,434;    0,591
746,842;28987,359;   -0,748;   -0,591
747,411;29446,713;   -0,839;   -0,318
747,981;29648,975;   -0,930;    0,500
748,551;29704,965;   -0,021;   -1,045
749,120;29508,864;   -0,112;   -0,227
749,690;29933,672;    2,161;    2,409
750,259;30258,571;    0,979;    2,955
750,828;30127,016;    4,070;   -1,955
751,398;30375,187;   -0,112;   -0,045
751,967;29852,177;    2,888;    0,409
752,536;30104,895;    1,161;   -0,227
753,105;30599,430;   -1,384;    0,227
753,675;30415,238;   -0,112;    1,773
754,244;30343,682;    0,888;    3,591
754,813;30350,218;    0,979;    1,227
755,382;29980,571;    0,798;    0,955
755,951;30505,652;   -0,112;    3,682
756,520;30058,369;    2,525;    1,864
757,089;30605,996;    1,888;    0,500
757,658;30783,622;    2,434;    1,227
758,227;30829,430;   -1,111;    0,318
758,795;31170,602;   -1,021;    1,136
759,364;31382,410;    0,525;   -0,591
759,933;30339,309;    1,343;   -0,045
760,501;29843,117;    0,252;   -1,318
761,070;30312,380;   -0,293;   -1,409
761,639;31076,006;    1,434;    1,318
762,207;30348,541;    0,889;   -0,955
762,776;30271,713;    2,889;    0,864
763,344;30228,430;    0,071;    0,591
763,913;29290,966;    1,616;    1,409
764,481;30058,683;    1,980;   -0,136
765,049;29808,945;    0,616;    1,409
765,618;29656,390;    1,434;    0,318
766,186;29715,743;    2,434;    0,136
766,754;29906,642;    1,798;    1,864
767,322;28878,541;    1,162;    0,409
767,890;28899,986;    0,525;   -1,773
768,459;29317,521;    2,616;   -0,318
769,027;29426,057;    2,525;    3,409
769,595;28378,319;    2,616;    2,591
770,163;28849,491;    3,344;    2,955
770,730;28563,481;    2,525;   -0,136
771,298;28404,471;    1,162;   -1,409
771,866;28523,006;    0,253;    4,955
772,434;28896,814;    1,162;   -1,864
773,002;29008,804;    2,616;    0,682
773,569;28614,976;    1,071;    1,682
774,137;28472,057;    0,889;   -0,045
774,705;29286,501;   -0,747;   -0,136
775,272;28755,127;    0,253;    0,682
775,840;28466,390;   -0,111;    2,682
776,407;27970,380;   -0,293;    1,955
776,975;27527,188;    1,162;    0,318
777,542;28598,814;    2,162;   -0,045
778,110;28484,077;    0,707;   -0,045
778,677;28042,703;    1,071;   -0,864
779,244;27755,875;   -1,020;    1,045
779,812;27919,956;    0,980;    0,864
780,379;27728,673;    2,435;    1,136
780,946;27998,845;    2,617;   -0,773
781,513;28312,017;   -0,565;    0,318
782,080;27638,916;    1,253;    2,864
782,647;28438,542;    1,708;    3,045
783,214;28008,714;   -0,201;    3,864
783,781;27556,794;    1,708;   -0,682
784,348;27473,239;    0,253;    1,500
784,915;27958,865;   -1,474;    0,318
785,482;27618,855;    2,708;    2,591
786,049;28090,390;    1,071;   -0,591
786,615;28190,744;    1,708;   -0,955
787,182;28012,916;   -3,201;   -0,682
787,749;27675,178;   -2,201;    1,409
788,315;26952,259;    0,253;   -0,409
788,882;27277,340;    0,981;   -1,227
789,448;27975,148;    1,435;   -0,955
790,015;27971,683;    1,799;    3,227
790,581;27515,128;    0,708;    0,227
791,148;27439,209;    1,344;    1,045
791,714;27686,744;   -1,019;    3,136
792,280;27362,916;    3,708;    1,591
792,847;26826,360;   -0,928;    2,500
793,413;27417,714;   -0,110;   -0,318
793,979;26922,704;    1,526;   -1,318
794,545;26949,875;    2,981;    2,682
795,111;26320,320;    2,435;    1,318
795,678;26533,310;    3,526;   -1,682
796,244;26198,209;    2,799;    0,136
796,810;26733,562;    0,799;    0,773
797,375;26411,643;   -0,292;   -2,136
797,941;26447,815;   -1,110;    0,591
798,507;26619,896;    0,254;   -0,955
799,073;26121,068;    2,708;    0,591
799,639;26162,239;    1,435;    3,136
800,205;26176,866;   -1,565;    2,682
800,770;25687,128;    1,345;    1,773
801,336;25748,118;    2,981;   -0,955
801,901;25396,926;    6,072;    3,136
802,467;26019,280;    0,526;    2,045
803,033;25344,724;   -0,019;    0,864
803,598;25522,260;    1,072;   -1,045
804,163;25558,431;    0,708;   -0,318
804,729;25473,512;   -0,110;    1,136
805,294;25881,775;    1,072;    2,227
805,859;25708,401;    0,890;   -0,409
806,425;25155,936;    3,890;    2,682
806,990;24813,290;    1,890;    4,318
807,555;25395,280;   -0,110;    2,591
808,120;25263,179;   -1,292;   -0,409
808,685;25316,351;    1,072;   -2,500
809,250;24770,977;    2,072;   -0,500
809,815;25132,149;   -0,201;    0,682
810,380;25685,048;    0,981;    1,591
810,945;26213,401;    2,890;    2,045
811,510;25435,937;   -0,200;    1,591
812,075;25066,381;    2,800;   -1,409
812,640;25069,462;    3,709;    1,409
813,204;25097,815;    2,163;   -0,227
813,769;25608,078;    0,254;   -0,045
814,334;24973,523;    0,527;    0,864
814,898;25042,058;    1,981;    0,591
815,463;24894,230;    0,981;   -0,773
816,027;24834,310;    1,345;   -2,318
816,592;24948,755;    2,163;   -2,045
817,156;24406,745;   -2,200;    1,136
817,721;24150,553;    0,982;    2,318
818,285;24121,816;    0,618;    1,500
818,849;24829,442;   -0,018;    1,682
819,414;24767,795;    0,073;    2,955
819,978;24256,149;   -0,291;    1,773
820,542;24852,775;    2,891;    0,500
821,106;24571,765;    2,800;    0,682
821,670;24679,119;    2,709;    2,591
822,234;24328,109;    1,073;    1,409
822,798;23734,189;   -0,836;    0,500
823,362;23687,361;    1,527;    4,227
823,926;22935,533;   -0,018;    1,136
824,490;23162,886;    3,527;   -0,682
825,054;23676,331;    2,527;   -1,136
825,618;23203,503;   -1,200;   -1,500
826,181;23161,674;    0,982;   -1,318
826,745;23048,755;   -0,745;   -1,045
827,309;23363,836;    2,255;    1,318
827,872;22804,462;    0,527;    0,955
828,436;23806,634;    1,982;   -0,773
828,999;23876,715;    2,436;    1,227
829,563;22660,068;   -0,654;    1,136
830,126;22431,604;   -0,018;   -0,591
830,690;22443,866;    0,709;    2,864
831,253;21911,947;   -0,473;    2,227
831,816;22084,574;   -0,018;    0,500
832,380;22008,745;    1,164;    0,864
832,943;22166,917;    3,073;   -0,500
833,506;21692,089;    0,255;   -1,227
834,069;22534,715;    2,164;   -0,955
834,632;22574,796;   -2,200;    1,318
835,195;22404,240;    1,346;    0,955
835,758;21570,957;    0,709;    1,955
836,321;21354,402;    1,073;   -1,045
836,884;21470,665;   -1,291;   -0,955
837,447;21497,564;    0,528;    1,773
838,010;21765,281;    1,800;    3,227
838,573;22123,543;    0,528;    0,773
839,135;22019,170;   -0,109;   -0,955
839,698;21426,705;    2,528;    0,409
840,261;20920,604;    0,255;   -0,227
840,823;20785,503;   -0,927;    0,864
841,386;21054,311;   -0,018;   -2,409
841,948;20879,483;    0,255;    1,773
842,511;20629,291;    0,255;    1,682
843,073;20781,826;    2,982;    0,227
843,636;20579,634;    0,619;   -0,227
844,198;20505,352;    1,255;    0,591
844,760;20657,069;    0,619;    1,955
845,322;20289,695;    0,164;    1,136
845,885;20726,867;   -0,290;    0,591
846,447;21124,766;    0,710;    0,227
847,009;20687,938;    3,983;   -0,682
847,571;21043,564;    1,346;   -2,045
848,133;21111,554;   -0,199;   -1,864
848,695;20959,362;    2,346;    1,409
849,257;20516,988;    1,346;   -1,682
849,819;20668,796;    2,983;   -0,409
850,381;20696,241;    1,801;   -0,864
850,942;21121,049;    1,892;   -0,591
851,504;21058,039;    0,983;    0,227
852,066;21115,120;    1,619;   -1,591
852,628;20679,655;    0,165;    1,955
853,189;20202,372;    0,256;    2,682
853,751;20271,726;   -0,654;    1,409
854,312;20116,079;    1,256;   -1,682
854,874;20694,251;   -0,108;   -0,773
855,435;21153,241;    0,528;   -1,682
855,997;21304,776;    3,983;   -0,136
856,558;20501,130;    0,801;    1,773
857,119;20644,574;   -0,744;    2,864
857,681;20355,291;   -0,108;    0,318
858,242;20322,009;    1,347;   -2,136
858,803;20800,180;    1,074;   -0,773
859,364;21380,079;    0,892;   -4,773
859,925;20650,069;   -0,290;   -0,955
860,486;20556,786;    0,529;   -0,955
861,047;20314,140;    0,165;   -1,227
861,608;20092,675;    0,165;   -0,773
862,169;20199,938;   -0,562;   -0,045
862,730;20008,110;   -0,290;    1,409
863,291;20239,827;    0,438;   -0,500
863,852;20603,180;   -0,926;    1,955
864,412;20107,807;   -1,835;   -0,864
864,973;18561,160;    1,892;    0,500
865,534;18395,423;    2,074;    0,227
866,094;19959,504;    2,620;    0,227
866,655;19565,676;    4,711;    3,318
867,215;19887,029;    0,074;    0,136
867,776;19728,474;   -1,199;   -0,136
868,336;19792,645;    1,529;    0,136
868,897;19183,181;    3,438;    1,682
869,457;19023,807;    3,256;    0,318
870,017;19270,797;    2,438;   -1,227
870,578;19786,787;    1,893;    0,773
871,138;19416,140;    2,620;   -0,955
871,698;18948,676;   -0,562;   -1,318
872,258;18762,393;    0,711;   -2,864
872,818;19170,110;    2,347;    0,045
873,378;19096,009;   -2,198;    1,045
873,938;18660,726;    4,984;    0,500
874,498;18984,898;    1,256;   -1,955
875,058;18880,888;    4,347;    1,773
875,618;18714,787;    1,438;   -2,682
876,177;18680,959;   -0,471;    0,136
876,737;18221,949;   -0,289;    1,955
877,297;18236,484;    2,711;    1,955
877,856;18289,928;    2,529;    0,318
878,416;18197,009;    2,438;   -0,136
878,976;18411,454;    3,438;    0,409
879,535;18618,989;    4,529;    3,136
880,095;18330,252;    1,347;    0,045
880,654;18460,514;    0,347;    1,318
881,213;18514,322;    2,347;    1,500
881,773;18173,858;    1,984;    2,682
882,332;18542,302;    6,075;    5,136
882,891;18387,383;    0,711;    2,136
883,451;18861,373;   -2,016;    1,682
884,010;18302,272;   -1,107;   -0,409
884,569;18356,626;   -2,289;   -0,045
885,128;18476,343;   -0,743;   -1,864
885,687;18558,242;   -0,743;    0,682
886,246;18252,959;    2,620;    2,136
886,805;18013,040;    1,620;    2,045
887,364;18342,666;    1,166;   -0,500
887,922;18693,565;   -0,016;    0,045
888,481;18164,191;    1,530;    0,591
889,040;18515,818;    3,711;    2,136
889,599;19180,353;    2,166;    1,409
890,157;19268,979;    2,166;    2,409
890,716;19000,605;    2,166;    0,227
891,274;18756,232;    0,075;   -1,136
891,833;19182,767;    1,166;    0,864
892,391;19032,666;    1,802;    0,500
892,950;19137,747;    0,166;   -0,773
893,508;19498,555;    0,984;   -0,409
894,067;18853,363;   -0,379;    0,136
894,625;18755,989;   -1,016;   -1,500
895,183;18952,525;   -0,198;   -0,682
895,741;18855,242;    2,257;   -1,773
896,299;18702,323;    1,621;   -2,409
896,858;18901,495;    1,530;   -1,591
897,416;19030,939;    0,166;   -1,318
897,974;18751,202;   -2,197;    0,318
898,532;18851,737;    6,530;    2,682
899,089;18751,000;    0,621;   -0,682
899,647;18812,535;    0,530;    1,318
900,205;18518,252;    0,257;    1,045
900,763;18740,515;    2,166;    0,227
901,321;18754,323;    3,530;   -1,409
901,878;18137,040;    3,257;   -0,773
902,436;17989,666;    0,257;    1,318
902,994;18390,020;    6,712;    3,682
903,551;17811,101;    1,439;    0,409
904,109;18215,454;    1,530;   -1,409
904,666;17803,899;    1,439;    1,045
905,224;17622,798;    3,894;   -0,409
905,781;17289,242;   -0,470;   -0,318
906,338;17400,050;    0,167;    1,045
906,895;17341,222;    1,894;    2,045
907,453;17269,303;    2,348;    1,136
908,010;17232,566;    3,348;    0,409
908,567;16836,919;   -0,561;    0,591
909,124;16389,454;    2,439;   -1,500
909,681;16478,717;   -1,288;    0,682
910,238;16610,253;   -0,106;   -1,318
910,795;16917,970;   -1,561;   -1,136
911,352;16565,061;   -0,379;   -2,682
911,909;15916,515;    2,803;   -0,864
912,466;16458,697;    1,985;    1,500
913,022;15958,697;   -0,924;    0,500
913,579;16290,333;   -0,470;    2,045
914,136;15975,515;   -2,561;    0,955
914,692;16338,970;    1,530;   -1,227
915,249;15891,242;    0,530;    0,409
915,806;16094,606;    1,803;    1,955
916,362;15793,879;    0,894;    1,864
916,918;15343,515;    2,439;    1,045
917,475;15355,606;    1,621;    0,955
918,031;15473,424;    0,076;   -0,045
918,587;14898,970;    0,621;   -0,318
919,144;15071,606;   -0,379;    0,227
919,700;15406,970;    0,167;    0,773
920,256;15006,333;    0,439;    0,045
920,812;14570,697;    1,439;   -1,045
921,368;14559,879;    1,348;   -1,045
921,924;14187,697;    0,439;   -0,136
922,480;13749,788;    0,076;    1,227
923,036;14349,606;   -0,652;    1,955
923,592;14296,788;    0,621;    0,318
924,148;14191,788;    1,894;   -0,955
924,704;13478,242;    0,258;   -0,409
925,259;13766,152;   -0,561;    0,591
925,815;13501,152;    3,803;    0,500
926,371;12999,697;    3,530;    1,409
926,926;12844,515;    1,621;    0,591
927,482;12411,424;    1,621;    0,773
928,037;12295,061;   -0,833;    2,045
928,593;12613,970;    0,258;    1,045
929,148;12436,515;    1,167;   -1,500
929,704;11931,970;    2,439;   -0,500
930,259;12105,606;    0,894;   -0,136
930,814;11144,061;    1,803;    1,955
931,369;10810,424;    0,258;   -0,773
931,925;10705,424;   -1,924;    0,136
932,480;10568,242;    3,076;   -2,591
933,035;10370,879;    3,985;   -0,318
933,590;10130,606;   -1,742;   -1,773
934,145; 9797,152;   -1,288;   -0,318
934,700;10153,061;    0,348;   -0,591
935,255; 9920,515;    4,803;    0,045
935,809; 9151,242;    6,258;    0,864
936,364; 8256,788;    2,167;   -0,136
936,919; 8180,788;    2,348;   -1,773
937,474; 8103,242;    1,348;    0,136
938,028; 7852,697;    3,076;    1,136
938,583; 7198,061;    6,348;    4,682
939,138; 7529,879;    0,167;    2,136
939,692; 6938,879;   -1,015;   -1,136
940,247; 6579,697;    1,167;   -1,045
940,801; 6097,879;    0,621;    0,227
941,355; 5980,152;    0,439;    2,591
941,910; 5630,152;    0,712;   -2,136
942,464; 5719,788;    2,712;   -0,318
943,018; 5474,879;    3,258;   -0,227
943,572; 5433,152;    2,803;   -0,682
944,126; 4762,242;   -0,924;   -0,409
944,681; 4662,424;    0,712;    0,227
945,235; 4664,061;    2,167;   -0,591
945,789; 4579,424;    1,258;   -1,864
946,342; 4651,879;   -0,561;   -0,591
946,896; 4468,333;    0,348;    0,955
947,450; 4217,515;   -0,561;   -0,227
948,004; 4370,424;    1,076;   -0,045
948,558; 4424,152;    1,258;   -0,864
949,111; 4323,152;   -1,197;   -0,318
949,665; 4326,970;   -0,106;   -0,682
950,219; 4192,606;    0,621;   -1,045
950,772; 4286,061;    0,258;    1,864
951,326; 4210,606;   -1,106;   -0,955
951,879; 4313,879;    1,076;   -2,318
952,433; 4320,061;    1,348;    2,227
952,986; 4158,333;    0,348;    0,682
953,539; 4083,970;    1,530;    0,591
954,093; 4033,515;    0,985;   -1,318
954,646; 4162,606;   -0,288;    1,318
955,199; 3988,424;    1,258;   -0,500
955,752; 3827,061;    1,985;    1,773
956,305; 3799,788;    0,894;    2,955
956,858; 3986,879;    0,621;   -0,318
957,411; 4155,515;    3,621;    2,136
957,964; 3975,333;    2,076;    2,136
958,517; 3972,152;    0,985;    3,136
959,070; 3779,424;   -1,197;    1,955
959,623; 3828,152;    1,076;    1,500
960,176; 3589,879;    0,712;    2,045
960,728; 3579,424;    1,712;    0,773
961,281; 3632,697;    2,258;    0,500
961,834; 3687,333;   -0,833;    0,864
962,386; 3612,152;    1,258;    1,045
962,939; 3536,242;    3,439;   -0,318
963,491; 3680,242;    2,621;    1,136
964,043; 3522,697;    0,076;    2,409
964,596; 3664,697;    1,712;    2,227
965,148; 3478,515;   -0,379;    1,773
965,700; 3422,152;   -0,015;   -0,227
966,253; 3575,879;   -0,833;    0,318
966,805; 3393,879;    1,894;    0,773
967,357; 3456,788;    0,439;   -1,500
967,909; 3370,152;    1,167;   -1,227
968,461; 3530,970;    0,894;    3,136
969,013; 3450,242;   -1,561;   -0,864
969,565; 3535,152;    1,803;   -1,136
970,117; 3564,515;    3,803;    1,045
970,669; 3421,424;    3,258;   -0,136
971,220; 3297,788;    2,167;   -1,500
971,772; 3212,333;    1,348;   -0,318
972,324; 3322,606;   -1,197;   -0,500
972,876; 3283,242;    0,167;   -0,045
973,427; 3410,424;   -1,197;   -1,045
973,979; 3367,515;    0,076;   -2,500
974,530; 3428,424;    0,803;    1,318
975,082; 3436,606;    2,167;    1,682
975,633; 3308,333;    2,894;    1,682
976,184; 3440,788;    2,076;    0,773
976,736; 3238,515;    0,348;    0,227
977,287; 3007,333;    0,258;   -0,500
977,838; 3206,970;   -0,924;   -0,318
978,389; 3256,061;    0,803;   -0,500
978,940; 3163,242;    1,258;   -0,409
979,491; 3186,697;    2,258;   -0,500
980,042; 3109,970;   -0,652;    3,045
980,593; 3199,333;    1,894;    0,227
981,144; 3221,424;    3,530;   -0,500
981,695; 3174,879;   -0,470;    1,500
982,246; 3147,152;   -1,833;    1,045
982,797; 3324,152;   -0,561;    0,682
983,347; 3454,606;    2,167;    0,591
983,898; 3581,242;    4,167;    0,409
984,449; 3402,970;    2,530;    0,773
984,999; 3333,788;    1,894;   -1,136
985,550; 3077,242;    3,167;   -0,318
986,100; 3142,970;    0,712;   -0,318
986,651; 3162,333;    0,258;    0,045
987,201; 3139,697;    0,894;   -0,591
987,751; 3226,333;   -0,288;    2,864
988,302; 3209,788;   -0,379;    1,500
988,852; 3238,788;    1,985;   -1,136
989,402; 3277,333;    0,985;    0,682
989,952; 3191,697;    1,621;    0,864
990,502; 3302,515;    1,076;    0,682
991,052; 3290,061;   -0,106;    0,045
991,602; 3107,242;    1,167;    1,318
992,152; 3101,333;    2,803;    0,682
992,702; 3079,879;    1,167;   -0,045
993,252; 2996,424;    0,076;   -0,500
993,802; 3088,515;    1,167;    1,318
994,352; 3364,424;   -0,742;    1,136
994,901; 3488,242;    1,076;    3,227
995,451; 3387,061;   -1,197;    0,318
996,000; 3463,697;    1,076;    0,318
996,550; 3142,970;    2,894;    0,227
997,100; 3149,788;   -0,561;   -0,045
997,649; 3452,970;   -0,197;    0,955
998,198; 3071,333;   -0,288;   -1,500
998,748; 3250,061;    0,348;   -2,318
999,297; 3168,152;    0,985;   -0,409
999,846; 3231,242;    1,894;   -0,773
1000,395; 3308,333;    1,530;    0,500
1000,945; 3205,879;    1,076;   -0,773
1001,494; 3297,606;    0,167;    0,682
1002,043; 3295,515;    0,712;    0,864
1002,592; 3157,152;    3,439;    1,955
1003,141; 3289,061;    2,439;   -0,682
1003,690; 3116,970;    1,258;    0,500
1004,238; 3203,242;   -0,106;   -0,045
1004,787; 2818,242;   -1,288;    1,227
1005,336; 3044,788;    1,621;    0,682
1005,885; 3222,152;   -0,197;   -2,773
1006,433; 3390,606;   -0,470;    0,955
1006,982; 3429,970;    2,167;    1,682
1007,531; 3361,242;    2,712;   -0,227
1008,079; 3340,879;    0,258;    0,500
1008,627; 3480,061;    1,621;    0,409
1009,176; 3172,424;    0,076;   -1,955
1009,724; 3239,242;   -2,742;    0,864
1010,273; 3267,333;    1,076;    0,500
1010,821; 3406,333;    1,076;    1,409
1011,369; 3129,061;    0,076;    1,318
1011,917; 3101,242;   -0,833;   -0,591
1012,465; 3422,424;    2,530;   -1,591
1013,013; 3538,424;    0,439;   -1,682
1013,561; 3377,697;   -1,288;   -0,773
1014,109; 3419,242;   -0,833;    1,682
1014,657; 3276,879;    1,348;    0,591
1015,205; 3423,333;    0,894;   -0,955
1015,753; 3476,606;    0,258;   -1,409
1016,301; 3522,333;    2,621;    3,045
1016,848; 3514,333;    2,167;    0,409
1017,396; 3570,424;    1,621;    0,045
1017,944; 3706,152;    2,621;    1,864
1018,491; 3422,424;   -0,197;    1,409
1019,039; 3571,242;   -0,652;    0,591
1019,586; 3507,152;    0,076;    1,682
1020,134; 3627,152;    0,712;    1,500
1020,681; 3611,333;    2,894;   -1,136
1021,228; 3659,970;   -0,561;   -2,227
1021,776; 3486,242;   -0,833;   -1,136
1022,323; 3702,606;    0,803;    0,773
1022,870; 3633,424;   -0,470;   -0,045
1023,417; 3510,333;    2,076;    1,864
1023,964; 3688,515;    0,621;    1,227
1024,511; 3494,879;   -0,652;    0,773
1025,058; 3284,697;    0,439;   -0,045
1025,605; 3345,879;   -1,742;    3,136
1026,152; 3553,606;   -0,106;   -0,591
1026,699; 3284,970;    0,167;    1,318
1027,245; 3467,697;    2,439;    0,318
1027,792; 3706,333;    0,712;    1,409
1028,339; 3550,152;    4,076;   -0,045
1028,885; 3403,333;    3,621;   -0,227
1029,432; 3339,424;   -0,106;    0,227
1029,978; 3388,606;    1,348;   -1,591
1030,525; 3301,061;    1,621;    0,409
1031,071; 3576,879;    0,348;    1,136
1031,618; 3629,333;    1,258;    1,682
1032,164; 3439,606;    2,076;    3,045
1032,710; 3492,424;    0,076;   -1,500
1033,256; 3405,152;    0,712;   -0,136
1033,803; 3397,333;   -0,288;    1,500
1034,349; 3117,788;    1,803;    0,136
1034,895; 3288,970;    2,621;   -0,318
1035,441; 3259,061;    0,439;    0,318
1035,987; 3267,879;   -2,288;   -0,682
1036,533; 3270,697;   -0,197;   -0,955
1037,078; 3451,333;    4,712;    1,682
1037,624; 3277,788;    2,439;   -0,955
1038,170; 3302,970;    1,712;   -0,318
1038,716; 3181,970;    2,167;   -0,409
1039,261; 3111,333;    2,167;   -0,773
1039,807; 3039,788;   -0,015;    3,409
1040,352; 3079,788;   -1,288;   -0,318
1040,898; 3131,424;    0,167;   -0,682
1041,443; 3057,152;    0,803;   -2,591
1041,989; 3054,061;    3,621;    1,591
1042,534; 2959,788;    0,985;    2,591
1043,079; 3116,970;    1,985;    0,955
1043,625; 2828,970;    0,258;    0,500
1044,170; 2866,697;    2,439;    1,045
1044,715; 3130,606;    0,167;    0,955
1045,260; 2949,515;   -0,833;   -0,955
1045,805; 3031,152;    0,258;   -0,591
1046,350; 2978,061;    0,530;   -0,409
1046,895; 2896,697;    0,803;    1,591
1047,440; 2829,970;    1,530;    0,409
1047,985; 2747,515;   -1,197;   -0,955
1048,530; 2658,697;    1,348;    1,227
1049,074; 2725,606;    2,803;    0,318
1049,619; 2708,879;   -0,924;    1,955
1050,164; 2484,152;    1,076;    0,227
1050,708; 2531,515;    2,621;    0,045
1051,253; 2892,061;    3,258;   -2,227
1051,797; 2618,152;   -0,197;   -1,318
1052,342; 2668,152;    1,348;    1,045
1052,886; 2635,697;    1,803;   -1,409
1053,430; 2537,242;    2,167;    0,136
1053,975; 2533,152;    0,894;   -0,318
1054,519; 2487,515;    1,803;    3,227
1055,063; 2489,606;    3,621;    1,318
1055,607; 2357,515;    1,348;    0,227
1056,151; 2382,879;    0,530;    1,682
1056,695; 2326,788;   -1,833;   -1,136
1057,239; 2391,970;   -1,197;   -0,682
1057,783; 2387,606;    2,258;   -1,500
1058,327; 2315,242;    3,076;    1,409
1058,871; 2545,424;    3,985;    1,318
1059,415; 2241,242;   -0,561;   -0,045
1059,958; 2480,515;    2,985;    2,591
1060,502; 2225,697;    1,348;   -0,773
1061,046; 2143,515;    1,712;   -0,955
1061,589; 2113,970;    2,803;   -1,136
1062,133; 2000,515;    0,985;    1,864
1062,676; 1930,061;    1,439;    0,864
1063,220; 1918,424;    0,985;    0,500
1063,763; 1939,424;    2,985;    1,136
1064,306; 2008,242;    0,985;    1,864
1064,849; 1892,242;    2,076;    0,591
1065,393; 1915,970;    2,894;   -1,500
1065,936; 2028,061;    2,530;   -0,409
1066,479; 1918,606;    2,621;    1,318
1067,022; 1948,697;    1,894;   -0,227
1067,565; 1832,697;   -1,197;   -1,318
1068,108; 1865,970;    1,258;   -0,591
1068,651; 1864,697;   -2,470;    1,409
1069,194; 1781,061;   -1,106;   -1,682
1069,736; 1759,697;    3,803;    0,955
1070,279; 1751,879;   -1,652;   -0,500
1070,822; 1781,515;    1,530;   -0,318
1071,364; 1826,970;    0,530;    1,318
1071,907; 1679,879;    0,348;    3,227
1072,450; 1612,697;    0,258;   -0,045
1072,992; 1583,333;   -0,561;    3,136
1073,535; 1721,788;    0,167;    2,136
1074,077; 1526,152;    2,985;    2,045
1074,619; 1460,697;    0,985;    0,591
1075,161; 1488,697;   -0,561;    1,500
1075,704; 1666,970;    0,258;    1,227
1076,246; 1485,515;    1,530;    0,682
1076,788; 1416,152;   -1,015;    1,773
1077,330; 1504,697;   -2,106;    2,136
1077,872; 1455,515;   -1,924;    0,955
1078,414; 1665,424;    3,712;    0,773
1078,956; 1393,970;    0,167;   -0,227
1079,498; 1627,697;    0,439;    0,318
1080,040; 1333,515;    0,985;   -1,318
1080,581; 1302,242;    0,621;   -0,318
1081,123; 1242,424;   -0,106;   -0,773
1081,665; 1293,515;    3,803;   -0,955
1082,206; 1548,788;    3,258;   -0,500
1082,748; 1424,061;    3,258;    2,045
1083,289; 1328,424;    0,167;    1,318
1083,831; 1218,061;    0,258;    0,227
1084,372; 1222,152;    0,894;    0,591
1084,913; 1231,424;    3,348;    0,864
1085,455; 1227,970;    1,530;   -2,045
1085,996; 1180,152;    0,530;    0,136
1086,537; 1203,333;    0,985;    0,864
1087,078; 1232,061;    0,439;   -2,136
1087,619; 1266,515;   -1,652;    0,227
1088,160; 1195,970;    1,439;    1,318
1088,701; 1173,515;   -0,742;    0,682
1089,242; 1121,879;   -0,561;   -2,227
1089,783; 1208,879;   -0,561;    1,409
1090,324; 1177,606;   -0,833;    0,682
1090,865; 1060,061;   -1,924;   -0,409
1091,405; 1031,879;   -0,561;    2,227
1091,946; 1061,242;   -0,197;   -0,955
1092,487;  994,424;   -1,288;   -1,409
1093,027; 1140,333;    1,803;   -1,500
1093,568;  989,879;    2,258;    1,227
1094,108; 1053,606;    0,621;    1,773
1094,649; 1022,333;   -0,470;    0,136
1095,189;  972,152;    1,167;   -0,682
1095,729;  913,879;    0,712;    0,955
1096,269;  931,788;    1,258;   -0,955
1096,810; 1226,424;   -0,197;    0,500
1097,350; 1047,788;   -0,561;   -0,773
1097,890;  957,152;    2,985;    1,227
1098,430; 1207,242;    4,985;    2,864
1098,970; 1077,242;    1,894;    1,682
1099,510;  954,333;   -0,833;   -2,318
1100,050;  871,061;    0,258;   -1,591
1100,589;  828,242;    0,076;   -0,318
1101,129;  956,061;    0,894;   -0,955
1101,669; 1082,970;    2,803;    2,136
1102,209;  927,515;    1,530;    2,227
1102,748;  878,970;    3,439;    0,955
1103,288;  859,788;    0,712;   -1,227
1103,827;  891,788;    3,530;   -2,227
1104,367;  771,061;    1,712;   -2,409
1104,906;  731,152;   -1,015;   -1,136
1105,445;  797,242;    0,985;   -1,136
1105,985;  740,515;   -0,652;    1,500
1106,524;  794,788;    1,530;   -0,682
1107,063;  763,152;    1,167;    1,409
1107,602;  746,606;    1,894;   -1,500
1108,141;  661,788;    1,621;    1,500
1108,680;  754,970;    3,985;   -0,591
1109,219;  706,515;    0,167;   -0,500
1109,758;  705,697;    4,167;    0,682
1110,297;  682,152;   -1,106;   -0,682
1110,836;  628,061;    1,439;    0,955
1111,375;  788,333;    0,348;    0,409
1111,913;  797,879;    0,985;    0,773
1112,452;  735,879;    0,894;    0,136
1112,991;  622,515;    1,076;    1,955
1113,529;  574,242;    0,167;   -0,045
1114,068;  642,242;    0,439;    2,955
1114,606;  538,697;   -0,561;   -0,955
1115,144;  694,152;    1,530;    1,045
1115,683;  633,970;    1,985;    0,318
1116,221;  689,879;    2,076;   -0,864
1116,759;  604,152;    1,621;   -0,864
1117,297;  781,879;    1,621;    1,864
1117,836;  597,061;    1,985;   -1,227
1118,374;  593,424;    0,258;   -0,682
1118,912;  545,970;    0,439;    2,682
1119,450;  519,242;    0,985;    0,864
1119,988;  585,606;    3,348;    2,136
1120,525; 1036,970;    7,258;    3,318
1121,063;  724,606;    0,530;    1,864
1121,601;  531,152;    1,076;   -1,227
1122,139;  494,606;    1,076;   -2,045
1122,676;  685,242;   -1,652;    2,773
1123,214;  620,970;    0,712;    4,409
1123,751;  439,879;    0,621;    2,227
1124,289;  567,970;    0,894;   -0,409
1124,826;  429,061;   -0,379;    0,227
1125,364;  358,788;    0,712;   -0,955
1125,901;  548,152;    6,258;    1,227
1126,438;  645,515;    3,530;    0,955
1126,975;  387,788;    2,985;   -0,773
1127,513;  458,424;    2,621;    2,136
1128,050;  373,242;   -0,561;   -0,682
1128,587;  453,152;    1,348;   -0,227
1129,124;  499,061;   -0,015;    1,318
1129,661;  370,424;   -1,924;    0,227
1130,198;  529,333;    2,439;    0,773
1130,734;  471,152;   -0,379;    1,409
1131,271;  340,424;   -1,197;    0,864
1131,808;  501,333;    1,621;    3,045
1132,345;  380,242;    4,530;    0,318
1132,881;  268,788;   -0,561;   -1,864
1133,418;  390,424;    0,348;   -1,136
1133,954;  326,061;    0,712;   -2,682
1134,491;  405,061;    1,712;   -0,773
1135,027;  312,788;    2,167;    0,864
1135,564;  387,515;    1,439;    2,955
1136,100;  365,970;   -0,742;    2,136
1136,636;  267,515;   -1,015;   -1,045
1137,172;  349,970;    0,894;   -1,045
1137,708;  281,697;   -1,561;   -1,045
1138,245;  289,242;    0,803;   -1,227
1138,781;  247,242;    1,803;   -3,318
1139,317;  301,061;    1,894;   -1,409
1139,852;  288,242;    3,076;    0,136
1140,388;  405,606;    2,076;   -0,409
1140,924;  290,424;    1,076;   -2,227
1141,460;  236,970;   -0,288;    0,136
1141,996;  170,242;   -0,652;    2,682
1142,531;  210,788;    1,076;    3,318
1143,067;  414,333;    1,167;    1,045
1143,602;  481,788;    3,439;   -0,318
1144,138;  318,242;    0,803;    1,045
1144,673;  194,879;    1,621;    1,409
1145,209;  266,333;    2,894;   -0,318
1145,744;  189,152;    0,803;    0,864
1146,279;  306,970;    1,530;   -0,136
1146,815;  235,970;    1,530;   -2,682
1147,350;  266,970;   -0,924;    0,045
1147,885;  186,242;   -1,924;   -1,318
1148,420;  185,970;    2,439;    0,773
1148,955;  171,606;   -1,470;    1,864
1149,490;  196,879;   -1,106;   -1,591
1150,025;  175,697;   -1,106;   -1,773
1150,560;  277,515;   -0,288;   -0,955
1151,094;  246,515;    0,258;   -0,591
1151,629;  247,152;   -3,742;    0,864
1152,164;  180,061;   -1,288;    1,318
1152,698;  146,970;    1,258;   -0,136
1153,233;  103,606;   -1,379;   -0,682
1153,767;  154,333;   -0,288;   -2,318
1154,302;  200,061;   -0,379;    1,773
1154,836;  193,152;    0,803;   -2,136
1155,371;  244,061;    2,258;    3,682
1155,905;  203,606;    1,985;    1,682
1156,439;  173,879;    0,530;   -0,500
1156,973;  193,697;    0,439;    0,318
1157,507;  133,970;   -1,742;    0,682
1158,042;  162,333;   -0,652;    1,045
1158,576;  208,879;   -0,561;    1,773
1159,110;  206,061;    0,076;    2,409
1159,643;  181,152;   -2,470;   -0,045
1160,177;  116,424;   -2,015;    1,500

