
Integration time [ms]:   0,040
Averaging Nr. [scans]: 11
Smoothing Nr. [pixels]: 0
Data measured with spectrometer [name]: 7318044SP
Wave   ;Sample   ;Dark     ;Reference
[nm]   ;[counts] ;[counts] ;[counts] 

186,757;   28,667;   31,551;    1,318
187,357;   58,438;   22,551;    0,955
187,958;   36,431;   15,460;   -1,591
188,558;   77,200;    8,915;   -1,227
189,159;   39,457;    6,733;   -4,500
189,759;   14,873;    7,278;   -3,591
190,360;   19,204;    2,824;   -2,136
190,960;   58,556;    2,915;   -4,136
191,560;   71,514;    3,189;   -6,591
192,161;  308,164;    4,372;   -3,500
192,761;  148,585;    4,010;   -3,227
193,361;   98,770;    1,556;   -3,773
193,962;  151,680;    2,010;   -2,682
194,562;   80,515;    1,189;   -3,955
195,162;  115,864;   -2,448;   -2,227
195,762;  274,088;   -3,176;   -0,045
196,362;  215,891;    1,370;   -2,500
196,963;   83,122;    2,006;   -0,864
197,563;  159,934;    1,551;   -0,955
198,163;  108,733;    0,096;   -0,682
198,763;  129,203;    1,733;   -0,500
199,363;  231,917;    3,096;   -0,500
199,963;  196,211;    0,369;    0,409
200,563;  166,416;    2,823;   -1,409
201,163;  140,368;    3,277;   -0,227
201,763;  235,246;    3,732;    0,318
202,363;  170,361;    1,459;    1,500
202,963;  286,800;    1,459;    1,045
203,563;  402,944;    0,277;    0,500
204,162;  242,333;    2,096;   -1,864
204,762;  229,515;    0,550;    0,591
205,362;  198,375;    3,004;    1,955
205,962;  303,271;    3,096;    1,955
206,562;  312,805;    1,823;    2,318
207,161;  270,825;   -0,087;    0,318
207,761;  423,383;    1,277;    2,409
208,361;  306,619;   -0,268;    1,409
208,960;  405,292;    0,459;    1,500
209,560;  479,988;    1,277;    1,591
210,160;  462,445;    0,550;    1,864
210,759;  425,141;    4,186;    1,227
211,359;  441,447;    1,459;    1,045
211,958;  703,555;    1,277;    2,045
212,558;  785,335;    1,732;    1,864
213,157;  618,781;    1,822;    1,500
213,757; 1082,667;    3,822;   -0,227
214,356;  780,598;    1,277;   -0,409
214,956; 1116,927;    3,095;    0,409
215,555;  746,971;    2,095;    2,136
216,154;  684,731;   -2,723;   -0,591
216,754;  692,900;    0,277;    0,773
217,353;  828,280;   -0,268;   -1,045
217,952;  687,162;   -0,178;    0,318
218,552;  929,169;    1,368;   -0,773
219,151;  826,913;    0,277;    0,955
219,750;  833,553;    0,004;   -0,227
220,349;  970,986;   -0,451;    1,045
220,948; 1028,711;   -1,360;    1,136
221,548; 1063,403;    0,913;    1,227
222,147; 1187,586;   -0,087;   -0,409
222,746; 1464,965;   -0,451;   -0,955
223,345; 1337,633;    0,731;    0,500
223,944; 1342,935;   -0,451;    0,773
224,543; 1521,762;    1,004;   -1,409
225,142; 1633,091;    0,094;    0,136
225,741; 1549,038;   -0,814;    1,045
226,340; 1587,556;   -0,451;   -0,955
226,939; 2041,210;   -0,996;   -0,136
227,538; 2012,505;   -0,360;   -0,773
228,137; 2155,218;   -0,814;    0,864
228,735; 2327,575;   -0,541;    1,227
229,334; 2077,653;   -0,905;   -0,227
229,933; 2439,912;    0,459;    0,591
230,532; 2549,564;    1,186;   -0,409
231,131; 2591,182;    1,732;    0,318
231,729; 2749,426;   -2,450;   -2,318
232,328; 2894,738;   -0,723;   -1,500
232,927; 2977,384;    1,004;   -0,500
233,525; 3133,592;    3,640;    0,045
234,124; 3354,440;    2,368;   -1,591
234,723; 3401,127;    0,913;   -1,045
235,321; 3527,833;    2,277;    0,136
235,920; 3762,705;    1,186;   -1,227
236,518; 4023,320;    3,459;    0,318
237,117; 4222,377;    0,004;   -0,227
237,715; 4379,173;    0,640;   -0,500
238,314; 4432,946;   -0,087;   -2,318
238,912; 4513,797;   -0,723;   -1,409
239,510; 4557,590;    0,459;   -1,227
240,109; 4747,457;    0,004;    3,773
240,707; 4782,274;   -0,996;    1,227
241,305; 5163,987;    0,550;    0,136
241,904; 5385,078;   -0,178;   -2,045
242,502; 5335,279;   -0,632;   -0,227
243,100; 5296,160;   -0,087;   -0,955
243,698; 5547,228;    0,732;    1,682
244,297; 5722,478;   -0,632;    0,682
244,895; 5560,093;   -0,269;   -2,318
245,493; 5904,396;    2,186;   -0,591
246,091; 5959,339;    1,368;   -1,318
246,689; 5946,332;    1,004;    0,591
247,287; 6107,021;    0,822;   -1,136
247,885; 6416,147;   -1,451;    1,227
248,483; 6511,709;    1,822;   -0,500
249,081; 6644,963;    0,185;    1,591
249,679; 6798,970;   -0,178;    1,682
250,277; 7104,194;   -1,723;    0,864
250,875; 7078,075;   -1,087;   -1,045
251,473; 7100,234;   -1,178;    0,500
252,071; 7279,346;    1,459;    1,045
252,669; 7439,844;   -1,814;    0,318
253,267; 7714,059;   -0,087;    0,773
253,864; 7654,839;   -0,360;    0,682
254,462; 7504,947;    1,640;    1,591
255,060; 7493,006;   -0,269;    1,318
255,658; 7847,844;    0,822;   -0,136
256,255; 8275,287;    0,186;   -2,045
256,853; 8143,784;   -0,269;    1,409
257,451; 8113,384;    0,822;    1,864
258,048; 8375,988;    1,822;    1,864
258,646; 8169,940;    1,731;   -1,045
259,243; 8339,784;   -0,087;    2,227
259,841; 8430,363;   -0,814;    0,318
260,438; 8308,576;   -0,087;    0,864
261,036; 9042,062;   -1,905;    1,409
261,633; 8932,584;   -0,087;    2,227
262,231; 8653,312;    2,731;   -0,045
262,828; 8764,381;   -0,905;    1,136
263,425; 8854,339;    0,913;   -0,591
264,023; 9117,188;    0,186;    0,045
264,620; 8654,655;   -0,360;   -0,318
265,217; 8993,396;   -2,087;    3,136
265,815; 9130,950;   -1,905;    2,136
266,412; 8875,226;    0,731;    0,136
267,009; 8916,014;   -1,451;    0,773
267,606; 8786,031;    0,822;   -0,955
268,203; 8810,301;   -0,269;   -0,591
268,801; 9135,143;    1,731;    0,591
269,398; 9425,744;   -0,360;    2,500
269,995; 9388,927;    0,277;    1,591
270,592; 9139,595;   -0,632;   -0,500
271,189; 9376,595;    0,186;    0,409
271,786; 9486,287;   -0,632;    1,227
272,383; 9321,165;   -1,087;    0,227
272,980; 9543,085;    0,277;    0,318
273,577;10019,064;    0,004;    1,227
274,174; 9569,213;    0,822;    2,591
274,771; 9548,571;   -0,814;   -0,773
275,367; 9663,876;    2,277;    1,409
275,964; 9663,199;    0,731;   -0,500
276,561; 9767,590;    1,549;   -1,045
277,158; 9998,061;    0,095;   -1,773
277,755;10138,690;    2,185;    0,409
278,351; 9518,570;   -0,451;   -1,500
278,948; 9837,833;   -0,815;    0,045
279,545; 9853,880;   -1,360;    2,318
280,141;10445,813;   -1,723;   -2,045
280,738;10308,649;   -0,451;   -0,136
281,334;10560,290;   -1,633;    0,591
281,931; 9951,012;   -0,087;   -1,318
282,528;10041,376;    0,822;   -0,500
283,124;10754,674;   -1,087;   -0,500
283,721;10680,350;   -0,451;    1,409
284,317;10498,356;    0,185;    2,500
284,913;11030,239;   -1,360;    0,591
285,510;11216,876;    0,640;   -0,318
286,106;11268,306;   -2,269;   -0,955
286,703;10880,963;   -0,360;    1,955
287,299;11110,363;   -1,451;   -0,591
287,895;11311,960;    0,822;   -1,045
288,491;11876,653;    0,186;    2,136
289,088;11586,496;   -2,360;    2,409
289,684;11642,026;   -1,723;    1,500
290,280;11617,067;    0,368;    0,682
290,876;11734,252;    1,822;    5,500
291,472;11584,275;    1,276;    2,227
292,068;11721,410;    1,367;    0,227
292,665;11446,363;    2,095;    0,773
293,261;11028,608;    0,276;    2,136
293,857;11438,963;    2,913;    2,136
294,453;11389,815;    3,550;    0,955
295,049;11265,623;   -0,268;    1,955
295,644;11274,495;    0,095;    0,136
296,240;11187,355;   -0,905;   -0,136
296,836;11236,761;   -0,995;    0,318
297,432;11562,134;    1,096;   -0,500
298,028;11564,381;    0,732;    0,773
298,624;11956,053;    1,459;    1,864
299,220;12252,054;    2,368;    0,591
299,815;11918,922;    1,005;   -0,409
300,411;11688,986;    0,914;    1,773
301,007;11710,362;    1,368;    0,227
301,602;11763,650;   -0,541;   -2,318
302,198;11953,753;    0,732;   -0,773
302,794;12307,730;    1,187;   -0,500
303,389;12429,931;   -1,177;    1,045
303,985;12509,099;    0,550;    1,409
304,580;12449,633;    1,459;    1,591
305,176;12437,409;   -3,086;    0,136
305,771;12387,316;   -1,268;   -1,227
306,367;12182,328;    4,095;    0,136
306,962;12547,741;    0,641;    1,500
307,558;12275,222;   -0,450;    0,136
308,153;12189,597;    1,095;   -1,136
308,748;12436,254;   -0,814;    1,682
309,344;12399,906;   -0,632;   -1,318
309,939;12462,336;   -1,905;   -1,318
310,534;12782,394;   -0,086;   -1,682
311,130;12725,507;    0,459;   -2,500
311,725;12453,103;    1,004;   -0,500
312,320;12821,449;    2,459;    0,045
312,915;12619,673;    1,459;   -1,045
313,510;12662,141;    1,550;   -0,500
314,105;13203,205;    1,096;    1,409
314,700;12620,256;   -3,086;   -1,045
315,295;12267,451;   -0,904;    0,045
315,890;11841,638;    1,277;    0,864
316,485;12185,934;   -0,359;   -0,318
317,080;12285,027;   -3,086;    1,591
317,675;12861,092;    2,005;   -0,682
318,270;12254,421;    5,550;    3,318
318,865;12263,960;    3,278;    3,045
319,460;12111,527;   -0,904;    0,591
320,055;12347,962;   -0,541;   -1,227
320,650;12033,898;   -1,995;   -0,591
321,244;12076,721;   -0,177;   -1,409
321,839;13041,457;   -1,541;   -0,227
322,434;12899,449;   -1,086;   -1,591
323,029;12494,394;    1,732;    1,591
323,623;12319,254;    1,550;    0,773
324,218;12069,168;    2,368;    1,409
324,812;11971,918;    1,096;    1,591
325,407;11782,800;   -0,814;    2,045
326,002;11697,689;    0,277;   -0,409
326,596;12011,237;    0,914;    1,318
327,191;12187,385;    0,823;   -1,045
327,785;11795,691;   -0,813;   -0,227
328,379;12026,326;    1,368;    0,136
328,974;11817,359;    0,914;   -3,955
329,568;11988,775;    0,186;   -2,409
330,163;11830,439;    2,096;    1,045
330,757;12187,375;    2,459;    1,591
331,351;11537,428;    0,459;    0,682
331,945;11823,724;    0,914;    1,409
332,540;11424,798;   -1,723;   -0,591
333,134;11545,991;   -1,086;    0,773
333,728;11815,220;    0,005;    0,318
334,322;12127,437;   -1,177;   -0,864
334,916;11425,847;    0,277;    0,955
335,510;11756,266;   -0,450;   -0,136
336,105;12034,930;   -1,086;    1,591
336,699;11723,817;   -1,086;    0,591
337,293;11641,620;   -1,723;    0,318
337,887;11765,118;   -2,723;    1,955
338,481;11896,279;    0,459;    0,591
339,074;12059,386;   -0,359;    2,682
339,668;11882,504;   -1,632;    1,227
340,262;12130,757;    1,732;    3,227
340,856;11651,150;    1,822;   -0,682
341,450;11037,811;    1,004;    1,864
342,044;11923,074;    1,459;    0,136
342,637;11703,639;    0,913;   -2,136
343,231;11539,539;   -2,360;    0,682
343,825;11479,811;   -1,086;   -0,591
344,419;11480,126;   -1,995;    0,500
345,012;11280,283;    2,459;    4,045
345,606;11231,849;    4,641;    1,591
346,199;11083,890;   -1,813;   -0,227
346,793;10598,371;    1,914;    2,045
347,386;10830,425;   -0,813;   -1,136
347,980;10813,509;   -0,268;   -0,045
348,573;10591,830;    2,278;    0,409
349,167;10211,411;    5,278;    4,773
349,760;10597,638;    2,914;    2,682
350,354;10587,737;   -0,813;    1,136
350,947;10304,993;    1,096;    1,682
351,540; 9989,740;   -0,358;   -1,409
352,134; 9948,489;    1,096;    1,136
352,727;10045,478;   -0,086;    1,136
353,320; 9862,098;    0,005;    0,591
353,913; 9704,987;   -1,995;    1,864
354,507; 9847,382;    0,823;   -1,227
355,100; 9883,708;    0,460;    0,864
355,693; 9097,019;    2,005;    2,409
356,286; 9105,937;    0,823;    2,773
356,879; 9502,924;   -0,722;    1,227
357,472; 9105,975;   -0,904;    1,500
358,065; 9308,387;   -0,722;    2,500
358,658; 9240,190;   -0,540;    2,318
359,251; 8889,021;   -1,631;   -0,591
359,844; 8329,731;   -1,904;   -1,136
360,437; 8474,961;   -2,995;    0,045
361,030; 8779,807;    1,369;   -0,682
361,623; 8375,577;    2,824;    0,318
362,215; 8400,764;   -0,086;    2,045
362,808; 8233,620;   -2,358;   -1,682
363,401; 8469,767;   -2,449;    0,136
363,994; 8172,859;   -0,631;   -1,500
364,586; 8120,254;    0,824;   -1,500
365,179; 8320,899;   -0,449;   -1,136
365,772; 7776,116;   -1,995;    2,045
366,364; 8088,359;    1,915;   -3,227
366,957; 8310,068;    2,279;   -0,045
367,549; 8339,751;    2,188;   -0,864
368,142; 7984,957;    1,825;   -1,500
368,734; 8169,673;    0,734;   -2,136
369,327; 8141,552;    1,643;   -0,500
369,919; 8049,038;   -1,538;    0,409
370,512; 7842,131;   -1,083;   -0,500
371,104; 7608,463;   -0,901;    1,591
371,696; 7748,032;    1,191;   -0,955
372,289; 7842,600;    0,373;    1,136
372,881; 7989,125;   -2,080;    1,318
373,473; 7916,537;   -2,170;    1,136
374,066; 7715,617;   -0,169;    0,500
374,658; 7543,356;    0,378;    1,136
375,250; 7912,164;    0,653;   -1,409
375,842; 7770,153;    0,473;   -0,045
376,434; 7643,256;   -0,435;   -0,409
377,026; 8213,482;    0,204;   -2,500
377,618; 8118,627;   -0,158;   -0,682
378,210; 7970,229;   -0,338;   -1,955
378,802; 7830,463;    0,754;   -0,591
379,394; 7767,303;    1,846;    0,682
379,986; 8388,650;    1,393;   -0,955
380,578; 8458,077;   -0,153;    0,773
381,170; 7785,178;   -0,972;    0,045
381,762; 7761,085;    0,755;    1,409
382,354; 7973,419;   -0,065;   -1,318
382,945; 8063,622;   -2,976;    0,318
383,537; 8238,283;   -2,705;   -1,955
384,129; 8246,218;   -2,160;   -1,136
384,721; 8428,728;   -0,252;    0,955
385,312; 8381,644;   -0,161;   -0,955
385,904; 8437,240;   -2,706;    1,591
386,496; 7811,752;   -0,979;    1,045
387,087; 7970,547;    1,022;    2,500
387,679; 8017,364;   -1,160;    0,045
388,270; 8138,400;    2,840;    2,045
388,862; 8243,716;    1,295;   -0,318
389,453; 8155,652;   -0,887;    1,045
390,045; 8429,620;   -0,705;   -2,682
390,636; 8356,235;    0,204;   -0,591
391,227; 8207,541;   -0,523;   -0,045
391,819; 8319,467;    0,204;    0,773
392,410; 8377,223;    1,022;    0,045
393,001; 8312,341;   -0,979;   -1,591
393,593; 8615,741;    1,930;   -0,045
394,184; 8440,535;    1,385;   -0,409
394,775; 8392,119;    1,839;    2,136
395,366; 8581,859;    1,385;    0,773
395,957; 8594,177;    0,113;    0,136
396,548; 8893,341;   -0,342;    2,682
397,139; 9223,270;   -2,433;    0,591
397,730; 8951,723;   -1,888;    0,955
398,321; 8997,330;   -1,252;    0,955
398,912; 9055,867;   -0,615;    0,136
399,503; 9116,341;   -3,524;   -1,409
400,094; 8527,839;    0,294;    1,682
400,685; 8416,973;   -0,433;    0,045
401,276; 8489,286;    0,930;   -0,955
401,867; 8830,406;   -0,888;    0,773
402,458; 8924,877;   -2,251;   -2,318
403,048; 8902,632;    1,112;    0,591
403,639; 8506,073;    0,840;    0,864
404,230; 8748,223;    2,476;    0,318
404,821; 8692,341;   -0,615;    0,045
405,411; 8797,942;    1,203;   -2,591
406,002; 8361,314;   -1,252;   -1,136
406,592; 8215,199;    2,294;    0,045
407,183; 8560,350;    0,566;   -1,500
407,774; 8476,326;    3,475;   -0,136
408,364; 8815,327;    0,930;    0,409
408,954; 8409,092;    0,384;    1,227
409,545; 8478,709;    1,021;    1,045
410,135; 7998,796;    1,293;    0,500
410,726; 8129,235;    1,838;    0,318
411,316; 8519,157;    0,111;    0,773
411,906; 8195,329;   -0,253;   -0,409
412,497; 7686,763;   -1,070;   -0,045
413,087; 8278,659;   -1,980;   -0,227
413,677; 8686,904;   -0,707;    3,864
414,267; 8553,210;    0,656;    1,409
414,857; 8580,066;   -2,980;    4,227
415,448; 8840,177;    0,839;    0,500
416,038; 8516,514;    0,020;   -0,591
416,628; 8508,522;   -0,889;    0,409
417,218; 7948,123;    0,565;    3,318
417,808; 8195,979;    0,202;   -0,409
418,398; 8698,836;    0,020;    2,682
418,988; 8717,836;    2,020;    0,591
419,578; 8982,092;   -0,707;    1,409
420,168; 9346,978;   -1,343;   -0,955
420,757; 8893,210;   -1,343;   -1,500
421,347; 8564,611;    0,111;   -0,227
421,937; 8749,443;    2,292;    1,409
422,527; 8670,343;    0,838;   -0,773
423,116; 8486,317;   -0,253;   -0,045
423,706; 8889,730;   -1,889;    0,318
424,296; 8888,900;    1,384;    0,682
424,885; 9286,718;   -0,071;   -3,045
425,475; 9551,904;    1,474;   -2,864
426,065; 9497,560;   -0,980;   -0,318
426,654; 9096,884;   -0,435;   -0,318
427,244; 9209,325;    0,020;    1,409
427,833; 8686,826;    1,383;   -0,500
428,423; 9164,237;   -0,526;    1,136
429,012; 9945,135;   -0,344;   -1,136
429,601; 9434,619;   -1,344;    0,136
430,191; 9672,124;    1,292;    4,318
430,780; 9296,035;   -0,344;   -0,409
431,369; 9190,535;    0,746;   -0,045
431,959; 9862,326;   -1,254;    0,500
432,548; 9650,287;   -1,163;   -0,045
433,137; 9792,363;   -1,254;   -1,318
433,726;10308,487;    0,292;    0,500
434,315; 9683,603;   -0,526;    2,409
434,905; 9768,252;   -1,254;    1,409
435,494; 9670,249;    0,746;    0,955
436,083;10185,032;   -0,981;   -0,955
436,672;10051,381;    0,110;    0,500
437,261; 9560,397;    0,292;   -1,955
437,850; 9664,392;    1,383;    0,682
438,439; 9633,776;    3,291;    1,955
439,027; 9487,463;    3,655;    1,773
439,616; 9861,349;    2,927;    1,227
440,205; 9745,560;    0,200;   -2,136
440,794; 9840,017;    2,109;   -0,045
441,383;10103,597;   -1,346;   -0,591
441,971; 9978,754;   -2,436;    0,591
442,560; 9821,847;    0,563;   -1,773
443,149; 9564,937;    0,379;   -1,318
443,737; 9729,179;   -0,074;   -2,318
444,326; 9984,775;    0,018;    0,318
444,915;10034,321;   -1,982;    0,864
445,503;10447,979;   -2,891;   -0,318
446,092; 9688,848;    0,382;    2,136
446,680;10263,852;    0,382;    0,318
447,269;10456,058;   -0,346;   -0,318
447,857;10236,730;    0,018;   -1,773
448,445;10358,989;    0,563;    1,318
449,034;10577,165;   -1,528;   -1,136
449,622;10685,990;   -1,073;    3,500
450,210; 9873,353;    2,017;    2,227
450,799;10401,942;    0,290;   -0,591
451,387;10379,753;    1,381;   -0,591
451,975;10023,774;    2,654;    0,864
452,563;10097,900;    3,472;    2,318
453,151;10156,811;   -0,528;   -1,227
453,739;10101,766;   -1,347;    0,136
454,328; 9922,105;    2,381;   -2,136
454,916; 9622,148;    2,562;   -0,136
455,504; 9837,904;    1,017;    1,227
456,092;10011,945;    0,017;   -1,591
456,679;10016,841;    1,472;    0,682
457,267; 9898,785;    4,017;    1,045
457,855;10100,920;    1,017;    1,409
458,443; 9894,344;   -0,165;    1,682
459,031;10010,977;    0,108;    2,409
459,619;10461,135;   -1,801;    2,864
460,206;10675,861;    0,835;    2,045
460,794;10728,254;   -2,983;   -0,227
461,382;10961,022;   -0,529;   -0,864
461,970;10517,775;    1,198;    1,864
462,557;10528,250;   -0,711;   -0,682
463,145;10740,330;   -3,165;   -1,682
463,732;10897,350;    2,016;   -1,045
464,320;10858,444;   -0,075;   -3,045
464,907;10494,445;    2,743;   -0,773
465,495;10369,626;    0,743;   -1,227
466,082;10527,366;   -1,984;   -0,045
466,670;10453,119;   -2,529;    1,227
467,257;10853,546;   -1,711;    2,045
467,844;11057,362;   -0,075;    0,045
468,432;11021,875;    0,834;    3,500
469,019;10557,110;    0,925;   -1,773
469,606;11023,613;    0,470;    3,682
470,193;10829,172;   -1,439;    0,227
470,780;10404,320;   -2,075;    0,864
471,368;10762,830;   -1,257;   -0,773
471,955;10525,955;    1,379;   -0,682
472,542;10156,424;    0,652;   -1,136
473,129;10432,687;   -0,166;    0,136
473,716;10148,974;    1,470;    0,591
474,303;10389,805;    0,652;   -0,864
474,890;10667,590;   -1,439;   -0,500
475,477;10684,640;   -1,621;    0,409
476,064;10597,005;    1,106;   -1,591
476,650;10510,295;    0,288;    0,318
477,237;10379,204;   -0,258;    0,955
477,824;10528,365;   -1,076;    0,864
478,411;10558,613;   -1,894;   -0,318
478,997;10792,304;    0,560;   -0,773
479,584;10837,916;    1,196;   -0,409
480,171;11584,294;   -0,440;   -0,773
480,757;11218,225;    2,651;    0,773
481,344;11538,547;    0,469;    0,409
481,931;11033,482;    1,105;    1,045
482,517;12007,085;   -1,258;    0,318
483,104;12607,247;    1,106;    2,864
483,690;12951,448;   -1,804;    0,045
484,276;13348,347;   -0,895;    0,227
484,863;13104,810;    2,469;    1,136
485,449;13731,461;   -0,077;    0,318
486,035;13739,155;   -1,986;   -0,136
486,622;14149,749;   -0,895;    0,045
487,208;14143,987;    1,378;    1,500
487,794;14003,594;    0,741;    0,318
488,380;14109,372;    0,105;   -1,409
488,967;14155,892;   -1,168;   -0,409
489,553;14204,368;   -1,895;   -1,409
490,139;14362,712;    1,559;    0,773
490,725;13798,108;    0,741;   -0,227
491,311;13355,134;    3,287;    3,045
491,897;12699,790;   -0,986;    1,500
492,483;12488,873;    0,105;    1,227
493,069;12162,692;    3,923;    0,864
493,655;12201,481;    1,650;    0,682
494,241;12086,599;    1,377;   -0,955
494,826;12479,362;    0,287;   -1,045
495,412;11950,031;    2,559;   -0,682
495,998;12110,535;   -0,805;   -0,318
496,584;12276,486;    0,377;    1,045
497,169;12240,614;    1,014;   -0,682
497,755;12226,809;    0,650;    1,227
498,341;12760,971;    0,559;    0,318
498,926;12345,131;    1,832;    1,955
499,512;12549,663;    1,286;    2,955
500,097;12686,993;    0,195;   -0,318
500,683;12643,281;   -0,350;    2,136
501,268;12995,690;   -0,169;   -0,955
501,854;12693,370;   -0,169;    1,227
502,439;12646,274;   -0,624;   -1,773
503,024;12845,115;    0,195;    0,500
503,610;12930,310;   -0,078;   -0,682
504,195;12952,867;    0,558;    1,955
504,780;13034,624;    2,922;    1,227
505,366;12797,768;    3,013;    2,864
505,951;12537,218;    0,740;    1,045
506,536;12617,576;   -3,260;   -3,682
507,121;12597,078;    0,285;   -0,318
507,706;13102,915;    2,376;    1,045
508,291;13510,679;    2,649;    1,136
508,876;13012,514;   -0,988;    2,591
509,461;12440,381;   -0,169;   -0,773
510,046;12888,570;    0,194;    0,318
510,631;13094,372;   -0,351;   -0,773
511,216;12755,882;    2,467;   -0,500
511,801;13109,836;   -0,442;    2,591
512,386;13445,663;    0,740;    0,500
512,971;13374,476;   -2,988;    0,955
513,555;12915,414;   -0,897;   -1,500
514,140;13696,218;   -0,442;   -3,136
514,725;13755,207;   -0,715;   -1,136
515,309;13868,260;   -0,533;    0,318
515,894;13294,494;   -0,624;   -2,227
516,479;13795,557;   -0,624;   -0,955
517,063;13636,864;    0,376;    1,227
517,648;13759,889;    1,012;   -1,136
518,232;13428,141;   -0,261;   -1,409
518,817;13773,666;   -0,079;    1,682
519,401;13954,050;    2,194;    0,591
519,985;13488,636;    1,103;    1,136
520,570;13332,328;    0,830;   -1,955
521,154;13618,293;    2,102;    0,591
521,738;13779,107;   -2,352;    2,409
522,323;14367,073;   -0,170;    1,682
522,907;14065,328;    0,466;   -0,136
523,491;13845,893;    0,557;    0,955
524,075;13850,782;    2,284;    0,591
524,659;13913,616;    1,466;    0,591
525,243;13355,764;    1,739;    0,409
525,827;13622,392;    0,648;   -0,045
526,411;14482,434;   -1,989;   -0,136
526,995;14698,556;   -0,352;    1,409
527,579;14268,699;   -0,443;   -1,045
528,163;14574,378;    0,375;   -1,500
528,747;14526,256;    2,466;   -0,773
529,331;14829,166;   -0,080;   -1,409
529,915;15018,878;    1,738;    0,955
530,499;14996,664;   -0,807;    1,227
531,082;14730,686;   -0,534;    1,591
531,666;14078,939;    1,374;    0,773
532,250;14788,054;    1,284;    2,682
532,833;15141,420;    0,920;    2,773
533,417;15038,011;   -1,807;    0,864
534,001;15023,891;    1,647;   -0,318
534,584;15753,147;    0,374;    0,500
535,168;15594,316;    0,465;    1,409
535,751;15602,523;    0,647;    0,045
536,334;15050,671;   -0,898;   -0,409
536,918;15661,139;    0,011;    1,591
537,501;15776,228;   -0,899;    1,318
538,085;15783,999;   -0,444;    1,045
538,668;15930,343;    0,829;    2,409
539,251;16226,505;    1,829;    3,773
539,834;16265,389;    0,101;    0,773
540,418;16167,417;   -1,990;    4,318
541,001;16287,424;   -0,990;    1,773
541,584;16297,962;    2,101;    2,227
542,167;15931,111;    1,374;    2,955
542,750;16147,836;    1,919;   -0,773
543,333;15721,104;    0,555;    2,136
543,916;16517,997;    0,192;    2,500
544,499;17181,119;   -1,354;    0,227
545,082;17179,742;    1,374;    3,591
545,665;17289,542;    1,919;    1,500
546,248;17654,831;    1,010;   -0,318
546,830;17297,767;   -0,445;    1,955
547,413;17719,698;    1,010;   -0,773
547,996;18268,748;    0,555;    0,500
548,579;18061,914;    0,919;    0,955
549,161;17868,446;    1,828;    2,682
549,744;17620,340;   -0,809;    0,409
550,326;18150,625;   -0,809;   -1,136
550,909;17914,227;    2,737;    0,591
551,492;18306,860;   -0,263;    0,227
552,074;18099,673;   -0,173;   -1,318
552,657;18631,556;    2,373;    0,045
553,239;18423,406;   -0,173;   -0,773
553,821;18348,462;   -1,082;    1,045
554,404;17848,700;    1,282;    1,136
554,986;18216,594;    0,464;    1,045
555,568;18854,716;    1,191;   -0,955
556,151;18009,969;    1,191;   -0,227
556,733;18272,926;   -0,264;   -0,864
557,315;18700,946;    0,100;    0,500
557,897;18529,889;    0,554;   -0,500
558,479;18643,479;   -1,991;    1,318
559,061;18810,578;   -0,719;   -0,864
559,643;19125,912;   -0,264;    0,045
560,225;19512,066;    1,645;    2,864
560,807;19532,184;    0,918;    0,318
561,389;19017,372;    0,554;    2,318
561,971;19803,158;    0,463;    2,136
562,553;19601,617;   -1,628;    1,591
563,135;19709,903;   -0,537;    1,136
563,717;19328,319;    3,372;    1,136
564,298;20043,596;    3,645;   -0,045
564,880;19749,927;    0,645;   -1,409
565,462;19949,836;    0,645;    1,318
566,043;21120,205;   -0,446;    2,318
566,625;20684,108;    1,918;    1,227
567,207;20482,949;    1,099;    1,682
567,788;21590,708;   -1,264;    1,500
568,370;22478,107;    1,917;   -0,500
568,951;22342,084;    0,190;    0,227
569,533;23210,377;   -0,628;   -0,500
570,114;23677,385;   -0,446;    0,682
570,695;24195,269;   -0,174;   -1,318
571,277;24674,708;   -0,265;   -1,682
571,858;25435,405;    2,008;   -1,136
572,439;26428,563;    1,554;   -1,045
573,021;26619,112;    2,099;   -2,773
573,602;27063,485;   -1,265;    0,318
574,183;28048,989;   -2,083;    2,227
574,764;28203,483;   -1,629;    0,409
575,345;28735,462;    0,917;   -0,136
575,926;29411,394;   -0,356;    0,136
576,507;29420,751;    1,099;   -0,227
577,088;30564,810;    3,099;    1,682
577,669;30550,534;    0,735;    1,955
578,250;31262,716;    0,644;   -1,045
578,831;31913,626;   -1,356;   -2,227
579,412;32230,423;   -0,810;    0,955
579,993;33183,319;    1,008;    0,227
580,573;33555,903;   -0,629;   -0,955
581,154;32541,572;    0,735;   -0,591
581,735;33380,495;    0,644;    0,773
582,315;32844,586;   -0,629;    2,136
582,896;33161,847;   -0,174;    1,227
583,477;32664,362;    0,189;    1,227
584,057;32829,741;    0,553;    0,955
584,638;33113,955;    2,553;    2,318
585,218;33039,819;   -0,538;    2,682
585,799;33234,165;    0,281;   -0,227
586,379;33227,537;    0,372;    1,591
586,959;32056,508;    0,735;    0,318
587,540;31386,783;   -0,629;    2,227
588,120;30920,356;    1,007;   -0,045
588,700;29813,334;    2,553;    2,136
589,281;30068,293;    0,462;   -0,955
589,861;30015,818;    0,099;   -1,682
590,441;29889,942;    2,371;   -2,682
591,021;28831,494;   -0,265;   -2,591
591,601;29060,434;   -0,537;    0,500
592,181;29071,623;   -0,719;   -0,773
592,761;28326,924;    0,007;    1,409
593,341;28196,470;   -0,901;    0,045
593,921;28222,413;   -0,265;    1,591
594,501;28140,995;   -0,538;    1,318
595,081;28007,342;    0,917;   -0,318
595,661;28335,925;   -1,447;    0,955
596,240;28874,285;   -0,537;    0,136
596,820;28465,560;    0,372;    1,955
597,400;28659,757;    2,008;    0,773
597,980;28923,357;    2,008;    1,045
598,559;28888,738;    2,735;   -0,227
599,139;28588,139;   -0,174;   -1,227
599,718;28506,230;   -0,174;   -0,409
600,298;28736,043;    0,735;    0,682
600,877;28970,922;    2,917;    1,409
601,457;29275,925;    2,281;    1,136
602,036;29156,519;    0,190;    2,045
602,616;29393,351;    0,644;    1,682
603,195;29724,918;   -0,355;    3,500
603,774;29259,651;   -0,901;    2,045
604,354;29123,904;    0,826;   -0,500
604,933;28647,688;    0,463;    1,864
605,512;28747,073;    3,554;    0,591
606,091;28803,933;   -0,537;    3,773
606,671;29654,262;    0,281;    0,773
607,250;28662,002;    1,644;    3,136
607,829;28963,493;    2,372;    3,227
608,408;28839,888;    1,190;    2,591
608,987;27841,146;    1,281;    3,409
609,566;28136,749;   -1,265;   -2,500
610,145;28210,593;   -1,082;    0,682
610,723;28647,469;    4,372;    6,864
611,302;27908,816;   -0,446;    1,682
611,881;27387,049;    5,008;   11,227
612,460;28234,490;    1,645;    3,955
613,039;28693,032;   -0,082;    2,045
613,617;27406,733;    1,736;    4,773
614,196;27596,704;    1,099;    1,227
614,775;27940,169;    1,009;    2,409
615,353;27831,521;    0,736;    0,864
615,932;27567,326;    0,100;    2,409
616,510;28174,526;    0,554;    0,591
617,089;27651,858;    7,100;   17,591
617,667;27377,514;    2,372;    6,136
618,246;27344,198;   -1,537;    1,318
618,824;27459,009;   -3,355;   -0,955
619,402;27027,833;   -2,900;   -1,773
619,981;27569,115;   -0,173;   -1,045
620,559;27403,207;    0,009;    1,682
621,137;26883,758;   -0,718;    1,864
621,715;26918,089;   -1,173;   -0,682
622,293;26807,629;   -0,537;   -0,773
622,871;27298,037;   -0,718;    0,500
623,450;26872,528;    0,373;   -0,864
624,028;26737,506;    0,191;   -0,955
624,606;26340,923;   -1,718;    1,682
625,183;26752,439;   -1,536;   -1,136
625,761;26399,796;    1,009;    1,136
626,339;26661,468;    1,373;    2,591
626,917;27083,209;   -0,172;   -0,045
627,495;27105,442;   -0,354;    1,318
628,073;26526,016;   -0,263;    2,864
628,650;26220,953;    0,100;    2,136
629,228;26627,353;    0,373;    4,409
629,806;26052,784;    2,282;    1,136
630,383;26313,735;    1,464;   -0,318
630,961;26127,362;    2,555;   -0,955
631,539;25904,326;    2,464;    0,227
632,116;25175,635;   11,373;   15,409
632,694;25744,657;    2,555;    6,500
633,271;26051,396;    0,828;    2,682
633,848;25967,848;    1,828;    2,045
634,426;26019,755;   -1,081;    1,773
635,003;25143,222;    1,101;   -0,409
635,580;25468,469;    1,192;    3,682
636,158;26054,159;    3,737;    1,227
636,735;25954,246;    0,555;   -0,500
637,312;26115,120;   -0,809;   -0,682
637,889;26220,418;   -4,354;   -0,682
638,466;25725,249;   -3,990;   -0,409
639,043;25719,553;    2,101;   -1,136
639,620;26061,241;   -2,262;   -0,955
640,197;26381,367;    1,100;    1,682
640,774;26521,883;   -0,172;    1,136
641,351;26904,034;    0,737;    1,136
641,928;26316,550;   -0,627;    1,409
642,505;25962,338;    0,828;   -0,500
643,082;26070,399;   -1,718;    1,227
643,658;25111,824;   -0,718;    1,500
644,235;25867,612;    1,191;    2,500
644,812;26152,401;    1,918;    0,773
645,388;25886,189;   -0,991;    1,409
645,965;26033,250;   -0,809;    1,682
646,542;26064,038;   -1,445;   -0,227
647,118;26032,190;    1,009;   -0,955
647,695;26304,342;   -0,263;    1,136
648,271;26255,494;   -0,536;    0,500
648,848;26579,010;    0,736;    2,227
649,424;26375,434;    0,827;    1,318
650,000;26167,768;   -0,354;   -1,045
650,577;25976,102;   -0,627;   -0,955
651,153;26409,345;   -1,809;    0,955
651,729;27453,860;    1,191;    0,864
652,305;27648,285;    0,645;    2,773
652,881;32089,255;   -0,082;    1,136
653,458;39094,771;    1,100;    0,227
654,034;43183,741;    0,282;    1,591
654,610;44821,620;    0,554;    0,773
655,186;46239,136;    0,645;    3,045
655,762;46046,378;   -0,991;    0,409
656,338;46070,530;    0,100;    0,136
656,913;47059,228;   -0,082;    0,409
657,489;46314,107;    0,827;   -0,318
658,065;46359,441;   -0,173;   -1,591
658,641;46988,865;   -0,900;   -0,864
659,217;46252,927;   -0,991;    0,409
659,792;45627,533;    0,645;   -0,409
660,368;45865,867;   -2,173;   -0,682
660,944;45532,746;   -2,082;    1,227
661,519;40995,262;   -0,628;    0,409
662,095;34834,504;   -1,719;    0,591
662,670;29902,293;    1,281;   -0,136
663,246;28541,808;    1,009;   -0,409
663,821;27758,324;    0,281;    1,682
664,396;27258,021;    0,009;    1,864
664,972;27519,719;    0,009;   -0,500
665,547;27819,598;    1,372;    0,136
666,122;27879,841;   -1,082;    0,318
666,698;28164,538;   -0,173;    0,318
667,273;27508,781;   -0,173;    0,136
667,848;28328,387;    2,372;    1,500
668,423;28107,085;    2,190;    2,318
668,998;28706,237;    2,827;   -0,682
669,573;29211,480;   -3,264;   -1,500
670,148;28990,813;   -1,446;   -0,682
670,723;28832,056;   -1,810;    0,318
671,298;29235,754;    2,372;    1,045
671,873;29371,724;   -0,082;   -0,136
672,448;29358,421;    0,645;    0,136
673,023;29694,664;   -1,992;   -0,227
673,597;29964,725;    0,827;    2,318
674,172;29797,150;   -0,355;    0,318
674,747;29308,938;    0,372;   -1,045
675,321;29134,363;   -0,628;    3,318
675,896;28684,787;    0,645;    1,045
676,471;29733,303;    2,645;    1,591
677,045;29522,182;   -1,264;    0,682
677,620;29579,880;    0,190;    1,136
678,194;29869,032;   -2,628;    1,136
678,769;29399,729;   -1,083;   -0,318
679,343;29671,335;   -0,628;    1,773
679,917;29512,669;   -1,446;    1,955
680,492;29602,548;    0,826;    3,227
681,066;29723,791;    3,372;    0,409
681,640;29811,307;    1,463;   -0,318
682,214;30608,459;    0,735;    0,500
682,788;30148,793;   -1,356;   -0,773
683,363;30122,672;   -1,810;    1,682
683,937;29803,824;   -1,719;   -0,318
684,511;30626,067;    0,463;   -0,591
685,085;30325,855;   -1,356;    0,318
685,659;30024,734;   -2,538;    0,864
686,232;30247,886;   -0,356;   -0,318
686,806;29940,947;   -0,901;    0,409
687,380;30661,917;   -0,174;    0,591
687,954;30915,887;   -1,174;    1,136
688,528;30608,130;   -0,719;    1,955
689,101;31362,373;   -3,992;    1,045
689,675;30914,707;   -0,356;   -0,136
690,249;30317,768;   -0,719;    0,409
690,822;30613,920;    0,280;    0,318
691,396;30710,163;   -0,265;    1,227
691,969;30147,405;    1,280;    0,136
692,543;30621,012;   -0,447;   -1,955
693,116;30295,073;   -0,265;   -1,409
693,690;30144,589;    0,099;    0,500
694,263;30666,831;   -1,083;    2,955
694,836;30683,711;    1,371;    3,591
695,410;29371,953;   -0,265;    1,773
695,983;29834,651;    0,189;    0,591
696,556;29820,166;   -0,447;   -1,045
697,129;30228,864;   -0,356;    1,409
697,703;29780,743;   -1,629;    1,955
698,276;29805,986;    1,462;   -0,773
698,849;29589,592;    1,280;    1,409
699,422;29976,199;   -1,083;    0,591
699,995;29702,260;    0,007;    0,136
700,568;30170,321;   -0,629;    3,045
701,140;30228,655;   -2,811;    1,682
701,713;29931,443;   -0,174;    2,409
702,286;29660,504;   -0,538;    0,864
702,859;29606,656;   -0,902;   -0,591
703,432;28731,808;    0,825;    0,682
704,004;29219,323;    0,462;    0,318
704,577;29077,112;   -0,629;    0,136
705,150;29679,264;    0,189;    2,500
705,722;29455,779;   -0,356;   -3,227
706,295;29234,295;   -0,175;   -0,591
706,867;29061,538;   -0,175;    1,955
707,440;29297,144;   -1,720;   -0,409
708,012;29585,569;    0,462;    0,591
708,584;29508,175;    2,462;    0,227
709,157;29758,055;    1,825;   -0,591
709,729;29451,934;    2,280;    2,045
710,301;30301,177;    0,734;    0,045
710,874;30301,510;   -1,447;   -0,227
711,446;29170,481;    0,371;    0,864
712,018;29027,360;    0,098;    0,500
712,590;28795,603;   -1,993;    1,682
713,162;29321,482;    0,825;    1,318
713,734;29547,634;    1,825;   -2,045
714,306;29483,422;   -1,902;   -0,409
714,878;28188,119;    0,825;    0,864
715,450;28991,726;    0,643;    0,864
716,022;29264,332;    1,552;    1,318
716,593;29412,848;    0,189;    0,591
717,165;29336,727;   -3,175;   -1,227
717,737;28972,061;    0,280;    0,409
718,309;28689,577;    0,280;   -0,045
718,880;28701,638;   -0,539;   -1,409
719,452;28865,790;   -0,175;   -1,591
720,024;28416,123;    0,734;   -0,591
720,595;29049,548;   -2,902;    0,955
721,167;28571,427;    0,370;   -2,045
721,738;28035,761;   -0,812;   -1,045
722,309;28029,913;   -0,993;   -1,227
722,881;27824,065;   -1,357;    0,773
723,452;28425,853;   -2,630;    2,864
724,023;28608,369;   -0,721;    2,682
724,595;28375,430;    0,007;    0,682
725,166;28154,309;    0,007;   -0,409
725,737;27766,279;    1,734;    0,227
726,308;27855,431;   -0,266;    0,318
726,879;28293,310;   -1,630;    1,227
727,450;28184,917;    0,552;   -0,045
728,021;28171,432;    3,097;    0,682
728,592;27957,312;    0,734;    0,500
729,163;28244,009;    0,643;   -0,136
729,734;28220,797;    0,188;   -0,227
730,305;28614,131;    1,734;    0,136
730,876;28929,101;    0,188;    2,955
731,447;28664,253;    2,188;    2,682
732,017;28783,405;    1,097;    1,864
732,588;28291,557;    0,734;    1,227
733,159;28466,073;    0,643;   -1,045
733,729;28362,770;    0,006;    0,409
734,300;27568,922;    0,915;    0,864
734,870;27996,619;    3,461;    0,591
735,441;28611,135;    0,370;   -0,591
736,011;28348,014;    0,643;   -1,591
736,582;28249,257;   -0,812;    0,045
737,152;27729,682;   -1,721;   -2,045
737,722;28213,743;   -0,267;   -0,682
738,293;27946,622;   -1,358;    1,318
738,863;27772,410;    2,461;    2,318
739,433;27567,926;    5,279;    0,318
740,003;28231,896;   -0,994;   -0,682
740,573;27627,139;    2,097;   -1,591
741,143;27569,291;   -1,085;    0,318
741,713;28374,443;    1,188;   -0,500
742,283;28037,049;    0,915;    1,591
742,853;27801,928;    1,915;    1,591
743,423;27286,171;    1,733;    0,045
743,993;27433,778;   -0,358;    1,500
744,563;26737,293;    0,097;   -0,864
745,133;26702,081;   -0,812;   -0,864
745,702;27409,688;   -0,267;    1,773
746,272;26632,931;   -0,176;    0,591
746,842;26395,355;   -1,358;   -0,591
747,411;26854,144;   -0,267;   -0,318
747,981;27031,205;    0,097;    0,500
748,551;27033,902;    2,278;   -1,045
749,120;26876,691;    0,642;   -0,227
749,690;27260,570;   -0,631;    2,409
750,259;27599,540;    1,369;    2,955
750,828;27584,692;    1,551;   -1,955
751,398;27868,026;    1,278;   -0,045
751,967;27284,541;    2,187;    0,409
752,536;27516,693;   -0,813;   -0,227
753,105;27947,118;    0,096;    0,227
753,675;27790,815;    0,096;    1,773
754,244;27730,058;   -0,904;    3,591
754,813;27731,210;    0,551;    1,227
755,382;27333,544;    0,460;    0,955
755,951;27888,605;    1,551;    3,682
756,520;27388,484;   -0,085;    1,864
757,089;27935,000;    0,278;    0,500
757,658;28139,242;    1,733;    1,227
758,227;28114,667;    1,096;    0,318
758,795;28408,274;    1,187;    1,136
759,364;28685,607;   -0,086;   -0,591
759,933;27690,577;   -1,176;   -0,045
760,501;27229,184;    0,733;   -1,318
761,070;27685,245;   -2,813;   -1,409
761,639;28422,033;   -1,904;    1,318
762,207;27696,458;    1,551;   -0,955
762,776;27657,610;    0,369;    0,864
763,344;27618,489;   -0,995;    0,591
763,913;26759,277;   -0,722;    1,409
764,481;27481,066;    1,005;   -0,136
765,049;27287,763;   -1,358;    1,409
765,618;27210,642;   -0,086;    0,318
766,186;27264,249;    0,278;    0,136
766,754;27466,128;    0,005;    1,864
767,322;26456,462;   -1,995;    0,409
767,890;26498,705;   -0,722;   -1,773
768,459;26852,311;   -2,177;   -0,318
769,027;27008,463;    1,641;    3,409
769,595;25958,615;    3,278;    2,591
770,163;26415,767;    3,823;    2,955
770,730;26170,192;    0,732;   -0,136
771,298;26002,525;    0,187;   -1,409
771,866;26110,041;   -1,541;    4,955
772,434;26453,102;   -0,631;   -1,864
773,002;26610,618;    0,005;    0,682
773,569;26224,770;    0,914;    1,682
774,137;26042,012;   -0,268;   -0,045
774,705;26815,892;    0,278;   -0,136
775,272;26322,680;    0,641;    0,682
775,840;26079,559;   -0,177;    2,682
776,407;25666,893;    0,277;    1,955
776,975;25258,772;   -0,632;    0,318
777,542;26289,560;   -1,086;   -0,045
778,110;26099,167;   -1,268;   -0,045
778,677;25764,592;   -2,359;   -0,864
779,244;25488,653;    2,186;    1,045
779,812;25601,259;    1,823;    0,864
780,379;25450,138;    0,005;    1,136
780,946;25755,108;    1,005;   -0,773
781,513;26054,442;   -1,450;    0,318
782,080;25376,776;   -0,086;    2,864
782,647;26151,473;   -0,268;    3,045
783,214;25728,443;   -0,177;    3,864
783,781;25313,323;   -0,723;   -0,682
784,348;25182,020;   -0,632;    1,500
784,915;25657,445;   -3,177;    0,318
785,482;25450,778;    1,368;    2,591
786,049;25898,476;    0,186;   -0,591
786,615;26031,264;    0,277;   -0,955
787,182;25760,962;    0,186;   -0,682
787,749;25499,659;   -2,814;    1,409
788,315;24807,175;   -1,632;   -0,409
788,882;25129,963;    1,550;   -1,227
789,448;25749,024;    1,732;   -0,955
790,015;25737,358;    1,095;    3,227
790,581;25277,964;    1,459;    0,227
791,148;25303,571;    0,641;    1,045
791,714;25479,268;   -0,541;    3,136
792,280;25136,965;    0,186;    1,591
792,847;24676,208;    0,550;    2,500
793,413;25280,269;   -0,269;   -0,318
793,979;24773,876;    3,459;   -1,318
794,545;24843,846;    4,459;    2,682
795,111;24221,907;    2,186;    1,318
795,678;24411,059;    0,731;   -1,682
796,244;24095,484;    3,368;    0,136
796,810;24665,636;    1,731;    0,773
797,375;24347,969;    0,549;   -2,136
797,941;24355,848;   -0,541;    0,591
798,507;24560,637;   -0,451;   -0,955
799,073;24125,061;   -0,360;    0,591
799,639;24126,668;   -2,632;    3,136
800,205;24160,911;    0,095;    2,682
800,770;23705,426;    0,640;    1,773
801,336;23850,124;    1,368;   -0,955
801,901;23444,548;    4,549;    3,136
802,467;24052,791;   -0,542;    2,045
803,033;23415,852;   -0,087;    0,864
803,598;23576,095;    1,913;   -1,045
804,163;23602,793;    1,095;   -0,318
804,729;23545,217;   -0,178;    1,136
805,294;23979,187;    0,822;    2,227
805,859;23795,976;    0,731;   -0,409
806,425;23169,037;    1,186;    2,682
806,990;22866,280;    2,186;    4,318
807,555;23451,704;   -1,451;    2,591
808,120;23292,947;    0,822;   -0,409
808,685;23335,190;    0,185;   -2,500
809,250;22795,069;    0,004;   -0,500
809,815;23171,857;    1,913;    0,682
810,380;23704,009;   -0,269;    1,591
810,945;24238,161;   -1,087;    2,045
811,510;23407,131;    2,094;    1,591
812,075;23090,920;   -0,633;   -1,409
812,640;23111,526;    2,003;    1,409
813,204;23207,951;    0,822;   -0,227
813,769;23662,376;    2,094;   -0,045
814,334;23056,982;    0,458;    0,864
814,898;23130,225;    0,367;    0,591
815,463;22991,831;    1,276;   -0,773
816,027;22931,892;   -0,724;   -2,318
816,592;23075,135;    0,640;   -2,045
817,156;22532,469;    2,094;    1,136
817,721;22373,803;    4,276;    2,318
818,285;22360,318;    2,912;    1,500
818,849;23006,834;   -1,451;    1,682
819,414;22943,531;   -0,269;    2,955
819,978;22547,592;   -1,269;    1,773
820,542;23130,108;    2,003;    0,500
821,106;22804,805;   -0,815;    0,682
821,670;22894,685;   -0,815;    2,591
822,234;22650,927;   -0,270;    1,409
822,798;21965,625;    0,003;    0,500
823,362;21903,413;   -0,633;    4,227
823,926;21203,474;    0,094;    1,136
824,490;21456,353;   -0,997;   -0,682
825,054;21897,051;   -0,088;   -1,136
825,618;21513,475;   -1,542;   -1,500
826,181;21430,900;    0,458;   -1,318
826,745;21314,598;    1,367;   -1,045
827,309;21613,931;    1,185;    1,318
827,872;21053,356;    1,367;    0,955
828,436;22073,144;    1,185;   -0,773
828,999;22137,114;   -0,997;    1,227
829,563;20938,630;   -0,179;    1,136
830,126;20738,418;   -0,179;   -0,591
830,690;20808,752;   -1,997;    2,864
831,253;20284,995;   -0,543;    2,227
831,816;20401,056;   -1,906;    0,500
832,380;20342,935;    0,185;    0,864
832,943;20575,723;   -1,361;   -0,500
833,506;20054,784;    2,639;   -1,227
834,069;20869,300;    3,912;   -0,955
834,632;20914,088;    1,730;    1,318
835,195;20811,422;    1,003;    0,955
835,758;19997,029;   -0,997;    1,955
836,321;19865,544;    0,730;   -1,045
836,884;19919,060;   -0,725;   -0,955
837,447;19944,030;   -2,816;    1,773
838,010;20196,000;    0,366;    3,227
838,573;20520,425;   -1,179;    0,773
839,135;20515,849;   -1,361;   -0,955
839,698;19932,729;    1,275;    0,409
840,261;19454,335;    1,003;   -0,227
840,823;19304,487;   -0,543;    0,864
841,386;19611,912;   -0,452;   -2,409
841,948;19461,155;   -1,361;    1,773
842,511;19228,125;    0,912;    1,682
843,073;19329,640;    1,912;    0,227
843,636;19128,883;   -0,361;   -0,227
844,198;19060,399;    0,911;    0,591
844,760;19143,914;    1,093;    1,955
845,322;18853,066;    0,548;    1,136
845,885;19258,309;    0,730;    0,591
846,447;19682,734;   -1,998;    0,227
847,009;19235,704;    1,911;   -0,682
847,571;19636,856;    0,820;   -2,045
848,133;19731,826;   -1,089;   -1,864
848,695;19529,705;   -0,543;    1,409
849,257;19068,403;   -1,089;   -1,682
849,819;19219,554;   -0,998;   -0,409
850,381;19294,706;   -0,725;   -0,864
850,942;19698,313;    1,093;   -0,591
851,504;19612,010;    1,184;    0,227
852,066;19649,980;    1,275;   -1,591
852,628;19180,678;   -0,180;    1,955
853,189;18733,648;    1,638;    2,682
853,751;18878,800;   -0,907;    1,409
854,312;18694,225;   -0,453;   -1,682
854,874;19207,467;   -2,089;   -0,773
855,435;19694,710;   -0,907;   -1,682
855,997;19866,135;   -1,816;   -0,136
856,558;19150,923;    0,366;    1,773
857,119;19230,530;    0,820;    2,864
857,681;18904,591;    0,002;    0,318
858,242;18919,288;    1,911;   -2,136
858,803;19396,713;    0,456;   -0,773
859,364;19982,501;    0,184;   -4,773
859,925;19302,744;   -2,453;   -0,955
860,486;19184,169;   -0,453;   -0,955
861,047;18924,230;   -0,544;   -1,227
861,608;18749,473;   -1,089;   -0,773
862,169;18878,715;    0,638;   -0,045
862,730;18640,867;    0,456;    1,409
863,291;18867,292;   -0,635;   -0,500
863,852;19239,717;   -0,635;    1,955
864,412;18729,414;   -0,271;   -0,864
864,973;17264,839;   -0,089;    0,500
865,534;17140,354;   -1,726;    0,227
866,094;18606,143;    1,820;    0,227
866,655;18277,567;    1,274;    3,318
867,215;18585,174;    0,274;    0,136
867,776;18424,144;    0,547;   -0,136
868,336;18529,932;   -1,453;    0,136
868,897;17973,630;    2,638;    1,682
869,457;17717,054;    1,365;    0,318
870,017;17939,933;    0,547;   -1,227
870,578;18478,722;   -0,817;    0,773
871,138;18162,237;   -2,089;   -0,955
871,698;17699,662;   -0,817;   -1,318
872,258;17590,450;   -0,453;   -2,864
872,818;17964,330;    2,729;    0,045
873,378;17923,481;    0,638;    1,045
873,938;17495,543;    0,547;    0,500
874,498;17789,149;    0,274;   -1,955
875,058;17691,937;    2,183;    1,773
875,618;17509,453;    1,910;   -2,682
876,177;17451,059;    1,274;    0,136
876,737;17046,848;   -0,090;    1,955
877,297;17089,727;    0,183;    1,955
877,856;17104,788;   -0,362;    0,318
878,416;17061,485;    1,183;   -0,136
878,976;17279,637;   -1,817;    0,409
879,535;17438,789;    0,092;    3,136
880,095;17110,578;   -0,544;    0,045
880,654;17249,457;   -1,090;    1,318
881,213;17346,609;    2,456;    1,500
881,773;16998,670;    2,637;    2,682
882,332;17339,913;    3,365;    5,136
882,891;17202,337;    3,092;    2,136
883,451;17620,035;   -1,272;    1,682
884,010;17107,187;   -2,908;   -0,409
884,569;17227,066;   -0,999;   -0,045
885,128;17363,581;    2,819;   -1,864
885,687;17425,642;    4,455;    0,682
886,246;17109,522;    1,455;    2,136
886,805;16859,037;    2,455;    2,045
887,364;17192,371;   -0,999;   -0,500
887,922;17564,705;   -1,181;    0,045
888,481;17041,675;   -1,545;    0,591
889,040;17341,009;    1,183;    2,136
889,599;18004,251;    2,455;    1,409
890,157;18089,767;    1,455;    2,409
890,716;17767,828;   -0,090;    0,227
891,274;17595,616;    0,092;   -1,136
891,833;18060,314;    1,546;    0,864
892,391;17921,102;   -0,454;    0,500
892,950;17965,799;    1,819;   -0,773
893,508;18365,224;    0,455;   -0,409
894,067;17714,012;    0,637;    0,136
894,625;17597,983;   -0,636;   -1,500
895,183;17846,953;   -0,363;   -0,682
895,741;17706,650;    1,728;   -1,773
896,299;17560,984;   -0,545;   -2,409
896,858;17757,136;    0,819;   -1,591
897,416;17892,742;    2,728;   -1,318
897,974;17632,531;    1,819;    0,318
898,532;17724,773;    6,091;    2,682
899,089;17637,562;    2,091;   -0,682
899,647;17717,805;   -1,454;    1,318
900,205;17390,502;    1,182;    1,045
900,763;17616,654;   -0,454;    0,227
901,321;17680,806;    2,364;   -1,409
901,878;17061,503;   -1,000;   -0,773
902,436;16936,473;   -1,363;    1,318
902,994;17310,353;    4,728;    3,682
903,551;16744,959;    0,728;    0,409
904,109;17133,475;    0,182;   -1,409
904,666;16728,172;    2,455;    1,045
905,224;16532,869;    0,182;   -0,409
905,781;16274,021;    0,727;   -0,318
906,338;16334,446;   -1,363;    1,045
906,895;16275,780;    0,637;    2,045
907,453;16201,023;    1,727;    1,136
908,010;16225,084;   -0,909;    0,409
908,567;15889,417;    1,273;    0,591
909,124;15416,569;    0,364;   -1,500
909,681;15464,449;   -2,909;    0,682
910,238;15586,691;    0,636;   -1,318
910,795;15911,116;   -0,273;   -1,136
911,352;15539,389;   -2,909;   -2,682
911,909;14930,753;   -1,364;   -0,864
912,466;15453,389;   -3,182;    1,500
913,022;15029,934;   -1,636;    0,500
913,579;15354,934;   -0,909;    2,045
914,136;15063,298;    1,636;    0,955
914,692;15386,662;    0,091;   -1,227
915,249;14975,207;    1,455;    0,409
915,806;15183,662;    0,182;    1,955
916,362;14947,753;    1,909;    1,864
916,918;14496,025;    2,000;    1,045
917,475;14438,480;   -1,182;    0,955
918,031;14532,571;    3,364;   -0,045
918,587;13986,025;   -0,909;   -0,318
919,144;14205,298;   -2,273;    0,227
919,700;14554,571;    1,727;    0,773
920,256;14132,389;    0,727;    0,045
920,812;13774,298;   -0,727;   -1,045
921,368;13715,389;   -1,727;   -1,045
921,924;13345,662;    0,182;   -0,136
922,480;12927,116;   -0,545;    1,227
923,036;13567,480;    1,273;    1,955
923,592;13481,025;    0,455;    0,318
924,148;13405,843;    0,455;   -0,955
924,704;12677,571;   -1,364;   -0,409
925,259;12954,843;   -0,273;    0,591
925,815;12713,480;    1,455;    0,500
926,371;12238,662;    2,909;    1,409
926,926;12093,662;    2,091;    0,591
927,482;11738,025;   -1,364;    0,773
928,037;11609,298;    0,909;    2,045
928,593;11887,753;    1,636;    1,045
929,148;11691,934;   -1,818;   -1,500
929,704;11175,480;   -1,455;   -0,500
930,259;11414,480;    0,091;   -0,136
930,814;10444,934;   -0,818;    1,955
931,369;10129,843;    1,091;   -0,773
931,925;10003,298;   -0,091;    0,136
932,480; 9909,662;   -2,818;   -2,591
933,035; 9774,753;    0,545;   -0,318
933,590; 9528,571;    0,364;   -1,773
934,145; 9186,389;   -1,364;   -0,318
934,700; 9568,389;    0,455;   -0,591
935,255; 9347,389;   -0,091;    0,045
935,809; 8566,662;    3,182;    0,864
936,364; 7704,480;   -0,455;   -0,136
936,919; 7652,571;    0,455;   -1,773
937,474; 7542,843;    1,455;    0,136
938,028; 7305,843;   -1,636;    1,136
938,583; 6733,025;    1,818;    4,682
939,138; 7058,843;    2,091;    2,136
939,692; 6475,298;    1,636;   -1,136
940,247; 6196,389;   -0,727;   -1,045
940,801; 5700,389;   -0,636;    0,227
941,355; 5610,571;   -0,364;    2,591
941,910; 5242,571;   -0,273;   -2,136
942,464; 5352,207;   -0,818;   -0,318
943,018; 5096,934;    1,000;   -0,227
943,572; 5069,662;    2,545;   -0,682
944,126; 4442,662;    0,091;   -0,409
944,681; 4340,843;    3,091;    0,227
945,235; 4338,843;    1,000;   -0,591
945,789; 4275,207;    0,364;   -1,864
946,342; 4355,934;    0,455;   -0,591
946,896; 4181,934;   -2,273;    0,955
947,450; 3948,934;    1,545;   -0,227
948,004; 4115,207;    1,727;   -0,045
948,558; 4114,207;    0,273;   -0,864
949,111; 4041,753;   -0,273;   -0,318
949,665; 4049,571;    1,636;   -0,682
950,219; 3928,389;   -0,091;   -1,045
950,772; 4035,571;   -1,909;    1,864
951,326; 3930,571;    0,545;   -0,955
951,879; 4028,025;    0,727;   -2,318
952,433; 4036,025;    0,000;    2,227
952,986; 3871,025;    2,909;    0,682
953,539; 3838,753;   -0,273;    0,591
954,093; 3793,116;    0,545;   -1,318
954,646; 3895,753;    0,909;    1,318
955,199; 3696,025;    0,000;   -0,500
955,752; 3577,480;   -0,455;    1,773
956,305; 3543,753;   -0,091;    2,955
956,858; 3726,025;    0,818;   -0,318
957,411; 3913,025;   -0,545;    2,136
957,964; 3716,662;    1,364;    2,136
958,517; 3732,843;   -1,545;    3,136
959,070; 3527,571;   -0,455;    1,955
959,623; 3606,116;    1,091;    1,500
960,176; 3381,843;    1,727;    2,045
960,728; 3363,298;   -2,727;    0,773
961,281; 3416,389;    0,545;    0,500
961,834; 3461,116;   -0,909;    0,864
962,386; 3377,207;    1,727;    1,045
962,939; 3298,025;    0,364;   -0,318
963,491; 3459,662;    0,455;    1,136
964,043; 3327,843;    1,182;    2,409
964,596; 3437,843;   -1,000;    2,227
965,148; 3284,389;   -1,000;    1,773
965,700; 3201,025;    1,091;   -0,227
966,253; 3352,662;   -0,636;    0,318
966,805; 3186,571;   -2,273;    0,773
967,357; 3256,207;    1,091;   -1,500
967,909; 3197,753;    0,455;   -1,227
968,461; 3312,389;    0,545;    3,136
969,013; 3245,025;   -0,182;   -0,864
969,565; 3312,389;   -0,455;   -1,136
970,117; 3345,934;   -0,364;    1,045
970,669; 3202,298;    0,182;   -0,136
971,220; 3091,934;   -0,455;   -1,500
971,772; 2998,025;   -0,636;   -0,318
972,324; 3110,207;    0,091;   -0,500
972,876; 3074,116;    0,818;   -0,045
973,427; 3207,753;    1,909;   -1,045
973,979; 3177,753;   -0,727;   -2,500
974,530; 3224,389;    1,818;    1,318
975,082; 3231,298;   -0,545;    1,682
975,633; 3110,934;    1,091;    1,682
976,184; 3247,753;    0,909;    0,773
976,736; 3054,662;    0,091;    0,227
977,287; 2854,843;   -0,909;   -0,500
977,838; 3022,389;    0,909;   -0,318
978,389; 3071,116;   -1,000;   -0,500
978,940; 2967,843;    0,545;   -0,409
979,491; 2988,480;    0,091;   -0,500
980,042; 2967,934;    0,182;    3,045
980,593; 3012,571;   -2,545;    0,227
981,144; 3044,025;    2,545;   -0,500
981,695; 3013,753;    1,455;    1,500
982,246; 2972,480;   -0,273;    1,045
982,797; 3125,571;   -1,727;    0,682
983,347; 3234,116;    0,364;    0,591
983,898; 3393,571;    3,091;    0,409
984,449; 3229,480;    2,182;    0,773
984,999; 3151,298;    1,455;   -1,136
985,550; 2929,753;    0,182;   -0,318
986,100; 2965,571;   -0,455;   -0,318
986,651; 2998,753;   -0,818;    0,045
987,201; 2977,843;   -1,000;   -0,591
987,751; 3054,480;    0,818;    2,864
988,302; 3039,934;    2,636;    1,500
988,852; 3073,843;    0,455;   -1,136
989,402; 3120,298;    0,091;    0,682
989,952; 3013,025;   -2,182;    0,864
990,502; 3137,207;   -0,091;    0,682
991,052; 3108,389;   -0,727;    0,045
991,602; 2969,116;   -2,909;    1,318
992,152; 2970,753;    0,455;    0,682
992,702; 2942,025;    1,364;   -0,045
993,252; 2860,571;   -3,000;   -0,500
993,802; 2933,843;   -0,273;    1,318
994,352; 3183,298;   -1,545;    1,136
994,901; 3282,480;   -0,182;    3,227
995,451; 3176,207;   -0,182;    0,318
996,000; 3271,571;    1,636;    0,318
996,550; 3000,571;    2,273;    0,227
997,100; 3008,571;    1,273;   -0,045
997,649; 3270,116;    2,182;    0,955
998,198; 2912,753;    1,727;   -1,500
998,748; 3094,025;    1,091;   -2,318
999,297; 3033,843;   -0,818;   -0,409
999,846; 3083,298;    1,000;   -0,773
1000,395; 3115,662;   -0,818;    0,500
1000,945; 3054,389;    1,818;   -0,773
1001,494; 3161,753;    2,364;    0,682
1002,043; 3161,025;    4,636;    0,864
1002,592; 3003,207;   -1,091;    1,955
1003,141; 3150,934;   -0,455;   -0,682
1003,690; 2990,025;    1,727;    0,500
1004,238; 3095,207;    1,455;   -0,045
1004,787; 2726,389;    1,364;    1,227
1005,336; 2952,480;    0,364;    0,682
1005,885; 3114,571;    1,364;   -2,773
1006,433; 3253,753;    0,545;    0,955
1006,982; 3288,116;    0,455;    1,682
1007,531; 3196,934;   -1,818;   -0,227
1008,079; 3181,207;   -2,273;    0,500
1008,627; 3323,298;   -1,455;    0,409
1009,176; 3040,025;    0,000;   -1,955
1009,724; 3096,662;    1,091;    0,864
1010,273; 3146,571;    1,273;    0,500
1010,821; 3267,571;    0,091;    1,409
1011,369; 3004,662;   -1,364;    1,318
1011,917; 2984,934;   -1,364;   -0,591
1012,465; 3272,843;    1,273;   -1,591
1013,013; 3379,116;    2,091;   -1,682
1013,561; 3259,025;    0,455;   -0,773
1014,109; 3285,389;   -1,909;    1,682
1014,657; 3178,389;    0,364;    0,591
1015,205; 3305,480;    1,636;   -0,955
1015,753; 3335,753;   -0,545;   -1,409
1016,301; 3388,571;   -2,636;    3,045
1016,848; 3374,843;   -1,273;    0,409
1017,396; 3429,753;    2,545;    0,045
1017,944; 3541,753;    1,182;    1,864
1018,491; 3317,843;    0,273;    1,409
1019,039; 3448,116;    0,455;    0,591
1019,586; 3378,753;   -1,364;    1,682
1020,134; 3486,116;    0,455;    1,500
1020,681; 3501,934;    0,182;   -1,136
1021,228; 3530,662;    2,909;   -2,227
1021,776; 3338,298;    1,182;   -1,136
1022,323; 3560,662;    0,455;    0,773
1022,870; 3495,389;   -1,000;   -0,045
1023,417; 3368,843;    2,636;    1,864
1023,964; 3523,389;    2,636;    1,227
1024,511; 3376,934;    1,000;    0,773
1025,058; 3163,480;    3,182;   -0,045
1025,605; 3235,934;   -2,273;    3,136
1026,152; 3441,298;    1,727;   -0,591
1026,699; 3181,662;    1,818;    1,318
1027,245; 3350,480;   -0,091;    0,318
1027,792; 3572,571;   -1,000;    1,409
1028,339; 3435,298;    2,364;   -0,045
1028,885; 3280,298;    1,000;   -0,227
1029,432; 3224,207;   -0,091;    0,227
1029,978; 3275,753;   -1,000;   -1,591
1030,525; 3191,571;    1,000;    0,409
1031,071; 3455,662;   -1,364;    1,136
1031,618; 3533,116;    0,364;    1,682
1032,164; 3322,662;   -0,091;    3,045
1032,710; 3386,298;    1,636;   -1,500
1033,256; 3304,207;   -0,636;   -0,136
1033,803; 3291,843;   -0,545;    1,500
1034,349; 3004,116;   -1,364;    0,136
1034,895; 3176,571;    0,000;   -0,318
1035,441; 3146,025;   -0,818;    0,318
1035,987; 3135,389;   -2,364;   -0,682
1036,533; 3129,480;   -1,455;   -0,955
1037,078; 3328,025;    1,455;    1,682
1037,624; 3172,025;    2,455;   -0,955
1038,170; 3206,116;    0,455;   -0,318
1038,716; 3095,843;    1,636;   -0,409
1039,261; 3010,934;   -2,273;   -0,773
1039,807; 2962,207;   -0,091;    3,409
1040,352; 3013,662;   -1,909;   -0,318
1040,898; 3051,753;   -1,545;   -0,682
1041,443; 2973,934;   -1,455;   -2,591
1041,989; 2946,571;    1,091;    1,591
1042,534; 2866,207;   -0,364;    2,591
1043,079; 3002,753;    2,909;    0,955
1043,625; 2772,753;    1,818;    0,500
1044,170; 2811,571;   -1,364;    1,045
1044,715; 3051,934;    2,455;    0,955
1045,260; 2883,025;    2,182;   -0,955
1045,805; 2944,298;    1,182;   -0,591
1046,350; 2871,207;    1,364;   -0,409
1046,895; 2808,116;    2,909;    1,591
1047,440; 2755,116;    5,364;    0,409
1047,985; 2661,298;    2,818;   -0,955
1048,530; 2578,025;    1,545;    1,227
1049,074; 2643,662;    0,000;    0,318
1049,619; 2632,934;   -1,364;    1,955
1050,164; 2418,934;    0,455;    0,227
1050,708; 2456,843;   -0,455;    0,045
1051,253; 2809,116;    1,273;   -2,227
1051,797; 2539,207;    0,818;   -1,318
1052,342; 2560,571;   -1,182;    1,045
1052,886; 2540,843;    0,364;   -1,409
1053,430; 2449,025;   -1,364;    0,136
1053,975; 2438,116;   -0,818;   -0,318
1054,519; 2407,207;   -0,727;    3,227
1055,063; 2417,843;    0,909;    1,318
1055,607; 2304,025;   -0,182;    0,227
1056,151; 2326,571;    2,909;    1,682
1056,695; 2272,843;    2,273;   -1,136
1057,239; 2336,934;   -1,727;   -0,682
1057,783; 2340,480;    0,818;   -1,500
1058,327; 2264,571;    0,000;    1,409
1058,871; 2489,025;   -0,545;    1,318
1059,415; 2208,298;   -0,818;   -0,045
1059,958; 2454,025;    1,455;    2,591
1060,502; 2170,662;   -1,000;   -0,773
1061,046; 2089,934;    0,364;   -0,955
1061,589; 2076,207;   -3,000;   -1,136
1062,133; 1957,207;   -1,273;    1,864
1062,676; 1894,753;    1,182;    0,864
1063,220; 1893,207;    1,091;    0,500
1063,763; 1915,662;    0,909;    1,136
1064,306; 1988,480;   -0,909;    1,864
1064,849; 1872,116;   -0,909;    0,591
1065,393; 1874,025;    2,000;   -1,500
1065,936; 1989,116;    0,182;   -0,409
1066,479; 1880,207;   -1,455;    1,318
1067,022; 1911,298;   -0,273;   -0,227
1067,565; 1806,571;   -0,091;   -1,318
1068,108; 1836,025;    0,727;   -0,591
1068,651; 1813,843;   -0,636;    1,409
1069,194; 1738,662;   -0,455;   -1,682
1069,736; 1728,662;   -1,273;    0,955
1070,279; 1700,934;   -1,364;   -0,500
1070,822; 1747,025;   -2,000;   -0,318
1071,364; 1823,662;   -0,364;    1,318
1071,907; 1644,662;   -0,727;    3,227
1072,450; 1560,662;    0,000;   -0,045
1072,992; 1554,571;   -0,273;    3,136
1073,535; 1675,025;    2,091;    2,136
1074,077; 1479,753;   -0,727;    2,045
1074,619; 1451,843;   -1,364;    0,591
1075,161; 1474,662;   -1,091;    1,500
1075,704; 1653,480;    1,545;    1,227
1076,246; 1466,025;   -0,182;    0,682
1076,788; 1396,662;   -0,364;    1,773
1077,330; 1471,753;    1,273;    2,136
1077,872; 1418,389;    0,909;    0,955
1078,414; 1635,116;    2,727;    0,773
1078,956; 1379,389;    1,273;   -0,227
1079,498; 1632,116;    1,636;    0,318
1080,040; 1340,843;    1,909;   -1,318
1080,581; 1281,934;    1,636;   -0,318
1081,123; 1210,298;    0,091;   -0,773
1081,665; 1263,116;   -1,182;   -0,955
1082,206; 1538,843;    1,364;   -0,500
1082,748; 1412,389;    0,727;    2,045
1083,289; 1285,571;   -2,000;    1,318
1083,831; 1185,116;   -0,545;    0,227
1084,372; 1218,934;    0,000;    0,591
1084,913; 1228,480;    1,091;    0,864
1085,455; 1207,389;   -1,909;   -2,045
1085,996; 1166,298;   -2,273;    0,136
1086,537; 1178,571;   -0,091;    0,864
1087,078; 1211,480;   -0,909;   -2,136
1087,619; 1256,662;   -1,273;    0,227
1088,160; 1183,571;    0,000;    1,318
1088,701; 1161,207;   -1,091;    0,682
1089,242; 1094,571;    1,364;   -2,227
1089,783; 1190,571;   -0,273;    1,409
1090,324; 1162,116;    0,455;    0,682
1090,865; 1039,843;    2,727;   -0,409
1091,405; 1015,662;    0,727;    2,227
1091,946; 1050,934;    0,182;   -0,955
1092,487;  971,662;    0,818;   -1,409
1093,027; 1125,389;   -1,364;   -1,500
1093,568;  986,480;   -0,364;    1,227
1094,108; 1070,934;    0,273;    1,773
1094,649; 1021,116;   -1,182;    0,136
1095,189;  958,662;   -0,636;   -0,682
1095,729;  896,662;   -0,091;    0,955
1096,269;  915,843;    0,727;   -0,955
1096,810; 1223,298;   -1,364;    0,500
1097,350; 1049,843;    1,364;   -0,773
1097,890;  952,571;    0,364;    1,227
1098,430; 1187,662;    2,364;    2,864
1098,970; 1059,298;    2,182;    1,682
1099,510;  934,571;    0,545;   -2,318
1100,050;  858,480;    1,000;   -1,591
1100,589;  818,571;   -0,727;   -0,318
1101,129;  945,480;    0,818;   -0,955
1101,669; 1097,934;    1,727;    2,136
1102,209;  920,934;   -0,091;    2,227
1102,748;  869,298;    0,000;    0,955
1103,288;  860,571;    1,273;   -1,227
1103,827;  883,662;    3,091;   -2,227
1104,367;  759,934;   -0,091;   -2,409
1104,906;  729,298;    1,364;   -1,136
1105,445;  801,662;    0,636;   -1,136
1105,985;  753,389;   -0,727;    1,500
1106,524;  784,389;   -1,727;   -0,682
1107,063;  765,298;   -2,727;    1,409
1107,602;  751,389;   -1,909;   -1,500
1108,141;  665,116;   -1,909;    1,500
1108,680;  758,389;   -3,455;   -0,591
1109,219;  696,571;   -0,909;   -0,500
1109,758;  699,025;    0,455;    0,682
1110,297;  666,753;    1,000;   -0,682
1110,836;  623,207;   -0,727;    0,955
1111,375;  789,025;   -2,545;    0,409
1111,913;  805,480;   -1,000;    0,773
1112,452;  736,298;   -0,273;    0,136
1112,991;  619,571;    1,091;    1,955
1113,529;  569,298;   -0,818;   -0,045
1114,068;  633,480;   -0,273;    2,955
1114,606;  539,934;   -0,364;   -0,955
1115,144;  699,389;   -1,273;    1,045
1115,683;  639,662;   -0,727;    0,318
1116,221;  692,934;   -0,455;   -0,864
1116,759;  598,116;    0,636;   -0,864
1117,297;  784,662;    0,000;    1,864
1117,836;  605,025;   -2,182;   -1,227
1118,374;  611,298;    0,182;   -0,682
1118,912;  551,389;    0,909;    2,682
1119,450;  542,571;    1,000;    0,864
1119,988;  593,571;    1,545;    2,136
1120,525; 1049,389;    5,091;    3,318
1121,063;  738,753;    1,182;    1,864
1121,601;  549,389;   -0,909;   -1,227
1122,139;  500,207;   -0,727;   -2,045
1122,676;  698,934;   -0,727;    2,773
1123,214;  635,934;   -1,182;    4,409
1123,751;  447,843;    1,727;    2,227
1124,289;  581,753;   -0,091;   -0,409
1124,826;  450,934;    1,727;    0,227
1125,364;  373,116;    1,727;   -0,955
1125,901;  559,207;    1,182;    1,227
1126,438;  667,662;    0,818;    0,955
1126,975;  403,662;   -0,727;   -0,773
1127,513;  467,025;    0,273;    2,136
1128,050;  372,207;    1,636;   -0,682
1128,587;  462,843;    2,000;   -0,227
1129,124;  505,298;    0,091;    1,318
1129,661;  371,934;    0,273;    0,227
1130,198;  541,753;    1,636;    0,773
1130,734;  476,662;    0,182;    1,409
1131,271;  339,025;   -0,909;    0,864
1131,808;  511,753;    2,909;    3,045
1132,345;  385,389;    1,545;    0,318
1132,881;  262,480;   -1,545;   -1,864
1133,418;  402,571;    0,727;   -1,136
1133,954;  333,116;    2,455;   -2,682
1134,491;  408,116;    1,364;   -0,773
1135,027;  313,753;    2,364;    0,864
1135,564;  402,480;    0,273;    2,955
1136,100;  385,389;    0,364;    2,136
1136,636;  265,934;   -1,273;   -1,045
1137,172;  363,480;    0,000;   -1,045
1137,708;  288,389;   -1,364;   -1,045
1138,245;  293,934;    1,273;   -1,227
1138,781;  243,298;    1,091;   -3,318
1139,317;  313,571;    1,273;   -1,409
1139,852;  294,753;    3,091;    0,136
1140,388;  424,753;   -1,182;   -0,409
1140,924;  295,207;   -1,091;   -2,227
1141,460;  240,934;   -1,636;    0,136
1141,996;  174,025;   -1,364;    2,682
1142,531;  220,389;    1,364;    3,318
1143,067;  431,753;    1,182;    1,045
1143,602;  490,116;   -0,091;   -0,318
1144,138;  324,753;   -2,636;    1,045
1144,673;  196,934;   -1,455;    1,409
1145,209;  273,662;   -1,909;   -0,318
1145,744;  188,843;   -0,727;    0,864
1146,279;  323,571;    1,818;   -0,136
1146,815;  238,662;    1,545;   -2,682
1147,350;  275,662;   -1,364;    0,045
1147,885;  192,207;   -0,818;   -1,318
1148,420;  188,662;   -2,273;    0,773
1148,955;  175,298;   -1,727;    1,864
1149,490;  194,025;   -0,909;   -1,591
1150,025;  180,662;    0,455;   -1,773
1150,560;  299,389;    1,091;   -0,955
1151,094;  268,934;    1,455;   -0,591
1151,629;  267,207;    1,636;    0,864
1152,164;  189,116;    1,364;    1,318
1152,698;  148,116;   -0,182;   -0,136
1153,233;  111,389;    0,091;   -0,682
1153,767;  157,480;   -3,000;   -2,318
1154,302;  207,571;   -1,455;    1,773
1154,836;  211,025;   -0,455;   -2,136
1155,371;  261,753;   -1,364;    3,682
1155,905;  213,116;   -0,636;    1,682
1156,439;  181,207;   -0,636;   -0,500
1156,973;  206,753;    0,364;    0,318
1157,507;  141,389;   -0,364;    0,682
1158,042;  171,116;   -0,727;    1,045
1158,576;  219,480;    0,182;    1,773
1159,110;  208,753;   -0,818;    2,409
1159,643;  182,571;    0,636;   -0,045
1160,177;  113,025;   -1,545;    1,500

