
Integration time [ms]:   0,040
Averaging Nr. [scans]: 11
Smoothing Nr. [pixels]: 0
Data measured with spectrometer [name]: 7318044SP
Wave   ;Sample   ;Dark     ;Reference
[nm]   ;[counts] ;[counts] ;[counts] 

186,757;   28,462;   31,551;    1,318
187,357;   55,562;   22,551;    0,955
187,958;   38,807;   15,460;   -1,591
188,558;   74,733;    8,915;   -1,227
189,159;   49,110;    6,733;   -4,500
189,759;   16,715;    7,278;   -3,591
190,360;   16,378;    2,824;   -2,136
190,960;   43,979;    2,915;   -4,136
191,560;   66,933;    3,189;   -6,591
192,161;  302,985;    4,372;   -3,500
192,761;  150,926;    4,010;   -3,227
193,361;   94,942;    1,556;   -3,773
193,962;  149,967;    2,010;   -2,682
194,562;   80,744;    1,189;   -3,955
195,162;  114,298;   -2,448;   -2,227
195,762;  262,011;   -3,176;   -0,045
196,362;  208,748;    1,370;   -2,500
196,963;   72,064;    2,006;   -0,864
197,563;  144,370;    1,551;   -0,955
198,163;  101,973;    0,096;   -0,682
198,763;  120,718;    1,733;   -0,500
199,363;  219,781;    3,096;   -0,500
199,963;  180,715;    0,369;    0,409
200,563;  157,119;    2,823;   -1,409
201,163;  127,344;    3,277;   -0,227
201,763;  226,522;    3,732;    0,318
202,363;  167,317;    1,459;    1,500
202,963;  268,481;    1,459;    1,045
203,563;  376,958;    0,277;    0,500
204,162;  231,779;    2,096;   -1,864
204,762;  221,176;    0,550;    0,591
205,362;  185,042;    3,004;    1,955
205,962;  290,252;    3,096;    1,955
206,562;  279,974;    1,823;    2,318
207,161;  251,882;   -0,087;    0,318
207,761;  399,641;    1,277;    2,409
208,361;  284,781;   -0,268;    1,409
208,960;  378,031;    0,459;    1,500
209,560;  450,451;    1,277;    1,591
210,160;  433,622;    0,550;    1,864
210,759;  393,100;    4,186;    1,227
211,359;  402,009;    1,459;    1,045
211,958;  666,079;    1,277;    2,045
212,558;  744,711;    1,732;    1,864
213,157;  577,085;    1,822;    1,500
213,757; 1023,013;    3,822;   -0,227
214,356;  729,940;    1,277;   -0,409
214,956; 1059,251;    3,095;    0,409
215,555;  694,108;    2,095;    2,136
216,154;  632,775;   -2,723;   -0,591
216,754;  647,864;    0,277;    0,773
217,353;  776,908;   -0,268;   -1,045
217,952;  630,549;   -0,178;    0,318
218,552;  850,004;    1,368;   -0,773
219,151;  765,317;    0,277;    0,955
219,750;  760,665;    0,004;   -0,227
220,349;  875,977;   -0,451;    1,045
220,948;  941,261;   -1,360;    1,136
221,548;  958,090;    0,913;    1,227
222,147; 1072,208;   -0,087;   -0,409
222,746; 1349,622;   -0,451;   -0,955
223,345; 1213,172;    0,731;    0,500
223,944; 1224,308;   -0,451;    0,773
224,543; 1391,934;    1,004;   -1,409
225,142; 1503,793;    0,094;    0,136
225,741; 1406,465;   -0,814;    1,045
226,340; 1419,136;   -0,451;   -0,955
226,939; 1853,115;   -0,996;   -0,136
227,538; 1797,766;   -0,360;   -0,773
228,137; 1929,897;   -0,814;    0,864
228,735; 2058,259;   -0,541;    1,227
229,334; 1839,803;   -0,905;   -0,227
229,933; 2214,775;    0,459;    0,591
230,532; 2318,493;    1,186;   -0,409
231,131; 2357,972;    1,732;    0,318
231,729; 2476,498;   -2,450;   -2,318
232,328; 2564,829;   -0,723;   -1,500
232,927; 2632,755;    1,004;   -0,500
233,525; 2757,727;    3,640;    0,045
234,124; 2943,281;    2,368;   -1,591
234,723; 2955,923;    0,913;   -1,045
235,321; 3067,905;    2,277;    0,136
235,920; 3291,227;    1,186;   -1,227
236,518; 3535,481;    3,459;    0,318
237,117; 3693,697;    0,004;   -0,227
237,715; 3854,137;    0,640;   -0,500
238,314; 3886,768;   -0,087;   -2,318
238,912; 3994,071;   -0,723;   -1,409
239,510; 4019,614;    0,459;   -1,227
240,109; 4205,234;    0,004;    3,773
240,707; 4257,480;   -0,996;    1,227
241,305; 4596,152;    0,550;    0,136
241,904; 4813,243;   -0,178;   -2,045
242,502; 4794,427;   -0,632;   -0,227
243,100; 4746,136;   -0,087;   -0,955
243,698; 4992,303;    0,732;    1,682
244,297; 5145,531;   -0,632;    0,682
244,895; 4997,176;   -0,269;   -2,318
245,493; 5343,063;    2,186;   -0,591
246,091; 5365,120;    1,368;   -1,318
246,689; 5353,846;    1,004;    0,591
247,287; 5514,906;    0,822;   -1,136
247,885; 5814,922;   -1,451;    1,227
248,483; 5919,420;    1,822;   -0,500
249,081; 6011,361;    0,185;    1,591
249,679; 6165,479;   -0,178;    1,682
250,277; 6438,916;   -1,723;    0,864
250,875; 6429,227;   -1,087;   -1,045
251,473; 6477,274;   -1,178;    0,500
252,071; 6643,784;    1,459;    1,045
252,669; 6829,035;   -1,814;    0,318
253,267; 7068,971;   -0,087;    0,773
253,864; 6985,724;   -0,360;    0,682
254,462; 6879,737;    1,640;    1,591
255,060; 6842,370;   -0,269;    1,318
255,658; 7175,126;    0,822;   -0,136
256,255; 7581,542;    0,186;   -2,045
256,853; 7440,285;   -0,269;    1,409
257,451; 7426,061;    0,822;    1,864
258,048; 7717,421;    1,822;    1,864
258,646; 7469,828;    1,731;   -1,045
259,243; 7663,467;   -0,087;    2,227
259,841; 7733,824;   -0,814;    0,318
260,438; 7622,983;   -0,087;    0,864
261,036; 8297,563;   -1,905;    1,409
261,633; 8241,582;   -0,087;    2,227
262,231; 8002,700;    2,731;   -0,045
262,828; 8071,375;   -0,905;    1,136
263,425; 8122,419;    0,913;   -0,591
264,023; 8370,006;    0,186;    0,045
264,620; 7924,190;   -0,360;   -0,318
265,217; 8275,218;   -2,087;    3,136
265,815; 8407,995;   -1,905;    2,136
266,412; 8172,674;    0,731;    0,136
267,009; 8229,242;   -1,451;    0,773
267,606; 8119,191;    0,822;   -0,955
268,203; 8111,233;   -0,269;   -0,591
268,801; 8389,701;    1,731;    0,591
269,398; 8712,682;   -0,360;    2,500
269,995; 8685,194;    0,277;    1,591
270,592; 8426,016;   -0,632;   -0,500
271,189; 8632,258;    0,186;    0,409
271,786; 8751,451;   -0,632;    1,227
272,383; 8597,564;   -1,087;    0,227
272,980; 8771,668;    0,277;    0,318
273,577; 9227,188;    0,004;    1,227
274,174; 8812,404;    0,822;    2,591
274,771; 8769,672;   -0,814;   -0,773
275,367; 8904,278;    2,277;    1,409
275,964; 8881,622;    0,731;   -0,500
276,561; 8984,401;    1,549;   -1,045
277,158; 9175,479;    0,095;   -1,773
277,755; 9278,724;    2,185;    0,409
278,351; 8701,100;   -0,451;   -1,500
278,948; 9034,420;   -0,815;    0,045
279,545; 9034,532;   -1,360;    2,318
280,141; 9642,240;   -1,723;   -2,045
280,738; 9505,034;   -0,451;   -0,136
281,334; 9774,955;   -1,633;    0,591
281,931; 9145,223;   -0,087;   -1,318
282,528; 9234,886;    0,822;   -0,500
283,124; 9942,374;   -1,087;   -0,500
283,721; 9832,947;   -0,451;    1,409
284,317; 9675,466;    0,185;    2,500
284,913;10200,372;   -1,360;    0,591
285,510;10410,918;    0,640;   -0,318
286,106;10424,150;   -2,269;   -0,955
286,703;10086,478;   -0,360;    1,955
287,299;10253,369;   -1,451;   -0,591
287,895;10450,584;    0,822;   -1,045
288,491;11028,773;    0,186;    2,136
289,088;10747,204;   -2,360;    2,409
289,684;10839,399;   -1,723;    1,500
290,280;10829,510;    0,368;    0,682
290,876;10927,886;    1,822;    5,500
291,472;10841,146;    1,276;    2,227
292,068;10913,333;    1,367;    0,227
292,665;10647,642;    2,095;    0,773
293,261;10289,169;    0,276;    2,136
293,857;10664,872;    2,913;    2,136
294,453;10587,502;    3,550;    0,955
295,049;10485,611;   -0,268;    1,955
295,644;10502,238;    0,095;    0,136
296,240;10401,467;   -0,905;   -0,136
296,836;10464,632;   -0,995;    0,318
297,432;10740,285;    1,096;   -0,500
298,028;10780,164;    0,732;    0,773
298,624;11180,089;    1,459;    1,864
299,220;11464,869;    2,368;    0,591
299,815;11126,212;    1,005;   -0,409
300,411;10917,701;    0,914;    1,773
301,007;10921,343;    1,368;    0,227
301,602;10955,421;   -0,541;   -2,318
302,198;11127,699;    0,732;   -0,773
302,794;11501,109;    1,187;   -0,500
303,389;11602,475;   -1,177;    1,045
303,985;11662,901;    0,550;    1,409
304,580;11633,290;    1,459;    1,591
305,176;11596,035;   -3,086;    0,136
305,771;11533,618;   -1,268;   -1,227
306,367;11359,593;    4,095;    0,136
306,962;11695,785;    0,641;    1,500
307,558;11431,178;   -0,450;    0,136
308,153;11365,126;    1,095;   -1,136
308,748;11567,000;   -0,814;    1,682
309,344;11559,169;   -0,632;   -1,318
309,939;11641,738;   -1,905;   -1,318
310,534;11905,771;   -0,086;   -1,682
311,130;11820,971;    0,459;   -2,500
311,725;11580,068;    1,004;   -0,500
312,320;11906,119;    2,459;    0,045
312,915;11738,136;    1,459;   -1,045
313,510;11793,191;    1,550;   -0,500
314,105;12295,801;    1,096;    1,409
314,700;11725,080;   -3,086;   -1,045
315,295;11343,199;   -0,904;    0,045
315,890;10944,601;    1,277;    0,864
316,485;11315,615;   -0,359;   -0,318
317,080;11410,059;   -3,086;    1,591
317,675;11959,484;    2,005;   -0,682
318,270;11362,430;    5,550;    3,318
318,865;11376,520;    3,278;    3,045
319,460;11217,663;   -0,904;    0,591
320,055;11469,937;   -0,541;   -1,227
320,650;11147,539;   -1,995;   -0,591
321,244;11172,669;   -0,177;   -1,409
321,839;12091,719;   -1,541;   -0,227
322,434;11977,665;   -1,086;   -1,591
323,029;11590,919;    1,732;    1,591
323,623;11391,727;    1,550;    0,773
324,218;11185,187;    2,368;    1,409
324,812;11116,292;    1,096;    1,591
325,407;10928,572;   -0,814;    2,045
326,002;10802,634;    0,277;   -0,409
326,596;11121,987;    0,914;    1,318
327,191;11318,357;    0,823;   -1,045
327,785;10870,078;   -0,813;   -0,227
328,379;11120,843;    1,368;    0,136
328,974;10954,600;    0,914;   -3,955
329,568;11168,232;    0,186;   -2,409
330,163;10969,588;    2,096;    1,045
330,757;11326,769;    2,459;    1,591
331,351;10671,518;    0,459;    0,682
331,945;10982,108;    0,914;    1,409
332,540;10602,428;   -1,723;   -0,591
333,134;10750,013;   -1,086;    0,773
333,728;10966,216;    0,005;    0,318
334,322;11285,690;   -1,177;   -0,864
334,916;10592,445;    0,277;    0,955
335,510;10927,456;   -0,450;   -0,136
336,105;11183,176;   -1,086;    1,591
336,699;10873,521;   -1,086;    0,591
337,293;10808,777;   -1,723;    0,318
337,887;10984,150;   -2,723;    1,955
338,481;11073,185;    0,459;    0,591
339,074;11240,626;   -0,359;    2,682
339,668;11076,501;   -1,632;    1,227
340,262;11312,499;    1,732;    3,227
340,856;10848,877;    1,822;   -0,682
341,450;10208,308;    1,004;    1,864
342,044;11090,413;    1,459;    0,136
342,637;10895,052;    0,913;   -2,136
343,231;10768,213;   -2,360;    0,682
343,825;10711,339;   -1,086;   -0,591
344,419;10706,749;   -1,995;    0,500
345,012;10463,773;    2,459;    4,045
345,606;10437,101;    4,641;    1,591
346,199;10334,849;   -1,813;   -0,227
346,793; 9888,178;    1,914;    2,045
347,386;10060,624;   -0,813;   -1,136
347,980;10064,472;   -0,268;   -0,045
348,573; 9874,974;    2,278;    0,409
349,167; 9544,748;    5,278;    4,773
349,760; 9869,053;    2,914;    2,682
350,354; 9858,592;   -0,813;    1,136
350,947; 9600,275;    1,096;    1,682
351,540; 9278,213;   -0,358;   -1,409
352,134; 9255,810;    1,096;    1,136
352,727; 9321,559;   -0,086;    1,136
353,320; 9110,481;    0,005;    0,591
353,913; 8971,153;   -1,995;    1,864
354,507; 9157,793;    0,823;   -1,227
355,100; 9187,516;    0,460;    0,864
355,693; 8426,214;    2,005;    2,409
356,286; 8426,901;    0,823;    2,773
356,879; 8810,236;   -0,722;    1,227
357,472; 8433,178;   -0,904;    1,500
358,065; 8619,680;   -0,722;    2,500
358,658; 8543,053;   -0,540;    2,318
359,251; 8221,328;   -1,631;   -0,591
359,844; 7721,769;   -1,904;   -1,136
360,437; 7882,123;   -2,995;    0,045
361,030; 8143,206;    1,369;   -0,682
361,623; 7736,307;    2,824;    0,318
362,215; 7786,436;   -0,086;    2,045
362,808; 7632,531;   -2,358;   -1,682
363,401; 7816,179;   -2,449;    0,136
363,994; 7557,232;   -0,631;   -1,500
364,586; 7486,422;    0,824;   -1,500
365,179; 7696,893;   -0,449;   -1,136
365,772; 7186,370;   -1,995;    2,045
366,364; 7471,477;    1,915;   -3,227
366,957; 7676,350;    2,279;   -0,045
367,549; 7689,280;    2,188;   -0,864
368,142; 7347,897;    1,825;   -1,500
368,734; 7543,525;    0,734;   -2,136
369,327; 7505,146;    1,643;   -0,500
369,919; 7427,453;   -1,538;    0,409
370,512; 7244,901;   -1,083;   -0,500
371,104; 6995,985;   -0,901;    1,591
371,696; 7132,844;    1,191;   -0,955
372,289; 7210,674;    0,373;    1,136
372,881; 7387,282;   -2,080;    1,318
373,473; 7293,391;   -2,170;    1,136
374,066; 7096,982;   -0,169;    0,500
374,658; 6941,621;    0,378;    1,136
375,250; 7305,815;    0,653;   -1,409
375,842; 7161,441;    0,473;   -0,045
376,434; 7024,349;   -0,435;   -0,409
377,026; 7625,232;    0,204;   -2,500
377,618; 7494,244;   -0,158;   -0,682
378,210; 7331,461;   -0,338;   -1,955
378,802; 7192,852;    0,754;   -0,591
379,394; 7154,962;    1,846;    0,682
379,986; 7727,763;    1,393;   -0,955
380,578; 7807,711;   -0,153;    0,773
381,170; 7184,999;   -0,972;    0,045
381,762; 7152,464;    0,755;    1,409
382,354; 7326,970;   -0,065;   -1,318
382,945; 7426,782;   -2,976;    0,318
383,537; 7578,488;   -2,705;   -1,955
384,129; 7604,797;   -2,160;   -1,136
384,721; 7779,993;   -0,252;    0,955
385,312; 7714,599;   -0,161;   -0,955
385,904; 7816,363;   -2,706;    1,591
386,496; 7199,973;   -0,979;    1,045
387,087; 7326,562;    1,022;    2,500
387,679; 7377,084;   -1,160;    0,045
388,270; 7468,703;    2,840;    2,045
388,862; 7574,473;    1,295;   -0,318
389,453; 7471,647;   -0,887;    1,045
390,045; 7718,616;   -0,705;   -2,682
390,636; 7688,747;    0,204;   -0,591
391,227; 7532,500;   -0,523;   -0,045
391,819; 7636,968;    0,204;    0,773
392,410; 7725,866;    1,022;    0,045
393,001; 7659,770;   -0,979;   -1,591
393,593; 7893,267;    1,930;   -0,045
394,184; 7778,499;    1,385;   -0,409
394,775; 7678,803;    1,839;    2,136
395,366; 7882,835;    1,385;    0,773
395,957; 7854,261;    0,113;    0,136
396,548; 8180,827;   -0,342;    2,682
397,139; 8493,796;   -2,433;    0,591
397,730; 8230,985;   -1,888;    0,955
398,321; 8274,367;   -1,252;    0,955
398,912; 8306,949;   -0,615;    0,136
399,503; 8381,160;   -3,524;   -1,409
400,094; 7856,203;    0,294;    1,682
400,685; 7709,304;   -0,433;    0,045
401,276; 7788,207;    0,930;   -0,955
401,867; 8080,040;   -0,888;    0,773
402,458; 8173,538;   -2,251;   -2,318
403,048; 8159,681;    1,112;    0,591
403,639; 7779,657;    0,840;    0,864
404,230; 8012,623;    2,476;    0,318
404,821; 7971,615;   -0,615;    0,045
405,411; 8091,387;    1,203;   -2,591
406,002; 7688,350;   -1,252;   -1,136
406,592; 7541,642;    2,294;    0,045
407,183; 7850,699;    0,566;   -1,500
407,774; 7751,567;    3,475;   -0,136
408,364; 8070,166;    0,930;    0,409
408,954; 7692,326;    0,384;    1,227
409,545; 7753,778;    1,021;    1,045
410,135; 7290,618;    1,293;    0,500
410,726; 7449,051;    1,838;    0,318
411,316; 7810,629;    0,111;    0,773
411,906; 7483,586;   -0,253;   -0,409
412,497; 7006,042;   -1,070;   -0,045
413,087; 7609,377;   -1,980;   -0,227
413,677; 7956,900;   -0,707;    3,864
414,267; 7828,048;    0,656;    1,409
414,857; 7832,689;   -2,980;    4,227
415,448; 8098,412;    0,839;    0,500
416,038; 7804,810;    0,020;   -0,591
416,628; 7741,716;   -0,889;    0,409
417,218; 7218,060;    0,565;    3,318
417,808; 7479,065;    0,202;   -0,409
418,398; 7911,005;    0,020;    2,682
418,988; 7936,615;    2,020;    0,591
419,578; 8171,692;   -0,707;    1,409
420,168; 8486,860;   -1,343;   -0,955
420,757; 8068,351;   -1,343;   -1,500
421,347; 7752,086;    0,111;   -0,227
421,937; 7897,387;    2,292;    1,409
422,527; 7881,216;    0,838;   -0,773
423,116; 7699,035;   -0,253;   -0,045
423,706; 8031,833;   -1,889;    0,318
424,296; 7976,286;    1,384;    0,682
424,885; 8374,740;   -0,071;   -3,045
425,475; 8651,752;    1,474;   -2,864
426,065; 8569,781;   -0,980;   -0,318
426,654; 8212,601;   -0,435;   -0,318
427,244; 8334,695;    0,020;    1,409
427,833; 7785,507;    1,383;   -0,500
428,423; 8224,835;   -0,526;    1,136
429,012; 8973,401;   -0,344;   -1,136
429,601; 8474,170;   -1,344;    0,136
430,191; 8699,544;    1,292;    4,318
430,780; 8372,170;   -0,344;   -0,409
431,369; 8284,989;    0,746;   -0,045
431,959; 8874,478;   -1,254;    0,500
432,548; 8662,238;   -1,163;   -0,045
433,137; 8809,884;   -1,254;   -1,318
433,726; 9296,786;    0,292;    0,500
434,315; 8675,217;   -0,526;    2,409
434,905; 8758,461;   -1,254;    1,409
435,494; 8667,567;    0,746;    0,955
436,083; 9118,578;   -0,981;   -0,955
436,672; 8975,678;    0,110;    0,500
437,261; 8545,301;    0,292;   -1,955
437,850; 8630,354;    1,383;    0,682
438,439; 8623,898;    3,291;    1,955
439,027; 8461,995;    3,655;    1,773
439,616; 8797,677;    2,927;    1,227
440,205; 8690,632;    0,200;   -2,136
440,794; 8721,772;    2,109;   -0,045
441,383; 8969,216;   -1,346;   -0,591
441,971; 8814,940;   -2,436;    0,591
442,560; 8641,989;    0,563;   -1,773
443,149; 8393,968;    0,379;   -1,318
443,737; 8533,079;   -0,074;   -2,318
444,326; 8795,173;    0,018;    0,318
444,915; 8836,836;   -1,982;    0,864
445,503; 9172,828;   -2,891;   -0,318
446,092; 8472,652;    0,382;    2,136
446,680; 9007,664;    0,382;    0,318
447,269; 9171,550;   -0,346;   -0,318
447,857; 8971,292;    0,018;   -1,773
448,445; 9050,601;    0,563;    1,318
449,034; 9239,082;   -1,528;   -1,136
449,622; 9385,628;   -1,073;    3,500
450,210; 8623,480;    2,017;    2,227
450,799; 9159,213;    0,290;   -0,591
451,387; 9121,795;    1,381;   -0,591
451,975; 8732,695;    2,654;    0,864
452,563; 8799,196;    3,472;    2,318
453,151; 8858,491;   -0,528;   -1,227
453,739; 8794,402;   -1,347;    0,136
454,328; 8637,816;    2,381;   -2,136
454,916; 8342,041;    2,562;   -0,136
455,504; 8515,514;    1,017;    1,227
456,092; 8720,353;    0,017;   -1,591
456,679; 8670,415;    1,472;    0,682
457,267; 8642,977;    4,017;    1,045
457,855; 8765,501;    1,017;    1,409
458,443; 8491,065;   -0,165;    1,682
459,031; 8638,144;    0,108;    2,409
459,619; 9062,740;   -1,801;    2,864
460,206; 9207,323;    0,835;    2,045
460,794; 9277,637;   -2,983;   -0,227
461,382; 9465,146;   -0,529;   -0,864
461,970; 9081,721;    1,198;    1,864
462,557; 9143,477;   -0,711;   -0,682
463,145; 9285,802;   -3,165;   -1,682
463,732; 9402,736;    2,016;   -1,045
464,320; 9331,967;   -0,075;   -3,045
464,907; 9026,475;    2,743;   -0,773
465,495; 8922,937;    0,743;   -1,227
466,082; 9049,723;   -1,984;   -0,045
466,670; 8975,271;   -2,529;    1,227
467,257; 9350,461;   -1,711;    2,045
467,844; 9502,862;   -0,075;    0,045
468,432; 9558,805;    0,834;    3,500
469,019; 9068,614;    0,925;   -1,773
469,606; 9489,208;    0,470;    3,682
470,193; 9301,933;   -1,439;    0,227
470,780; 8906,334;   -2,075;    0,864
471,368; 9244,197;   -1,257;   -0,773
471,955; 9044,281;    1,379;   -0,682
472,542; 8679,513;    0,652;   -1,136
473,129; 8900,073;   -0,166;    0,136
473,716; 8653,582;    1,470;    0,591
474,303; 8820,402;    0,652;   -0,864
474,890; 9097,651;   -1,439;   -0,500
475,477; 9108,994;   -1,621;    0,409
476,064; 9008,563;    1,106;   -1,591
476,650; 8915,451;    0,288;    0,318
477,237; 8736,270;   -0,258;    0,955
477,824; 8883,668;   -1,076;    0,864
478,411; 8890,938;   -1,894;   -0,318
478,997; 9059,047;    0,560;   -0,773
479,584; 9111,949;    1,196;   -0,409
480,171; 9777,121;   -0,440;   -0,773
480,757; 9452,173;    2,651;    0,773
481,344; 9700,547;    0,469;    0,409
481,931; 9219,489;    1,105;    1,045
482,517;10086,190;   -1,258;    0,318
483,104;10535,918;    1,106;    2,864
483,690;10817,648;   -1,804;    0,045
484,276;11140,605;   -0,895;    0,227
484,863;10867,413;    2,469;    1,136
485,449;11446,437;   -0,077;    0,318
486,035;11414,016;   -1,986;   -0,136
486,622;11817,727;   -0,895;    0,045
487,208;11789,162;    1,378;    1,500
487,794;11642,662;    0,741;    0,318
488,380;11726,123;    0,105;   -1,409
488,967;11828,881;   -1,168;   -0,409
489,553;11867,172;   -1,895;   -1,409
490,139;12031,870;    1,559;    0,773
490,725;11532,510;    0,741;   -0,227
491,311;11183,748;    3,287;    3,045
491,897;10618,114;   -0,986;    1,500
492,483;10482,606;    0,105;    1,227
493,069;10306,360;    3,923;    0,864
493,655;10288,769;    1,650;    0,682
494,241;10214,552;    1,377;   -0,955
494,826;10586,353;    0,287;   -1,045
495,412;10103,019;    2,559;   -0,682
495,998;10278,423;   -0,805;   -0,318
496,584;10418,807;    0,377;    1,045
497,169;10427,331;    1,014;   -0,682
497,755;10446,874;    0,650;    1,227
498,341;11012,057;    0,559;    0,318
498,926;10608,130;    1,832;    1,955
499,512;10808,131;    1,286;    2,955
500,097;10977,287;    0,195;   -0,318
500,683;10961,368;   -0,350;    2,136
501,268;11359,309;   -0,169;   -0,955
501,854;11114,379;   -0,169;    1,227
502,439;11104,310;   -0,624;   -1,773
503,024;11336,355;    0,195;    0,500
503,610;11417,201;   -0,078;   -0,682
504,195;11501,240;    0,558;    1,955
504,780;11650,403;    2,922;    1,227
505,366;11497,671;    3,013;    2,864
505,951;11253,208;    0,740;    1,045
506,536;11319,598;   -3,260;   -3,682
507,121;11338,437;    0,285;   -0,318
507,706;11886,439;    2,376;    1,045
508,291;12287,300;    2,649;    1,136
508,876;11779,010;   -0,988;    2,591
509,461;11277,539;   -0,169;   -0,773
510,046;11745,566;    0,194;    0,318
510,631;11978,553;   -0,351;   -0,773
511,216;11655,988;    2,467;   -0,500
511,801;12053,842;   -0,442;    2,591
512,386;12375,983;    0,740;    0,500
512,971;12326,187;   -2,988;    0,955
513,555;11915,142;   -0,897;   -1,500
514,140;12746,178;   -0,442;   -3,136
514,725;12746,627;   -0,715;   -1,136
515,309;12856,440;   -0,533;    0,318
515,894;12387,682;   -0,624;   -2,227
516,479;12804,053;   -0,624;   -0,955
517,063;12624,137;    0,376;    1,227
517,648;12785,413;    1,012;   -1,136
518,232;12452,845;   -0,261;   -1,409
518,817;12787,180;   -0,079;    1,682
519,401;13025,872;    2,194;    0,591
519,985;12558,684;    1,103;    1,136
520,570;12461,274;    0,830;   -1,955
521,154;12734,709;    2,102;    0,591
521,738;12907,458;   -2,352;    2,409
522,323;13477,795;   -0,170;    1,682
522,907;13216,062;    0,466;   -0,136
523,491;12953,791;    0,557;    0,955
524,075;12920,762;    2,284;    0,591
524,659;13040,052;    1,466;    0,591
525,243;12505,631;    1,739;    0,409
525,827;12725,642;    0,648;   -0,045
526,411;13590,689;   -1,989;   -0,136
526,995;13806,575;   -0,352;    1,409
527,579;13354,422;   -0,443;   -1,045
528,163;13687,738;    0,375;   -1,500
528,747;13602,279;    2,466;   -0,773
529,331;13908,124;   -0,080;   -1,409
529,915;14123,497;    1,738;    0,955
530,499;14130,921;   -0,807;    1,227
531,082;13794,330;   -0,534;    1,591
531,666;13245,971;    1,374;    0,773
532,250;13902,160;    1,284;    2,682
532,833;14212,118;    0,920;    2,773
533,417;14104,787;   -1,807;    0,864
534,001;14080,196;    1,647;   -0,318
534,584;14781,879;    0,374;    0,500
535,168;14620,150;    0,465;    1,409
535,751;14638,911;    0,647;    0,045
536,334;14123,555;   -0,898;   -0,409
536,918;14733,855;    0,011;    1,591
537,501;14858,685;   -0,899;    1,318
538,085;14798,145;   -0,444;    1,045
538,668;14970,207;    0,829;    2,409
539,251;15276,087;    1,829;    3,773
539,834;15273,720;    0,101;    0,773
540,418;15184,136;   -1,990;    4,318
541,001;15297,008;   -0,990;    1,773
541,584;15323,651;    2,101;    2,227
542,167;15024,624;    1,374;    2,955
542,750;15153,844;    1,919;   -0,773
543,333;14729,839;    0,555;    2,136
543,916;15520,125;    0,192;    2,500
544,499;16145,830;   -1,354;    0,227
545,082;16126,438;    1,374;    3,591
545,665;16223,098;    1,919;    1,500
546,248;16572,475;    1,010;   -0,318
546,830;16246,077;   -0,445;    1,955
547,413;16656,337;    1,010;   -0,773
547,996;17179,681;    0,555;    0,500
548,579;16967,572;    0,919;    0,955
549,161;16772,181;    1,828;    2,682
549,744;16602,163;   -0,809;    0,409
550,326;17084,438;   -0,809;   -1,136
550,909;16851,691;    2,737;    0,591
551,492;17268,615;   -0,263;    0,227
552,074;17035,819;   -0,173;   -1,318
552,657;17585,425;    2,373;    0,045
553,239;17369,793;   -0,173;   -0,773
553,821;17269,868;   -1,082;    1,045
554,404;16780,485;    1,282;    1,136
554,986;17128,585;    0,464;    1,045
555,568;17733,953;    1,191;   -0,955
556,151;16942,287;    1,191;   -0,227
556,733;17171,763;   -0,264;   -0,864
557,315;17630,424;    0,100;    0,500
557,897;17449,027;    0,554;   -0,500
558,479;17570,968;   -1,991;    1,318
559,061;17651,264;   -0,719;   -0,864
559,643;18016,768;   -0,264;    0,045
560,225;18366,561;    1,645;    2,864
560,807;18370,859;    0,918;    0,318
561,389;17871,197;    0,554;    2,318
561,971;18602,318;    0,463;    2,136
562,553;18424,478;   -1,628;    1,591
563,135;18536,324;   -0,537;    1,136
563,717;18178,838;    3,372;    1,136
564,298;18868,695;    3,645;   -0,045
564,880;18591,971;    0,645;   -1,409
565,462;18772,152;    0,645;    1,318
566,043;19880,157;   -0,446;    2,318
566,625;19404,065;    1,918;    1,227
567,207;19232,807;    1,099;    1,682
567,788;20321,720;   -1,264;    1,500
568,370;21107,163;    1,917;   -0,500
568,951;20939,240;    0,190;    0,227
569,533;21783,902;   -0,628;   -0,500
570,114;22260,377;   -0,446;    0,682
570,695;22752,771;   -0,174;   -1,318
571,277;23177,416;   -0,265;   -1,682
571,858;23842,348;    2,008;   -1,136
572,439;24748,762;    1,554;   -1,045
573,021;24884,834;    2,099;   -2,773
573,602;25380,188;   -1,265;    0,318
574,183;26254,985;   -2,083;    2,227
574,764;26402,225;   -1,629;    0,409
575,345;26890,507;    0,917;   -0,136
575,926;27504,123;   -0,356;    0,136
576,507;27461,823;    1,099;   -0,227
577,088;28516,247;    3,099;    1,682
577,669;28513,777;    0,735;    1,955
578,250;29272,440;    0,644;   -1,045
578,831;29933,618;   -1,356;   -2,227
579,412;30169,202;   -0,810;    0,955
579,993;31035,992;    1,008;    0,227
580,573;31334,933;   -0,629;   -0,955
581,154;30314,354;    0,735;   -0,591
581,735;31163,018;    0,644;    0,773
582,315;30707,473;   -0,629;    2,136
582,896;31010,862;   -0,174;    1,227
583,477;30526,244;    0,189;    1,227
584,057;30687,598;    0,553;    0,955
584,638;30987,538;    2,553;    2,318
585,218;30959,597;   -0,538;    2,682
585,799;31159,166;    0,281;   -0,227
586,379;31209,611;    0,372;    1,591
586,959;30040,592;    0,735;    0,318
587,540;29348,797;   -0,629;    2,227
588,120;28927,304;    1,007;   -0,045
588,700;27907,862;    2,553;    2,136
589,281;28162,054;    0,462;   -0,955
589,861;28137,998;    0,099;   -1,682
590,441;27949,692;    2,371;   -2,682
591,021;27005,083;   -0,265;   -2,591
591,601;27239,272;   -0,537;    0,500
592,181;27215,663;   -0,719;   -0,773
592,761;26569,867;    0,007;    1,409
593,341;26465,015;   -0,901;    0,045
593,921;26434,944;   -0,265;    1,591
594,501;26365,713;   -0,538;    1,318
595,081;26188,973;    0,917;   -0,318
595,661;26529,860;   -1,447;    0,955
596,240;27061,303;   -0,537;    0,136
596,820;26656,046;    0,372;    1,955
597,400;26820,888;    2,008;    0,773
597,980;27058,873;    2,008;    1,045
598,559;27130,704;    2,735;   -0,227
599,139;26872,618;   -0,174;   -1,227
599,718;26777,618;   -0,174;   -0,409
600,298;26971,916;    0,735;    0,682
600,877;27192,602;    2,917;    1,409
601,457;27504,800;    2,281;    1,136
602,036;27311,635;    0,190;    2,045
602,616;27526,417;    0,644;    1,682
603,195;27945,253;   -0,355;    3,500
603,774;27481,318;   -0,901;    2,045
604,354;27355,380;    0,826;   -0,500
604,933;26858,815;    0,463;    1,864
605,512;27005,807;    3,554;    0,591
606,091;27066,399;   -0,537;    3,773
606,671;27852,043;    0,281;    0,773
607,250;26911,135;    1,644;    3,136
607,829;27149,026;    2,372;    3,227
608,408;27046,822;    1,190;    2,591
608,987;26098,343;    1,281;    3,409
609,566;26451,224;   -1,265;   -2,500
610,145;26521,770;   -1,082;    0,682
610,723;26884,531;    4,372;    6,864
611,302;26121,881;   -0,446;    1,682
611,881;25652,615;    5,008;   11,227
612,460;26508,677;    1,645;    3,955
613,039;26947,420;   -0,082;    2,045
613,617;25703,787;    1,736;    4,773
614,196;25881,617;    1,099;    1,227
614,775;26220,024;    1,009;    2,409
615,353;26200,076;    0,736;    0,864
615,932;25914,320;    0,100;    2,409
616,510;26489,387;    0,554;    0,591
617,089;25965,928;    7,100;   17,591
617,667;25697,048;    2,372;    6,136
618,246;25648,797;   -1,537;    1,318
618,824;25811,587;   -3,355;   -0,955
619,402;25414,224;   -2,900;   -1,773
619,981;25928,760;   -0,173;   -1,045
620,559;25732,722;    0,009;    1,682
621,137;25301,424;   -0,718;    1,864
621,715;25306,548;   -1,173;   -0,682
622,293;25263,938;   -0,537;   -0,773
622,871;25728,697;   -0,718;    0,500
623,450;25349,315;    0,373;   -0,864
624,028;25210,206;    0,191;   -0,955
624,606;24807,683;   -1,718;    1,682
625,183;25222,187;   -1,536;   -1,136
625,761;24846,822;    1,009;    1,136
626,339;25110,111;    1,373;    2,591
626,917;25504,442;   -0,172;   -0,045
627,495;25570,930;   -0,354;    1,318
628,073;24984,221;   -0,263;    2,864
628,650;24711,755;    0,100;    2,136
629,228;25154,797;    0,373;    4,409
629,806;24563,848;    2,282;    1,136
630,383;24813,804;    1,464;   -0,318
630,961;24637,333;    2,555;   -0,955
631,539;24370,953;    2,464;    0,227
632,116;23701,151;   11,373;   15,409
632,694;24226,896;    2,555;    6,500
633,271;24528,993;    0,828;    2,682
633,848;24482,913;    1,828;    2,045
634,426;24531,045;   -1,081;    1,773
635,003;23698,259;    1,101;   -0,409
635,580;23955,801;    1,192;    3,682
636,158;24526,884;    3,737;    1,227
636,735;24547,023;    0,555;   -0,500
637,312;24604,068;   -0,809;   -0,682
637,889;24749,374;   -4,354;   -0,682
638,466;24227,706;   -3,990;   -0,409
639,043;24192,623;    2,101;   -1,136
639,620;24578,046;   -2,262;   -0,955
640,197;24897,368;    1,100;    1,682
640,774;25023,324;   -0,172;    1,136
641,351;25421,281;    0,737;    1,136
641,928;24821,419;   -0,627;    1,409
642,505;24466,739;    0,828;   -0,500
643,082;24572,513;   -1,718;    1,227
643,658;23610,015;   -0,718;    1,500
644,235;24368,153;    1,191;    2,500
644,812;24656,200;    1,918;    0,773
645,388;24411,065;   -0,991;    1,409
645,965;24516,749;   -0,809;    1,682
646,542;24608,705;   -1,445;   -0,227
647,118;24537,934;    1,009;   -0,955
647,695;24836,163;   -0,263;    1,136
648,271;24768,120;   -0,536;    0,500
648,848;25030,167;    0,736;    2,227
649,424;24892,487;    0,827;    1,318
650,000;24671,079;   -0,354;   -1,045
650,577;24506,308;   -0,627;   -0,955
651,153;24914,628;   -1,809;    0,955
651,729;25875,130;    1,191;    0,864
652,305;26005,904;    0,645;    2,773
652,881;29993,861;   -0,082;    1,136
653,458;36528,726;    1,100;    0,227
654,034;40297,046;    0,282;    1,591
654,610;41871,639;    0,554;    0,773
655,186;43195,777;    0,645;    3,045
655,762;42902,369;   -0,991;    0,409
656,338;42909,235;    0,100;    0,136
656,913;43811,373;   -0,082;    0,409
657,489;43166,602;    0,827;   -0,318
658,065;43135,558;   -0,173;   -1,591
658,641;43837,605;   -0,900;   -0,864
659,217;43180,289;   -0,991;    0,409
659,792;42596,790;    0,645;   -0,409
660,368;42845,656;   -2,173;   -0,682
660,944;42601,248;   -2,082;    1,227
661,519;38426,477;   -0,628;    0,409
662,095;32809,161;   -1,719;    0,591
662,670;28213,845;    1,281;   -0,136
663,246;26954,619;    1,009;   -0,409
663,821;26209,848;    0,281;    1,682
664,396;25698,804;    0,009;    1,864
664,972;25953,033;    0,009;   -0,500
665,547;26241,626;    1,372;    0,136
666,122;26285,128;   -1,082;    0,318
666,698;26571,538;   -0,173;    0,318
667,273;25950,495;   -0,173;    0,136
667,848;26699,996;    2,372;    1,500
668,423;26497,044;    2,190;    2,318
668,998;27091,091;    2,827;   -0,682
669,573;27591,138;   -3,264;   -1,500
670,148;27437,003;   -1,446;   -0,682
670,723;27239,414;   -1,810;    0,318
671,298;27640,916;    2,372;    1,045
671,873;27778,781;   -0,082;   -0,136
672,448;27713,556;    0,645;    0,136
673,023;28046,330;   -1,992;   -0,227
673,597;28365,377;    0,827;    2,318
674,172;28151,788;   -0,355;    0,318
674,747;27615,199;    0,372;   -1,045
675,321;27480,519;   -0,628;    3,318
675,896;27059,112;    0,645;    1,045
676,471;28047,068;    2,645;    1,591
677,045;27805,115;   -1,264;    0,682
677,620;27882,708;    0,190;    1,136
678,194;28208,482;   -2,628;    1,136
678,769;27718,893;   -1,083;   -0,318
679,343;27933,304;   -0,628;    1,773
679,917;27769,624;   -1,446;    1,955
680,492;27960,398;    0,826;    3,227
681,066;28103,627;    3,372;    0,409
681,640;28132,583;    1,463;   -0,318
682,214;28915,449;    0,735;    0,500
682,788;28476,678;   -1,356;   -0,773
683,363;28380,816;   -1,810;    1,682
683,937;28073,499;   -1,719;   -0,318
684,511;28827,728;    0,463;   -0,591
685,085;28530,866;   -1,356;    0,318
685,659;28285,005;   -2,538;    0,864
686,232;28536,052;   -0,356;   -0,318
686,806;28283,008;   -0,901;    0,409
687,380;28927,601;   -0,174;    0,591
687,954;29151,193;   -1,174;    1,136
688,528;28821,513;   -0,719;    1,955
689,101;29590,197;   -3,992;    1,045
689,675;29225,062;   -0,356;   -0,136
690,249;28577,382;   -0,719;    0,409
690,822;28844,793;    0,280;    0,318
691,396;28961,022;   -0,265;    1,227
691,969;28431,614;    1,280;    0,136
692,543;28872,025;   -0,447;   -1,955
693,116;28562,891;   -0,265;   -1,409
693,690;28418,665;    0,099;    0,500
694,263;28989,076;   -1,083;    2,955
694,836;29020,032;    1,371;    3,591
695,410;27661,716;   -0,265;    1,773
695,983;28114,036;    0,189;    0,591
696,556;28132,537;   -0,447;   -1,045
697,129;28504,130;   -0,356;    1,409
697,703;28122,541;   -1,629;    1,955
698,276;28130,133;    1,462;   -0,773
698,849;27974,181;    1,280;    1,409
699,422;28339,046;   -1,083;    0,591
699,995;27983,366;    0,007;    0,136
700,568;28467,686;   -0,629;    3,045
701,140;28529,188;   -2,811;    1,682
701,713;28261,053;   -0,174;    2,409
702,286;28030,373;   -0,538;    0,864
702,859;27932,420;   -0,902;   -0,591
703,432;27077,467;    0,825;    0,682
704,004;27577,696;    0,462;    0,318
704,577;27404,834;   -0,629;    0,136
705,150;27961,700;    0,189;    2,500
705,722;27780,020;   -0,356;   -3,227
706,295;27577,976;   -0,175;   -0,591
706,867;27396,659;   -0,175;    1,955
707,440;27602,252;   -1,720;   -0,409
708,012;27810,845;    0,462;    0,591
708,584;27804,255;    2,462;    0,227
709,157;28136,303;    1,825;   -0,591
709,729;27751,168;    2,280;    2,045
710,301;28568,397;    0,734;    0,045
710,874;28615,171;   -1,447;   -0,227
711,446;27470,673;    0,371;    0,864
712,018;27405,357;    0,098;    0,500
712,590;27142,949;   -1,993;    1,682
713,162;27609,633;    0,825;    1,318
713,734;27890,044;    1,825;   -2,045
714,306;27810,636;   -1,902;   -0,409
714,878;26547,229;    0,825;    0,864
715,450;27363,731;    0,643;    0,864
716,022;27606,596;    1,552;    1,318
716,593;27690,552;    0,189;    0,591
717,165;27681,236;   -3,175;   -1,227
717,737;27363,919;    0,280;    0,409
718,309;27016,330;    0,280;   -0,045
718,880;27049,287;   -0,539;   -1,409
719,452;27273,152;   -0,175;   -1,591
720,024;26802,017;    0,734;   -0,591
720,595;27378,519;   -2,902;    0,955
721,167;26915,293;    0,370;   -2,045
721,738;26431,159;   -0,812;   -1,045
722,309;26442,933;   -0,993;   -1,227
722,881;26227,799;   -1,357;    0,773
723,452;26829,300;   -2,630;    2,864
724,023;27039,348;   -0,721;    2,682
724,595;26784,213;    0,007;    0,682
725,166;26516,896;    0,007;   -0,409
725,737;26191,216;    1,734;    0,227
726,308;26295,173;   -0,266;    0,318
726,879;26704,493;   -1,630;    1,227
727,450;26570,812;    0,552;   -0,045
728,021;26512,223;    3,097;    0,682
728,592;26323,634;    0,734;    0,500
729,163;26678,136;    0,643;   -0,136
729,734;26689,092;    0,188;   -0,227
730,305;27017,867;    1,734;    0,136
730,876;27321,550;    0,188;    2,955
731,447;27013,234;    2,188;    2,682
732,017;27147,008;    1,097;    1,864
732,588;26671,873;    0,734;    1,227
733,159;26803,830;    0,643;   -1,045
733,729;26619,513;    0,006;    0,409
734,300;25944,651;    0,915;    0,864
734,870;26373,153;    3,461;    0,591
735,441;26913,200;    0,370;   -0,591
736,011;26693,247;    0,643;   -1,591
736,582;26639,658;   -0,812;    0,045
737,152;26146,524;   -1,721;   -2,045
737,722;26552,207;   -0,267;   -0,682
738,293;26257,891;   -1,358;    1,318
738,863;26152,120;    2,461;    2,318
739,433;25967,985;    5,279;    0,318
740,003;26589,669;   -0,994;   -0,682
740,573;26014,261;    2,097;   -1,591
741,143;25979,218;   -1,085;    0,318
741,713;26774,719;    1,188;   -0,500
742,283;26422,403;    0,915;    1,591
742,853;26245,177;    1,915;    1,591
743,423;25699,679;    1,733;    0,045
743,993;25821,726;   -0,358;    1,500
744,563;25206,046;    0,097;   -0,864
745,133;25172,366;   -0,812;   -0,864
745,702;25878,595;   -0,267;    1,773
746,272;25096,369;   -0,176;    0,591
746,842;24840,508;   -1,358;   -0,591
747,411;25290,918;   -0,267;   -0,318
747,981;25463,329;    0,097;    0,500
748,551;25509,649;    2,278;   -1,045
749,120;25362,878;    0,642;   -0,227
749,690;25761,107;   -0,631;    2,409
750,259;26082,972;    1,369;    2,955
750,828;26011,474;    1,551;   -1,955
751,398;26249,703;    1,278;   -0,045
751,967;25703,750;    2,187;    0,409
752,536;25943,707;   -0,813;   -0,227
753,105;26385,117;    0,096;    0,227
753,675;26172,256;    0,096;    1,773
754,244;26133,666;   -0,904;    3,591
754,813;26221,077;    0,551;    1,227
755,382;25764,215;    0,460;    0,955
755,951;26320,990;    1,551;    3,682
756,520;25890,764;   -0,085;    1,864
757,089;26345,084;    0,278;    0,500
757,658;26472,768;    1,733;    1,227
758,227;26485,178;    1,096;    0,318
758,795;26768,862;    1,187;    1,136
759,364;27045,546;   -0,086;   -0,591
759,933;26038,593;   -1,176;   -0,045
760,501;25608,822;    0,733;   -1,318
761,070;26055,142;   -2,813;   -1,409
761,639;26770,825;   -1,904;    1,318
762,207;26106,600;    1,551;   -0,955
762,776;26025,556;    0,369;    0,864
763,344;25967,239;   -0,995;    0,591
763,913;25127,014;   -0,722;    1,409
764,481;25849,970;    1,005;   -0,136
765,049;25638,108;   -1,358;    1,409
765,618;25507,519;   -0,086;    0,318
766,186;25637,294;    0,278;    0,136
766,754;25793,250;    0,005;    1,864
767,322;24843,024;   -1,995;    0,409
767,890;24875,708;   -0,722;   -1,773
768,459;25290,210;   -2,177;   -0,318
769,027;25413,075;    1,641;    3,409
769,595;24371,486;    3,278;    2,591
770,163;24777,715;    3,823;    2,955
770,730;24543,853;    0,732;   -0,136
771,298;24431,082;    0,187;   -1,409
771,866;24547,674;   -1,541;    4,955
772,434;24843,722;   -0,631;   -1,864
773,002;25042,314;    0,005;    0,682
773,569;24736,089;    0,914;    1,682
774,137;24522,772;   -0,268;   -0,045
774,705;25294,819;    0,278;   -0,136
775,272;24819,503;    0,641;    0,682
775,840;24589,823;   -0,177;    2,682
776,407;24103,325;    0,277;    1,955
776,975;23748,099;   -0,632;    0,318
777,542;24804,783;   -1,086;   -0,045
778,110;24610,375;   -1,268;   -0,045
778,677;24288,695;   -2,359;   -0,864
779,244;24001,742;    2,186;    1,045
779,812;24102,062;    1,823;    0,864
780,379;24017,382;    0,005;    1,136
780,946;24211,520;    1,005;   -0,773
781,513;24577,295;   -1,450;    0,318
782,080;23955,978;   -0,086;    2,864
782,647;24651,571;   -0,268;    3,045
783,214;24227,709;   -0,177;    3,864
783,781;23871,302;   -0,723;   -0,682
784,348;23771,349;   -0,632;    1,500
784,915;24203,760;   -3,177;    0,318
785,482;23975,989;    1,368;    2,591
786,049;24402,490;    0,186;   -0,591
786,615;24517,083;    0,277;   -0,955
787,182;24268,039;    0,186;   -0,682
787,749;23980,450;   -2,814;    1,409
788,315;23288,588;   -1,632;   -0,409
788,882;23595,454;    1,550;   -1,227
789,448;24236,319;    1,732;   -0,955
790,015;24270,912;    1,095;    3,227
790,581;23801,504;    1,459;    0,227
791,148;23739,097;    0,641;    1,045
791,714;23985,780;   -0,541;    3,136
792,280;23668,100;    0,186;    1,591
792,847;23291,057;    0,550;    2,500
793,413;23849,831;   -0,269;   -0,318
793,979;23329,969;    3,459;   -1,318
794,545;23402,562;    4,459;    2,682
795,111;22800,609;    2,186;    1,318
795,678;22967,020;    0,731;   -1,682
796,244;22612,067;    3,368;    0,136
796,810;23213,932;    1,731;    0,773
797,375;22938,707;    0,549;   -2,136
797,941;22968,299;   -0,541;    0,591
798,507;23115,801;   -0,451;   -0,955
799,073;22701,303;   -0,360;    0,591
799,639;22751,168;   -2,632;    3,136
800,205;22771,579;    0,095;    2,682
800,770;22338,626;    0,640;    1,773
801,336;22435,401;    1,368;   -0,955
801,901;22109,448;    4,549;    3,136
802,467;22658,859;   -0,542;    2,045
803,033;22025,906;   -0,087;    0,864
803,598;22295,862;    1,913;   -1,045
804,163;22297,637;    1,095;   -0,318
804,729;22231,138;   -0,178;    1,136
805,294;22614,731;    0,822;    2,227
805,859;22426,324;    0,731;   -0,409
806,425;21868,825;    1,186;    2,682
806,990;21544,327;    2,186;    4,318
807,555;22070,829;   -1,451;    2,591
808,120;21896,240;    0,822;   -0,409
808,685;21977,469;    0,185;   -2,500
809,250;21501,879;    0,004;   -0,500
809,815;21840,199;    1,913;    0,682
810,380;22359,428;   -0,269;    1,591
810,945;22887,839;   -1,087;    2,045
811,510;22029,341;    2,094;    1,591
812,075;21750,297;   -0,633;   -1,409
812,640;21782,981;    2,003;    1,409
813,204;21821,573;    0,822;   -0,227
813,769;22325,530;    2,094;   -0,045
814,334;21786,849;    0,458;    0,864
814,898;21830,806;    0,367;    0,591
815,463;21651,307;    1,276;   -0,773
816,027;21630,355;   -0,724;   -2,318
816,592;21767,947;    0,640;   -2,045
817,156;21208,813;    2,094;    1,136
817,721;21062,496;    4,276;    2,318
818,285;21044,725;    2,912;    1,500
818,849;21701,318;   -1,451;    1,682
819,414;21610,092;   -0,269;    2,955
819,978;21202,230;   -1,269;    1,773
820,542;21785,459;    2,003;    0,500
821,106;21528,052;   -0,815;    0,682
821,670;21583,917;   -0,815;    2,591
822,234;21359,419;   -0,270;    1,409
822,798;20754,012;    0,003;    0,500
823,362;20662,968;   -0,633;    4,227
823,926;19995,379;    0,094;    1,136
824,490;20235,699;   -0,997;   -0,682
825,054;20667,473;   -0,088;   -1,136
825,618;20262,248;   -1,542;   -1,500
826,181;20237,295;    0,458;   -1,318
826,745;20138,433;    1,367;   -1,045
827,309;20470,389;    1,185;    1,318
827,872;19883,527;    1,367;    0,955
828,436;20827,393;    1,185;   -0,773
828,999;20898,349;   -0,997;    1,227
829,563;19732,669;   -0,179;    1,136
830,126;19560,170;   -0,179;   -0,591
830,690;19550,036;   -1,997;    2,864
831,253;19112,447;   -0,543;    2,227
831,816;19222,221;   -1,906;    0,500
832,380;19183,086;    0,185;    0,864
832,943;19372,225;   -1,361;   -0,500
833,506;18842,454;    2,639;   -1,227
834,069;19640,046;    3,912;   -0,955
834,632;19712,457;    1,730;    1,318
835,195;19619,322;    1,003;    0,955
835,758;18842,733;   -0,997;    1,955
836,321;18706,508;    0,730;   -1,045
836,884;18770,100;   -0,725;   -0,955
837,447;18819,784;   -2,816;    1,773
838,010;19058,558;    0,366;    3,227
838,573;19331,787;   -1,179;    0,773
839,135;19335,653;   -1,361;   -0,955
839,698;18755,609;    1,275;    0,409
840,261;18290,020;    1,003;   -0,227
840,823;18192,976;   -0,543;    0,864
841,386;18515,387;   -0,452;   -2,409
841,948;18314,525;   -1,361;    1,773
842,511;18080,208;    0,912;    1,682
843,073;18218,983;    1,912;    0,227
843,636;18051,121;   -0,361;   -0,227
844,198;17948,623;    0,911;    0,591
844,760;18040,488;    1,093;    1,955
845,322;17784,444;    0,548;    1,136
845,885;18149,946;    0,730;    0,591
846,447;18584,266;   -1,998;    0,227
847,009;18150,950;    1,911;   -0,682
847,571;18464,724;    0,820;   -2,045
848,133;18577,226;   -1,089;   -1,864
848,695;18469,182;   -0,543;    1,409
849,257;17998,502;   -1,089;   -1,682
849,819;18144,276;   -0,998;   -0,409
850,381;18204,778;   -0,725;   -0,864
850,942;18569,825;    1,093;   -0,591
851,504;18450,509;    1,184;    0,227
852,066;18496,011;    1,275;   -1,591
852,628;18073,330;   -0,180;    1,955
853,189;17632,378;    1,638;    2,682
853,751;17750,425;   -0,907;    1,409
854,312;17593,472;   -0,453;   -1,682
854,874;18068,156;   -2,089;   -0,773
855,435;18563,566;   -0,907;   -1,682
855,997;18716,523;   -1,816;   -0,136
856,558;18037,388;    0,366;    1,773
857,119;18153,072;    0,820;    2,864
857,681;17856,573;    0,002;    0,318
858,242;17872,802;    1,911;   -2,136
858,803;18324,486;    0,456;   -0,773
859,364;18930,806;    0,184;   -4,773
859,925;18210,944;   -2,453;   -0,955
860,486;18120,173;   -0,453;   -0,955
861,047;17829,311;   -0,544;   -1,227
861,608;17667,631;   -1,089;   -0,773
862,169;17791,951;    0,638;   -0,045
862,730;17565,089;    0,456;    1,409
863,291;17798,409;   -0,635;   -0,500
863,852;18160,910;   -0,635;    1,955
864,412;17638,867;   -0,271;   -0,864
864,973;16220,914;   -0,089;    0,500
865,534;16077,052;   -1,726;    0,227
866,094;17560,917;    1,820;    0,227
866,655;17279,783;    1,274;    3,318
867,215;17558,375;    0,274;    0,136
867,776;17431,513;    0,547;   -0,136
868,336;17501,106;   -1,453;    0,136
868,897;16943,971;    2,638;    1,682
869,457;16664,382;    1,365;    0,318
870,017;16926,248;    0,547;   -1,227
870,578;17441,386;   -0,817;    0,773
871,138;17146,251;   -2,089;   -0,955
871,698;16674,753;   -0,817;   -1,318
872,258;16582,800;   -0,453;   -2,864
872,818;16931,756;    2,729;    0,045
873,378;16885,440;    0,638;    1,045
873,938;16428,214;    0,547;    0,500
874,498;16747,534;    0,274;   -1,955
875,058;16634,309;    2,183;    1,773
875,618;16504,083;    1,910;   -2,682
876,177;16455,858;    1,274;    0,136
876,737;16054,450;   -0,090;    1,955
877,297;16075,679;    0,183;    1,955
877,856;16034,545;   -0,362;    0,318
878,416;16043,864;    1,183;   -0,136
878,976;16245,730;   -1,817;    0,409
879,535;16427,686;    0,092;    3,136
880,095;16167,642;   -0,544;    0,045
880,654;16281,871;   -1,090;    1,318
881,213;16363,100;    2,456;    1,500
881,773;15995,784;    2,637;    2,682
882,332;16331,195;    3,365;    5,136
882,891;16190,606;    3,092;    2,136
883,451;16635,653;   -1,272;    1,682
884,010;16144,336;   -2,908;   -0,409
884,569;16203,383;   -0,999;   -0,045
885,128;16329,431;    2,819;   -1,864
885,687;16412,660;    4,455;    0,682
886,246;16094,343;    1,455;    2,136
886,805;15887,663;    2,455;    2,045
887,364;16181,710;   -0,999;   -0,500
887,922;16557,939;   -1,181;    0,045
888,481;16015,077;   -1,545;    0,591
889,040;16345,943;    1,183;    2,136
889,599;17029,081;    2,455;    1,409
890,157;17106,764;    1,455;    2,409
890,716;16747,630;   -0,090;    0,227
891,274;16580,041;    0,092;   -1,136
891,833;17015,179;    1,546;    0,864
892,391;16862,226;   -0,454;    0,500
892,950;16960,000;    1,819;   -0,773
893,508;17311,229;    0,455;   -0,409
894,067;16673,731;    0,637;    0,136
894,625;16564,596;   -0,636;   -1,500
895,183;16812,007;   -0,363;   -0,682
895,741;16657,054;    1,728;   -1,773
896,299;16496,829;   -0,545;   -2,409
896,858;16677,785;    0,819;   -1,591
897,416;16849,923;    2,728;   -1,318
897,974;16652,789;    1,819;    0,318
898,532;16717,472;    6,091;    2,682
899,089;16648,883;    2,091;   -0,682
899,647;16698,748;   -1,454;    1,318
900,205;16383,795;    1,182;    1,045
900,763;16605,752;   -0,454;    0,227
901,321;16655,072;    2,364;   -1,409
901,878;16067,482;   -1,000;   -0,773
902,436;15923,166;   -1,363;    1,318
902,994;16301,031;    4,728;    3,682
903,551;15748,533;    0,728;    0,409
904,109;16165,126;    0,182;   -1,409
904,666;15797,173;    2,455;    1,045
905,224;15627,038;    0,182;   -0,409
905,781;15347,085;    0,727;   -0,318
906,338;15408,587;   -1,363;    1,045
906,895;15333,453;    0,637;    2,045
907,453;15249,863;    1,727;    1,136
908,010;15306,638;   -0,909;    0,409
908,567;14979,685;    1,273;    0,591
909,124;14501,550;    0,364;   -1,500
909,681;14567,052;   -2,909;    0,682
910,238;14734,099;    0,636;   -1,318
910,795;15059,965;   -0,273;   -1,136
911,352;14689,419;   -2,909;   -2,682
911,909;14105,965;   -1,364;   -0,864
912,466;14573,146;   -3,182;    1,500
913,022;14143,237;   -1,636;    0,500
913,579;14515,419;   -0,909;    2,045
914,136;14231,328;    1,636;    0,955
914,692;14511,328;    0,091;   -1,227
915,249;14120,874;    1,455;    0,409
915,806;14333,874;    0,182;    1,955
916,362;14117,419;    1,909;    1,864
916,918;13664,692;    2,000;    1,045
917,475;13610,692;   -1,182;    0,955
918,031;13699,783;    3,364;   -0,045
918,587;13159,692;   -0,909;   -0,318
919,144;13422,692;   -2,273;    0,227
919,700;13733,965;    1,727;    0,773
920,256;13305,965;    0,727;    0,045
920,812;12932,783;   -0,727;   -1,045
921,368;12912,419;   -1,727;   -1,045
921,924;12580,965;    0,182;   -0,136
922,480;12206,874;   -0,545;    1,227
923,036;12769,965;    1,273;    1,955
923,592;12732,237;    0,455;    0,318
924,148;12619,056;    0,455;   -0,955
924,704;11905,056;   -1,364;   -0,409
925,259;12202,146;   -0,273;    0,591
925,815;11975,601;    1,455;    0,500
926,371;11530,146;    2,909;    1,409
926,926;11415,328;    2,091;    0,591
927,482;11063,237;   -1,364;    0,773
928,037;10918,419;    0,909;    2,045
928,593;11187,056;    1,636;    1,045
929,148;11029,328;   -1,818;   -1,500
929,704;10536,601;   -1,455;   -0,500
930,259;10751,237;    0,091;   -0,136
930,814; 9868,874;   -0,818;    1,955
931,369; 9549,874;    1,091;   -0,773
931,925; 9457,510;   -0,091;    0,136
932,480; 9320,783;   -2,818;   -2,591
933,035; 9196,056;    0,545;   -0,318
933,590; 9014,510;    0,364;   -1,773
934,145; 8666,601;   -1,364;   -0,318
934,700; 9009,510;    0,455;   -0,591
935,255; 8836,056;   -0,091;    0,045
935,809; 8102,601;    3,182;    0,864
936,364; 7246,692;   -0,455;   -0,136
936,919; 7220,510;    0,455;   -1,773
937,474; 7118,783;    1,455;    0,136
938,028; 6895,056;   -1,636;    1,136
938,583; 6373,146;    1,818;    4,682
939,138; 6654,419;    2,091;    2,136
939,692; 6112,510;    1,636;   -1,136
940,247; 5812,601;   -0,727;   -1,045
940,801; 5370,328;   -0,636;    0,227
941,355; 5279,419;   -0,364;    2,591
941,910; 4923,601;   -0,273;   -2,136
942,464; 5029,237;   -0,818;   -0,318
943,018; 4835,783;    1,000;   -0,227
943,572; 4786,601;    2,545;   -0,682
944,126; 4219,692;    0,091;   -0,409
944,681; 4091,692;    3,091;    0,227
945,235; 4102,965;    1,000;   -0,591
945,789; 4042,237;    0,364;   -1,864
946,342; 4151,874;    0,455;   -0,591
946,896; 3948,237;   -2,273;    0,955
947,450; 3707,146;    1,545;   -0,227
948,004; 3891,328;    1,727;   -0,045
948,558; 3912,692;    0,273;   -0,864
949,111; 3831,874;   -0,273;   -0,318
949,665; 3853,965;    1,636;   -0,682
950,219; 3736,874;   -0,091;   -1,045
950,772; 3804,146;   -1,909;    1,864
951,326; 3712,419;    0,545;   -0,955
951,879; 3802,146;    0,727;   -2,318
952,433; 3844,510;    0,000;    2,227
952,986; 3672,237;    2,909;    0,682
953,539; 3636,237;   -0,273;    0,591
954,093; 3563,056;    0,545;   -1,318
954,646; 3696,328;    0,909;    1,318
955,199; 3508,692;    0,000;   -0,500
955,752; 3394,601;   -0,455;    1,773
956,305; 3359,783;   -0,091;    2,955
956,858; 3514,965;    0,818;   -0,318
957,411; 3682,237;   -0,545;    2,136
957,964; 3521,692;    1,364;    2,136
958,517; 3505,419;   -1,545;    3,136
959,070; 3350,601;   -0,455;    1,955
959,623; 3424,510;    1,091;    1,500
960,176; 3209,328;    1,727;    2,045
960,728; 3172,328;   -2,727;    0,773
961,281; 3232,783;    0,545;    0,500
961,834; 3278,056;   -0,909;    0,864
962,386; 3201,419;    1,727;    1,045
962,939; 3136,601;    0,364;   -0,318
963,491; 3263,965;    0,455;    1,136
964,043; 3153,510;    1,182;    2,409
964,596; 3272,965;   -1,000;    2,227
965,148; 3112,783;   -1,000;    1,773
965,700; 3036,601;    1,091;   -0,227
966,253; 3168,692;   -0,636;    0,318
966,805; 3021,056;   -2,273;    0,773
967,357; 3077,237;    1,091;   -1,500
967,909; 3021,237;    0,455;   -1,227
968,461; 3127,783;    0,545;    3,136
969,013; 3075,419;   -0,182;   -0,864
969,565; 3141,601;   -0,455;   -1,136
970,117; 3203,965;   -0,364;    1,045
970,669; 3049,965;    0,182;   -0,136
971,220; 2919,601;   -0,455;   -1,500
971,772; 2842,874;   -0,636;   -0,318
972,324; 2963,510;    0,091;   -0,500
972,876; 2916,601;    0,818;   -0,045
973,427; 3041,419;    1,909;   -1,045
973,979; 3007,328;   -0,727;   -2,500
974,530; 3057,965;    1,818;    1,318
975,082; 3039,601;   -0,545;    1,682
975,633; 2953,510;    1,091;    1,682
976,184; 3095,510;    0,909;    0,773
976,736; 2889,146;    0,091;    0,227
977,287; 2700,146;   -0,909;   -0,500
977,838; 2863,510;    0,909;   -0,318
978,389; 2922,237;   -1,000;   -0,500
978,940; 2803,510;    0,545;   -0,409
979,491; 2815,965;    0,091;   -0,500
980,042; 2800,419;    0,182;    3,045
980,593; 2845,510;   -2,545;    0,227
981,144; 2903,328;    2,545;   -0,500
981,695; 2861,056;    1,455;    1,500
982,246; 2837,419;   -0,273;    1,045
982,797; 2997,601;   -1,727;    0,682
983,347; 3085,328;    0,364;    0,591
983,898; 3228,874;    3,091;    0,409
984,449; 3053,056;    2,182;    0,773
984,999; 2964,965;    1,455;   -1,136
985,550; 2763,328;    0,182;   -0,318
986,100; 2811,237;   -0,455;   -0,318
986,651; 2837,056;   -0,818;    0,045
987,201; 2827,965;   -1,000;   -0,591
987,751; 2886,692;    0,818;    2,864
988,302; 2879,146;    2,636;    1,500
988,852; 2913,056;    0,455;   -1,136
989,402; 2940,146;    0,091;    0,682
989,952; 2856,692;   -2,182;    0,864
990,502; 2973,783;   -0,091;    0,682
991,052; 2942,419;   -0,727;    0,045
991,602; 2808,601;   -2,909;    1,318
992,152; 2801,056;    0,455;    0,682
992,702; 2774,328;    1,364;   -0,045
993,252; 2698,601;   -3,000;   -0,500
993,802; 2790,056;   -0,273;    1,318
994,352; 3007,510;   -1,545;    1,136
994,901; 3115,874;   -0,182;    3,227
995,451; 3024,146;   -0,182;    0,318
996,000; 3110,510;    1,636;    0,318
996,550; 2843,328;    2,273;    0,227
997,100; 2838,146;    1,273;   -0,045
997,649; 3116,874;    2,182;    0,955
998,198; 2765,419;    1,727;   -1,500
998,748; 2951,692;    1,091;   -2,318
999,297; 2858,874;   -0,818;   -0,409
999,846; 2919,783;    1,000;   -0,773
1000,395; 2958,056;   -0,818;    0,500
1000,945; 2927,965;    1,818;   -0,773
1001,494; 3017,237;    2,364;    0,682
1002,043; 3007,601;    4,636;    0,864
1002,592; 2837,419;   -1,091;    1,955
1003,141; 2976,510;   -0,455;   -0,682
1003,690; 2845,692;    1,727;    0,500
1004,238; 2920,510;    1,455;   -0,045
1004,787; 2570,146;    1,364;    1,227
1005,336; 2815,874;    0,364;    0,682
1005,885; 2938,510;    1,364;   -2,773
1006,433; 3067,783;    0,545;    0,955
1006,982; 3120,056;    0,455;    1,682
1007,531; 3041,965;   -1,818;   -0,227
1008,079; 3010,056;   -2,273;    0,500
1008,627; 3132,510;   -1,455;    0,409
1009,176; 2885,056;    0,000;   -1,955
1009,724; 2935,965;    1,091;    0,864
1010,273; 2984,328;    1,273;    0,500
1010,821; 3090,237;    0,091;    1,409
1011,369; 2839,419;   -1,364;    1,318
1011,917; 2808,146;   -1,364;   -0,591
1012,465; 3099,056;    1,273;   -1,591
1013,013; 3203,965;    2,091;   -1,682
1013,561; 3088,328;    0,455;   -0,773
1014,109; 3131,692;   -1,909;    1,682
1014,657; 3007,510;    0,364;    0,591
1015,205; 3140,783;    1,636;   -0,955
1015,753; 3175,692;   -0,545;   -1,409
1016,301; 3196,510;   -2,636;    3,045
1016,848; 3201,692;   -1,273;    0,409
1017,396; 3242,146;    2,545;    0,045
1017,944; 3359,965;    1,182;    1,864
1018,491; 3108,146;    0,273;    1,409
1019,039; 3275,783;    0,455;    0,591
1019,586; 3207,510;   -1,364;    1,682
1020,134; 3303,965;    0,455;    1,500
1020,681; 3326,419;    0,182;   -1,136
1021,228; 3332,692;    2,909;   -2,227
1021,776; 3175,783;    1,182;   -1,136
1022,323; 3400,056;    0,455;    0,773
1022,870; 3323,146;   -1,000;   -0,045
1023,417; 3207,874;    2,636;    1,864
1023,964; 3347,874;    2,636;    1,227
1024,511; 3200,510;    1,000;    0,773
1025,058; 3006,237;    3,182;   -0,045
1025,605; 3049,510;   -2,273;    3,136
1026,152; 3274,419;    1,727;   -0,591
1026,699; 2999,146;    1,818;    1,318
1027,245; 3150,328;   -0,091;    0,318
1027,792; 3374,783;   -1,000;    1,409
1028,339; 3264,510;    2,364;   -0,045
1028,885; 3110,510;    1,000;   -0,227
1029,432; 3040,692;   -0,091;    0,227
1029,978; 3114,783;   -1,000;   -1,591
1030,525; 3023,237;    1,000;    0,409
1031,071; 3264,237;   -1,364;    1,136
1031,618; 3357,510;    0,364;    1,682
1032,164; 3154,510;   -0,091;    3,045
1032,710; 3190,237;    1,636;   -1,500
1033,256; 3128,510;   -0,636;   -0,136
1033,803; 3118,328;   -0,545;    1,500
1034,349; 2853,056;   -1,364;    0,136
1034,895; 3000,692;    0,000;   -0,318
1035,441; 2960,146;   -0,818;    0,318
1035,987; 2963,692;   -2,364;   -0,682
1036,533; 2963,965;   -1,455;   -0,955
1037,078; 3151,783;    1,455;    1,682
1037,624; 2992,328;    2,455;   -0,955
1038,170; 3026,419;    0,455;   -0,318
1038,716; 2928,328;    1,636;   -0,409
1039,261; 2844,965;   -2,273;   -0,773
1039,807; 2786,874;   -0,091;    3,409
1040,352; 2839,419;   -1,909;   -0,318
1040,898; 2878,874;   -1,545;   -0,682
1041,443; 2805,783;   -1,455;   -2,591
1041,989; 2820,783;    1,091;    1,591
1042,534; 2711,146;   -0,364;    2,591
1043,079; 2832,783;    2,909;    0,955
1043,625; 2604,692;    1,818;    0,500
1044,170; 2663,419;   -1,364;    1,045
1044,715; 2900,601;    2,455;    0,955
1045,260; 2718,237;    2,182;   -0,955
1045,805; 2790,419;    1,182;   -0,591
1046,350; 2724,874;    1,364;   -0,409
1046,895; 2661,601;    2,909;    1,591
1047,440; 2632,237;    5,364;    0,409
1047,985; 2526,146;    2,818;   -0,955
1048,530; 2439,146;    1,545;    1,227
1049,074; 2513,783;    0,000;    0,318
1049,619; 2489,510;   -1,364;    1,955
1050,164; 2285,419;    0,455;    0,227
1050,708; 2343,601;   -0,455;    0,045
1051,253; 2703,965;    1,273;   -2,227
1051,797; 2412,056;    0,818;   -1,318
1052,342; 2423,510;   -1,182;    1,045
1052,886; 2423,146;    0,364;   -1,409
1053,430; 2303,328;   -1,364;    0,136
1053,975; 2321,056;   -0,818;   -0,318
1054,519; 2292,237;   -0,727;    3,227
1055,063; 2302,419;    0,909;    1,318
1055,607; 2196,056;   -0,182;    0,227
1056,151; 2225,056;    2,909;    1,682
1056,695; 2146,510;    2,273;   -1,136
1057,239; 2208,510;   -1,727;   -0,682
1057,783; 2229,328;    0,818;   -1,500
1058,327; 2170,965;    0,000;    1,409
1058,871; 2389,692;   -0,545;    1,318
1059,415; 2103,874;   -0,818;   -0,045
1059,958; 2353,601;    1,455;    2,591
1060,502; 2089,056;   -1,000;   -0,773
1061,046; 1992,510;    0,364;   -0,955
1061,589; 1970,419;   -3,000;   -1,136
1062,133; 1862,328;   -1,273;    1,864
1062,676; 1801,965;    1,182;    0,864
1063,220; 1806,601;    1,091;    0,500
1063,763; 1830,056;    0,909;    1,136
1064,306; 1894,783;   -0,909;    1,864
1064,849; 1789,146;   -0,909;    0,591
1065,393; 1791,056;    2,000;   -1,500
1065,936; 1895,965;    0,182;   -0,409
1066,479; 1788,965;   -1,455;    1,318
1067,022; 1804,874;   -0,273;   -0,227
1067,565; 1697,056;   -0,091;   -1,318
1068,108; 1740,965;    0,727;   -0,591
1068,651; 1714,601;   -0,636;    1,409
1069,194; 1652,874;   -0,455;   -1,682
1069,736; 1639,965;   -1,273;    0,955
1070,279; 1599,237;   -1,364;   -0,500
1070,822; 1662,419;   -2,000;   -0,318
1071,364; 1747,237;   -0,364;    1,318
1071,907; 1580,692;   -0,727;    3,227
1072,450; 1498,328;    0,000;   -0,045
1072,992; 1471,601;   -0,273;    3,136
1073,535; 1624,419;    2,091;    2,136
1074,077; 1422,056;   -0,727;    2,045
1074,619; 1390,601;   -1,364;    0,591
1075,161; 1417,601;   -1,091;    1,500
1075,704; 1582,783;    1,545;    1,227
1076,246; 1382,056;   -0,182;    0,682
1076,788; 1322,237;   -0,364;    1,773
1077,330; 1386,146;    1,273;    2,136
1077,872; 1346,601;    0,909;    0,955
1078,414; 1577,874;    2,727;    0,773
1078,956; 1319,965;    1,273;   -0,227
1079,498; 1574,419;    1,636;    0,318
1080,040; 1278,146;    1,909;   -1,318
1080,581; 1224,237;    1,636;   -0,318
1081,123; 1151,328;    0,091;   -0,773
1081,665; 1188,874;   -1,182;   -0,955
1082,206; 1490,692;    1,364;   -0,500
1082,748; 1354,965;    0,727;    2,045
1083,289; 1233,328;   -2,000;    1,318
1083,831; 1139,692;   -0,545;    0,227
1084,372; 1174,783;    0,000;    0,591
1084,913; 1181,146;    1,091;    0,864
1085,455; 1155,146;   -1,909;   -2,045
1085,996; 1120,965;   -2,273;    0,136
1086,537; 1126,328;   -0,091;    0,864
1087,078; 1161,419;   -0,909;   -2,136
1087,619; 1197,692;   -1,273;    0,227
1088,160; 1117,601;    0,000;    1,318
1088,701; 1108,692;   -1,091;    0,682
1089,242; 1058,601;    1,364;   -2,227
1089,783; 1152,237;   -0,273;    1,409
1090,324; 1117,328;    0,455;    0,682
1090,865;  996,601;    2,727;   -0,409
1091,405;  969,419;    0,727;    2,227
1091,946;  997,146;    0,182;   -0,955
1092,487;  931,146;    0,818;   -1,409
1093,027; 1094,237;   -1,364;   -1,500
1093,568;  948,146;   -0,364;    1,227
1094,108; 1031,874;    0,273;    1,773
1094,649;  974,328;   -1,182;    0,136
1095,189;  911,510;   -0,636;   -0,682
1095,729;  864,237;   -0,091;    0,955
1096,269;  858,510;    0,727;   -0,955
1096,810; 1178,965;   -1,364;    0,500
1097,350; 1001,965;    1,364;   -0,773
1097,890;  907,237;    0,364;    1,227
1098,430; 1157,328;    2,364;    2,864
1098,970; 1036,146;    2,182;    1,682
1099,510;  893,510;    0,545;   -2,318
1100,050;  832,601;    1,000;   -1,591
1100,589;  784,056;   -0,727;   -0,318
1101,129;  917,965;    0,818;   -0,955
1101,669; 1070,510;    1,727;    2,136
1102,209;  879,146;   -0,091;    2,227
1102,748;  838,237;    0,000;    0,955
1103,288;  834,965;    1,273;   -1,227
1103,827;  853,783;    3,091;   -2,227
1104,367;  738,874;   -0,091;   -2,409
1104,906;  705,601;    1,364;   -1,136
1105,445;  769,965;    0,636;   -1,136
1105,985;  714,965;   -0,727;    1,500
1106,524;  759,874;   -1,727;   -0,682
1107,063;  743,692;   -2,727;    1,409
1107,602;  715,783;   -1,909;   -1,500
1108,141;  639,874;   -1,909;    1,500
1108,680;  746,692;   -3,455;   -0,591
1109,219;  680,965;   -0,909;   -0,500
1109,758;  681,146;    0,455;    0,682
1110,297;  650,601;    1,000;   -0,682
1110,836;  595,692;   -0,727;    0,955
1111,375;  750,783;   -2,545;    0,409
1111,913;  768,056;   -1,000;    0,773
1112,452;  705,419;   -0,273;    0,136
1112,991;  598,965;    1,091;    1,955
1113,529;  558,056;   -0,818;   -0,045
1114,068;  624,510;   -0,273;    2,955
1114,606;  527,237;   -0,364;   -0,955
1115,144;  683,783;   -1,273;    1,045
1115,683;  623,419;   -0,727;    0,318
1116,221;  678,510;   -0,455;   -0,864
1116,759;  578,692;    0,636;   -0,864
1117,297;  771,692;    0,000;    1,864
1117,836;  587,328;   -2,182;   -1,227
1118,374;  584,692;    0,182;   -0,682
1118,912;  531,328;    0,909;    2,682
1119,450;  514,874;    1,000;    0,864
1119,988;  567,601;    1,545;    2,136
1120,525; 1016,965;    5,091;    3,318
1121,063;  728,965;    1,182;    1,864
1121,601;  530,510;   -0,909;   -1,227
1122,139;  486,146;   -0,727;   -2,045
1122,676;  674,965;   -0,727;    2,773
1123,214;  609,419;   -1,182;    4,409
1123,751;  428,146;    1,727;    2,227
1124,289;  557,874;   -0,091;   -0,409
1124,826;  423,874;    1,727;    0,227
1125,364;  359,056;    1,727;   -0,955
1125,901;  540,965;    1,182;    1,227
1126,438;  651,146;    0,818;    0,955
1126,975;  389,146;   -0,727;   -0,773
1127,513;  452,056;    0,273;    2,136
1128,050;  356,965;    1,636;   -0,682
1128,587;  444,419;    2,000;   -0,227
1129,124;  492,146;    0,091;    1,318
1129,661;  366,874;    0,273;    0,227
1130,198;  520,237;    1,636;    0,773
1130,734;  469,328;    0,182;    1,409
1131,271;  337,419;   -0,909;    0,864
1131,808;  498,874;    2,909;    3,045
1132,345;  371,419;    1,545;    0,318
1132,881;  243,965;   -1,545;   -1,864
1133,418;  391,874;    0,727;   -1,136
1133,954;  318,874;    2,455;   -2,682
1134,491;  400,783;    1,364;   -0,773
1135,027;  300,601;    2,364;    0,864
1135,564;  392,237;    0,273;    2,955
1136,100;  365,146;    0,364;    2,136
1136,636;  261,237;   -1,273;   -1,045
1137,172;  347,328;    0,000;   -1,045
1137,708;  286,874;   -1,364;   -1,045
1138,245;  295,419;    1,273;   -1,227
1138,781;  238,510;    1,091;   -3,318
1139,317;  305,874;    1,273;   -1,409
1139,852;  292,237;    3,091;    0,136
1140,388;  412,328;   -1,182;   -0,409
1140,924;  296,328;   -1,091;   -2,227
1141,460;  227,328;   -1,636;    0,136
1141,996;  166,965;   -1,364;    2,682
1142,531;  212,601;    1,364;    3,318
1143,067;  421,328;    1,182;    1,045
1143,602;  479,056;   -0,091;   -0,318
1144,138;  322,146;   -2,636;    1,045
1144,673;  195,146;   -1,455;    1,409
1145,209;  259,146;   -1,909;   -0,318
1145,744;  183,328;   -0,727;    0,864
1146,279;  309,783;    1,818;   -0,136
1146,815;  224,783;    1,545;   -2,682
1147,350;  271,237;   -1,364;    0,045
1147,885;  190,146;   -0,818;   -1,318
1148,420;  187,692;   -2,273;    0,773
1148,955;  167,328;   -1,727;    1,864
1149,490;  192,056;   -0,909;   -1,591
1150,025;  173,237;    0,455;   -1,773
1150,560;  286,601;    1,091;   -0,955
1151,094;  251,601;    1,455;   -0,591
1151,629;  254,328;    1,636;    0,864
1152,164;  185,146;    1,364;    1,318
1152,698;  140,510;   -0,182;   -0,136
1153,233;  108,874;    0,091;   -0,682
1153,767;  153,601;   -3,000;   -2,318
1154,302;  192,965;   -1,455;    1,773
1154,836;  192,328;   -0,455;   -2,136
1155,371;  248,965;   -1,364;    3,682
1155,905;  203,783;   -0,636;    1,682
1156,439;  160,056;   -0,636;   -0,500
1156,973;  202,510;    0,364;    0,318
1157,507;  141,056;   -0,364;    0,682
1158,042;  166,146;   -0,727;    1,045
1158,576;  209,510;    0,182;    1,773
1159,110;  210,874;   -0,818;    2,409
1159,643;  178,237;    0,636;   -0,045
1160,177;  114,601;   -1,545;    1,500

