
Integration time [ms]:   0,040
Averaging Nr. [scans]: 11
Smoothing Nr. [pixels]: 0
Data measured with spectrometer [name]: 7318044SP
Wave   ;Sample   ;Dark     ;Reference
[nm]   ;[counts] ;[counts] ;[counts] 

186,757;    9,195;   31,551;    1,318
187,357;   26,942;   22,551;    0,955
187,958;    7,004;   15,460;   -1,591
188,558;   44,376;    8,915;   -1,227
189,159;   14,307;    6,733;   -4,500
189,759;  -13,906;    7,278;   -3,591
190,360;  -14,046;    2,824;   -2,136
190,960;   11,844;    2,915;   -4,136
191,560;    9,288;    3,189;   -6,591
192,161;  206,959;    4,372;   -3,500
192,761;   80,059;    4,010;   -3,227
193,361;   34,354;    1,556;   -3,773
193,962;   70,977;    2,010;   -2,682
194,562;    7,571;    1,189;   -3,955
195,162;   15,261;   -2,448;   -2,227
195,762;  120,771;   -3,176;   -0,045
196,362;   73,503;    1,370;   -2,500
196,963;    0,086;    2,006;   -0,864
197,563;   37,377;    1,551;   -0,955
198,163;    0,695;    0,096;   -0,682
198,763;    3,445;    1,733;   -0,500
199,363;   44,143;    3,096;   -0,500
199,963;   23,702;    0,369;    0,409
200,563;   16,829;    2,823;   -1,409
201,163;    0,685;    3,277;   -0,227
201,763;   23,046;    3,732;    0,318
202,363;   -4,980;    1,459;    1,500
202,963;   25,905;    1,459;    1,045
203,563;   77,749;    0,277;    0,500
204,162;   15,751;    2,096;   -1,864
204,762;    7,860;    0,550;    0,591
205,362;  -10,268;    3,004;    1,955
205,962;   14,775;    3,096;    1,955
206,562;    9,304;    1,823;    2,318
207,161;   -0,711;   -0,087;    0,318
207,761;   64,607;    1,277;    2,409
208,361;    5,297;   -0,268;    1,409
208,960;   25,181;    0,459;    1,500
209,560;   21,498;    1,277;    1,591
210,160;   29,583;    0,550;    1,864
210,759;   14,154;    4,186;    1,227
211,359;    6,413;    1,459;    1,045
211,958;   96,675;    1,277;    2,045
212,558;   91,036;    1,732;    1,864
213,157;   27,314;    1,822;    1,500
213,757;  165,870;    3,822;   -0,227
214,356;   54,803;    1,277;   -0,409
214,956;  142,033;    3,095;    0,409
215,555;   25,236;    2,095;    2,136
216,154;    4,812;   -2,723;   -0,591
216,754;   10,902;    0,277;    0,773
217,353;   23,954;   -0,268;   -1,045
217,952;  -21,422;   -0,178;    0,318
218,552;   38,033;    1,368;   -0,773
219,151;    6,341;    0,277;    0,955
219,750;   -1,771;    0,004;   -0,227
220,349;   -9,541;   -0,451;    1,045
220,948;   48,465;   -1,360;    1,136
221,548;   -0,606;    0,913;    1,227
222,147;   13,604;   -0,087;   -0,409
222,746;   69,373;   -0,451;   -0,955
223,345;   22,103;    0,731;    0,500
223,944;   24,246;   -0,451;    0,773
224,543;   28,422;    1,004;   -1,409
225,142;   16,353;    0,094;    0,136
225,741;   19,037;   -0,814;    1,045
226,340;   14,615;   -0,451;   -0,955
226,939;   64,785;   -0,996;   -0,136
227,538;   12,611;   -0,360;   -0,773
228,137;   64,842;   -0,814;    0,864
228,735;   39,206;   -0,541;    1,227
229,334;  -15,068;   -0,905;   -0,227
229,933;   71,176;    0,459;    0,591
230,532;   61,080;    1,186;   -0,409
231,131;   96,561;    1,732;    0,318
231,729;   43,446;   -2,450;   -2,318
232,328;    4,415;   -0,723;   -1,500
232,927;   16,801;    1,004;   -0,500
233,525;    6,758;    3,640;    0,045
234,124;   22,777;    2,368;   -1,591
234,723;    1,325;    0,913;   -1,045
235,321;   -6,880;    2,277;    0,136
235,920;    3,538;    1,186;   -1,227
236,518;   64,150;    3,459;    0,318
237,117;    2,819;    0,004;   -0,227
237,715;   18,084;    0,640;   -0,500
238,314;   15,899;   -0,087;   -2,318
238,912;   63,111;   -0,723;   -1,409
239,510;   29,473;    0,459;   -1,227
240,109;   79,101;    0,004;    3,773
240,707;   61,527;   -0,996;    1,227
241,305;    1,288;    0,550;    0,136
241,904;   28,197;   -0,178;   -2,045
242,502;   85,107;   -0,632;   -0,227
243,100;   34,174;   -0,087;   -0,955
243,698;    4,075;    0,732;    1,682
244,297;   20,387;   -0,632;    0,682
244,895;   12,210;   -0,269;   -2,318
245,493;   74,729;    2,186;   -0,591
246,091;   88,061;    1,368;   -1,318
246,689;   50,788;    1,004;    0,591
247,287;   40,029;    0,822;   -1,136
247,885;   20,402;   -1,451;    1,227
248,483;    2,544;    1,822;   -0,500
249,081;   40,197;    0,185;    1,591
249,679;   42,408;   -0,178;    1,682
250,277;   -0,420;   -1,723;    0,864
250,875;   42,993;   -1,087;   -1,045
251,473;   10,577;   -1,178;    0,500
252,071;   51,544;    1,459;    1,045
252,669;   17,519;   -1,814;    0,318
253,267;   -3,376;   -0,087;    0,773
253,864;   11,848;   -0,360;    0,682
254,462;   58,128;    1,640;    1,591
255,060;   -0,511;   -0,269;    1,318
255,658;   -1,845;    0,822;   -0,136
256,255;   12,938;    0,186;   -2,045
256,853;   28,402;   -0,269;    1,409
257,451;   10,456;    0,822;    1,864
258,048;  163,454;    1,822;    1,864
258,646;   60,582;    1,731;   -1,045
259,243;   88,492;   -0,087;    2,227
259,841;   47,761;   -0,814;    0,318
260,438;    3,190;   -0,087;    0,864
261,036;   42,418;   -1,905;    1,409
261,633;    2,156;   -0,087;    2,227
262,231;   -4,816;    2,731;   -0,045
262,828;  -11,949;   -0,905;    1,136
263,425;    3,362;    0,913;   -0,591
264,023;    9,034;    0,186;    0,045
264,620;   50,217;   -0,360;   -0,318
265,217;   86,701;   -2,087;    3,136
265,815;    8,469;   -1,905;    2,136
266,412;   36,338;    0,731;    0,136
267,009;   41,182;   -1,451;    0,773
267,606;   68,763;    0,822;   -0,955
268,203;   11,450;   -0,269;   -0,591
268,801;   18,912;    1,731;    0,591
269,398;   -5,385;   -0,360;    2,500
269,995;   39,779;    0,277;    1,591
270,592;   16,872;   -0,632;   -0,500
271,189;   -8,627;    0,186;    0,409
271,786;  -10,698;   -0,632;    1,227
272,383;   41,692;   -1,087;    0,227
272,980;    8,244;    0,277;    0,318
273,577;   -1,952;    0,004;    1,227
274,174;   -8,647;    0,822;    2,591
274,771;   23,791;   -0,814;   -0,773
275,367;  169,775;    2,277;    1,409
275,964;   77,023;    0,731;   -0,500
276,561;   13,974;    1,549;   -1,045
277,158;  -16,228;    0,095;   -1,773
277,755;   69,743;    2,185;    0,409
278,351;   37,763;   -0,451;   -1,500
278,948;   56,257;   -0,815;    0,045
279,545;   31,465;   -1,360;    2,318
280,141;   67,090;   -1,723;   -2,045
280,738;   76,972;   -0,451;   -0,136
281,334;   16,433;   -1,633;    0,591
281,931;    7,599;   -0,087;   -1,318
282,528;   43,718;    0,822;   -0,500
283,124;   64,218;   -1,087;   -0,500
283,721;   66,961;   -0,451;    1,409
284,317;   25,205;    0,185;    2,500
284,913;   74,476;   -1,360;    0,591
285,510;  129,658;    0,640;   -0,318
286,106;   78,531;   -2,269;   -0,955
286,703;   27,407;   -0,360;    1,955
287,299;    7,216;   -1,451;   -0,591
287,895;    7,975;    0,822;   -1,045
288,491;    4,161;    0,186;    2,136
289,088;   34,043;   -2,360;    2,409
289,684;   39,337;   -1,723;    1,500
290,280;   94,362;    0,368;    0,682
290,876;   69,914;    1,822;    5,500
291,472;   49,257;    1,276;    2,227
292,068;   66,714;    1,367;    0,227
292,665;   21,216;    2,095;    0,773
293,261;   -3,354;    0,276;    2,136
293,857;   51,452;    2,913;    2,136
294,453;   24,630;    3,550;    0,955
295,049;   89,576;   -0,268;    1,955
295,644;   45,467;    0,095;    0,136
296,240;   -1,571;   -0,905;   -0,136
296,836;   26,965;   -0,995;    0,318
297,432;   60,534;    1,096;   -0,500
298,028;   60,867;    0,732;    0,773
298,624;   31,149;    1,459;    1,864
299,220;   26,842;    2,368;    0,591
299,815;   17,817;    1,005;   -0,409
300,411;   46,031;    0,914;    1,773
301,007;   60,139;    1,368;    0,227
301,602;    4,845;   -0,541;   -2,318
302,198;   63,225;    0,732;   -0,773
302,794;   23,083;    1,187;   -0,500
303,389;   -4,371;   -1,177;    1,045
303,985;   11,236;    0,550;    1,409
304,580;   66,264;    1,459;    1,591
305,176;   23,637;   -3,086;    0,136
305,771;  -22,056;   -1,268;   -1,227
306,367;  136,280;    4,095;    0,136
306,962;   47,754;    0,641;    1,500
307,558;   70,239;   -0,450;    0,136
308,153;   42,365;    1,095;   -1,136
308,748;   -0,305;   -0,814;    1,682
309,344;  124,674;   -0,632;   -1,318
309,939;  104,701;   -1,905;   -1,318
310,534;   23,551;   -0,086;   -1,682
311,130;   14,484;    0,459;   -2,500
311,725;   12,396;    1,004;   -0,500
312,320;   17,361;    2,459;    0,045
312,915;   44,824;    1,459;   -1,045
313,510;  120,882;    1,550;   -0,500
314,105;   23,959;    1,096;    1,409
314,700;   -9,038;   -3,086;   -1,045
315,295;    5,264;   -0,904;    0,045
315,890;   -1,429;    1,277;    0,864
316,485;   27,124;   -0,359;   -0,318
317,080;   -5,063;   -3,086;    1,591
317,675;  112,270;    2,005;   -0,682
318,270;  218,500;    5,550;    3,318
318,865;  144,773;    3,278;    3,045
319,460;   79,087;   -0,904;    0,591
320,055;   11,829;   -0,541;   -1,227
320,650;   13,615;   -1,995;   -0,591
321,244;   25,559;   -0,177;   -1,409
321,839;   18,509;   -1,541;   -0,227
322,434;   36,088;   -1,086;   -1,591
323,029;   10,987;    1,732;    1,591
323,623;   -1,396;    1,550;    0,773
324,218;   77,439;    2,368;    1,409
324,812;   49,083;    1,096;    1,591
325,407;   45,269;   -0,814;    2,045
326,002;  112,694;    0,277;   -0,409
326,596;   70,415;    0,914;    1,318
327,191;    9,965;    0,823;   -1,045
327,785;   17,961;   -0,813;   -0,227
328,379;   12,359;    1,368;    0,136
328,974;   18,753;    0,914;   -3,955
329,568;   28,750;    0,186;   -2,409
330,163;   65,110;    2,096;    1,045
330,757;   14,186;    2,459;    1,591
331,351;   -3,606;    0,459;    0,682
331,945;  -12,009;    0,914;    1,409
332,540;   32,576;   -1,723;   -0,591
333,134;   24,429;   -1,086;    0,773
333,728;   35,637;    0,005;    0,318
334,322;   -2,612;   -1,177;   -0,864
334,916;   -3,596;    0,277;    0,955
335,510;   45,151;   -0,450;   -0,136
336,105;   33,874;   -1,086;    1,591
336,699;    2,577;   -1,086;    0,591
337,293;   17,827;   -1,723;    0,318
337,887;   -1,791;   -2,723;    1,955
338,481;   44,152;    0,459;    0,591
339,074;   85,767;   -0,359;    2,682
339,668;   69,916;   -1,632;    1,227
340,262;  314,369;    1,732;    3,227
340,856;  127,014;    1,822;   -0,682
341,450;   15,987;    1,004;    1,864
342,044;   39,281;    1,459;    0,136
342,637;   75,283;    0,913;   -2,136
343,231;   27,607;   -2,360;    0,682
343,825;   23,395;   -1,086;   -0,591
344,419;   22,994;   -1,995;    0,500
345,012;  250,566;    2,459;    4,045
345,606;  152,624;    4,641;    1,591
346,199;   25,012;   -1,813;   -0,227
346,793;   68,798;    1,914;    2,045
347,386;   11,416;   -0,813;   -1,136
347,980;  -23,358;   -0,268;   -0,045
348,573;   11,968;    2,278;    0,409
349,167;  168,203;    5,278;    4,773
349,760;   73,325;    2,914;    2,682
350,354;   56,244;   -0,813;    1,136
350,947;   60,466;    1,096;    1,682
351,540;   26,586;   -0,358;   -1,409
352,134;   -4,463;    1,096;    1,136
352,727;   -2,542;   -0,086;    1,136
353,320;   -2,885;    0,005;    0,591
353,913;  -18,670;   -1,995;    1,864
354,507;   50,696;    0,823;   -1,227
355,100;    8,966;    0,460;    0,864
355,693;  208,677;    2,005;    2,409
356,286;   82,446;    0,823;    2,773
356,879;   23,053;   -0,722;    1,227
357,472;   38,812;   -0,904;    1,500
358,065;   41,502;   -0,722;    2,500
358,658;  -12,038;   -0,540;    2,318
359,251;   -5,401;   -1,631;   -0,591
359,844;   61,046;   -1,904;   -1,136
360,437;   79,482;   -2,995;    0,045
361,030;    4,477;    1,369;   -0,682
361,623;   14,042;    2,824;    0,318
362,215;  125,077;   -0,086;    2,045
362,808;   36,534;   -2,358;   -1,682
363,401;    6,644;   -2,449;    0,136
363,994;  112,519;   -0,631;   -1,500
364,586;   32,810;    0,824;   -1,500
365,179;   12,287;   -0,449;   -1,136
365,772;  -33,532;   -1,995;    2,045
366,364;    9,504;    1,915;   -3,227
366,957;   35,757;    2,279;   -0,045
367,549;   12,328;    2,188;   -0,864
368,142;   26,045;    1,825;   -1,500
368,734;    9,963;    0,734;   -2,136
369,327;  -19,500;    1,643;   -0,500
369,919;   -6,544;   -1,538;    0,409
370,512;   13,830;   -1,083;   -0,500
371,104;  169,763;   -0,901;    1,591
371,696;  183,386;    1,191;   -0,955
372,289;   92,965;    0,373;    1,136
372,881;   73,796;   -2,080;    1,318
373,473;    1,484;   -2,170;    1,136
374,066;   58,319;   -0,169;    0,500
374,658;   42,041;    0,378;    1,136
375,250;  -11,233;    0,653;   -1,409
375,842;   13,390;    0,473;   -0,045
376,434;  -23,995;   -0,435;   -0,409
377,026;  -30,108;    0,204;   -2,500
377,618;    9,814;   -0,158;   -0,682
378,210;  -57,251;   -0,338;   -1,955
378,802;  -66,349;    0,754;   -0,591
379,394;  277,080;    1,846;    0,682
379,986;   55,554;    1,393;   -0,955
380,578;  -19,943;   -0,153;    0,773
381,170;  211,310;   -0,972;    0,045
381,762;  124,547;    0,755;    1,409
382,354;   87,078;   -0,065;   -1,318
382,945;   18,642;   -2,976;    0,318
383,537;  -14,726;   -2,705;   -1,955
384,129;  -16,112;   -2,160;   -1,136
384,721;   86,609;   -0,252;    0,955
385,312;   24,838;   -0,161;   -0,955
385,904;   92,613;   -2,706;    1,591
386,496;   36,781;   -0,979;    1,045
387,087;  144,209;    1,022;    2,500
387,679;   91,561;   -1,160;    0,045
388,270;   46,187;    2,840;    2,045
388,862;   30,315;    1,295;   -0,318
389,453;   18,857;   -0,887;    1,045
390,045;   21,826;   -0,705;   -2,682
390,636;  -71,670;    0,204;   -0,591
391,227;  -14,929;   -0,523;   -0,045
391,819;  -38,194;    0,204;    0,773
392,410;  193,058;    1,022;    0,045
393,001;   26,028;   -0,979;   -1,591
393,593;   72,338;    1,930;   -0,045
394,184;  117,938;    1,385;   -0,409
394,775;    3,878;    1,839;    2,136
395,366;  -59,622;    1,385;    0,773
395,957;   92,453;    0,113;    0,136
396,548;   -0,718;   -0,342;    2,682
397,139;   80,447;   -2,433;    0,591
397,730;   22,528;   -1,888;    0,955
398,321;   37,538;   -1,252;    0,955
398,912;   -9,610;   -0,615;    0,136
399,503;  -11,762;   -3,524;   -1,409
400,094;   17,821;    0,294;    1,682
400,685;    5,749;   -0,433;    0,045
401,276;  -21,436;    0,930;   -0,955
401,867;  -39,246;   -0,888;    0,773
402,458;  -78,831;   -2,251;   -2,318
403,048;   35,575;    1,112;    0,591
403,639;   -3,166;    0,840;    0,864
404,230;   90,606;    2,476;    0,318
404,821;  133,965;   -0,615;    0,045
405,411;   56,276;    1,203;   -2,591
406,002;   -9,212;   -1,252;   -1,136
406,592;  178,071;    2,294;    0,045
407,183;   63,661;    0,566;   -1,500
407,774;   45,534;    3,475;   -0,136
408,364;    1,227;    0,930;    0,409
408,954;  103,747;    0,384;    1,227
409,545;   96,382;    1,021;    1,045
410,135;   72,576;    1,293;    0,500
410,726;   27,809;    1,838;    0,318
411,316;  190,036;    0,111;    0,773
411,906;   43,440;   -0,253;   -0,409
412,497;   51,818;   -1,070;   -0,045
413,087;    3,516;   -1,980;   -0,227
413,677;  -49,342;   -0,707;    3,864
414,267;  -57,374;    0,656;    1,409
414,857;  -59,190;   -2,980;    4,227
415,448;  -68,088;    0,839;    0,500
416,038;  -38,601;    0,020;   -0,591
416,628;   -7,434;   -0,889;    0,409
417,218;   40,359;    0,565;    3,318
417,808;  181,635;    0,202;   -0,409
418,398;   73,665;    0,020;    2,682
418,988;  -35,727;    2,020;    0,591
419,578;   49,812;   -0,707;    1,409
420,168;   -8,105;   -1,343;   -0,955
420,757;  119,306;   -1,343;   -1,500
421,347;   24,010;    0,111;   -0,227
421,937;   -2,324;    2,292;    1,409
422,527;  117,954;    0,838;   -0,773
423,116;  238,604;   -0,253;   -0,045
423,706;   -1,239;   -1,889;    0,318
424,296;  -41,694;    1,384;    0,682
424,885;   66,942;   -0,071;   -3,045
425,475;   31,676;    1,474;   -2,864
426,065;  -51,840;   -0,980;   -0,318
426,654;  -53,852;   -0,435;   -0,318
427,244;  160,072;    0,020;    1,409
427,833;  134,432;    1,383;   -0,500
428,423;   25,294;   -0,526;    1,136
429,012;   20,215;   -0,344;   -1,136
429,601;  140,615;   -1,344;    0,136
430,191;   48,907;    1,292;    4,318
430,780;  -45,372;   -0,344;   -0,409
431,369;  122,161;    0,746;   -0,045
431,959;   16,375;   -1,254;    0,500
432,548;  -39,139;   -1,163;   -0,045
433,137;  -87,588;   -1,254;   -1,318
433,726;  -22,047;    0,292;    0,500
434,315;    1,745;   -0,526;    2,409
434,905;   96,338;   -1,254;    1,409
435,494;   91,360;    0,746;    0,955
436,083;  -26,893;   -0,981;   -0,955
436,672;   50,748;    0,110;    0,500
437,261;    9,455;    0,292;   -1,955
437,850;  214,965;    1,383;    0,682
438,439;  259,769;    3,291;    1,955
439,027;  360,045;    3,655;    1,773
439,616;  288,175;    2,927;    1,227
440,205;   92,954;    0,200;   -2,136
440,794;   51,359;    2,109;   -0,045
441,383;  -11,752;   -1,346;   -0,591
441,971;  -40,572;   -2,436;    0,591
442,560;  -16,259;    0,563;   -1,773
443,149;  -92,381;    0,379;   -1,318
443,737;  -56,196;   -0,074;   -2,318
444,326;  -38,985;    0,018;    0,318
444,915;    2,589;   -1,982;    0,864
445,503;    0,585;   -2,891;   -0,318
446,092;  249,406;    0,382;    2,136
446,680;  185,322;    0,382;    0,318
447,269;   87,477;   -0,346;   -0,318
447,857;   78,303;    0,018;   -1,773
448,445;   34,337;    0,563;    1,318
449,034;  -16,363;   -1,528;   -1,136
449,622;   -9,544;   -1,073;    3,500
450,210;  248,747;    2,017;    2,227
450,799;  172,386;    0,290;   -0,591
451,387;  133,238;    1,381;   -0,591
451,975;  117,143;    2,654;    0,864
452,563;  184,105;    3,472;    2,318
453,151;   24,208;   -0,528;   -1,227
453,739;   68,195;   -1,347;    0,136
454,328;  160,977;    2,381;   -2,136
454,916;  100,287;    2,562;   -0,136
455,504;  115,766;    1,017;    1,227
456,092;   10,609;    0,017;   -1,591
456,679;  -17,420;    1,472;    0,682
457,267;  368,497;    4,017;    1,045
457,855;   69,290;    1,017;    1,409
458,443;  -53,427;   -0,165;    1,682
459,031;   87,476;    0,108;    2,409
459,619;   43,076;   -1,801;    2,864
460,206;  -35,526;    0,835;    2,045
460,794;  -31,126;   -2,983;   -0,227
461,382;   13,008;   -0,529;   -0,864
461,970;    0,220;    1,198;    1,864
462,557;  -60,296;   -0,711;   -0,682
463,145;   51,214;   -3,165;   -1,682
463,732;  281,228;    2,016;   -1,045
464,320;   67,178;   -0,075;   -3,045
464,907;  196,507;    2,743;   -0,773
465,495;  119,861;    0,743;   -1,227
466,082;   43,480;   -1,984;   -0,045
466,670;   55,027;   -2,529;    1,227
467,257;  -33,333;   -1,711;    2,045
467,844;   54,065;   -0,075;    0,045
468,432;   37,461;    0,834;    3,500
469,019;    5,624;    0,925;   -1,773
469,606;   73,314;    0,470;    3,682
470,193;   96,299;   -1,439;    0,227
470,780;   64,256;   -2,075;    0,864
471,368;   -5,706;   -1,257;   -0,773
471,955;   88,836;    1,379;   -0,682
472,542;   62,696;    0,652;   -1,136
473,129;  -39,101;   -0,166;    0,136
473,716;  -26,498;    1,470;    0,591
474,303;    1,685;    0,652;   -0,864
474,890;    0,553;   -1,439;   -0,500
475,477;   96,892;   -1,621;    0,409
476,064;   15,722;    1,106;   -1,591
476,650;  119,439;    0,288;    0,318
477,237;   31,439;   -0,258;    0,955
477,824;   14,563;   -1,076;    0,864
478,411;  -60,621;   -1,894;   -0,318
478,997;  -69,066;    0,560;   -0,773
479,584; -102,629;    1,196;   -0,409
480,171;   48,821;   -0,440;   -0,773
480,757;  102,499;    2,651;    0,773
481,344;    0,064;    0,469;    0,409
481,931;  -77,296;    1,105;    1,045
482,517;   38,780;   -1,258;    0,318
483,104;  122,886;    1,106;    2,864
483,690;    2,887;   -1,804;    0,045
484,276;  -17,891;   -0,895;    0,227
484,863;  170,376;    2,469;    1,136
485,449;   22,389;   -0,077;    0,318
486,035;  -16,033;   -1,986;   -0,136
486,622;   57,958;   -0,895;    0,045
487,208;  -11,794;    1,378;    1,500
487,794;  -78,210;    0,741;    0,318
488,380;  -68,934;    0,105;   -1,409
488,967;  -70,190;   -1,168;   -0,409
489,553;  -45,712;   -1,895;   -1,409
490,139;   14,531;    1,559;    0,773
490,725;  -54,830;    0,741;   -0,227
491,311;  -11,499;    3,287;    3,045
491,897;  -34,680;   -0,986;    1,500
492,483;  -21,828;    0,105;    1,227
493,069;  383,019;    3,923;    0,864
493,655;  120,330;    1,650;    0,682
494,241;    2,843;    1,377;   -0,955
494,826;   15,652;    0,287;   -1,045
495,412;   65,682;    2,559;   -0,682
495,998;  -18,478;   -0,805;   -0,318
496,584;   36,729;    0,377;    1,045
497,169;   52,703;    1,014;   -0,682
497,755;    1,233;    0,650;    1,227
498,341;  116,793;    0,559;    0,318
498,926;  229,679;    1,832;    1,955
499,512;   -7,530;    1,286;    2,955
500,097;  -11,090;    0,195;   -0,318
500,683;   13,996;   -0,350;    2,136
501,268;  -34,064;   -0,169;   -0,955
501,854;  -14,271;   -0,169;    1,227
502,439;  -24,168;   -0,624;   -1,773
503,024;   -3,934;    0,195;    0,500
503,610;   26,186;   -0,078;   -0,682
504,195;  -16,779;    0,558;    1,955
504,780;   56,847;    2,922;    1,227
505,366;  132,026;    3,013;    2,864
505,951;   67,903;    0,740;    1,045
506,536;    6,294;   -3,260;   -3,682
507,121;   51,229;    0,285;   -0,318
507,706;   10,957;    2,376;    1,045
508,291;  -36,915;    2,649;    1,136
508,876;  -39,679;   -0,988;    2,591
509,461;   -5,870;   -0,169;   -0,773
510,046;   35,795;    0,194;    0,318
510,631;   43,970;   -0,351;   -0,773
511,216;  -28,055;    2,467;   -0,500
511,801;   20,629;   -0,442;    2,591
512,386;   35,488;    0,740;    0,500
512,971;   42,773;   -2,988;    0,955
513,555;   74,825;   -0,897;   -1,500
514,140;   36,404;   -0,442;   -3,136
514,725;  145,387;   -0,715;   -1,136
515,309;   58,839;   -0,533;    0,318
515,894;  -15,555;   -0,624;   -2,227
516,479;   14,903;   -0,624;   -0,955
517,063;   11,263;    0,376;    1,227
517,648;  -19,281;    1,012;   -1,136
518,232;  -42,047;   -0,261;   -1,409
518,817;   28,650;   -0,079;    1,682
519,401;  113,708;    2,194;    0,591
519,985;   95,523;    1,103;    1,136
520,570;   -0,621;    0,830;   -1,955
521,154;   58,446;    2,102;    0,591
521,738;  179,912;   -2,352;    2,409
522,323;   71,079;   -0,170;    1,682
522,907;   83,608;    0,466;   -0,136
523,491;   37,427;    0,557;    0,955
524,075;   40,125;    2,284;    0,591
524,659;  223,875;    1,466;    0,591
525,243;  215,180;    1,739;    0,409
525,827;  196,549;    0,648;   -0,045
526,411;  245,057;   -1,989;   -0,136
526,995;  426,940;   -0,352;    1,409
527,579;  574,319;   -0,443;   -1,045
528,163;  588,538;    0,375;   -1,500
528,747;  837,718;    2,466;   -0,773
529,331;  891,837;   -0,080;   -1,409
529,915;  802,660;    1,738;    0,955
530,499; 1093,903;   -0,807;    1,227
531,082; 1401,046;   -0,534;    1,591
531,666; 1629,943;    1,374;    0,773
532,250; 1798,052;    1,284;    2,682
532,833; 2205,093;    0,920;    2,773
533,417; 2302,306;   -1,807;    0,864
534,001; 2603,890;    1,647;   -0,318
534,584; 3109,656;    0,374;    0,500
535,168; 3318,837;    0,465;    1,409
535,751; 3828,702;    0,647;    0,045
536,334; 3824,705;   -0,898;   -0,409
536,918; 4564,644;    0,011;    1,591
537,501; 4927,013;   -0,899;    1,318
538,085; 5325,925;   -0,444;    1,045
538,668; 5709,714;    0,829;    2,409
539,251; 6392,502;    1,829;    3,773
539,834; 6798,319;    0,101;    0,773
540,418; 7136,179;   -1,990;    4,318
541,001; 7522,236;   -0,990;    1,773
541,584; 7858,317;    2,101;    2,227
542,167; 7920,484;    1,374;    2,955
542,750; 8298,973;    1,919;   -0,773
543,333; 8237,320;    0,555;    2,136
543,916; 9127,069;    0,192;    2,500
544,499; 9824,861;   -1,354;    0,227
545,082;10107,195;    1,374;    3,591
545,665;10448,949;    1,919;    1,500
546,248;10914,411;    1,010;   -0,318
546,830;10877,469;   -0,445;    1,955
547,413;11453,722;    1,010;   -0,773
547,996;12115,333;    0,555;    0,500
548,579;12070,219;    0,919;    0,955
549,161;12097,735;    1,828;    2,682
549,744;12082,257;   -0,809;    0,409
550,326;12685,804;   -0,809;   -1,136
550,909;12655,325;    2,737;    0,591
551,492;13171,619;   -0,263;    0,227
552,074;13065,631;   -0,173;   -1,318
552,657;13704,237;    2,373;    0,045
553,239;13636,421;   -0,173;   -0,773
553,821;13698,595;   -1,082;    1,045
554,404;13368,934;    1,282;    1,136
554,986;13795,757;    0,464;    1,045
555,568;14380,487;    1,191;   -0,955
556,151;13778,366;    1,191;   -0,227
556,733;14046,210;   -0,264;   -0,864
557,315;14546,769;    0,100;    0,500
557,897;14413,282;    0,554;   -0,500
558,479;14600,586;   -1,991;    1,318
559,061;14826,144;   -0,719;   -0,864
559,643;15207,653;   -0,264;    0,045
560,225;15559,457;    1,645;    2,864
560,807;15650,108;    0,918;    0,318
561,389;15265,625;    0,554;    2,318
561,971;15935,005;    0,463;    2,136
562,553;15854,175;   -1,628;    1,591
563,135;16022,386;   -0,537;    1,136
563,717;15695,901;    3,372;    1,136
564,298;16372,663;    3,645;   -0,045
564,880;16137,559;    0,645;   -1,409
565,462;16345,650;    0,645;    1,318
566,043;17430,121;   -0,446;    2,318
566,625;17007,303;    1,918;    1,227
567,207;16882,492;    1,099;    1,682
567,788;17940,676;   -1,264;    1,500
568,370;18736,111;    1,917;   -0,500
568,951;18565,467;    0,190;    0,227
569,533;19419,389;   -0,628;   -0,500
570,114;19868,156;   -0,446;    0,682
570,695;20317,990;   -0,174;   -1,318
571,277;20764,541;   -0,265;   -1,682
571,858;21466,203;    2,008;   -1,136
572,439;22344,622;    1,554;   -1,045
573,021;22450,220;    2,099;   -2,773
573,602;22930,851;   -1,265;    0,318
574,183;23801,099;   -2,083;    2,227
574,764;23907,340;   -1,629;    0,409
575,345;24417,072;    0,917;   -0,136
575,926;25047,516;   -0,356;    0,136
576,507;25060,214;    1,099;   -0,227
577,088;26129,002;    3,099;    1,682
577,669;26134,252;    0,735;    1,955
578,250;26850,190;    0,644;   -1,045
578,831;27466,628;   -1,356;   -2,227
579,412;27718,041;   -0,810;    0,955
579,993;28687,466;    1,008;    0,227
580,573;29013,406;   -0,629;   -0,955
581,154;28007,556;    0,735;   -0,591
581,735;28885,313;    0,644;    0,773
582,315;28412,131;   -0,629;    2,136
582,896;28728,522;   -0,174;    1,227
583,477;28303,532;    0,189;    1,227
584,057;28525,072;    0,553;    0,955
584,638;28824,830;    2,553;    2,318
585,218;28790,708;   -0,538;    2,682
585,799;29007,008;    0,281;   -0,227
586,379;29075,093;    0,372;    1,591
586,959;27978,433;    0,735;    0,318
587,540;27392,081;   -0,629;    2,227
588,120;27046,942;    1,007;   -0,045
588,700;26117,144;    2,553;    2,136
589,281;26440,891;    0,462;   -0,955
589,861;26402,197;    0,099;   -1,682
590,441;26219,983;    2,371;   -2,682
591,021;25253,648;   -0,265;   -2,591
591,601;25570,848;   -0,537;    0,500
592,181;25591,149;   -0,719;   -0,773
592,761;24958,784;    0,007;    1,409
593,341;24922,402;   -0,901;    0,045
593,921;24955,881;   -0,265;    1,591
594,501;24822,645;   -0,538;    1,318
595,081;24707,274;    0,917;   -0,318
595,661;25049,703;   -1,447;    0,955
596,240;25566,969;   -0,537;    0,136
596,820;25184,446;    0,372;    1,955
597,400;25358,641;    2,008;    0,773
597,980;25666,814;    2,008;    1,045
598,559;25698,094;    2,735;   -0,227
599,139;25480,733;   -0,174;   -1,227
599,718;25368,824;   -0,174;   -0,409
600,298;25604,307;    0,735;    0,682
600,877;25843,816;    2,917;    1,409
601,457;26148,202;    2,281;    1,136
602,036;26060,302;    0,190;    2,045
602,616;26284,359;    0,644;    1,682
603,195;26639,383;   -0,355;    3,500
603,774;26174,173;   -0,901;    2,045
604,354;26105,416;    0,826;   -0,500
604,933;25597,483;    0,463;    1,864
605,512;25780,296;    3,554;    0,591
606,091;25832,259;   -0,537;    3,773
606,671;26612,444;    0,281;    0,773
607,250;25776,354;    1,644;    3,136
607,829;26019,799;    2,372;    3,227
608,408;25892,318;    1,190;    2,591
608,987;24984,123;    1,281;    3,409
609,566;25336,249;   -1,265;   -2,500
610,145;25431,095;   -1,082;    0,682
610,723;25811,400;    4,372;    6,864
611,302;25122,301;   -0,446;    1,682
611,881;24628,941;    5,008;   11,227
612,460;25445,185;    1,645;    3,955
613,039;25890,752;   -0,082;    2,045
613,617;24664,922;    1,736;    4,773
614,196;24876,215;    1,099;    1,227
614,775;25199,812;    1,009;    2,409
615,353;25222,231;    0,736;    0,864
615,932;24971,020;    0,100;    2,409
616,510;25517,720;    0,554;    0,591
617,089;25045,355;    7,100;   17,591
617,667;24875,930;    2,372;    6,136
618,246;24752,046;   -1,537;    1,318
618,824;24945,290;   -3,355;   -0,955
619,402;24513,654;   -2,900;   -1,773
619,981;24959,649;   -0,173;   -1,045
620,559;24878,705;    0,009;    1,682
621,137;24453,950;   -0,718;    1,864
621,715;24437,982;   -1,173;   -0,682
622,293;24374,465;   -0,537;   -0,773
622,871;24861,314;   -0,718;    0,500
623,450;24468,032;    0,373;   -0,864
624,028;24395,553;    0,191;   -0,955
624,606;24036,034;   -1,718;    1,682
625,183;24457,725;   -1,536;   -1,136
625,761;24062,451;    1,009;    1,136
626,339;24356,460;    1,373;    2,591
626,917;24750,079;   -0,172;   -0,045
627,495;24786,656;   -0,354;    1,318
628,073;24260,407;   -0,263;    2,864
628,650;23972,751;    0,100;    2,136
629,228;24401,151;    0,373;    4,409
629,806;23856,570;    2,282;    1,136
630,383;24093,714;    1,464;   -0,318
630,961;23861,055;    2,555;   -0,955
631,539;23666,774;    2,464;    0,227
632,116;23023,237;   11,373;   15,409
632,694;23584,260;    2,555;    6,500
633,271;23912,186;    0,828;    2,682
633,848;23826,738;    1,828;    2,045
634,426;23882,242;   -1,081;    1,773
635,003;23061,833;    1,101;   -0,409
635,580;23347,922;    1,192;    3,682
636,158;23980,358;    3,737;    1,227
636,735;23900,580;    0,555;   -0,500
637,312;24018,982;   -0,809;   -0,682
637,889;24159,210;   -4,354;   -0,682
638,466;23603,556;   -3,990;   -0,409
639,043;23628,029;    2,101;   -1,136
639,620;23966,453;   -2,262;   -0,955
640,197;24307,831;    1,100;    1,682
640,774;24415,968;   -0,172;    1,136
641,351;24800,287;    0,737;    1,136
641,928;24256,606;   -0,627;    1,409
642,505;23889,471;    0,828;   -0,500
643,082;24118,426;   -1,718;    1,227
643,658;23138,473;   -0,718;    1,500
644,235;23877,064;    1,191;    2,500
644,812;24141,111;    1,918;    0,773
645,388;23831,793;   -0,991;    1,409
645,965;23993,021;   -0,809;    1,682
646,542;24085,886;   -1,445;   -0,227
647,118;24054,205;    1,009;   -0,955
647,695;24354,069;   -0,263;    1,136
648,271;24276,388;   -0,536;    0,500
648,848;24638,435;    0,736;    2,227
649,424;24435,026;    0,827;    1,318
650,000;24162,073;   -0,354;   -1,045
650,577;23989,573;   -0,627;   -0,955
651,153;24459,256;   -1,809;    0,955
651,729;25440,484;    1,191;    0,864
652,305;25545,712;    0,645;    2,773
652,881;29466,213;   -0,082;    1,136
653,458;35950,259;    1,100;    0,227
654,034;39707,578;    0,282;    1,591
654,610;41240,170;    0,554;    0,773
655,186;42545,307;    0,645;    3,045
655,762;42224,626;   -0,991;    0,409
656,338;42254,218;    0,100;    0,136
656,913;43250,264;   -0,082;    0,409
657,489;42604,674;    0,827;   -0,318
658,065;42564,902;   -0,173;   -1,591
658,641;43213,403;   -0,900;   -0,864
659,217;42580,904;   -0,991;    0,409
659,792;41913,314;    0,645;   -0,409
660,368;42176,451;   -2,173;   -0,682
660,944;41907,588;   -2,082;    1,227
661,519;37802,726;   -0,628;    0,409
662,095;32269,045;   -1,719;    0,591
662,670;27756,091;    1,281;   -0,136
663,246;26519,592;    1,009;   -0,409
663,821;25793,820;    0,281;    1,682
664,396;25307,321;    0,009;    1,864
664,972;25591,276;    0,009;   -0,500
665,547;25854,868;    1,372;    0,136
666,122;25909,460;   -1,082;    0,318
666,698;26159,506;   -0,173;    0,318
667,273;25525,916;   -0,173;    0,136
667,848;26374,507;    2,372;    1,500
668,423;26122,281;    2,190;    2,318
668,998;26643,691;    2,827;   -0,682
669,573;27138,374;   -3,264;   -1,500
670,148;27042,693;   -1,446;   -0,682
670,723;26875,193;   -1,810;    0,318
671,298;27288,876;    2,372;    1,045
671,873;27348,922;   -0,082;   -0,136
672,448;27288,060;    0,645;    0,136
673,023;27635,924;   -1,992;   -0,227
673,597;27938,970;    0,827;    2,318
674,172;27733,835;   -0,355;    0,318
674,747;27279,154;    0,372;   -1,045
675,321;27129,564;   -0,628;    3,318
675,896;26685,428;    0,645;    1,045
676,471;27698,929;    2,645;    1,591
677,045;27461,703;   -1,264;    0,682
677,620;27500,749;    0,190;    1,136
678,194;27867,250;   -2,628;    1,136
678,769;27366,478;   -1,083;   -0,318
679,343;27627,070;   -0,628;    1,773
679,917;27453,298;   -1,446;    1,955
680,492;27579,344;    0,826;    3,227
681,066;27719,390;    3,372;    0,409
681,640;27794,073;    1,463;   -0,318
682,214;28606,392;    0,735;    0,500
682,788;28138,529;   -1,356;   -0,773
683,363;28049,484;   -1,810;    1,682
683,937;27770,349;   -1,719;   -0,318
684,511;28497,668;    0,463;   -0,591
685,085;28206,896;   -1,356;    0,318
685,659;27980,124;   -2,538;    0,864
686,232;28209,443;   -0,356;   -0,318
686,806;27966,762;   -0,901;    0,409
687,380;28647,990;   -0,174;    0,591
687,954;28859,764;   -1,174;    1,136
688,528;28471,446;   -0,719;    1,955
689,101;29292,402;   -3,992;    1,045
689,675;28906,721;   -0,356;   -0,136
690,249;28265,585;   -0,719;    0,409
690,822;28547,359;    0,280;    0,318
691,396;28676,860;   -0,265;    1,227
691,969;28154,542;    1,280;    0,136
692,543;28628,952;   -0,447;   -1,955
693,116;28298,089;   -0,265;   -1,409
693,690;28189,227;    0,099;    0,500
694,263;28708,818;   -1,083;    2,955
694,836;28765,865;    1,371;    3,591
695,410;27425,456;   -0,265;    1,773
695,983;27841,048;    0,189;    0,591
696,556;27842,004;   -0,447;   -1,045
697,129;28249,323;   -0,356;    1,409
697,703;27897,460;   -1,629;    1,955
698,276;27891,142;    1,462;   -0,773
698,849;27717,916;    1,280;    1,409
699,422;28022,690;   -1,083;    0,591
699,995;27743,372;    0,007;    0,136
700,568;28244,600;   -0,629;    3,045
701,140;28284,647;   -2,811;    1,682
701,713;27987,420;   -0,174;    2,409
702,286;27818,103;   -0,538;    0,864
702,859;27648,513;   -0,902;   -0,591
703,432;26797,014;    0,825;    0,682
704,004;27302,696;    0,462;    0,318
704,577;27210,924;   -0,629;    0,136
705,150;27806,425;    0,189;    2,500
705,722;27543,380;   -0,356;   -3,227
706,295;27343,881;   -0,175;   -0,591
706,867;27196,382;   -0,175;    1,955
707,440;27424,701;   -1,720;   -0,409
708,012;27650,747;    0,462;    0,591
708,584;27558,885;    2,462;    0,227
709,157;27914,204;    1,825;   -0,591
709,729;27577,250;    2,280;    2,045
710,301;28382,569;    0,734;    0,045
710,874;28374,615;   -1,447;   -0,227
711,446;27289,207;    0,371;    0,864
712,018;27187,071;    0,098;    0,500
712,590;26935,300;   -1,993;    1,682
713,162;27433,346;    0,825;    1,318
713,734;27652,847;    1,825;   -2,045
714,306;27535,984;   -1,902;   -0,409
714,878;26314,121;    0,825;    0,864
715,450;27121,531;    0,643;    0,864
716,022;27362,850;    1,552;    1,318
716,593;27529,624;    0,189;    0,591
717,165;27475,579;   -3,175;   -1,227
717,737;27151,534;    0,280;    0,409
718,309;26857,762;    0,280;   -0,045
718,880;26841,627;   -0,539;   -1,409
719,452;27027,673;   -0,175;   -1,591
720,024;26573,810;    0,734;   -0,591
720,595;27172,402;   -2,902;    0,955
721,167;26746,357;    0,370;   -2,045
721,738;26267,767;   -0,812;   -1,045
722,309;26209,723;   -0,993;   -1,227
722,881;26020,405;   -1,357;    0,773
723,452;26706,452;   -2,630;    2,864
724,023;26854,225;   -0,721;    2,682
724,595;26623,908;    0,007;    0,682
725,166;26366,681;    0,007;   -0,409
725,737;26015,364;    1,734;    0,227
726,308;26106,774;   -0,266;    0,318
726,879;26537,911;   -1,630;    1,227
727,450;26363,685;    0,552;   -0,045
728,021;26412,731;    3,097;    0,682
728,592;26177,595;    0,734;    0,500
729,163;26492,278;    0,643;   -0,136
729,734;26463,415;    0,188;   -0,227
730,305;26819,280;    1,734;    0,136
730,876;27180,962;    0,188;    2,955
731,447;26891,100;    2,188;    2,682
732,017;26995,691;    1,097;    1,864
732,588;26528,283;    0,734;    1,227
733,159;26716,420;    0,643;   -1,045
733,729;26498,376;    0,006;    0,409
734,300;25754,695;    0,915;    0,864
734,870;26221,832;    3,461;    0,591
735,441;26807,060;    0,370;   -0,591
736,011;26579,834;    0,643;   -1,591
736,582;26458,062;   -0,812;    0,045
737,152;25948,472;   -1,721;   -2,045
737,722;26435,972;   -0,267;   -0,682
738,293;26172,473;   -1,358;    1,318
738,863;26031,065;    2,461;    2,318
739,433;25823,929;    5,279;    0,318
740,003;26425,521;   -0,994;   -0,682
740,573;25855,113;    2,097;   -1,591
741,143;25812,705;   -1,085;    0,318
741,713;26586,205;    1,188;   -0,500
742,283;26307,070;    0,915;    1,591
742,853;26075,025;    1,915;    1,591
743,423;25553,072;    1,733;    0,045
743,993;25694,936;   -0,358;    1,500
744,563;25034,255;    0,097;   -0,864
745,133;25011,847;   -0,812;   -0,864
745,702;25705,893;   -0,267;    1,773
746,272;24936,485;   -0,176;    0,591
746,842;24720,440;   -1,358;   -0,591
747,411;25184,941;   -0,267;   -0,318
747,981;25347,442;    0,097;    0,500
748,551;25365,761;    2,278;   -1,045
749,120;25240,080;    0,642;   -0,227
749,690;25593,853;   -0,631;    2,409
750,259;25904,263;    1,369;    2,955
750,828;25836,128;    1,551;   -1,955
751,398;26086,629;    1,278;   -0,045
751,967;25590,584;    2,187;    0,409
752,536;25854,812;   -0,813;   -0,227
753,105;26224,040;    0,096;    0,227
753,675;26083,996;    0,096;    1,773
754,244;25962,224;   -0,904;    3,591
754,813;26036,179;    0,551;    1,227
755,382;25633,225;    0,460;    0,955
755,951;26165,726;    1,551;    3,682
756,520;25731,863;   -0,085;    1,864
757,089;26260,546;    0,278;    0,500
757,658;26389,411;    1,733;    1,227
758,227;26401,730;    1,096;    0,318
758,795;26767,321;    1,187;    1,136
759,364;26997,368;   -0,086;   -0,591
759,933;26000,868;   -1,176;   -0,045
760,501;25557,460;    0,733;   -1,318
761,070;25980,506;   -2,813;   -1,409
761,639;26662,007;   -1,904;    1,318
762,207;25995,144;    1,551;   -0,955
762,776;25886,009;    0,369;    0,864
763,344;25884,510;   -0,995;    0,591
763,913;25018,283;   -0,722;    1,409
764,481;25711,148;    1,005;   -0,136
765,049;25565,921;   -1,358;    1,409
765,618;25460,968;   -0,086;    0,318
766,186;25519,559;    0,278;    0,136
766,754;25730,424;    0,005;    1,864
767,322;24715,743;   -1,995;    0,409
767,890;24747,880;   -0,722;   -1,773
768,459;25148,654;   -2,177;   -0,318
769,027;25349,245;    1,641;    3,409
769,595;24353,201;    3,278;    2,591
770,163;24750,792;    3,823;    2,955
770,730;24522,384;    0,732;   -0,136
771,298;24377,976;    0,187;   -1,409
771,866;24493,477;   -1,541;    4,955
772,434;24787,159;   -0,631;   -1,864
773,002;24966,206;    0,005;    0,682
773,569;24588,434;    0,914;    1,682
774,137;24403,844;   -0,268;   -0,045
774,705;25258,617;    0,278;   -0,136
775,272;24747,845;    0,641;    0,682
775,840;24442,255;   -0,177;    2,682
776,407;24033,029;    0,277;    1,955
776,975;23625,166;   -0,632;    0,318
777,542;24696,212;   -1,086;   -0,045
778,110;24509,259;   -1,268;   -0,045
778,677;24153,214;   -2,359;   -0,864
779,244;23915,260;    2,186;    1,045
779,812;24043,943;    1,823;    0,864
780,379;23907,989;    0,005;    1,136
780,946;24099,581;    1,005;   -0,773
781,513;24433,445;   -1,450;    0,318
782,080;23836,401;   -0,086;    2,864
782,647;24556,629;   -0,268;    3,045
783,214;24166,857;   -0,177;    3,864
783,781;23805,267;   -0,723;   -0,682
784,348;23686,131;   -0,632;    1,500
784,915;24106,905;   -3,177;    0,318
785,482;23883,951;    1,368;    2,591
786,049;24305,816;    0,186;   -0,591
786,615;24414,044;    0,277;   -0,955
787,182;24209,090;    0,186;   -0,682
787,749;23881,955;   -2,814;    1,409
788,315;23223,092;   -1,632;   -0,409
788,882;23515,138;    1,550;   -1,227
789,448;24164,548;    1,732;   -0,955
790,015;24210,322;    1,095;    3,227
790,581;23778,277;    1,459;    0,227
791,148;23661,960;    0,641;    1,045
791,714;23962,188;   -0,541;    3,136
792,280;23648,052;    0,186;    1,591
792,847;23152,371;    0,550;    2,500
793,413;23742,417;   -0,269;   -0,318
793,979;23282,736;    3,459;   -1,318
794,545;23332,692;    4,459;    2,682
795,111;22750,920;    2,186;    1,318
795,678;22953,239;    0,731;   -1,682
796,244;22628,012;    3,368;    0,136
796,810;23103,513;    1,731;    0,773
797,375;22827,741;    0,549;   -2,136
797,941;22877,879;   -0,541;    0,591
798,507;23030,016;   -0,451;   -0,955
799,073;22559,608;   -0,360;    0,591
799,639;22678,654;   -2,632;    3,136
800,205;22718,973;    0,095;    2,682
800,770;22244,383;    0,640;    1,773
801,336;22340,247;    1,368;   -0,955
801,901;22038,384;    4,549;    3,136
802,467;22580,067;   -0,542;    2,045
803,033;21960,386;   -0,087;    0,864
803,598;22164,978;    1,913;   -1,045
804,163;22162,660;    1,095;   -0,318
804,729;22105,707;   -0,178;    1,136
805,294;22563,208;    0,822;    2,227
805,859;22321,708;    0,731;   -0,409
806,425;21794,391;    1,186;    2,682
806,990;21459,801;    2,186;    4,318
807,555;21948,665;   -1,451;    2,591
808,120;21783,439;    0,822;   -0,409
808,685;21899,213;    0,185;   -2,500
809,250;21436,532;    0,004;   -0,500
809,815;21751,487;    1,913;    0,682
810,380;22256,533;   -0,269;    1,591
810,945;22770,489;   -1,087;    2,045
811,510;21946,808;    2,094;    1,591
812,075;21656,854;   -0,633;   -1,409
812,640;21711,900;    2,003;    1,409
813,204;21767,946;    0,822;   -0,227
813,769;22239,902;    2,094;   -0,045
814,334;21659,403;    0,458;    0,864
814,898;21754,813;    0,367;    0,591
815,463;21627,586;    1,276;   -0,773
816,027;21564,996;   -0,724;   -2,318
816,592;21699,588;    0,640;   -2,045
817,156;21173,361;    2,094;    1,136
817,721;21027,135;    4,276;    2,318
818,285;20984,454;    2,912;    1,500
818,849;21651,137;   -1,451;    1,682
819,414;21585,001;   -0,269;    2,955
819,978;21173,320;   -1,269;    1,773
820,542;21694,821;    2,003;    0,500
821,106;21393,867;   -0,815;    0,682
821,670;21523,913;   -0,815;    2,591
822,234;21264,869;   -0,270;    1,409
822,798;20657,915;    0,003;    0,500
823,362;20614,961;   -0,633;    4,227
823,926;19927,644;    0,094;    1,136
824,490;20153,509;   -0,997;   -0,682
825,054;20579,282;   -0,088;   -1,136
825,618;20198,601;   -1,542;   -1,500
826,181;20139,375;    0,458;   -1,318
826,745;20074,421;    1,367;   -1,045
827,309;20407,013;    1,185;    1,318
827,872;19824,423;    1,367;    0,955
828,436;20783,105;    1,185;   -0,773
828,999;20880,697;   -0,997;    1,227
829,563;19681,380;   -0,179;    1,136
830,126;19511,699;   -0,179;   -0,591
830,690;19501,745;   -1,997;    2,864
831,253;19056,518;   -0,543;    2,227
831,816;19209,747;   -1,906;    0,500
832,380;19122,066;    0,185;    0,864
832,943;19319,748;   -1,361;   -0,500
833,506;18841,522;    2,639;   -1,227
834,069;19613,568;    3,912;   -0,955
834,632;19705,251;    1,730;    1,318
835,195;19628,752;    1,003;    0,955
835,758;18808,071;   -0,997;    1,955
836,321;18623,026;    0,730;   -1,045
836,884;18745,254;   -0,725;   -0,955
837,447;18805,846;   -2,816;    1,773
838,010;19030,710;    0,366;    3,227
838,573;19326,484;   -1,179;    0,773
839,135;19294,348;   -1,361;   -0,955
839,698;18728,395;    1,275;    0,409
840,261;18236,259;    1,003;   -0,227
840,823;18118,669;   -0,543;    0,864
841,386;18429,533;   -0,452;   -2,409
841,948;18324,307;   -1,361;    1,773
842,511;18061,262;    0,912;    1,682
843,073;18176,309;    1,912;    0,227
843,636;17978,355;   -0,361;   -0,227
844,198;17900,128;    0,911;    0,591
844,760;18019,447;    1,093;    1,955
845,322;17664,767;    0,548;    1,136
845,885;18115,449;    0,730;    0,591
846,447;18533,223;   -1,998;    0,227
847,009;18091,724;    1,911;   -0,682
847,571;18431,224;    0,820;   -2,045
848,133;18547,271;   -1,089;   -1,864
848,695;18354,953;   -0,543;    1,409
849,257;17938,727;   -1,089;   -1,682
849,819;18106,319;   -0,998;   -0,409
850,381;18167,183;   -0,725;   -0,864
850,942;18532,502;    1,093;   -0,591
851,504;18469,548;    1,184;    0,227
852,066;18516,231;    1,275;   -1,591
852,628;18015,277;   -0,180;    1,955
853,189;17574,505;    1,638;    2,682
853,751;17710,461;   -0,907;    1,409
854,312;17557,416;   -0,453;   -1,682
854,874;18021,281;   -2,089;   -0,773
855,435;18539,145;   -0,907;   -1,682
855,997;18671,828;   -1,816;   -0,136
856,558;17986,419;    0,366;    1,773
857,119;18094,011;    0,820;    2,864
857,681;17815,785;    0,002;    0,318
858,242;17809,104;    1,911;   -2,136
858,803;18259,696;    0,456;   -0,773
859,364;18826,833;    0,184;   -4,773
859,925;18165,061;   -2,453;   -0,955
860,486;18094,107;   -0,453;   -0,955
861,047;17770,972;   -0,544;   -1,227
861,608;17586,109;   -1,089;   -0,773
862,169;17747,246;    0,638;   -0,045
862,730;17521,201;    0,456;    1,409
863,291;17758,975;   -0,635;   -0,500
863,852;18102,658;   -0,635;    1,955
864,412;17578,522;   -0,271;   -0,864
864,973;16188,568;   -0,089;    0,500
865,534;16046,796;   -1,726;    0,227
866,094;17547,843;    1,820;    0,227
866,655;17219,525;    1,274;    3,318
867,215;17518,117;    0,274;    0,136
867,776;17379,709;    0,547;   -0,136
868,336;17461,664;   -1,453;    0,136
868,897;16894,347;    2,638;    1,682
869,457;16646,484;    1,365;    0,318
870,017;16910,076;    0,547;   -1,227
870,578;17457,395;   -0,817;    0,773
871,138;17075,077;   -2,089;   -0,955
871,698;16664,396;   -0,817;   -1,318
872,258;16544,079;   -0,453;   -2,864
872,818;16901,762;    2,729;    0,045
873,378;16850,717;    0,638;    1,045
873,938;16388,036;    0,547;    0,500
874,498;16726,810;    0,274;   -1,955
875,058;16638,220;    2,183;    1,773
875,618;16457,084;    1,910;   -2,682
876,177;16419,494;    1,274;    0,136
876,737;16037,177;   -0,090;    1,955
877,297;16039,405;    0,183;    1,955
877,856;16079,996;   -0,362;    0,318
878,416;16004,861;    1,183;   -0,136
878,976;16202,544;   -1,817;    0,409
879,535;16373,772;    0,092;    3,136
880,095;16099,636;   -0,544;    0,045
880,654;16204,501;   -1,090;    1,318
881,213;16323,365;    2,456;    1,500
881,773;15983,957;    2,637;    2,682
882,332;16312,912;    3,365;    5,136
882,891;16186,049;    3,092;    2,136
883,451;16611,096;   -1,272;    1,682
884,010;16134,324;   -2,908;   -0,409
884,569;16213,734;   -0,999;   -0,045
885,128;16330,598;    2,819;   -1,864
885,687;16380,644;    4,455;    0,682
886,246;16071,963;    1,455;    2,136
886,805;15835,828;    2,455;    2,045
887,364;16153,965;   -0,999;   -0,500
887,922;16537,284;   -1,181;    0,045
888,481;16028,785;   -1,545;    0,591
889,040;16327,286;    1,183;    2,136
889,599;17011,332;    2,455;    1,409
890,157;17051,106;    1,455;    2,409
890,716;16689,061;   -0,090;    0,227
891,274;16512,925;    0,092;   -1,136
891,833;16956,881;    1,546;    0,864
892,391;16791,836;   -0,454;    0,500
892,950;16878,155;    1,819;   -0,773
893,508;17268,565;    0,455;   -0,409
894,067;16658,884;    0,637;    0,136
894,625;16534,476;   -0,636;   -1,500
895,183;16794,977;   -0,363;   -0,682
895,741;16677,296;    1,728;   -1,773
896,299;16515,797;   -0,545;   -2,409
896,858;16704,116;    0,819;   -1,591
897,416;16799,435;    2,728;   -1,318
897,974;16560,935;    1,819;    0,318
898,532;16697,164;    6,091;    2,682
899,089;16639,301;    2,091;   -0,682
899,647;16691,802;   -1,454;    1,318
900,205;16386,666;    1,182;    1,045
900,763;16581,167;   -0,454;    0,227
901,321;16581,304;    2,364;   -1,409
901,878;16030,896;   -1,000;   -0,773
902,436;15933,306;   -1,363;    1,318
902,994;16326,443;    4,728;    3,682
903,551;15764,307;    0,728;    0,409
904,109;16145,081;    0,182;   -1,409
904,666;15750,764;    2,455;    1,045
905,224;15615,992;    0,182;   -0,409
905,781;15337,765;    0,727;   -0,318
906,338;15421,812;   -1,363;    1,045
906,895;15331,585;    0,637;    2,045
907,453;15221,540;    1,727;    1,136
908,010;15303,223;   -0,909;    0,409
908,567;14927,360;    1,273;    0,591
909,124;14456,770;    0,364;   -1,500
909,681;14511,453;   -2,909;    0,682
910,238;14685,681;    0,636;   -1,318
910,795;14998,455;   -0,273;   -1,136
911,352;14634,818;   -2,909;   -2,682
911,909;14091,364;   -1,364;   -0,864
912,466;14549,909;   -3,182;    1,500
913,022;14102,636;   -1,636;    0,500
913,579;14475,364;   -0,909;    2,045
914,136;14198,636;    1,636;    0,955
914,692;14511,455;    0,091;   -1,227
915,249;14110,636;    1,455;    0,409
915,806;14339,364;    0,182;    1,955
916,362;14104,000;    1,909;    1,864
916,918;13645,727;    2,000;    1,045
917,475;13600,727;   -1,182;    0,955
918,031;13705,818;    3,364;   -0,045
918,587;13155,455;   -0,909;   -0,318
919,144;13381,182;   -2,273;    0,227
919,700;13727,273;    1,727;    0,773
920,256;13279,545;    0,727;    0,045
920,812;12930,182;   -0,727;   -1,045
921,368;12929,182;   -1,727;   -1,045
921,924;12583,545;    0,182;   -0,136
922,480;12135,727;   -0,545;    1,227
923,036;12775,909;    1,273;    1,955
923,592;12723,818;    0,455;    0,318
924,148;12611,545;    0,455;   -0,955
924,704;11961,818;   -1,364;   -0,409
925,259;12204,818;   -0,273;    0,591
925,815;11966,545;    1,455;    0,500
926,371;11482,364;    2,909;    1,409
926,926;11376,455;    2,091;    0,591
927,482;11014,364;   -1,364;    0,773
928,037;10894,182;    0,909;    2,045
928,593;11173,000;    1,636;    1,045
929,148;11033,727;   -1,818;   -1,500
929,704;10532,545;   -1,455;   -0,500
930,259;10719,909;    0,091;   -0,136
930,814; 9817,545;   -0,818;    1,955
931,369; 9514,545;    1,091;   -0,773
931,925; 9431,000;   -0,091;    0,136
932,480; 9341,909;   -2,818;   -2,591
933,035; 9225,182;    0,545;   -0,318
933,590; 9010,000;    0,364;   -1,773
934,145; 8656,182;   -1,364;   -0,318
934,700; 9001,545;    0,455;   -0,591
935,255; 8790,000;   -0,091;    0,045
935,809; 8079,000;    3,182;    0,864
936,364; 7241,364;   -0,455;   -0,136
936,919; 7213,727;    0,455;   -1,773
937,474; 7118,091;    1,455;    0,136
938,028; 6880,091;   -1,636;    1,136
938,583; 6356,182;    1,818;    4,682
939,138; 6641,364;    2,091;    2,136
939,692; 6100,909;    1,636;   -1,136
940,247; 5781,364;   -0,727;   -1,045
940,801; 5355,455;   -0,636;    0,227
941,355; 5284,727;   -0,364;    2,591
941,910; 4919,455;   -0,273;   -2,136
942,464; 5032,909;   -0,818;   -0,318
943,018; 4821,182;    1,000;   -0,227
943,572; 4779,909;    2,545;   -0,682
944,126; 4204,727;    0,091;   -0,409
944,681; 4098,818;    3,091;    0,227
945,235; 4063,636;    1,000;   -0,591
945,789; 4023,091;    0,364;   -1,864
946,342; 4123,909;    0,455;   -0,591
946,896; 3937,636;   -2,273;    0,955
947,450; 3694,455;    1,545;   -0,227
948,004; 3887,636;    1,727;   -0,045
948,558; 3897,636;    0,273;   -0,864
949,111; 3787,273;   -0,273;   -0,318
949,665; 3838,545;    1,636;   -0,682
950,219; 3731,364;   -0,091;   -1,045
950,772; 3796,000;   -1,909;    1,864
951,326; 3713,455;    0,545;   -0,955
951,879; 3805,455;    0,727;   -2,318
952,433; 3827,818;    0,000;    2,227
952,986; 3672,273;    2,909;    0,682
953,539; 3603,364;   -0,273;    0,591
954,093; 3544,545;    0,545;   -1,318
954,646; 3667,182;    0,909;    1,318
955,199; 3481,182;    0,000;   -0,500
955,752; 3370,455;   -0,455;    1,773
956,305; 3360,000;   -0,091;    2,955
956,858; 3517,091;    0,818;   -0,318
957,411; 3667,000;   -0,545;    2,136
957,964; 3511,273;    1,364;    2,136
958,517; 3488,545;   -1,545;    3,136
959,070; 3330,091;   -0,455;    1,955
959,623; 3420,818;    1,091;    1,500
960,176; 3177,636;    1,727;    2,045
960,728; 3161,000;   -2,727;    0,773
961,281; 3239,455;    0,545;    0,500
961,834; 3268,818;   -0,909;    0,864
962,386; 3177,909;    1,727;    1,045
962,939; 3103,182;    0,364;   -0,318
963,491; 3274,364;    0,455;    1,136
964,043; 3121,000;    1,182;    2,409
964,596; 3247,636;   -1,000;    2,227
965,148; 3101,273;   -1,000;    1,773
965,700; 3017,727;    1,091;   -0,227
966,253; 3165,545;   -0,636;    0,318
966,805; 2988,545;   -2,273;    0,773
967,357; 3046,455;    1,091;   -1,500
967,909; 3009,545;    0,455;   -1,227
968,461; 3103,818;    0,545;    3,136
969,013; 3047,545;   -0,182;   -0,864
969,565; 3122,273;   -0,455;   -1,136
970,117; 3196,727;   -0,364;    1,045
970,669; 3032,727;    0,182;   -0,136
971,220; 2892,455;   -0,455;   -1,500
971,772; 2820,000;   -0,636;   -0,318
972,324; 2929,091;    0,091;   -0,500
972,876; 2886,818;    0,818;   -0,045
973,427; 3027,273;    1,909;   -1,045
973,979; 2984,909;   -0,727;   -2,500
974,530; 3027,545;    1,818;    1,318
975,082; 3034,364;   -0,545;    1,682
975,633; 2928,364;    1,091;    1,682
976,184; 3085,545;    0,909;    0,773
976,736; 2871,727;    0,091;    0,227
977,287; 2682,909;   -0,909;   -0,500
977,838; 2872,091;    0,909;   -0,318
978,389; 2906,727;   -1,000;   -0,500
978,940; 2777,273;    0,545;   -0,409
979,491; 2835,636;    0,091;   -0,500
980,042; 2790,545;    0,182;    3,045
980,593; 2837,818;   -2,545;    0,227
981,144; 2893,636;    2,545;   -0,500
981,695; 2851,818;    1,455;    1,500
982,246; 2816,182;   -0,273;    1,045
982,797; 2974,727;   -1,727;    0,682
983,347; 3060,545;    0,364;    0,591
983,898; 3237,909;    3,091;    0,409
984,449; 3077,364;    2,182;    0,773
984,999; 2961,636;    1,455;   -1,136
985,550; 2753,000;    0,182;   -0,318
986,100; 2792,818;   -0,455;   -0,318
986,651; 2817,727;   -0,818;    0,045
987,201; 2808,182;   -1,000;   -0,591
987,751; 2892,000;    0,818;    2,864
988,302; 2875,182;    2,636;    1,500
988,852; 2896,091;    0,455;   -1,136
989,402; 2938,818;    0,091;    0,682
989,952; 2858,182;   -2,182;    0,864
990,502; 2944,636;   -0,091;    0,682
991,052; 2920,455;   -0,727;    0,045
991,602; 2801,000;   -2,909;    1,318
992,152; 2794,091;    0,455;    0,682
992,702; 2780,000;    1,364;   -0,045
993,252; 2686,182;   -3,000;   -0,500
993,802; 2779,273;   -0,273;    1,318
994,352; 3005,455;   -1,545;    1,136
994,901; 3092,364;   -0,182;    3,227
995,451; 3012,364;   -0,182;    0,318
996,000; 3090,182;    1,636;    0,318
996,550; 2818,364;    2,273;    0,227
997,100; 2822,000;    1,273;   -0,045
997,649; 3095,091;    2,182;    0,955
998,198; 2746,091;    1,727;   -1,500
998,748; 2937,364;    1,091;   -2,318
999,297; 2847,273;   -0,818;   -0,409
999,846; 2914,636;    1,000;   -0,773
1000,395; 2953,455;   -0,818;    0,500
1000,945; 2915,273;    1,818;   -0,773
1001,494; 2999,000;    2,364;    0,682
1002,043; 2987,455;    4,636;    0,864
1002,592; 2830,000;   -1,091;    1,955
1003,141; 2973,636;   -0,455;   -0,682
1003,690; 2835,455;    1,727;    0,500
1004,238; 2913,273;    1,455;   -0,045
1004,787; 2551,182;    1,364;    1,227
1005,336; 2786,636;    0,364;    0,682
1005,885; 2937,727;    1,364;   -2,773
1006,433; 3063,909;    0,545;    0,955
1006,982; 3133,273;    0,455;    1,682
1007,531; 3043,636;   -1,818;   -0,227
1008,079; 2986,545;   -2,273;    0,500
1008,627; 3115,818;   -1,455;    0,409
1009,176; 2875,182;    0,000;   -1,955
1009,724; 2926,636;    1,091;    0,864
1010,273; 2966,455;    1,273;    0,500
1010,821; 3079,273;    0,091;    1,409
1011,369; 2831,182;   -1,364;    1,318
1011,917; 2817,455;   -1,364;   -0,591
1012,465; 3072,182;    1,273;   -1,591
1013,013; 3196,000;    2,091;   -1,682
1013,561; 3075,000;    0,455;   -0,773
1014,109; 3124,636;   -1,909;    1,682
1014,657; 3011,091;    0,364;    0,591
1015,205; 3124,273;    1,636;   -0,955
1015,753; 3146,545;   -0,545;   -1,409
1016,301; 3183,273;   -2,636;    3,045
1016,848; 3183,455;   -1,273;    0,409
1017,396; 3216,273;    2,545;    0,045
1017,944; 3347,091;    1,182;    1,864
1018,491; 3122,545;    0,273;    1,409
1019,039; 3253,455;    0,455;    0,591
1019,586; 3172,364;   -1,364;    1,682
1020,134; 3295,636;    0,455;    1,500
1020,681; 3321,364;    0,182;   -1,136
1021,228; 3311,182;    2,909;   -2,227
1021,776; 3161,000;    1,182;   -1,136
1022,323; 3367,545;    0,455;    0,773
1022,870; 3300,091;   -1,000;   -0,045
1023,417; 3195,000;    2,636;    1,864
1023,964; 3359,909;    2,636;    1,227
1024,511; 3202,545;    1,000;    0,773
1025,058; 3003,182;    3,182;   -0,045
1025,605; 3042,818;   -2,273;    3,136
1026,152; 3254,818;    1,727;   -0,591
1026,699; 2995,909;    1,818;    1,318
1027,245; 3161,818;   -0,091;    0,318
1027,792; 3374,091;   -1,000;    1,409
1028,339; 3262,455;    2,364;   -0,045
1028,885; 3121,545;    1,000;   -0,227
1029,432; 3044,091;   -0,091;    0,227
1029,978; 3100,091;   -1,000;   -1,591
1030,525; 3029,818;    1,000;    0,409
1031,071; 3275,818;   -1,364;    1,136
1031,618; 3359,273;    0,364;    1,682
1032,164; 3152,636;   -0,091;    3,045
1032,710; 3196,636;    1,636;   -1,500
1033,256; 3122,818;   -0,636;   -0,136
1033,803; 3081,636;   -0,545;    1,500
1034,349; 2831,000;   -1,364;    0,136
1034,895; 2997,091;    0,000;   -0,318
1035,441; 2969,545;   -0,818;    0,318
1035,987; 2969,455;   -2,364;   -0,682
1036,533; 2961,909;   -1,455;   -0,955
1037,078; 3146,182;    1,455;    1,682
1037,624; 2987,182;    2,455;   -0,955
1038,170; 3012,364;    0,455;   -0,318
1038,716; 2907,091;    1,636;   -0,409
1039,261; 2826,091;   -2,273;   -0,773
1039,807; 2789,727;   -0,091;    3,409
1040,352; 2847,364;   -1,909;   -0,318
1040,898; 2877,273;   -1,545;   -0,682
1041,443; 2799,091;   -1,455;   -2,591
1041,989; 2819,909;    1,091;    1,591
1042,534; 2706,545;   -0,364;    2,591
1043,079; 2816,091;    2,909;    0,955
1043,625; 2632,727;    1,818;    0,500
1044,170; 2675,182;   -1,364;    1,045
1044,715; 2908,273;    2,455;    0,955
1045,260; 2722,818;    2,182;   -0,955
1045,805; 2788,273;    1,182;   -0,591
1046,350; 2719,818;    1,364;   -0,409
1046,895; 2670,364;    2,909;    1,591
1047,440; 2637,909;    5,364;    0,409
1047,985; 2531,000;    2,818;   -0,955
1048,530; 2449,455;    1,545;    1,227
1049,074; 2493,000;    0,000;    0,318
1049,619; 2484,636;   -1,364;    1,955
1050,164; 2290,818;    0,455;    0,227
1050,708; 2341,636;   -0,455;    0,045
1051,253; 2698,727;    1,273;   -2,227
1051,797; 2403,455;    0,818;   -1,318
1052,342; 2426,455;   -1,182;    1,045
1052,886; 2414,091;    0,364;   -1,409
1053,430; 2301,000;   -1,364;    0,136
1053,975; 2314,091;   -0,818;   -0,318
1054,519; 2280,636;   -0,727;    3,227
1055,063; 2313,636;    0,909;    1,318
1055,607; 2204,818;   -0,182;    0,227
1056,151; 2217,000;    2,909;    1,682
1056,695; 2144,182;    2,273;   -1,136
1057,239; 2204,182;   -1,727;   -0,682
1057,783; 2213,182;    0,818;   -1,500
1058,327; 2148,909;    0,000;    1,409
1058,871; 2384,273;   -0,545;    1,318
1059,415; 2096,818;   -0,818;   -0,045
1059,958; 2357,364;    1,455;    2,591
1060,502; 2073,727;   -1,000;   -0,773
1061,046; 1984,273;    0,364;   -0,955
1061,589; 1972,909;   -3,000;   -1,136
1062,133; 1860,455;   -1,273;    1,864
1062,676; 1805,545;    1,182;    0,864
1063,220; 1798,727;    1,091;    0,500
1063,763; 1822,909;    0,909;    1,136
1064,306; 1893,091;   -0,909;    1,864
1064,849; 1782,636;   -0,909;    0,591
1065,393; 1783,273;    2,000;   -1,500
1065,936; 1897,091;    0,182;   -0,409
1066,479; 1779,727;   -1,455;    1,318
1067,022; 1806,091;   -0,273;   -0,227
1067,565; 1702,455;   -0,091;   -1,318
1068,108; 1734,000;    0,727;   -0,591
1068,651; 1722,091;   -0,636;    1,409
1069,194; 1647,000;   -0,455;   -1,682
1069,736; 1643,182;   -1,273;    0,955
1070,279; 1626,455;   -1,364;   -0,500
1070,822; 1666,818;   -2,000;   -0,318
1071,364; 1736,364;   -0,364;    1,318
1071,907; 1574,000;   -0,727;    3,227
1072,450; 1488,727;    0,000;   -0,045
1072,992; 1479,000;   -0,273;    3,136
1073,535; 1626,091;    2,091;    2,136
1074,077; 1419,909;   -0,727;    2,045
1074,619; 1376,273;   -1,364;    0,591
1075,161; 1391,727;   -1,091;    1,500
1075,704; 1587,545;    1,545;    1,227
1076,246; 1394,364;   -0,182;    0,682
1076,788; 1321,909;   -0,364;    1,773
1077,330; 1395,091;    1,273;    2,136
1077,872; 1362,455;    0,909;    0,955
1078,414; 1585,455;    2,727;    0,773
1078,956; 1316,818;    1,273;   -0,227
1079,498; 1560,545;    1,636;    0,318
1080,040; 1259,636;    1,909;   -1,318
1080,581; 1214,545;    1,636;   -0,318
1081,123; 1146,727;    0,091;   -0,773
1081,665; 1187,636;   -1,182;   -0,955
1082,206; 1481,909;    1,364;   -0,500
1082,748; 1338,909;    0,727;    2,045
1083,289; 1229,091;   -2,000;    1,318
1083,831; 1136,455;   -0,545;    0,227
1084,372; 1181,182;    0,000;    0,591
1084,913; 1187,727;    1,091;    0,864
1085,455; 1157,909;   -1,909;   -2,045
1085,996; 1127,818;   -2,273;    0,136
1086,537; 1133,545;   -0,091;    0,864
1087,078; 1160,091;   -0,909;   -2,136
1087,619; 1203,091;   -1,273;    0,227
1088,160; 1125,636;    0,000;    1,318
1088,701; 1115,273;   -1,091;    0,682
1089,242; 1056,182;    1,364;   -2,227
1089,783; 1139,636;   -0,273;    1,409
1090,324; 1112,273;    0,455;    0,682
1090,865;  995,636;    2,727;   -0,409
1091,405;  968,455;    0,727;    2,227
1091,946;  998,091;    0,182;   -0,955
1092,487;  924,818;    0,818;   -1,409
1093,027; 1083,273;   -1,364;   -1,500
1093,568;  937,727;   -0,364;    1,227
1094,108; 1032,545;    0,273;    1,773
1094,649;  976,091;   -1,182;    0,136
1095,189;  904,727;   -0,636;   -0,682
1095,729;  848,455;   -0,091;    0,955
1096,269;  855,455;    0,727;   -0,955
1096,810; 1172,000;   -1,364;    0,500
1097,350;  991,455;    1,364;   -0,773
1097,890;  896,818;    0,364;    1,227
1098,430; 1155,091;    2,364;    2,864
1098,970; 1023,273;    2,182;    1,682
1099,510;  901,818;    0,545;   -2,318
1100,050;  839,364;    1,000;   -1,591
1100,589;  795,727;   -0,727;   -0,318
1101,129;  909,273;    0,818;   -0,955
1101,669; 1059,455;    1,727;    2,136
1102,209;  886,455;   -0,091;    2,227
1102,748;  831,727;    0,000;    0,955
1103,288;  817,545;    1,273;   -1,227
1103,827;  856,000;    3,091;   -2,227
1104,367;  737,091;   -0,091;   -2,409
1104,906;  703,364;    1,364;   -1,136
1105,445;  764,455;    0,636;   -1,136
1105,985;  711,909;   -0,727;    1,500
1106,524;  766,455;   -1,727;   -0,682
1107,063;  722,182;   -2,727;    1,409
1107,602;  710,818;   -1,909;   -1,500
1108,141;  639,727;   -1,909;    1,500
1108,680;  741,909;   -3,455;   -0,591
1109,219;  663,727;   -0,909;   -0,500
1109,758;  678,182;    0,455;    0,682
1110,297;  654,000;    1,000;   -0,682
1110,836;  593,545;   -0,727;    0,955
1111,375;  753,545;   -2,545;    0,409
1111,913;  761,636;   -1,000;    0,773
1112,452;  685,273;   -0,273;    0,136
1112,991;  586,818;    1,091;    1,955
1113,529;  551,545;   -0,818;   -0,045
1114,068;  613,182;   -0,273;    2,955
1114,606;  513,909;   -0,364;   -0,955
1115,144;  674,636;   -1,273;    1,045
1115,683;  620,000;   -0,727;    0,318
1116,221;  658,455;   -0,455;   -0,864
1116,759;  581,091;    0,636;   -0,864
1117,297;  763,000;    0,000;    1,864
1117,836;  576,000;   -2,182;   -1,227
1118,374;  586,364;    0,182;   -0,682
1118,912;  528,000;    0,909;    2,682
1119,450;  501,636;    1,000;    0,864
1119,988;  561,273;    1,545;    2,136
1120,525; 1011,273;    5,091;    3,318
1121,063;  709,909;    1,182;    1,864
1121,601;  519,182;   -0,909;   -1,227
1122,139;  484,000;   -0,727;   -2,045
1122,676;  685,818;   -0,727;    2,773
1123,214;  605,182;   -1,182;    4,409
1123,751;  424,364;    1,727;    2,227
1124,289;  554,364;   -0,091;   -0,409
1124,826;  423,636;    1,727;    0,227
1125,364;  346,455;    1,727;   -0,955
1125,901;  532,636;    1,182;    1,227
1126,438;  644,091;    0,818;    0,955
1126,975;  382,000;   -0,727;   -0,773
1127,513;  442,545;    0,273;    2,136
1128,050;  343,273;    1,636;   -0,682
1128,587;  440,182;    2,000;   -0,227
1129,124;  483,273;    0,091;    1,318
1129,661;  369,455;    0,273;    0,227
1130,198;  529,818;    1,636;    0,773
1130,734;  473,545;    0,182;    1,409
1131,271;  331,455;   -0,909;    0,864
1131,808;  497,273;    2,909;    3,045
1132,345;  364,727;    1,545;    0,318
1132,881;  250,182;   -1,545;   -1,864
1133,418;  390,182;    0,727;   -1,136
1133,954;  320,455;    2,455;   -2,682
1134,491;  392,818;    1,364;   -0,773
1135,027;  293,909;    2,364;    0,864
1135,564;  378,273;    0,273;    2,955
1136,100;  361,091;    0,364;    2,136
1136,636;  259,727;   -1,273;   -1,045
1137,172;  347,545;    0,000;   -1,045
1137,708;  274,818;   -1,364;   -1,045
1138,245;  280,727;    1,273;   -1,227
1138,781;  231,818;    1,091;   -3,318
1139,317;  300,636;    1,273;   -1,409
1139,852;  285,273;    3,091;    0,136
1140,388;  403,727;   -1,182;   -0,409
1140,924;  283,273;   -1,091;   -2,227
1141,460;  223,727;   -1,636;    0,136
1141,996;  161,545;   -1,364;    2,682
1142,531;  208,727;    1,364;    3,318
1143,067;  422,818;    1,182;    1,045
1143,602;  476,364;   -0,091;   -0,318
1144,138;  333,636;   -2,636;    1,045
1144,673;  196,455;   -1,455;    1,409
1145,209;  255,000;   -1,909;   -0,318
1145,744;  177,000;   -0,727;    0,864
1146,279;  304,182;    1,818;   -0,136
1146,815;  221,545;    1,545;   -2,682
1147,350;  262,909;   -1,364;    0,045
1147,885;  179,364;   -0,818;   -1,318
1148,420;  183,455;   -2,273;    0,773
1148,955;  159,091;   -1,727;    1,864
1149,490;  185,364;   -0,909;   -1,591
1150,025;  166,727;    0,455;   -1,773
1150,560;  282,000;    1,091;   -0,955
1151,094;  246,636;    1,455;   -0,591
1151,629;  261,273;    1,636;    0,864
1152,164;  182,182;    1,364;    1,318
1152,698;  141,182;   -0,182;   -0,136
1153,233;  105,636;    0,091;   -0,682
1153,767;  152,636;   -3,000;   -2,318
1154,302;  197,818;   -1,455;    1,773
1154,836;  197,636;   -0,455;   -2,136
1155,371;  243,545;   -1,364;    3,682
1155,905;  197,364;   -0,636;    1,682
1156,439;  171,636;   -0,636;   -0,500
1156,973;  198,727;    0,364;    0,318
1157,507;  136,545;   -0,364;    0,682
1158,042;  178,182;   -0,727;    1,045
1158,576;  222,909;    0,182;    1,773
1159,110;  209,636;   -0,818;    2,409
1159,643;  169,818;    0,636;   -0,045
1160,177;  117,000;   -1,545;    1,500

