
Integration time [ms]:   0,040
Averaging Nr. [scans]: 11
Smoothing Nr. [pixels]: 0
Data measured with spectrometer [name]: 7318044SP
Wave   ;Sample   ;Dark     ;Reference
[nm]   ;[counts] ;[counts] ;[counts] 

186,757;   17,966;   31,551;    1,318
187,357;   33,884;   22,551;    0,955
187,958;   15,038;   15,460;   -1,591
188,558;   41,328;    8,915;   -1,227
189,159;   18,613;    6,733;   -4,500
189,759;  -15,418;    7,278;   -3,591
190,360;  -11,120;    2,824;   -2,136
190,960;   16,208;    2,915;   -4,136
191,560;   17,704;    3,189;   -6,591
192,161;  215,661;    4,372;   -3,500
192,761;   91,506;    4,010;   -3,227
193,361;   41,794;    1,556;   -3,773
193,962;   78,641;    2,010;   -2,682
194,562;   16,242;    1,189;   -3,955
195,162;   27,526;   -2,448;   -2,227
195,762;  136,332;   -3,176;   -0,045
196,362;   89,523;    1,370;   -2,500
196,963;    4,022;    2,006;   -0,864
197,563;   51,329;    1,551;   -0,955
198,163;    2,842;    0,096;   -0,682
198,763;   18,131;    1,733;   -0,500
199,363;   62,194;    3,096;   -0,500
199,963;   35,402;    0,369;    0,409
200,563;   24,807;    2,823;   -1,409
201,163;    4,577;    3,277;   -0,227
201,763;   34,119;    3,732;    0,318
202,363;    1,186;    1,459;    1,500
202,963;   36,260;    1,459;    1,045
203,563;   93,828;    0,277;    0,500
204,162;   24,922;    2,096;   -1,864
204,762;   18,047;    0,550;    0,591
205,362;    5,458;    3,004;    1,955
205,962;   30,758;    3,096;    1,955
206,562;   15,845;    1,823;    2,318
207,161;    3,753;   -0,087;    0,318
207,761;   77,330;    1,277;    2,409
208,361;   11,196;   -0,268;    1,409
208,960;   32,265;    0,459;    1,500
209,560;   28,413;    1,277;    1,591
210,160;   38,766;    0,550;    1,864
210,759;   19,515;    4,186;    1,227
211,359;    4,607;    1,459;    1,045
211,958;  113,495;    1,277;    2,045
212,558;  120,491;    1,732;    1,864
213,157;   46,319;    1,822;    1,500
213,757;  187,339;    3,822;   -0,227
214,356;   76,175;    1,277;   -0,409
214,956;  168,394;    3,095;    0,409
215,555;   47,434;    2,095;    2,136
216,154;   20,101;   -2,723;   -0,591
216,754;   21,191;    0,277;    0,773
217,353;   33,779;   -0,268;   -1,045
217,952;  -15,125;   -0,178;    0,318
218,552;   54,058;    1,368;   -0,773
219,151;   16,098;    0,277;    0,955
219,750;    1,720;    0,004;   -0,227
220,349;  -14,514;   -0,451;    1,045
220,948;   57,134;   -1,360;    1,136
221,548;   10,144;    0,913;    1,227
222,147;   26,625;   -0,087;   -0,409
222,746;  104,404;   -0,451;   -0,955
223,345;   46,953;    0,731;    0,500
223,944;   45,907;   -0,451;    0,773
224,543;   43,988;    1,004;   -1,409
225,142;   34,303;    0,094;    0,136
225,741;   44,155;   -0,814;    1,045
226,340;   33,917;   -0,451;   -0,955
226,939;   85,533;   -0,996;   -0,136
227,538;   21,911;   -0,360;   -0,773
228,137;   88,314;   -0,814;    0,864
228,735;   59,040;   -0,541;    1,227
229,334;   -4,325;   -0,905;   -0,227
229,933;   87,283;    0,459;    0,591
230,532;   94,819;    1,186;   -0,409
231,131;  141,752;    1,732;    0,318
231,729;   65,643;   -2,450;   -2,318
232,328;   23,792;   -0,723;   -1,500
232,927;   32,353;    1,004;   -0,500
233,525;   25,872;    3,640;    0,045
234,124;   42,334;    2,368;   -1,591
234,723;    8,886;    0,913;   -1,045
235,321;    6,959;    2,277;    0,136
235,920;   15,916;    1,186;   -1,227
236,518;   90,262;    3,459;    0,318
237,117;   16,569;    0,004;   -0,227
237,715;   34,827;    0,640;   -0,500
238,314;   37,821;   -0,087;   -2,318
238,912;  104,488;   -0,723;   -1,409
239,510;   61,849;    0,459;   -1,227
240,109;  109,014;    0,004;    3,773
240,707;   86,987;   -0,996;    1,227
241,305;   14,660;    0,550;    0,136
241,904;   53,660;   -0,178;   -2,045
242,502;  126,480;   -0,632;   -0,227
243,100;   72,007;   -0,087;   -0,955
243,698;   28,356;    0,732;    1,682
244,297;   51,312;   -0,632;    0,682
244,895;   46,957;   -0,269;   -2,318
245,493;  154,117;    2,186;   -0,591
246,091;  169,628;    1,368;   -1,318
246,689;  121,446;    1,004;    0,591
247,287;  116,596;    0,822;   -1,136
247,885;   97,249;   -1,451;    1,227
248,483;   82,565;    1,822;   -0,500
249,081;  149,506;    0,185;    1,591
249,679;  175,352;   -0,178;    1,682
250,277;   90,970;   -1,723;    0,864
250,875;  184,099;   -1,087;   -1,045
251,473;  126,055;   -1,178;    0,500
252,071;  211,565;    1,459;    1,045
252,669;  149,362;   -1,814;    0,318
253,267;  120,844;   -0,087;    0,773
253,864;  176,051;   -0,360;    0,682
254,462;  307,155;    1,640;    1,591
255,060;  146,060;   -0,269;    1,318
255,658;  148,817;    0,822;   -0,136
256,255;  199,232;    0,186;   -2,045
256,853;  252,794;   -0,269;    1,409
257,451;  232,842;    0,822;    1,864
258,048;  609,838;    1,822;    1,864
258,646;  370,336;    1,731;   -1,045
259,243;  468,885;   -0,087;    2,227
259,841;  357,332;   -0,814;    0,318
260,438;  224,492;   -0,087;    0,864
261,036;  351,071;   -1,905;    1,409
261,633;  253,909;   -0,087;    2,227
262,231;  232,208;    2,731;   -0,045
262,828;  244,156;   -0,905;    1,136
263,425;  313,655;    0,913;   -0,591
264,023;  318,424;    0,186;    0,045
264,620;  483,335;   -0,360;   -0,318
265,217;  613,726;   -2,087;    3,136
265,815;  352,141;   -1,905;    2,136
266,412;  496,183;    0,731;    0,136
267,009;  526,932;   -1,451;    0,773
267,606;  623,245;    0,822;   -0,955
268,203;  410,014;   -0,269;   -0,591
268,801;  465,028;    1,731;    0,591
269,398;  389,463;   -0,360;    2,500
269,995;  561,792;    0,277;    1,591
270,592;  493,887;   -0,632;   -0,500
271,189;  396,039;    0,186;    0,409
271,786;  371,504;   -0,632;    1,227
272,383;  642,163;   -1,087;    0,227
272,980;  484,176;    0,277;    0,318
273,577;  426,514;    0,004;    1,227
274,174;  393,548;    0,822;    2,591
274,771;  546,635;   -0,814;   -0,773
275,367;  955,695;    2,277;    1,409
275,964;  761,220;    0,731;   -0,500
276,561;  540,546;    1,549;   -1,045
277,158;  444,443;    0,095;   -1,773
277,755;  699,324;    2,185;    0,409
278,351;  568,245;   -0,451;   -1,500
278,948;  656,657;   -0,815;    0,045
279,545;  587,496;   -1,360;    2,318
280,141;  821,203;   -1,723;   -2,045
280,738;  741,997;   -0,451;   -0,136
281,334;  529,827;   -1,633;    0,591
281,931;  569,278;   -0,087;   -1,318
282,528;  695,122;    0,822;   -0,500
283,124;  800,973;   -1,087;   -0,500
283,721;  800,274;   -0,451;    1,409
284,317;  647,521;    0,185;    2,500
284,913;  878,336;   -1,360;    0,591
285,510; 1177,518;    0,640;   -0,318
286,106;  982,750;   -2,269;   -0,955
286,703;  717,987;   -0,360;    1,955
287,299;  687,332;   -1,451;   -0,591
287,895;  703,911;    0,822;   -1,045
288,491;  743,918;    0,186;    2,136
289,088;  897,804;   -2,360;    2,409
289,684;  975,089;   -1,723;    1,500
290,280; 1174,746;    0,368;    0,682
290,876; 1183,849;    1,822;    5,500
291,472; 1103,019;    1,276;    2,227
292,068; 1169,206;    1,367;    0,227
292,665; 1029,332;    2,095;    0,773
293,261;  927,859;    0,276;    2,136
293,857; 1199,471;    2,913;    2,136
294,453; 1173,282;    3,550;    0,955
295,049; 1440,754;   -0,268;    1,955
295,644; 1327,927;    0,095;    0,136
296,240; 1250,883;   -0,905;   -0,136
296,836; 1462,774;   -0,995;    0,318
297,432; 1685,063;    1,096;   -0,500
298,028; 1815,761;    0,732;    0,773
298,624; 1763,141;    1,459;    1,864
299,220; 1824,557;    2,368;    0,591
299,815; 1791,083;    1,005;   -0,409
300,411; 1929,026;    0,914;    1,773
301,007; 2085,486;    1,368;    0,227
301,602; 1963,564;   -0,541;   -2,318
302,198; 2127,387;    0,732;   -0,773
302,794; 2171,615;    1,187;   -0,500
303,389; 2250,163;   -1,177;    1,045
303,985; 2337,953;    0,550;    1,409
304,580; 2419,251;    1,459;    1,591
305,176; 2326,905;   -3,086;    0,136
305,771; 2227,761;   -1,268;   -1,227
306,367; 2586,736;    4,095;    0,136
306,962; 2503,109;    0,641;    1,500
307,558; 2343,412;   -0,450;    0,136
308,153; 2406,269;    1,095;   -1,136
308,748; 2338,870;   -0,814;    1,682
309,344; 2604,039;   -0,632;   -1,318
309,939; 2667,517;   -1,905;   -1,318
310,534; 2492,278;   -0,086;   -1,682
311,130; 2344,932;    0,459;   -2,500
311,725; 2172,757;    1,004;   -0,500
312,320; 2287,989;    2,459;    0,045
312,915; 2391,006;    1,459;   -1,045
313,510; 2528,788;    1,550;   -0,500
314,105; 2445,125;    1,096;    1,409
314,700; 2063,313;   -3,086;   -1,045
315,295; 2015,614;   -0,904;    0,045
315,890; 1817,744;    1,277;    0,864
316,485; 1926,940;   -0,359;   -0,318
317,080; 1892,929;   -3,086;    1,591
317,675; 2193,354;    2,005;   -0,682
318,270; 2240,209;    5,550;    3,318
318,865; 2150,844;    3,278;    3,045
319,460; 1911,169;   -0,904;    0,591
320,055; 1816,897;   -0,541;   -1,227
320,650; 1705,045;   -1,995;   -0,591
321,244; 1712,447;   -0,177;   -1,409
321,839; 1942,407;   -1,541;   -0,227
322,434; 1926,353;   -1,086;   -1,591
323,029; 1756,153;    1,732;    1,591
323,623; 1685,598;    1,550;    0,773
324,218; 1771,601;    2,368;    1,409
324,812; 1708,525;    1,096;    1,591
325,407; 1718,988;   -0,814;    2,045
326,002; 1806,413;    0,277;   -0,409
326,596; 1822,220;    0,914;    1,318
327,191; 1763,773;    0,823;   -1,045
327,785; 1667,311;   -0,813;   -0,227
328,379; 1843,440;    1,368;    0,136
328,974; 1797,834;    0,914;   -3,955
329,568; 1966,375;    0,186;   -2,409
330,163; 2035,639;    2,096;    1,045
330,757; 2082,367;    2,459;    1,591
331,351; 1965,570;    0,459;    0,682
331,945; 2131,523;    0,914;    1,409
332,540; 2203,844;   -1,723;   -0,591
333,134; 2260,610;   -1,086;    0,773
333,728; 2331,813;    0,005;    0,318
334,322; 2497,196;   -1,177;   -0,864
334,916; 2292,771;    0,277;    0,955
335,510; 2602,145;   -0,450;   -0,136
336,105; 2805,046;   -1,086;    1,591
336,699; 2693,482;   -1,086;    0,591
337,293; 2799,102;   -1,723;    0,318
337,887; 2895,383;   -2,723;    1,955
338,481; 3111,783;    0,459;    0,591
339,074; 3412,588;   -0,359;    2,682
339,668; 3430,917;   -1,632;    1,227
340,262; 4011,369;    1,732;    3,227
340,856; 3589,021;    1,822;   -0,682
341,450; 3267,634;    1,004;    1,864
342,044; 3808,375;    1,459;    0,136
342,637; 3864,923;    0,913;   -2,136
343,231; 3909,722;   -2,360;    0,682
343,825; 3895,573;   -1,086;   -0,591
344,419; 4041,892;   -1,995;    0,500
345,012; 4313,733;    2,459;    4,045
345,606; 4297,243;    4,641;    1,591
346,199; 4202,082;   -1,813;   -0,227
346,793; 4119,320;    1,914;    2,045
347,386; 4259,857;   -0,813;   -1,136
347,980; 4232,159;   -0,268;   -0,045
348,573; 4258,388;    2,278;    0,409
349,167; 4282,979;    5,278;    4,773
349,760; 4563,284;    2,914;    2,682
350,354; 4505,822;   -0,813;    1,136
350,947; 4439,506;    1,096;    1,682
351,540; 4211,626;   -0,358;   -1,409
352,134; 4179,133;    1,096;    1,136
352,727; 4271,246;   -0,086;    1,136
353,320; 4218,259;    0,005;    0,591
353,913; 4078,749;   -1,995;    1,864
354,507; 4281,753;    0,823;   -1,227
355,100; 4303,839;    0,460;    0,864
355,693; 4021,445;    2,005;    2,409
356,286; 3946,496;    0,823;    2,773
356,879; 4123,650;   -0,722;    1,227
357,472; 3847,228;   -0,904;    1,500
358,065; 4005,730;   -0,722;    2,500
358,658; 3935,921;   -0,540;    2,318
359,251; 3669,832;   -1,631;   -0,591
359,844; 3471,728;   -1,904;   -1,136
360,437; 3632,628;   -2,995;    0,045
361,030; 3720,165;    1,369;   -0,682
361,623; 3436,992;    2,824;    0,318
362,215; 3512,940;   -0,086;    2,045
362,808; 3371,308;   -2,358;   -1,682
363,401; 3432,228;   -2,449;    0,136
363,994; 3411,099;   -0,631;   -1,500
364,586; 3246,470;    0,824;   -1,500
365,179; 3315,941;   -0,449;   -1,136
365,772; 2957,601;   -1,995;    2,045
366,364; 3090,706;    1,915;   -3,227
366,957; 3266,851;    2,279;   -0,045
367,549; 3162,508;    2,188;   -0,864
368,142; 3014,216;    1,825;   -1,500
368,734; 3068,660;    0,734;   -2,136
369,327; 3025,645;    1,643;   -0,500
369,919; 2963,224;   -1,538;    0,409
370,512; 2932,852;   -1,083;   -0,500
371,104; 2869,389;   -0,901;    1,591
371,696; 2964,155;    1,191;   -0,955
372,289; 2913,801;    0,373;    1,136
372,881; 2910,316;   -2,080;    1,318
373,473; 2790,877;   -2,170;    1,136
374,066; 2773,100;   -0,169;    0,500
374,658; 2703,098;    0,378;    1,136
375,250; 2808,559;    0,653;   -1,409
375,842; 2731,906;    0,473;   -0,045
376,434; 2624,992;   -0,435;   -0,409
377,026; 2913,322;    0,204;   -2,500
377,618; 2833,783;   -0,158;   -0,682
378,210; 2729,632;   -0,338;   -1,955
378,802; 2596,018;    0,754;   -0,591
379,394; 2820,488;    1,846;    0,682
379,986; 2929,833;    1,393;   -0,955
380,578; 2899,598;   -0,153;    0,773
381,170; 2738,707;   -0,972;    0,045
381,762; 2643,266;    0,755;    1,409
382,354; 2671,867;   -0,065;   -1,318
382,945; 2687,229;   -2,976;    0,318
383,537; 2764,849;   -2,705;   -1,955
384,129; 2792,162;   -2,160;   -1,136
384,721; 2896,632;   -0,252;    0,955
385,312; 2785,784;   -0,161;   -0,955
385,904; 2902,093;   -2,706;    1,591
386,496; 2515,066;   -0,979;    1,045
387,087; 2670,653;    1,022;    2,500
387,679; 2638,448;   -1,160;    0,045
388,270; 2730,975;    2,840;    2,045
388,862; 2731,655;    1,295;   -0,318
389,453; 2551,556;   -0,887;    1,045
390,045; 2762,616;   -0,705;   -2,682
390,636; 2717,109;    0,204;   -0,591
391,227; 2614,682;   -0,523;   -0,045
391,819; 2722,332;    0,204;    0,773
392,410; 2839,593;    1,022;    0,045
393,001; 2758,136;   -0,979;   -1,591
393,593; 2876,906;    1,930;   -0,045
394,184; 2822,683;    1,385;   -0,409
394,775; 2636,442;    1,839;    2,136
395,366; 2828,382;    1,385;    0,773
395,957; 2811,171;    0,113;    0,136
396,548; 2894,828;   -0,342;    2,682
397,139; 3123,705;   -2,433;    0,591
397,730; 2903,986;   -1,888;    0,955
398,321; 2958,187;   -1,252;    0,955
398,912; 2923,497;   -0,615;    0,136
399,503; 3026,253;   -3,524;   -1,409
400,094; 2742,206;    0,294;    1,682
400,685; 2685,306;   -0,433;    0,045
401,276; 2643,845;    0,930;   -0,955
401,867; 2780,405;   -0,888;    0,773
402,458; 2795,085;   -2,251;   -2,318
403,048; 2844,320;    1,112;    0,591
403,639; 2584,022;    0,840;    0,864
404,230; 2866,716;    2,476;    0,318
404,821; 2830,435;   -0,615;    0,045
405,411; 2795,298;    1,203;   -2,591
406,002; 2525,261;   -1,252;   -1,136
406,592; 2639,373;    2,294;    0,045
407,183; 2608,702;    0,566;   -1,500
407,774; 2492,661;    3,475;   -0,136
408,364; 2570,714;    0,930;    0,409
408,954; 2468,238;    0,384;    1,227
409,545; 2447,963;    1,021;    1,045
410,135; 2154,713;    1,293;    0,500
410,726; 2180,784;    1,838;    0,318
411,316; 2393,997;    0,111;    0,773
411,906; 2119,045;   -0,253;   -0,409
412,497; 1925,864;   -1,070;   -0,045
413,087; 2030,745;   -1,980;   -0,227
413,677; 2100,996;   -0,707;    3,864
414,267; 1976,962;    0,656;    1,409
414,857; 1889,149;   -2,980;    4,227
415,448; 1931,052;    0,839;    0,500
416,038; 1799,269;    0,020;   -0,591
416,628; 1741,812;   -0,889;    0,409
417,218; 1722,156;    0,565;    3,318
417,808; 1836,161;    0,202;   -0,409
418,398; 1685,647;    0,020;    2,682
418,988; 1531,530;    2,020;    0,591
419,578; 1554,425;   -0,707;    1,409
420,168; 1607,320;   -1,343;   -0,955
420,757; 1629,719;   -1,343;   -1,500
421,347; 1345,820;    0,111;   -0,227
421,937; 1301,303;    2,292;    1,409
422,527; 1394,859;    0,838;   -0,773
423,116; 1486,131;   -0,253;   -0,045
423,706; 1197,475;   -1,889;    0,318
424,296; 1042,292;    1,384;    0,682
424,885; 1261,292;   -0,071;   -3,045
425,475; 1181,213;    1,474;   -2,864
426,065;  998,514;   -0,980;   -0,318
426,654;  928,245;   -0,435;   -0,318
427,244; 1268,974;    0,020;    1,409
427,833; 1142,786;    1,383;   -0,500
428,423;  940,024;   -0,526;    1,136
429,012;  995,864;   -0,344;   -1,136
429,601; 1063,269;   -1,344;    0,136
430,191;  885,097;    1,292;    4,318
430,780;  675,631;   -0,344;   -0,409
431,369;  977,906;    0,746;   -0,045
431,959;  859,759;   -1,254;    0,500
432,548;  690,156;   -1,163;   -0,045
433,137;  569,347;   -1,254;   -1,318
433,726;  692,522;    0,292;    0,500
434,315;  646,590;   -0,526;    2,409
434,905;  783,380;   -1,254;    1,409
435,494;  800,667;    0,746;    0,955
436,083;  567,768;   -0,981;   -0,955
436,672;  615,141;    0,110;    0,500
437,261;  532,310;    0,292;   -1,955
437,850;  871,817;    1,383;    0,682
438,439;  907,453;    3,291;    1,955
439,027;  997,096;    3,655;    1,773
439,616;  898,779;    2,927;    1,227
440,205;  571,733;    0,200;   -2,136
440,794;  453,874;    2,109;   -0,045
441,383;  328,954;   -1,346;   -0,591
441,971;  253,042;   -2,436;    0,591
442,560;  263,819;    0,563;   -1,773
443,149;  140,623;    0,379;   -1,318
443,737;  199,457;   -0,074;   -2,318
444,326;  195,822;    0,018;    0,318
444,915;  261,575;   -1,982;    0,864
445,503;  245,657;   -2,891;   -0,318
446,092;  546,573;    0,382;    2,136
446,680;  456,585;    0,382;    0,318
447,269;  343,107;   -0,346;   -0,318
447,857;  293,305;    0,018;   -1,773
448,445;  225,887;    0,563;    1,318
449,034;  149,004;   -1,528;   -1,136
449,622;  133,186;   -1,073;    3,500
450,210;  466,130;    2,017;    2,227
450,799;  359,954;    0,290;   -0,591
451,387;  287,900;    1,381;   -0,591
451,975;  262,709;    2,654;    0,864
452,563;  354,482;    3,472;    2,318
453,151;  128,506;   -0,528;   -1,227
453,739;  184,781;   -1,347;    0,136
454,328;  301,740;    2,381;   -2,136
454,916;  227,420;    2,562;   -0,136
455,504;  228,438;    1,017;    1,227
456,092;  105,913;    0,017;   -1,591
456,679;   47,248;    1,472;    0,682
457,267;  488,537;    4,017;    1,045
457,855;  139,971;    1,017;    1,409
458,443;  -15,283;   -0,165;    1,682
459,031;  160,705;    0,108;    2,409
459,619;  118,482;   -1,801;    2,864
460,206;   10,975;    0,835;    2,045
460,794;   16,380;   -2,983;   -0,227
461,382;   63,526;   -0,529;   -0,864
461,970;   62,465;    1,198;    1,864
462,557;  -10,688;   -0,711;   -0,682
463,145;  110,091;   -3,165;   -1,682
463,732;  350,844;    2,016;   -1,045
464,320;  119,348;   -0,075;   -3,045
464,907;  244,311;    2,743;   -0,773
465,495;  170,682;    0,743;   -1,227
466,082;   87,558;   -1,984;   -0,045
466,670;  112,016;   -2,529;    1,227
467,257;    7,388;   -1,711;    2,045
467,844;  105,789;   -0,075;    0,045
468,432;   75,278;    0,834;    3,500
469,019;   28,724;    0,925;   -1,773
469,606;  114,681;    0,470;    3,682
470,193;  152,770;   -1,439;    0,227
470,780;  104,716;   -2,075;    0,864
471,368;   31,852;   -1,257;   -0,773
471,955;  133,663;    1,379;   -0,682
472,542;   97,715;    0,652;   -1,136
473,129;  -10,272;   -0,166;    0,136
473,716;   -5,853;    1,470;    0,591
474,303;   21,875;    0,652;   -0,864
474,890;   24,853;   -1,439;   -0,500
475,477;  130,106;   -1,621;    0,409
476,064;   32,947;    1,106;   -1,591
476,650;  144,017;    0,288;    0,318
477,237;   55,108;   -0,258;    0,955
477,824;   34,144;   -1,076;    0,864
478,411;  -42,405;   -1,894;   -0,318
478,997;  -54,841;    0,560;   -0,773
479,584; -101,393;    1,196;   -0,409
480,171;   66,779;   -0,440;   -0,773
480,757;  124,377;    2,651;    0,773
481,344;   23,296;    0,469;    0,409
481,931;  -61,851;    1,105;    1,045
482,517;   58,030;   -1,258;    0,318
483,104;  140,031;    1,106;    2,864
483,690;   14,124;   -1,804;    0,045
484,276;   -6,282;   -0,895;    0,227
484,863;  193,162;    2,469;    1,136
485,449;   48,733;   -0,077;    0,318
486,035;    3,403;   -1,986;   -0,136
486,622;   87,477;   -0,895;    0,045
487,208;    2,548;    1,378;    1,500
487,794;  -60,497;    0,741;    0,318
488,380;  -66,672;    0,105;   -1,409
488,967;  -58,095;   -1,168;   -0,409
489,553;  -41,623;   -1,895;   -1,409
490,139;   40,712;    1,559;    0,773
490,725;  -30,830;    0,741;   -0,227
491,311;   15,954;    3,287;    3,045
491,897;  -11,680;   -0,986;    1,500
492,483;   -5,188;    0,105;    1,227
493,069;  420,111;    3,923;    0,864
493,655;  144,975;    1,650;    0,682
494,241;   18,850;    1,377;   -0,955
494,826;   37,740;    0,287;   -1,045
495,412;   98,771;    2,559;   -0,682
495,998;    4,994;   -0,805;   -0,318
496,584;   66,741;    0,377;    1,045
497,169;   86,992;    1,014;   -0,682
497,755;   21,536;    0,650;    1,227
498,341;  151,900;    0,559;    0,318
498,926;  279,974;    1,832;    1,955
499,512;   22,613;    1,286;    2,955
500,097;   28,313;    0,195;   -0,318
500,683;   50,122;   -0,350;    2,136
501,268;    0,790;   -0,169;   -0,955
501,854;   27,769;   -0,169;    1,227
502,439;   24,701;   -0,624;   -1,773
503,024;   66,200;    0,195;    0,500
503,610;  103,046;   -0,078;   -0,682
504,195;   49,995;    0,558;    1,955
504,780;  167,521;    2,922;    1,227
505,366;  289,152;    3,013;    2,864
505,951;  232,418;    0,740;    1,045
506,536;  165,080;   -3,260;   -3,682
507,121;  276,283;    0,285;   -0,318
507,706;  245,831;    2,376;    1,045
508,291;  221,419;    2,649;    1,136
508,876;  280,766;   -0,988;    2,591
509,461;  450,749;   -0,169;   -0,773
510,046;  588,595;    0,194;    0,318
510,631;  661,399;   -0,351;   -0,773
511,216;  652,016;    2,467;   -0,500
511,801;  910,961;   -0,442;    2,591
512,386; 1093,557;    0,740;    0,500
512,971; 1288,307;   -2,988;    0,955
513,555; 1511,716;   -0,897;   -1,500
514,140; 1811,934;   -0,442;   -3,136
514,725; 2107,383;   -0,715;   -1,136
515,309; 2357,015;   -0,533;    0,318
515,894; 2520,620;   -0,624;   -2,227
516,479; 2995,264;   -0,624;   -0,955
517,063; 3218,166;    0,376;    1,227
517,648; 3720,988;    1,012;   -1,136
518,232; 3850,785;   -0,261;   -1,409
518,817; 4500,029;   -0,079;    1,682
519,401; 5134,902;    2,194;    0,591
519,985; 5119,805;    1,103;    1,136
520,570; 5491,032;    0,830;   -1,955
521,154; 6095,013;    2,102;    0,591
521,738; 6652,944;   -2,352;    2,409
522,323; 7506,553;   -0,170;    1,682
522,907; 7657,548;    0,466;   -0,136
523,491; 7858,459;    0,557;    0,955
524,075; 8189,703;    2,284;    0,591
524,659; 8609,538;    1,466;    0,591
525,243; 8518,026;    1,739;    0,409
525,827; 9054,128;    0,648;   -0,045
526,411;10018,447;   -1,989;   -0,136
526,995;10484,243;   -0,352;    1,409
527,579;10378,000;   -0,443;   -1,045
528,163;10905,771;    0,375;   -1,500
528,747;11077,130;    2,466;   -0,773
529,331;11552,975;   -0,080;   -1,409
529,915;11904,803;    1,738;    0,955
530,499;12037,136;   -0,807;    1,227
531,082;11949,726;   -0,534;    1,591
531,666;11585,277;    1,374;    0,773
532,250;12309,011;    1,284;    2,682
532,833;12742,879;    0,920;    2,773
533,417;12773,093;   -1,807;    0,864
534,001;12840,775;    1,647;   -0,318
534,584;13620,913;    0,374;    0,500
535,168;13547,003;    0,465;    1,409
535,751;13617,217;    0,647;    0,045
536,334;13173,497;   -0,898;   -0,409
536,918;13822,435;    0,011;    1,591
537,501;13977,173;   -0,899;    1,318
538,085;14046,452;   -0,444;    1,045
538,668;14237,968;    0,829;    2,409
539,251;14556,666;    1,829;    3,773
539,834;14645,390;    0,101;    0,773
540,418;14630,716;   -1,990;    4,318
541,001;14778,770;   -0,990;    1,773
541,584;14783,232;    2,101;    2,227
542,167;14512,750;    1,374;    2,955
542,750;14681,424;    1,919;   -0,773
543,333;14328,057;    0,555;    2,136
543,916;15113,433;    0,192;    2,500
544,499;15709,774;   -1,354;    0,227
545,082;15735,655;    1,374;    3,591
545,665;15908,316;    1,919;    1,500
546,248;16255,784;    1,010;   -0,318
546,830;15944,204;   -0,445;    1,955
547,413;16335,919;    1,010;   -0,773
547,996;16890,899;    0,555;    0,500
548,579;16674,337;    0,919;    0,955
549,161;16472,218;    1,828;    2,682
549,744;16311,837;   -0,809;    0,409
550,326;16793,748;   -0,809;   -1,136
550,909;16569,092;    2,737;    0,591
551,492;16995,379;   -0,263;    0,227
552,074;16798,220;   -0,173;   -1,318
552,657;17354,009;    2,373;    0,045
553,239;17140,467;   -0,173;   -0,773
553,821;17049,178;   -1,082;    1,045
554,404;16571,795;    1,282;    1,136
554,986;16967,987;    0,464;    1,045
555,568;17559,991;    1,191;   -0,955
556,151;16820,235;    1,191;   -0,227
556,733;16982,347;   -0,264;   -0,864
557,315;17396,191;    0,100;    0,500
557,897;17259,702;    0,554;   -0,500
558,479;17361,553;   -1,991;    1,318
559,061;17505,395;   -0,719;   -0,864
559,643;17857,990;   -0,264;    0,045
560,225;18202,599;    1,645;    2,864
560,807;18256,535;    0,918;    0,318
561,389;17796,055;    0,554;    2,318
561,971;18534,267;    0,463;    2,136
562,553;18307,881;   -1,628;    1,591
563,135;18416,182;   -0,537;    1,136
563,717;18046,150;    3,372;    1,136
564,298;18732,098;    3,645;   -0,045
564,880;18467,648;    0,645;   -1,409
565,462;18621,284;    0,645;    1,318
566,043;19771,379;   -0,446;    2,318
566,625;19276,469;    1,918;    1,227
567,207;19104,665;    1,099;    1,682
567,788;20244,397;   -1,264;    1,500
568,370;21065,386;    1,917;   -0,500
568,951;20804,463;    0,190;    0,227
569,533;21704,398;   -0,628;   -0,500
570,114;22119,780;   -0,446;    0,682
570,695;22602,812;   -0,174;   -1,318
571,277;23036,003;   -0,265;   -1,682
571,858;23744,117;    2,008;   -1,136
572,439;24625,985;    1,554;   -1,045
573,021;24808,967;    2,099;   -2,773
573,602;25296,957;   -1,265;    0,318
574,183;26198,028;   -2,083;    2,227
574,764;26307,995;   -1,629;    0,409
575,345;26813,458;    0,917;   -0,136
575,926;27400,711;   -0,356;    0,136
576,507;27408,592;    1,099;   -0,227
577,088;28519,289;    3,099;    1,682
577,669;28476,547;    0,735;    1,955
578,250;29150,573;    0,644;   -1,045
578,831;29781,115;   -1,356;   -2,227
579,412;30019,154;   -0,810;    0,955
579,993;30936,126;    1,008;    0,227
580,573;31333,430;   -0,629;   -0,955
581,154;30333,760;    0,735;   -0,591
581,735;31139,333;    0,644;    0,773
582,315;30643,424;   -0,629;    2,136
582,896;30959,086;   -0,174;    1,227
583,477;30434,559;    0,189;    1,227
584,057;30658,823;    0,553;    0,955
584,638;30964,308;    2,553;    2,318
585,218;30957,548;   -0,538;    2,682
585,799;31132,663;    0,281;   -0,227
586,379;31065,835;    0,372;    1,591
586,959;29901,180;    0,735;    0,318
587,540;29274,930;   -0,629;    2,227
588,120;28864,802;    1,007;   -0,045
588,700;27863,450;    2,553;    2,136
589,281;28154,005;    0,462;   -0,955
589,861;28068,950;    0,099;   -1,682
590,441;27918,461;    2,371;   -2,682
591,021;26945,398;   -0,265;   -2,591
591,601;27219,223;   -0,537;    0,500
592,181;27238,341;   -0,719;   -0,773
592,761;26481,638;    0,007;    1,409
593,341;26421,057;   -0,901;    0,045
593,921;26404,168;   -0,265;    1,591
594,501;26279,210;   -0,538;    1,318
595,081;26131,833;    0,917;   -0,318
595,661;26478,720;   -1,447;    0,955
596,240;26972,526;   -0,537;    0,136
596,820;26644,905;    0,372;    1,955
597,400;26833,930;    2,008;    0,773
597,980;27033,187;    2,008;    1,045
598,559;27048,291;    2,735;   -0,227
599,139;26791,933;   -0,174;   -1,227
599,718;26725,660;   -0,174;   -0,409
600,298;26968,777;    0,735;    0,682
600,877;27197,007;    2,917;    1,409
601,457;27481,750;    2,281;    1,136
602,036;27369,586;    0,190;    2,045
602,616;27528,277;    0,644;    1,682
603,195;27859,204;   -0,355;    3,500
603,774;27371,269;   -0,901;    2,045
604,354;27297,967;    0,826;   -0,500
604,933;26808,584;    0,463;    1,864
605,512;26901,575;    3,554;    0,591
606,091;27008,531;   -0,537;    3,773
606,671;27799,629;    0,281;    0,773
607,250;26929,904;    1,644;    3,136
607,829;27191,885;    2,372;    3,227
608,408;27057,499;    1,190;    2,591
608,987;26099,928;    1,281;    3,409
609,566;26402,994;   -1,265;   -2,500
610,145;26466,628;   -1,082;    0,682
610,723;26914,935;    4,372;    6,864
611,302;26211,103;   -0,446;    1,682
611,881;25673,655;    5,008;   11,227
612,460;26511,172;    1,645;    3,955
613,039;26956,550;   -0,082;    2,045
613,617;25693,919;    1,736;    4,773
614,196;25906,930;    1,099;    1,227
614,775;26155,245;    1,009;    2,409
615,353;26175,297;    0,736;    0,864
615,932;25887,723;    0,100;    2,409
616,510;26461,336;    0,554;    0,591
617,089;25999,968;    7,100;   17,591
617,667;25769,815;    2,372;    6,136
618,246;25629,654;   -1,537;    1,318
618,824;25783,718;   -3,355;   -0,955
619,402;25378,173;   -2,900;   -1,773
619,981;25893,162;   -0,173;   -1,045
620,559;25739,488;    0,009;    1,682
621,137;25269,281;   -0,718;    1,864
621,715;25261,405;   -1,173;   -0,682
622,293;25196,613;   -0,537;   -0,773
622,871;25631,645;   -0,718;    0,500
623,450;25237,081;    0,373;   -0,864
624,028;25133,700;    0,191;   -0,955
624,606;24779,540;   -1,718;    1,682
625,183;25169,043;   -1,536;   -1,136
625,761;24801,224;    1,009;    1,136
626,339;25071,331;    1,373;    2,591
626,917;25464,026;   -0,172;   -0,045
627,495;25554,149;   -0,354;    1,318
628,073;24981,168;   -0,263;    2,864
628,650;24652,066;    0,100;    2,136
629,228;25070,108;    0,373;    4,409
629,806;24537,067;    2,282;    1,136
630,383;24829,023;    1,464;   -0,318
630,961;24599,371;    2,555;   -0,955
631,539;24340,445;    2,464;    0,227
632,116;23613,643;   11,373;   15,409
632,694;24251,752;    2,555;    6,500
633,271;24533,484;    0,828;    2,682
633,848;24434,495;    1,828;    2,045
634,426;24473,082;   -1,081;    1,773
635,003;23641,749;    1,101;   -0,409
635,580;23962,837;    1,192;    3,682
636,158;24521,102;    3,737;    1,227
636,735;24491,515;    0,555;   -0,500
637,312;24636,287;   -0,809;   -0,682
637,889;24758,684;   -4,354;   -0,682
638,466;24224,741;   -3,990;   -0,409
639,043;24194,748;    2,101;   -1,136
639,620;24529,899;   -2,262;   -0,955
640,197;24841,951;    1,100;    1,682
640,774;24999,725;   -0,172;    1,136
641,351;25413,318;    0,737;    1,136
641,928;24785,183;   -0,627;    1,409
642,505;24430,594;    0,828;   -0,500
643,082;24575,187;   -1,718;    1,227
643,658;23644,143;   -0,718;    1,500
644,235;24364,009;    1,191;    2,500
644,812;24669,238;    1,918;    0,773
645,388;24388,830;   -0,991;    1,409
645,965;24513,514;   -0,809;    1,682
646,542;24575,652;   -1,445;   -0,227
647,118;24506,609;    1,009;   -0,955
647,695;24847,838;   -0,263;    1,136
648,271;24791,339;   -0,536;    0,500
648,848;25078,114;    0,736;    2,227
649,424;24876,161;    0,827;    1,318
650,000;24634,208;   -0,354;   -1,045
650,577;24479,347;   -0,627;   -0,955
651,153;24932,757;   -1,809;    0,955
651,729;25927,350;    1,191;    0,864
652,305;26053,125;    0,645;    2,773
652,881;30007,354;   -0,082;    1,136
653,458;36537,219;    1,100;    0,227
654,034;40380,266;    0,282;    1,591
654,610;41917,404;    0,554;    0,773
655,186;43256,452;    0,645;    3,045
655,762;42937,044;   -0,991;    0,409
656,338;42960,910;    0,100;    0,136
656,913;43935,048;   -0,082;    0,409
657,489;43268,004;    0,827;   -0,318
658,065;43203,870;   -0,173;   -1,591
658,641;43951,553;   -0,900;   -0,864
659,217;43251,691;   -0,991;    0,409
659,792;42623,466;    0,645;   -0,409
660,368;42838,695;   -2,173;   -0,682
660,944;42611,651;   -2,082;    1,227
661,519;38447,062;   -0,628;    0,409
662,095;32814,291;   -1,719;    0,591
662,670;28180,520;    1,281;   -0,136
663,246;26945,568;    1,009;   -0,409
663,821;26207,979;    0,281;    1,682
664,396;25638,571;    0,009;    1,864
664,972;25926,164;    0,009;   -0,500
665,547;26276,575;    1,372;    0,136
666,122;26256,804;   -1,082;    0,318
666,698;26515,306;   -0,173;    0,318
667,273;25890,444;   -0,173;    0,136
667,848;26726,764;    2,372;    1,500
668,423;26464,356;    2,190;    2,318
668,998;27046,767;    2,827;   -0,682
669,573;27588,724;   -3,264;   -1,500
670,148;27429,589;   -1,446;   -0,682
670,723;27208,909;   -1,810;    0,318
671,298;27600,320;    2,372;    1,045
671,873;27709,094;   -0,082;   -0,136
672,448;27692,778;    0,645;    0,136
673,023;28068,371;   -1,992;   -0,227
673,597;28313,145;    0,827;    2,318
674,172;28103,011;   -0,355;    0,318
674,747;27592,422;    0,372;   -1,045
675,321;27460,105;   -0,628;    3,318
675,896;27030,789;    0,645;    1,045
676,471;28041,018;    2,645;    1,591
677,045;27851,338;   -1,264;    0,682
677,620;27886,658;    0,190;    1,136
678,194;28174,523;   -2,628;    1,136
678,769;27726,025;   -1,083;   -0,318
679,343;27962,981;   -0,628;    1,773
679,917;27824,029;   -1,446;    1,955
680,492;27893,530;    0,826;    3,227
681,066;28066,759;    3,372;    0,409
681,640;28108,898;    1,463;   -0,318
682,214;28881,672;    0,735;    0,500
682,788;28419,174;   -1,356;   -0,773
683,363;28375,948;   -1,810;    1,682
683,937;28101,087;   -1,719;   -0,318
684,511;28874,316;    0,463;   -0,591
685,085;28539,272;   -1,356;    0,318
685,659;28308,228;   -2,538;    0,864
686,232;28579,639;   -0,356;   -0,318
686,806;28336,050;   -0,901;    0,409
687,380;28949,006;   -0,174;    0,591
687,954;29157,781;   -1,174;    1,136
688,528;28793,283;   -0,719;    1,955
689,101;29641,239;   -3,992;    1,045
689,675;29227,832;   -0,356;   -0,136
690,249;28587,333;   -0,719;    0,409
690,822;28895,835;    0,280;    0,318
691,396;28969,792;   -0,265;    1,227
691,969;28448,657;    1,280;    0,136
692,543;28923,068;   -0,447;   -1,955
693,116;28557,388;   -0,265;   -1,409
693,690;28469,162;    0,099;    0,500
694,263;28993,573;   -1,083;    2,955
694,836;29033,257;    1,371;    3,591
695,410;27690,759;   -0,265;    1,773
695,983;28108,988;    0,189;    0,591
696,556;28072,399;   -0,447;   -1,045
697,129;28547,900;   -0,356;    1,409
697,703;28165,493;   -1,629;    1,955
698,276;28167,358;    1,462;   -0,773
698,849;27978,860;    1,280;    1,409
699,422;28337,544;   -1,083;    0,591
699,995;27982,591;    0,007;    0,136
700,568;28501,093;   -0,629;    3,045
701,140;28545,413;   -2,811;    1,682
701,713;28279,733;   -0,174;    2,409
702,286;27992,053;   -0,538;    0,864
702,859;27924,918;   -0,902;   -0,591
703,432;27073,511;    0,825;    0,682
704,004;27565,104;    0,462;    0,318
704,577;27446,696;   -0,629;    0,136
705,150;27984,562;    0,189;    2,500
705,722;27770,973;   -0,356;   -3,227
706,295;27519,474;   -0,175;   -0,591
706,867;27377,703;   -0,175;    1,955
707,440;27659,660;   -1,720;   -0,409
708,012;27901,616;    0,462;    0,591
708,584;27819,209;    2,462;    0,227
709,157;28146,801;    1,825;   -0,591
709,729;27755,031;    2,280;    2,045
710,301;28588,623;    0,734;    0,045
710,874;28574,216;   -1,447;   -0,227
711,446;27444,172;    0,371;    0,864
712,018;27346,492;    0,098;    0,500
712,590;27127,994;   -1,993;    1,682
713,162;27619,950;    0,825;    1,318
713,734;27926,816;    1,825;   -2,045
714,306;27863,045;   -1,902;   -0,409
714,878;26501,819;    0,825;    0,864
715,450;27333,230;    0,643;    0,864
716,022;27639,368;    1,552;    1,318
716,593;27795,234;    0,189;    0,591
717,165;27745,917;   -3,175;   -1,227
717,737;27432,328;    0,280;    0,409
718,309;27094,285;    0,280;   -0,045
718,880;27028,150;   -0,539;   -1,409
719,452;27271,561;   -0,175;   -1,591
720,024;26837,063;    0,734;   -0,591
720,595;27421,201;   -2,902;    0,955
721,167;26946,066;    0,370;   -2,045
721,738;26493,659;   -0,812;   -1,045
722,309;26437,343;   -0,993;   -1,227
722,881;26201,844;   -1,357;    0,773
723,452;26819,619;   -2,630;    2,864
724,023;26991,030;   -0,721;    2,682
724,595;26811,350;    0,007;    0,682
725,166;26554,761;    0,007;   -0,409
725,737;26196,899;    1,734;    0,227
726,308;26302,855;   -0,266;    0,318
726,879;26685,357;   -1,630;    1,227
727,450;26574,495;    0,552;   -0,045
728,021;26534,724;    3,097;    0,682
728,592;26327,771;    0,734;    0,500
729,163;26632,091;    0,643;   -0,136
729,734;26704,411;    0,188;   -0,227
730,305;27032,095;    1,734;    0,136
730,876;27342,869;    0,188;    2,955
731,447;27060,462;    2,188;    2,682
732,017;27176,873;    1,097;    1,864
732,588;26638,647;    0,734;    1,227
733,159;26837,604;    0,643;   -1,045
733,729;26651,833;    0,006;    0,409
734,300;25983,516;    0,915;    0,864
734,870;26356,564;    3,461;    0,591
735,441;26978,884;    0,370;   -0,591
736,011;26701,749;    0,643;   -1,591
736,582;26657,251;   -0,812;    0,045
737,152;26132,662;   -1,721;   -2,045
737,722;26604,982;   -0,267;   -0,682
738,293;26337,302;   -1,358;    1,318
738,863;26167,894;    2,461;    2,318
739,433;25979,033;    5,279;    0,318
740,003;26580,080;   -0,994;   -0,682
740,573;26030,763;    2,097;   -1,591
741,143;25983,356;   -1,085;    0,318
741,713;26762,676;    1,188;   -0,500
742,283;26504,632;    0,915;    1,591
742,853;26277,771;    1,915;    1,591
743,423;25766,636;    1,733;    0,045
743,993;25906,138;   -0,358;    1,500
744,563;25226,276;    0,097;   -0,864
745,133;25187,687;   -0,812;   -0,864
745,702;25884,279;   -0,267;    1,773
746,272;25071,327;   -0,176;    0,591
746,842;24848,283;   -1,358;   -0,591
747,411;25289,694;   -0,267;   -0,318
747,981;25490,923;    0,097;    0,500
748,551;25508,879;    2,278;   -1,045
749,120;25365,290;    0,642;   -0,227
749,690;25739,337;   -0,631;    2,409
750,259;26073,112;    1,369;    2,955
750,828;25957,432;    1,551;   -1,955
751,398;26257,752;    1,278;   -0,045
751,967;25748,072;    2,187;    0,409
752,536;25950,755;   -0,813;   -0,227
753,105;26374,439;    0,096;    0,227
753,675;26184,214;    0,096;    1,773
754,244;26137,443;   -0,904;    3,591
754,813;26137,126;    0,551;    1,227
755,382;25759,901;    0,460;    0,955
755,951;26292,403;    1,551;    3,682
756,520;25812,450;   -0,085;    1,864
757,089;26345,497;    0,278;    0,500
757,658;26500,908;    1,733;    1,227
758,227;26489,501;    1,096;    0,318
758,795;26831,548;    1,187;    1,136
759,364;27068,686;   -0,086;   -0,591
759,933;26103,188;   -1,176;   -0,045
760,501;25671,871;    0,733;   -1,318
761,070;26133,373;   -2,813;   -1,409
761,639;26814,511;   -1,904;    1,318
762,207;26075,740;    1,551;   -0,955
762,776;26014,788;    0,369;    0,864
763,344;26009,653;   -0,995;    0,591
763,913;25142,337;   -0,722;    1,409
764,481;25851,838;    1,005;   -0,136
765,049;25667,704;   -1,358;    1,409
765,618;25567,115;   -0,086;    0,318
766,186;25647,526;    0,278;    0,136
766,754;25805,755;    0,005;    1,864
767,322;24798,166;   -1,995;    0,409
767,890;24879,213;   -0,722;   -1,773
768,459;25215,169;   -2,177;   -0,318
769,027;25406,125;    1,641;    3,409
769,595;24435,991;    3,278;    2,591
770,163;24884,402;    3,823;    2,955
770,730;24628,540;    0,732;   -0,136
771,298;24509,860;    0,187;   -1,409
771,866;24585,816;   -1,541;    4,955
772,434;24918,682;   -0,631;   -1,864
773,002;25101,365;    0,005;    0,682
773,569;24743,049;    0,914;    1,682
774,137;24526,369;   -0,268;   -0,045
774,705;25286,962;    0,278;   -0,136
775,272;24867,827;    0,641;    0,682
775,840;24655,601;   -0,177;    2,682
776,407;24119,831;    0,277;    1,955
776,975;23742,060;   -0,632;    0,318
777,542;24784,198;   -1,086;   -0,045
778,110;24592,245;   -1,268;   -0,045
778,677;24259,201;   -2,359;   -0,864
779,244;24067,339;    2,186;    1,045
779,812;24158,478;    1,823;    0,864
780,379;23933,161;    0,005;    1,136
780,946;24198,845;    1,005;   -0,773
781,513;24561,438;   -1,450;    0,318
782,080;23947,757;   -0,086;    2,864
782,647;24649,259;   -0,268;    3,045
783,214;24250,216;   -0,177;    3,864
783,781;23910,263;   -0,723;   -0,682
784,348;23753,583;   -0,632;    1,500
784,915;24234,812;   -3,177;    0,318
785,482;23992,041;    1,368;    2,591
786,049;24399,906;    0,186;   -0,591
786,615;24561,045;    0,277;   -0,955
787,182;24297,092;    0,186;   -0,682
787,749;23983,230;   -2,814;    1,409
788,315;23320,641;   -1,632;   -0,409
788,882;23543,597;    1,550;   -1,227
789,448;24257,281;    1,732;   -0,955
790,015;24329,419;    1,095;    3,227
790,581;23880,921;    1,459;    0,227
791,148;23787,332;    0,641;    1,045
791,714;23964,651;   -0,541;    3,136
792,280;23603,062;    0,186;    1,591
792,847;23253,837;    0,550;    2,500
793,413;23840,611;   -0,269;   -0,318
793,979;23352,568;    3,459;   -1,318
794,545;23433,160;    4,459;    2,682
795,111;22838,299;    2,186;    1,318
795,678;23011,709;    0,731;   -1,682
796,244;22653,666;    3,368;    0,136
796,810;23206,986;    1,731;    0,773
797,375;22961,760;    0,549;   -2,136
797,941;22993,535;   -0,541;    0,591
798,507;23114,218;   -0,451;   -0,955
799,073;22693,447;   -0,360;    0,591
799,639;22730,586;   -2,632;    3,136
800,205;22800,087;    0,095;    2,682
800,770;22348,407;    0,640;    1,773
801,336;22458,546;    1,368;   -0,955
801,901;22145,593;    4,549;    3,136
802,467;22732,913;   -0,542;    2,045
803,033;22008,960;   -0,087;    0,864
803,598;22260,007;    1,913;   -1,045
804,163;22296,236;    1,095;   -0,318
804,729;22273,102;   -0,178;    1,136
805,294;22666,876;    0,822;    2,227
805,859;22404,105;    0,731;   -0,409
806,425;21847,425;    1,186;    2,682
806,990;21524,927;    2,186;    4,318
807,555;22080,338;   -1,451;    2,591
808,120;21935,294;    0,822;   -0,409
808,685;21982,705;    0,185;   -2,500
809,250;21533,207;    0,004;   -0,500
809,815;21783,709;    1,913;    0,682
810,380;22357,483;   -0,269;    1,591
810,945;22854,076;   -1,087;    2,045
811,510;21999,305;    2,094;    1,591
812,075;21763,443;   -0,633;   -1,409
812,640;21784,490;    2,003;    1,409
813,204;21857,719;    0,822;   -0,227
813,769;22359,494;    2,094;   -0,045
814,334;21775,087;    0,458;    0,864
814,898;21850,679;    0,367;    0,591
815,463;21720,181;    1,276;   -0,773
816,027;21666,865;   -0,724;   -2,318
816,592;21733,912;    0,640;   -2,045
817,156;21219,505;    2,094;    1,136
817,721;21118,370;    4,276;    2,318
818,285;21064,872;    2,912;    1,500
818,849;21680,919;   -1,451;    1,682
819,414;21609,603;   -0,269;    2,955
819,978;21232,286;   -1,269;    1,773
820,542;21779,879;    2,003;    0,500
821,106;21533,017;   -0,815;    0,682
821,670;21630,883;   -0,815;    2,591
822,234;21342,566;   -0,270;    1,409
822,798;20729,613;    0,003;    0,500
823,362;20688,206;   -0,633;    4,227
823,926;19965,253;    0,094;    1,136
824,490;20184,482;   -0,997;   -0,682
825,054;20641,530;   -0,088;   -1,136
825,618;20281,850;   -1,542;   -1,500
826,181;20212,988;    0,458;   -1,318
826,745;20114,762;    1,367;   -1,045
827,309;20498,900;    1,185;    1,318
827,872;19878,220;    1,367;    0,955
828,436;20857,904;    1,185;   -0,773
828,999;20934,860;   -0,997;    1,227
829,563;19762,271;   -0,179;    1,136
830,126;19571,500;   -0,179;   -0,591
830,690;19581,093;   -1,997;    2,864
831,253;19096,504;   -0,543;    2,227
831,816;19260,915;   -1,906;    0,500
832,380;19179,598;    0,185;    0,864
832,943;19383,373;   -1,361;   -0,500
833,506;18857,966;    2,639;   -1,227
834,069;19617,831;    3,912;   -0,955
834,632;19721,515;    1,730;    1,318
835,195;19618,835;    1,003;    0,955
835,758;18862,882;   -0,997;    1,955
836,321;18705,929;    0,730;   -1,045
836,884;18814,976;   -0,725;   -0,955
837,447;18825,023;   -2,816;    1,773
838,010;19044,343;    0,366;    3,227
838,573;19345,391;   -1,179;    0,773
839,135;19345,256;   -1,361;   -0,955
839,698;18767,940;    1,275;    0,409
840,261;18331,351;    1,003;   -0,227
840,823;18191,489;   -0,543;    0,864
841,386;18467,991;   -0,452;   -2,409
841,948;18324,129;   -1,361;    1,773
842,511;18082,903;    0,912;    1,682
843,073;18243,769;    1,912;    0,227
843,636;18034,725;   -0,361;   -0,227
844,198;17972,954;    0,911;    0,591
844,760;18096,001;    1,093;    1,955
845,322;17773,412;    0,548;    1,136
845,885;18160,096;    0,730;    0,591
846,447;18629,325;   -1,998;    0,227
847,009;18140,736;    1,911;   -0,682
847,571;18501,601;    0,820;   -2,045
848,133;18594,557;   -1,089;   -1,864
848,695;18425,241;   -0,543;    1,409
849,257;17979,652;   -1,089;   -1,682
849,819;18134,426;   -0,998;   -0,409
850,381;18208,746;   -0,725;   -0,864
850,942;18571,339;    1,093;   -0,591
851,504;18481,114;    1,184;    0,227
852,066;18539,797;    1,275;   -1,591
852,628;18074,663;   -0,180;    1,955
853,189;17664,255;    1,638;    2,682
853,751;17765,575;   -0,907;    1,409
854,312;17576,623;   -0,453;   -1,682
854,874;18072,670;   -2,089;   -0,773
855,435;18579,444;   -0,907;   -1,682
855,997;18730,401;   -1,816;   -0,136
856,558;18007,357;    0,366;    1,773
857,119;18116,131;    0,820;    2,864
857,681;17829,270;    0,002;    0,318
858,242;17849,499;    1,911;   -2,136
858,803;18268,728;    0,456;   -0,773
859,364;18853,048;    0,184;   -4,773
859,925;18206,731;   -2,453;   -0,955
860,486;18082,142;   -0,453;   -0,955
861,047;17831,371;   -0,544;   -1,227
861,608;17658,964;   -1,089;   -0,773
862,169;17800,284;    0,638;   -0,045
862,730;17608,786;    0,456;    1,409
863,291;17813,197;   -0,635;   -0,500
863,852;18198,335;   -0,635;    1,955
864,412;17675,109;   -0,271;   -0,864
864,973;16226,611;   -0,089;    0,500
865,534;16092,476;   -1,726;    0,227
866,094;17591,160;    1,820;    0,227
866,655;17239,480;    1,274;    3,318
867,215;17544,255;    0,274;    0,136
867,776;17418,393;    0,547;   -0,136
868,336;17475,349;   -1,453;    0,136
868,897;16929,033;    2,638;    1,682
869,457;16677,444;    1,365;    0,318
870,017;16897,582;    0,547;   -1,227
870,578;17438,356;   -0,817;    0,773
871,138;17121,676;   -2,089;   -0,955
871,698;16672,723;   -0,817;   -1,318
872,258;16540,862;   -0,453;   -2,864
872,818;16909,818;    2,729;    0,045
873,378;16890,138;    0,638;    1,045
873,938;16459,821;    0,547;    0,500
874,498;16762,232;    0,274;   -1,955
875,058;16642,916;    2,183;    1,773
875,618;16488,054;    1,910;   -2,682
876,177;16454,920;    1,274;    0,136
876,737;16093,967;   -0,090;    1,955
877,297;16108,923;    0,183;    1,955
877,856;16092,789;   -0,362;    0,318
878,416;16008,381;    1,183;   -0,136
878,976;16247,792;   -1,817;    0,409
879,535;16399,476;    0,092;    3,136
880,095;16133,523;   -0,544;    0,045
880,654;16267,934;   -1,090;    1,318
881,213;16348,163;    2,456;    1,500
881,773;16003,665;    2,637;    2,682
882,332;16329,894;    3,365;    5,136
882,891;16231,486;    3,092;    2,136
883,451;16656,988;   -1,272;    1,682
884,010;16116,308;   -2,908;   -0,409
884,569;16227,174;   -0,999;   -0,045
885,128;16371,766;    2,819;   -1,864
885,687;16398,814;    4,455;    0,682
886,246;16069,952;    1,455;    2,136
886,805;15877,181;    2,455;    2,045
887,364;16162,683;   -0,999;   -0,500
887,922;16591,639;   -1,181;    0,045
888,481;16048,504;   -1,545;    0,591
889,040;16354,642;    1,183;    2,136
889,599;17051,417;    2,455;    1,409
890,157;17072,191;    1,455;    2,409
890,716;16731,602;   -0,090;    0,227
891,274;16536,468;    0,092;   -1,136
891,833;16988,606;    1,546;    0,864
892,391;16844,471;   -0,454;    0,500
892,950;16919,337;    1,819;   -0,773
893,508;17337,839;    0,455;   -0,409
894,067;16666,886;    0,637;    0,136
894,625;16559,024;   -0,636;   -1,500
895,183;16816,253;   -0,363;   -0,682
895,741;16698,937;    1,728;   -1,773
896,299;16527,802;   -0,545;   -2,409
896,858;16712,213;    0,819;   -1,591
897,416;16858,260;    2,728;   -1,318
897,974;16605,944;    1,819;    0,318
898,532;16696,082;    6,091;    2,682
899,089;16610,947;    2,091;   -0,682
899,647;16678,813;   -1,454;    1,318
900,205;16408,224;    1,182;    1,045
900,763;16614,635;   -0,454;    0,227
901,321;16609,045;    2,364;   -1,409
901,878;16053,365;   -1,000;   -0,773
902,436;15960,140;   -1,363;    1,318
902,994;16295,096;    4,728;    3,682
903,551;15768,780;    0,728;    0,409
904,109;16164,372;    0,182;   -1,409
904,666;15754,238;    2,455;    1,045
905,224;15612,103;    0,182;   -0,409
905,781;15333,969;    0,727;   -0,318
906,338;15432,834;   -1,363;    1,045
906,895;15358,518;    0,637;    2,045
907,453;15227,383;    1,727;    1,136
908,010;15291,340;   -0,909;    0,409
908,567;14975,114;    1,273;    0,591
909,124;14494,070;    0,364;   -1,500
909,681;14588,481;   -2,909;    0,682
910,238;14712,256;    0,636;   -1,318
910,795;15035,848;   -0,273;   -1,136
911,352;14687,394;   -2,909;   -2,682
911,909;14123,758;   -1,364;   -0,864
912,466;14605,848;   -3,182;    1,500
913,022;14141,485;   -1,636;    0,500
913,579;14482,576;   -0,909;    2,045
914,136;14256,939;    1,636;    0,955
914,692;14564,212;    0,091;   -1,227
915,249;14159,667;    1,455;    0,409
915,806;14398,394;    0,182;    1,955
916,362;14102,030;    1,909;    1,864
916,918;13673,303;    2,000;    1,045
917,475;13650,394;   -1,182;    0,955
918,031;13734,758;    3,364;   -0,045
918,587;13194,939;   -0,909;   -0,318
919,144;13395,030;   -2,273;    0,227
919,700;13712,758;    1,727;    0,773
920,256;13298,030;    0,727;    0,045
920,812;12921,758;   -0,727;   -1,045
921,368;12940,939;   -1,727;   -1,045
921,924;12594,576;    0,182;   -0,136
922,480;12176,303;   -0,545;    1,227
923,036;12763,485;    1,273;    1,955
923,592;12700,848;    0,455;    0,318
924,148;12603,303;    0,455;   -0,955
924,704;11929,848;   -1,364;   -0,409
925,259;12248,394;   -0,273;    0,591
925,815;11987,394;    1,455;    0,500
926,371;11528,848;    2,909;    1,409
926,926;11422,939;    2,091;    0,591
927,482;11066,303;   -1,364;    0,773
928,037;10917,121;    0,909;    2,045
928,593;11184,394;    1,636;    1,045
929,148;11029,121;   -1,818;   -1,500
929,704;10552,848;   -1,455;   -0,500
930,259;10788,667;    0,091;   -0,136
930,814; 9839,394;   -0,818;    1,955
931,369; 9527,212;    1,091;   -0,773
931,925; 9442,576;   -0,091;    0,136
932,480; 9342,303;   -2,818;   -2,591
933,035; 9207,758;    0,545;   -0,318
933,590; 9015,485;    0,364;   -1,773
934,145; 8652,667;   -1,364;   -0,318
934,700; 9000,303;    0,455;   -0,591
935,255; 8819,121;   -0,091;    0,045
935,809; 8111,121;    3,182;    0,864
936,364; 7256,303;   -0,455;   -0,136
936,919; 7213,758;    0,455;   -1,773
937,474; 7135,758;    1,455;    0,136
938,028; 6898,576;   -1,636;    1,136
938,583; 6356,667;    1,818;    4,682
939,138; 6651,485;    2,091;    2,136
939,692; 6108,030;    1,636;   -1,136
940,247; 5811,030;   -0,727;   -1,045
940,801; 5393,848;   -0,636;    0,227
941,355; 5288,576;   -0,364;    2,591
941,910; 4929,030;   -0,273;   -2,136
942,464; 5033,758;   -0,818;   -0,318
943,018; 4838,030;    1,000;   -0,227
943,572; 4782,485;    2,545;   -0,682
944,126; 4210,848;    0,091;   -0,409
944,681; 4118,394;    3,091;    0,227
945,235; 4092,939;    1,000;   -0,591
945,789; 4024,576;    0,364;   -1,864
946,342; 4131,303;    0,455;   -0,591
946,896; 3941,121;   -2,273;    0,955
947,450; 3702,667;    1,545;   -0,227
948,004; 3867,939;    1,727;   -0,045
948,558; 3896,939;    0,273;   -0,864
949,111; 3815,212;   -0,273;   -0,318
949,665; 3853,848;    1,636;   -0,682
950,219; 3727,394;   -0,091;   -1,045
950,772; 3804,667;   -1,909;    1,864
951,326; 3720,030;    0,545;   -0,955
951,879; 3820,030;    0,727;   -2,318
952,433; 3837,485;    0,000;    2,227
952,986; 3675,848;    2,909;    0,682
953,539; 3611,121;   -0,273;    0,591
954,093; 3568,303;    0,545;   -1,318
954,646; 3704,030;    0,909;    1,318
955,199; 3507,121;    0,000;   -0,500
955,752; 3403,939;   -0,455;    1,773
956,305; 3373,485;   -0,091;    2,955
956,858; 3537,303;    0,818;   -0,318
957,411; 3695,667;   -0,545;    2,136
957,964; 3527,121;    1,364;    2,136
958,517; 3511,758;   -1,545;    3,136
959,070; 3328,576;   -0,455;    1,955
959,623; 3416,030;    1,091;    1,500
960,176; 3190,667;    1,727;    2,045
960,728; 3172,758;   -2,727;    0,773
961,281; 3234,212;    0,545;    0,500
961,834; 3288,485;   -0,909;    0,864
962,386; 3204,485;    1,727;    1,045
962,939; 3123,212;    0,364;   -0,318
963,491; 3259,394;    0,455;    1,136
964,043; 3146,485;    1,182;    2,409
964,596; 3263,303;   -1,000;    2,227
965,148; 3103,939;   -1,000;    1,773
965,700; 3032,576;    1,091;   -0,227
966,253; 3180,939;   -0,636;    0,318
966,805; 3012,030;   -2,273;    0,773
967,357; 3064,848;    1,091;   -1,500
967,909; 3020,485;    0,455;   -1,227
968,461; 3126,939;    0,545;    3,136
969,013; 3066,667;   -0,182;   -0,864
969,565; 3138,394;   -0,455;   -1,136
970,117; 3218,848;   -0,364;    1,045
970,669; 3062,030;    0,182;   -0,136
971,220; 2931,121;   -0,455;   -1,500
971,772; 2836,394;   -0,636;   -0,318
972,324; 2950,485;    0,091;   -0,500
972,876; 2912,121;    0,818;   -0,045
973,427; 3036,576;    1,909;   -1,045
973,979; 3006,485;   -0,727;   -2,500
974,530; 3043,667;    1,818;    1,318
975,082; 3047,848;   -0,545;    1,682
975,633; 2955,667;    1,091;    1,682
976,184; 3078,848;    0,909;    0,773
976,736; 2887,212;    0,091;    0,227
977,287; 2684,212;   -0,909;   -0,500
977,838; 2878,121;    0,909;   -0,318
978,389; 2921,939;   -1,000;   -0,500
978,940; 2795,576;    0,545;   -0,409
979,491; 2830,939;    0,091;   -0,500
980,042; 2789,485;    0,182;    3,045
980,593; 2843,576;   -2,545;    0,227
981,144; 2906,212;    2,545;   -0,500
981,695; 2848,212;    1,455;    1,500
982,246; 2814,394;   -0,273;    1,045
982,797; 2965,939;   -1,727;    0,682
983,347; 3085,848;    0,364;    0,591
983,898; 3245,939;    3,091;    0,409
984,449; 3074,758;    2,182;    0,773
984,999; 2975,939;    1,455;   -1,136
985,550; 2772,485;    0,182;   -0,318
986,100; 2803,485;   -0,455;   -0,318
986,651; 2847,303;   -0,818;    0,045
987,201; 2822,303;   -1,000;   -0,591
987,751; 2902,576;    0,818;    2,864
988,302; 2885,030;    2,636;    1,500
988,852; 2910,848;    0,455;   -1,136
989,402; 2938,394;    0,091;    0,682
989,952; 2863,394;   -2,182;    0,864
990,502; 2963,394;   -0,091;    0,682
991,052; 2939,212;   -0,727;    0,045
991,602; 2803,030;   -2,909;    1,318
992,152; 2804,212;    0,455;    0,682
992,702; 2771,939;    1,364;   -0,045
993,252; 2704,576;   -3,000;   -0,500
993,802; 2797,758;   -0,273;    1,318
994,352; 3009,394;   -1,545;    1,136
994,901; 3110,939;   -0,182;    3,227
995,451; 3035,758;   -0,182;    0,318
996,000; 3112,485;    1,636;    0,318
996,550; 2834,576;    2,273;    0,227
997,100; 2826,939;    1,273;   -0,045
997,649; 3099,667;    2,182;    0,955
998,198; 2762,121;    1,727;   -1,500
998,748; 2966,939;    1,091;   -2,318
999,297; 2862,121;   -0,818;   -0,409
999,846; 2925,030;    1,000;   -0,773
1000,395; 2960,394;   -0,818;    0,500
1000,945; 2907,030;    1,818;   -0,773
1001,494; 2989,485;    2,364;    0,682
1002,043; 2991,758;    4,636;    0,864
1002,592; 2835,939;   -1,091;    1,955
1003,141; 2987,030;   -0,455;   -0,682
1003,690; 2836,212;    1,727;    0,500
1004,238; 2908,758;    1,455;   -0,045
1004,787; 2579,758;    1,364;    1,227
1005,336; 2799,576;    0,364;    0,682
1005,885; 2934,939;    1,364;   -2,773
1006,433; 3078,030;    0,545;    0,955
1006,982; 3139,485;    0,455;    1,682
1007,531; 3039,667;   -1,818;   -0,227
1008,079; 3001,758;   -2,273;    0,500
1008,627; 3135,667;   -1,455;    0,409
1009,176; 2879,212;    0,000;   -1,955
1009,724; 2931,030;    1,091;    0,864
1010,273; 2976,667;    1,273;    0,500
1010,821; 3096,394;    0,091;    1,409
1011,369; 2854,303;   -1,364;    1,318
1011,917; 2830,121;   -1,364;   -0,591
1012,465; 3098,303;    1,273;   -1,591
1013,013; 3205,485;    2,091;   -1,682
1013,561; 3073,758;    0,455;   -0,773
1014,109; 3126,121;   -1,909;    1,682
1014,657; 3024,485;    0,364;    0,591
1015,205; 3134,576;    1,636;   -0,955
1015,753; 3168,667;   -0,545;   -1,409
1016,301; 3195,212;   -2,636;    3,045
1016,848; 3184,485;   -1,273;    0,409
1017,396; 3228,848;    2,545;    0,045
1017,944; 3347,848;    1,182;    1,864
1018,491; 3116,485;    0,273;    1,409
1019,039; 3268,576;    0,455;    0,591
1019,586; 3201,394;   -1,364;    1,682
1020,134; 3297,212;    0,455;    1,500
1020,681; 3327,758;    0,182;   -1,136
1021,228; 3337,758;    2,909;   -2,227
1021,776; 3169,303;    1,182;   -1,136
1022,323; 3384,939;    0,455;    0,773
1022,870; 3308,030;   -1,000;   -0,045
1023,417; 3228,667;    2,636;    1,864
1023,964; 3371,121;    2,636;    1,227
1024,511; 3194,303;    1,000;    0,773
1025,058; 3011,848;    3,182;   -0,045
1025,605; 3046,848;   -2,273;    3,136
1026,152; 3254,576;    1,727;   -0,591
1026,699; 3003,303;    1,818;    1,318
1027,245; 3165,576;   -0,091;    0,318
1027,792; 3375,758;   -1,000;    1,409
1028,339; 3267,667;    2,364;   -0,045
1028,885; 3117,576;    1,000;   -0,227
1029,432; 3068,030;   -0,091;    0,227
1029,978; 3116,030;   -1,000;   -1,591
1030,525; 3024,394;    1,000;    0,409
1031,071; 3274,212;   -1,364;    1,136
1031,618; 3372,758;    0,364;    1,682
1032,164; 3162,212;   -0,091;    3,045
1032,710; 3213,848;    1,636;   -1,500
1033,256; 3120,576;   -0,636;   -0,136
1033,803; 3105,758;   -0,545;    1,500
1034,349; 2849,485;   -1,364;    0,136
1034,895; 2990,212;    0,000;   -0,318
1035,441; 2958,758;   -0,818;    0,318
1035,987; 2968,848;   -2,364;   -0,682
1036,533; 2975,394;   -1,455;   -0,955
1037,078; 3169,667;    1,455;    1,682
1037,624; 2997,758;    2,455;   -0,955
1038,170; 3019,758;    0,455;   -0,318
1038,716; 2922,758;    1,636;   -0,409
1039,261; 2835,121;   -2,273;   -0,773
1039,807; 2786,303;   -0,091;    3,409
1040,352; 2835,121;   -1,909;   -0,318
1040,898; 2882,030;   -1,545;   -0,682
1041,443; 2796,394;   -1,455;   -2,591
1041,989; 2823,030;    1,091;    1,591
1042,534; 2709,394;   -0,364;    2,591
1043,079; 2835,212;    2,909;    0,955
1043,625; 2593,394;    1,818;    0,500
1044,170; 2663,848;   -1,364;    1,045
1044,715; 2912,576;    2,455;    0,955
1045,260; 2726,758;    2,182;   -0,955
1045,805; 2785,121;    1,182;   -0,591
1046,350; 2730,667;    1,364;   -0,409
1046,895; 2673,848;    2,909;    1,591
1047,440; 2624,939;    5,364;    0,409
1047,985; 2542,485;    2,818;   -0,955
1048,530; 2462,394;    1,545;    1,227
1049,074; 2527,667;    0,000;    0,318
1049,619; 2501,848;   -1,364;    1,955
1050,164; 2299,121;    0,455;    0,227
1050,708; 2321,939;   -0,455;    0,045
1051,253; 2673,485;    1,273;   -2,227
1051,797; 2410,848;    0,818;   -1,318
1052,342; 2424,939;   -1,182;    1,045
1052,886; 2429,030;    0,364;   -1,409
1053,430; 2306,485;   -1,364;    0,136
1053,975; 2309,485;   -0,818;   -0,318
1054,519; 2280,758;   -0,727;    3,227
1055,063; 2302,667;    0,909;    1,318
1055,607; 2201,939;   -0,182;    0,227
1056,151; 2218,848;    2,909;    1,682
1056,695; 2145,394;    2,273;   -1,136
1057,239; 2215,030;   -1,727;   -0,682
1057,783; 2211,212;    0,818;   -1,500
1058,327; 2177,030;    0,000;    1,409
1058,871; 2388,758;   -0,545;    1,318
1059,415; 2095,667;   -0,818;   -0,045
1059,958; 2358,394;    1,455;    2,591
1060,502; 2070,848;   -1,000;   -0,773
1061,046; 1993,303;    0,364;   -0,955
1061,589; 1981,848;   -3,000;   -1,136
1062,133; 1860,212;   -1,273;    1,864
1062,676; 1799,848;    1,182;    0,864
1063,220; 1796,394;    1,091;    0,500
1063,763; 1816,485;    0,909;    1,136
1064,306; 1890,030;   -0,909;    1,864
1064,849; 1780,576;   -0,909;    0,591
1065,393; 1796,667;    2,000;   -1,500
1065,936; 1886,758;    0,182;   -0,409
1066,479; 1771,848;   -1,455;    1,318
1067,022; 1808,576;   -0,273;   -0,227
1067,565; 1690,576;   -0,091;   -1,318
1068,108; 1718,576;    0,727;   -0,591
1068,651; 1711,667;   -0,636;    1,409
1069,194; 1641,212;   -0,455;   -1,682
1069,736; 1634,485;   -1,273;    0,955
1070,279; 1623,212;   -1,364;   -0,500
1070,822; 1659,576;   -2,000;   -0,318
1071,364; 1739,212;   -0,364;    1,318
1071,907; 1569,303;   -0,727;    3,227
1072,450; 1474,030;    0,000;   -0,045
1072,992; 1480,848;   -0,273;    3,136
1073,535; 1628,576;    2,091;    2,136
1074,077; 1410,212;   -0,727;    2,045
1074,619; 1378,212;   -1,364;    0,591
1075,161; 1414,030;   -1,091;    1,500
1075,704; 1582,667;    1,545;    1,227
1076,246; 1391,121;   -0,182;    0,682
1076,788; 1312,758;   -0,364;    1,773
1077,330; 1381,303;    1,273;    2,136
1077,872; 1353,121;    0,909;    0,955
1078,414; 1574,121;    2,727;    0,773
1078,956; 1314,303;    1,273;   -0,227
1079,498; 1565,758;    1,636;    0,318
1080,040; 1277,758;    1,909;   -1,318
1080,581; 1222,485;    1,636;   -0,318
1081,123; 1140,030;    0,091;   -0,773
1081,665; 1195,667;   -1,182;   -0,955
1082,206; 1494,485;    1,364;   -0,500
1082,748; 1342,758;    0,727;    2,045
1083,289; 1231,303;   -2,000;    1,318
1083,831; 1150,303;   -0,545;    0,227
1084,372; 1175,576;    0,000;    0,591
1084,913; 1169,576;    1,091;    0,864
1085,455; 1139,030;   -1,909;   -2,045
1085,996; 1111,121;   -2,273;    0,136
1086,537; 1141,576;   -0,091;    0,864
1087,078; 1169,303;   -0,909;   -2,136
1087,619; 1201,212;   -1,273;    0,227
1088,160; 1134,394;    0,000;    1,318
1088,701; 1113,667;   -1,091;    0,682
1089,242; 1053,303;    1,364;   -2,227
1089,783; 1146,667;   -0,273;    1,409
1090,324; 1116,939;    0,455;    0,682
1090,865;  990,394;    2,727;   -0,409
1091,405;  977,939;    0,727;    2,227
1091,946;  976,848;    0,182;   -0,955
1092,487;  918,394;    0,818;   -1,409
1093,027; 1084,121;   -1,364;   -1,500
1093,568;  934,758;   -0,364;    1,227
1094,108; 1034,667;    0,273;    1,773
1094,649;  974,212;   -1,182;    0,136
1095,189;  909,576;   -0,636;   -0,682
1095,729;  855,212;   -0,091;    0,955
1096,269;  869,212;    0,727;   -0,955
1096,810; 1184,848;   -1,364;    0,500
1097,350; 1002,394;    1,364;   -0,773
1097,890;  898,848;    0,364;    1,227
1098,430; 1148,848;    2,364;    2,864
1098,970; 1041,212;    2,182;    1,682
1099,510;  888,485;    0,545;   -2,318
1100,050;  821,212;    1,000;   -1,591
1100,589;  793,121;   -0,727;   -0,318
1101,129;  923,485;    0,818;   -0,955
1101,669; 1062,121;    1,727;    2,136
1102,209;  886,939;   -0,091;    2,227
1102,748;  838,848;    0,000;    0,955
1103,288;  829,394;    1,273;   -1,227
1103,827;  855,848;    3,091;   -2,227
1104,367;  738,212;   -0,091;   -2,409
1104,906;  705,848;    1,364;   -1,136
1105,445;  776,667;    0,636;   -1,136
1105,985;  716,030;   -0,727;    1,500
1106,524;  762,848;   -1,727;   -0,682
1107,063;  733,030;   -2,727;    1,409
1107,602;  718,212;   -1,909;   -1,500
1108,141;  635,303;   -1,909;    1,500
1108,680;  738,758;   -3,455;   -0,591
1109,219;  674,758;   -0,909;   -0,500
1109,758;  670,303;    0,455;    0,682
1110,297;  645,848;    1,000;   -0,682
1110,836;  590,030;   -0,727;    0,955
1111,375;  759,394;   -2,545;    0,409
1111,913;  768,758;   -1,000;    0,773
1112,452;  702,030;   -0,273;    0,136
1112,991;  593,485;    1,091;    1,955
1113,529;  545,212;   -0,818;   -0,045
1114,068;  623,848;   -0,273;    2,955
1114,606;  526,030;   -0,364;   -0,955
1115,144;  684,303;   -1,273;    1,045
1115,683;  612,758;   -0,727;    0,318
1116,221;  656,939;   -0,455;   -0,864
1116,759;  573,121;    0,636;   -0,864
1117,297;  758,758;    0,000;    1,864
1117,836;  572,394;   -2,182;   -1,227
1118,374;  579,212;    0,182;   -0,682
1118,912;  531,758;    0,909;    2,682
1119,450;  514,939;    1,000;    0,864
1119,988;  567,394;    1,545;    2,136
1120,525; 1016,121;    5,091;    3,318
1121,063;  719,030;    1,182;    1,864
1121,601;  530,939;   -0,909;   -1,227
1122,139;  481,848;   -0,727;   -2,045
1122,676;  683,394;   -0,727;    2,773
1123,214;  611,303;   -1,182;    4,409
1123,751;  419,303;    1,727;    2,227
1124,289;  555,394;   -0,091;   -0,409
1124,826;  427,758;    1,727;    0,227
1125,364;  350,394;    1,727;   -0,955
1125,901;  536,303;    1,182;    1,227
1126,438;  641,121;    0,818;    0,955
1126,975;  383,394;   -0,727;   -0,773
1127,513;  457,758;    0,273;    2,136
1128,050;  346,121;    1,636;   -0,682
1128,587;  443,121;    2,000;   -0,227
1129,124;  495,030;    0,091;    1,318
1129,661;  359,848;    0,273;    0,227
1130,198;  527,212;    1,636;    0,773
1130,734;  466,939;    0,182;    1,409
1131,271;  333,758;   -0,909;    0,864
1131,808;  509,394;    2,909;    3,045
1132,345;  379,848;    1,545;    0,318
1132,881;  253,303;   -1,545;   -1,864
1133,418;  389,576;    0,727;   -1,136
1133,954;  317,030;    2,455;   -2,682
1134,491;  388,030;    1,364;   -0,773
1135,027;  293,030;    2,364;    0,864
1135,564;  384,212;    0,273;    2,955
1136,100;  369,303;    0,364;    2,136
1136,636;  262,394;   -1,273;   -1,045
1137,172;  348,394;    0,000;   -1,045
1137,708;  282,030;   -1,364;   -1,045
1138,245;  283,121;    1,273;   -1,227
1138,781;  239,030;    1,091;   -3,318
1139,317;  300,394;    1,273;   -1,409
1139,852;  281,030;    3,091;    0,136
1140,388;  413,939;   -1,182;   -0,409
1140,924;  291,212;   -1,091;   -2,227
1141,460;  227,667;   -1,636;    0,136
1141,996;  170,485;   -1,364;    2,682
1142,531;  213,485;    1,364;    3,318
1143,067;  419,394;    1,182;    1,045
1143,602;  471,303;   -0,091;   -0,318
1144,138;  321,667;   -2,636;    1,045
1144,673;  196,030;   -1,455;    1,409
1145,209;  259,303;   -1,909;   -0,318
1145,744;  180,576;   -0,727;    0,864
1146,279;  307,212;    1,818;   -0,136
1146,815;  228,939;    1,545;   -2,682
1147,350;  269,576;   -1,364;    0,045
1147,885;  188,939;   -0,818;   -1,318
1148,420;  189,939;   -2,273;    0,773
1148,955;  167,485;   -1,727;    1,864
1149,490;  190,939;   -0,909;   -1,591
1150,025;  170,030;    0,455;   -1,773
1150,560;  281,939;    1,091;   -0,955
1151,094;  246,758;    1,455;   -0,591
1151,629;  252,303;    1,636;    0,864
1152,164;  181,030;    1,364;    1,318
1152,698;  141,303;   -0,182;   -0,136
1153,233;  105,848;    0,091;   -0,682
1153,767;  147,121;   -3,000;   -2,318
1154,302;  192,576;   -1,455;    1,773
1154,836;  191,303;   -0,455;   -2,136
1155,371;  242,667;   -1,364;    3,682
1155,905;  204,212;   -0,636;    1,682
1156,439;  165,758;   -0,636;   -0,500
1156,973;  192,394;    0,364;    0,318
1157,507;  139,758;   -0,364;    0,682
1158,042;  161,758;   -0,727;    1,045
1158,576;  212,576;    0,182;    1,773
1159,110;  204,212;   -0,818;    2,409
1159,643;  181,939;    0,636;   -0,045
1160,177;  117,485;   -1,545;    1,500

