
Integration time [ms]:   0,040
Averaging Nr. [scans]: 11
Smoothing Nr. [pixels]: 0
Data measured with spectrometer [name]: 7318044SP
Wave   ;Sample   ;Dark     ;Reference
[nm]   ;[counts] ;[counts] ;[counts] 

186,757;    3,896;   31,551;    1,318
187,357;   29,689;   22,551;    0,955
187,958;    8,770;   15,460;   -1,591
188,558;   38,704;    8,915;   -1,227
189,159;    7,433;    6,733;   -4,500
189,759;  -11,423;    7,278;   -3,591
190,360;  -11,420;    2,824;   -2,136
190,960;   13,059;    2,915;   -4,136
191,560;   18,824;    3,189;   -6,591
192,161;  221,731;    4,372;   -3,500
192,761;   90,763;    4,010;   -3,227
193,361;   36,690;    1,556;   -3,773
193,962;   71,056;    2,010;   -2,682
194,562;   11,682;    1,189;   -3,955
195,162;   14,382;   -2,448;   -2,227
195,762;  131,740;   -3,176;   -0,045
196,362;   79,079;    1,370;   -2,500
196,963;   -6,795;    2,006;   -0,864
197,563;   37,982;    1,551;   -0,955
198,163;    0,207;    0,096;   -0,682
198,763;    6,418;    1,733;   -0,500
199,363;   55,766;    3,096;   -0,500
199,963;   23,397;    0,369;    0,409
200,563;    9,047;    2,823;   -1,409
201,163;    0,531;    3,277;   -0,227
201,763;   32,594;    3,732;    0,318
202,363;    5,520;    1,459;    1,500
202,963;   30,855;    1,459;    1,045
203,563;   79,190;    0,277;    0,500
204,162;    9,212;    2,096;   -1,864
204,762;    1,631;    0,550;    0,591
205,362;  -14,586;    3,004;    1,955
205,962;   12,616;    3,096;    1,955
206,562;    5,851;    1,823;    2,318
207,161;  -11,704;   -0,087;    0,318
207,761;   64,883;    1,277;    2,409
208,361;   -3,413;   -0,268;    1,409
208,960;   19,524;    0,459;    1,500
209,560;   16,557;    1,277;    1,591
210,160;   25,661;    0,550;    1,864
210,759;   12,547;    4,186;    1,227
211,359;   -0,179;    1,459;    1,045
211,958;   95,587;    1,277;    2,045
212,558;  103,827;    1,732;    1,864
213,157;   28,444;    1,822;    1,500
213,757;  161,400;    3,822;   -0,227
214,356;   57,162;    1,277;   -0,409
214,956;  144,515;    3,095;    0,409
215,555;   32,064;    2,095;    2,136
216,154;    2,914;   -2,723;   -0,591
216,754;    8,358;    0,277;    0,773
217,353;   15,482;   -0,268;   -1,045
217,952;  -28,125;   -0,178;    0,318
218,552;   36,971;    1,368;   -0,773
219,151;    3,706;    0,277;    0,955
219,750;   -7,671;    0,004;   -0,227
220,349;  -12,397;   -0,451;    1,045
220,948;   42,953;   -1,360;    1,136
221,548;    0,120;    0,913;    1,227
222,147;    5,124;   -0,087;   -0,409
222,746;   78,664;   -0,451;   -0,955
223,345;   31,691;    0,731;    0,500
223,944;   29,191;   -0,451;    0,773
224,543;   25,573;    1,004;   -1,409
225,142;   18,587;    0,094;    0,136
225,741;   22,742;   -0,814;    1,045
226,340;   13,984;   -0,451;   -0,955
226,939;   63,931;   -0,996;   -0,136
227,538;   17,213;   -0,360;   -0,773
228,137;   70,764;   -0,814;    0,864
228,735;   40,032;   -0,541;    1,227
229,334;  -17,161;   -0,905;   -0,227
229,933;   75,914;    0,459;    0,591
230,532;   68,484;    1,186;   -0,409
231,131;  105,199;    1,732;    0,318
231,729;   48,068;   -2,450;   -2,318
232,328;   11,656;   -0,723;   -1,500
232,927;   18,862;    1,004;   -0,500
233,525;   15,307;    3,640;    0,045
234,124;   23,997;    2,368;   -1,591
234,723;   -3,867;    0,913;   -1,045
235,321;   -5,902;    2,277;    0,136
235,920;   -0,563;    1,186;   -1,227
236,518;   63,039;    3,459;    0,318
237,117;    1,457;    0,004;   -0,227
237,715;    8,994;    0,640;   -0,500
238,314;   11,228;   -0,087;   -2,318
238,912;   66,624;   -0,723;   -1,409
239,510;   34,056;    0,459;   -1,227
240,109;   80,213;    0,004;    3,773
240,707;   59,390;   -0,996;    1,227
241,305;   -5,357;    0,550;    0,136
241,904;   22,916;   -0,178;   -2,045
242,502;   81,205;   -0,632;   -0,227
243,100;   42,619;   -0,087;   -0,955
243,698;    0,247;    0,732;    1,682
244,297;   22,026;   -0,632;    0,682
244,895;   10,087;   -0,269;   -2,318
245,493;   79,110;    2,186;   -0,591
246,091;   87,237;    1,368;   -1,318
246,689;   46,323;    1,004;    0,591
247,287;   40,558;    0,822;   -1,136
247,885;   21,941;   -1,451;    1,227
248,483;    4,975;    1,822;   -0,500
249,081;   40,195;    0,185;    1,591
249,679;   47,205;   -0,178;    1,682
250,277;    0,993;   -1,723;    0,864
250,875;   41,988;   -1,087;   -1,045
251,473;    8,767;   -1,178;    0,500
252,071;   53,429;    1,459;    1,045
252,669;   19,009;   -1,814;    0,318
253,267;   -2,440;   -0,087;    0,773
253,864;   16,558;   -0,360;    0,682
254,462;   57,561;    1,640;    1,591
255,060;   -4,103;   -0,269;    1,318
255,658;   -4,900;    0,822;   -0,136
256,255;    9,461;    0,186;   -2,045
256,853;   28,123;   -0,269;    1,409
257,451;    3,644;    0,822;    1,864
258,048;  158,162;    1,822;    1,864
258,646;   63,737;    1,731;   -1,045
259,243;   99,304;   -0,087;    2,227
259,841;   49,346;   -0,814;    0,318
260,438;    0,369;   -0,087;    0,864
261,036;   40,336;   -1,905;    1,409
261,633;    5,656;   -0,087;    2,227
262,231;   -9,521;    2,731;   -0,045
262,828;  -21,520;   -0,905;    1,136
263,425;    0,333;    0,913;   -0,591
264,023;    6,806;    0,186;    0,045
264,620;   54,817;   -0,360;   -0,318
265,217;   86,832;   -2,087;    3,136
265,815;   10,821;   -1,905;    2,136
266,412;   41,207;    0,731;    0,136
267,009;   38,366;   -1,451;    0,773
267,606;   67,010;    0,822;   -0,955
268,203;   10,754;   -0,269;   -0,591
268,801;   21,308;    1,731;    0,591
269,398;    4,353;   -0,360;    2,500
269,995;   37,843;    0,277;    1,591
270,592;   13,507;   -0,632;   -0,500
271,189;   -4,433;    0,186;    0,409
271,786;  -11,811;   -0,632;    1,227
272,383;   40,347;   -1,087;    0,227
272,980;    6,527;    0,277;    0,318
273,577;   -5,468;    0,004;    1,227
274,174;   -8,959;    0,822;    2,591
274,771;   35,372;   -0,814;   -0,773
275,367;  181,890;    2,277;    1,409
275,964;   73,839;    0,731;   -0,500
276,561;   16,934;    1,549;   -1,045
277,158;   -6,340;    0,095;   -1,773
277,755;   76,013;    2,185;    0,409
278,351;   37,913;   -0,451;   -1,500
278,948;   50,703;   -0,815;    0,045
279,545;   30,396;   -1,360;    2,318
280,141;   72,077;   -1,723;   -2,045
280,738;   69,452;   -0,451;   -0,136
281,334;   11,080;   -1,633;    0,591
281,931;    0,685;   -0,087;   -1,318
282,528;   51,326;    0,822;   -0,500
283,124;   73,652;   -1,087;   -0,500
283,721;   63,754;   -0,451;    1,409
284,317;   24,118;    0,185;    2,500
284,913;   74,005;   -1,360;    0,591
285,510;  130,460;    0,640;   -0,318
286,106;   75,265;   -2,269;   -0,955
286,703;   33,927;   -0,360;    1,955
287,299;   12,618;   -1,451;   -0,591
287,895;    5,485;    0,822;   -1,045
288,491;    2,080;    0,186;    2,136
289,088;   35,552;   -2,360;    2,409
289,684;   35,100;   -1,723;    1,500
290,280;   95,242;    0,368;    0,682
290,876;   71,506;    1,822;    5,500
291,472;   56,692;    1,276;    2,227
292,068;   56,185;    1,367;    0,227
292,665;   21,891;    2,095;    0,773
293,261;   -2,422;    0,276;    2,136
293,857;   54,049;    2,913;    2,136
294,453;   24,454;    3,550;    0,955
295,049;  101,397;   -0,268;    1,955
295,644;   39,428;    0,095;    0,136
296,240;   -5,607;   -0,905;   -0,136
296,836;   22,999;   -0,995;    0,318
297,432;   60,023;    1,096;   -0,500
298,028;   61,178;    0,732;    0,773
298,624;   25,743;    1,459;    1,864
299,220;   28,934;    2,368;    0,591
299,815;   19,973;    1,005;   -0,409
300,411;   53,579;    0,914;    1,773
301,007;   68,161;    1,368;    0,227
301,602;   14,887;   -0,541;   -2,318
302,198;   74,379;    0,732;   -0,773
302,794;   21,885;    1,187;   -0,500
303,389;   -5,462;   -1,177;    1,045
303,985;    7,250;    0,550;    1,409
304,580;   68,334;    1,459;    1,591
305,176;   16,274;   -3,086;    0,136
305,771;  -26,917;   -1,268;   -1,227
306,367;  141,816;    4,095;    0,136
306,962;   48,432;    0,641;    1,500
307,558;   68,005;   -0,450;    0,136
308,153;   49,734;    1,095;   -1,136
308,748;    4,668;   -0,814;    1,682
309,344;  113,121;   -0,632;   -1,318
309,939;  105,467;   -1,905;   -1,318
310,534;   16,340;   -0,086;   -1,682
311,130;   11,556;    0,459;   -2,500
311,725;    7,601;    1,004;   -0,500
312,320;   14,866;    2,459;    0,045
312,915;   49,254;    1,459;   -1,045
313,510;  127,638;    1,550;   -0,500
314,105;   24,093;    1,096;    1,409
314,700;  -15,136;   -3,086;   -1,045
315,295;   12,698;   -0,904;    0,045
315,890;    2,967;    1,277;    0,864
316,485;   38,339;   -0,359;   -0,318
317,080;   -2,738;   -3,086;    1,591
317,675;  117,871;    2,005;   -0,682
318,270;  217,679;    5,550;    3,318
318,865;  139,037;    3,278;    3,045
319,460;   67,491;   -0,904;    0,591
320,055;    7,592;   -0,541;   -1,227
320,650;    6,805;   -1,995;   -0,591
321,244;    8,892;   -0,177;   -1,409
321,839;    6,426;   -1,541;   -0,227
322,434;   32,139;   -1,086;   -1,591
323,029;    6,194;    1,732;    1,591
323,623;    2,487;    1,550;    0,773
324,218;   81,155;    2,368;    1,409
324,812;   43,436;    1,096;    1,591
325,407;   36,309;   -0,814;    2,045
326,002;  100,743;    0,277;   -0,409
326,596;   75,029;    0,914;    1,318
327,191;   14,261;    0,823;   -1,045
327,785;   16,938;   -0,813;   -0,227
328,379;   10,656;    1,368;    0,136
328,974;   28,052;    0,914;   -3,955
329,568;   34,656;    0,186;   -2,409
330,163;   75,328;    2,096;    1,045
330,757;    8,323;    2,459;    1,591
331,351;  -12,887;    0,459;    0,682
331,945;  -11,757;    0,914;    1,409
332,540;   31,664;   -1,723;   -0,591
333,134;   26,029;   -1,086;    0,773
333,728;   38,177;    0,005;    0,318
334,322;   -8,141;   -1,177;   -0,864
334,916;   -2,215;    0,277;    0,955
335,510;   57,952;   -0,450;   -0,136
336,105;   42,988;   -1,086;    1,591
336,699;    1,408;   -1,086;    0,591
337,293;   20,924;   -1,723;    0,318
337,887;    1,625;   -2,723;    1,955
338,481;   43,600;    0,459;    0,591
339,074;   82,507;   -0,359;    2,682
339,668;   70,265;   -1,632;    1,227
340,262;  322,794;    1,732;    3,227
340,856;  129,808;    1,822;   -0,682
341,450;   21,008;    1,004;    1,864
342,044;   40,288;    1,459;    0,136
342,637;   82,031;    0,913;   -2,136
343,231;   36,890;   -2,360;    0,682
343,825;   23,311;   -1,086;   -0,591
344,419;   27,185;   -1,995;    0,500
345,012;  267,895;    2,459;    4,045
345,606;  160,466;    4,641;    1,591
346,199;   21,609;   -1,813;   -0,227
346,793;   58,094;    1,914;    2,045
347,386;    6,489;   -0,813;   -1,136
347,980;  -22,031;   -0,268;   -0,045
348,573;   17,940;    2,278;    0,409
349,167;  166,808;    5,278;    4,773
349,760;   71,852;    2,914;    2,682
350,354;   59,988;   -0,813;    1,136
350,947;   68,136;    1,096;    1,682
351,540;   36,794;   -0,358;   -1,409
352,134;   -0,480;    1,096;    1,136
352,727;   -0,876;   -0,086;    1,136
353,320;    5,762;    0,005;    0,591
353,913;  -24,082;   -1,995;    1,864
354,507;   54,491;    0,823;   -1,227
355,100;    3,549;    0,460;    0,864
355,693;  211,981;    2,005;    2,409
356,286;   88,151;    0,823;    2,773
356,879;   27,681;   -0,722;    1,227
357,472;   28,366;   -0,904;    1,500
358,065;   45,336;   -0,722;    2,500
358,658;   -9,597;   -0,540;    2,318
359,251;  -12,132;   -1,631;   -0,591
359,844;   51,047;   -1,904;   -1,136
360,437;   72,437;   -2,995;    0,045
361,030;    6,200;    1,369;   -0,682
361,623;    8,356;    2,824;    0,318
362,215;  129,079;   -0,086;    2,045
362,808;   38,294;   -2,358;   -1,682
363,401;    0,825;   -2,449;    0,136
363,994;  110,379;   -0,631;   -1,500
364,586;   32,070;    0,824;   -1,500
365,179;   16,275;   -0,449;   -1,136
365,772;  -42,018;   -1,995;    2,045
366,364;   15,090;    1,915;   -3,227
366,957;   31,291;    2,279;   -0,045
367,549;    4,166;    2,188;   -0,864
368,142;   18,755;    1,825;   -1,500
368,734;   -2,398;    0,734;   -2,136
369,327;  -23,957;    1,643;   -0,500
369,919;   -5,716;   -1,538;    0,409
370,512;    6,596;   -1,083;   -0,500
371,104;  176,090;   -0,901;    1,591
371,696;  176,378;    1,191;   -0,955
372,289;   84,634;    0,373;    1,136
372,881;   60,797;   -2,080;    1,318
373,473;    0,830;   -2,170;    1,136
374,066;   54,688;   -0,169;    0,500
374,658;   34,885;    0,378;    1,136
375,250;  -17,675;    0,653;   -1,409
375,842;    9,695;    0,473;   -0,045
376,434;  -26,861;   -0,435;   -0,409
377,026;  -44,783;    0,204;   -2,500
377,618;   -4,157;   -0,158;   -0,682
378,210;  -69,281;   -0,338;   -1,955
378,802;  -76,917;    0,754;   -0,591
379,394;  274,665;    1,846;    0,682
379,986;   46,365;    1,393;   -0,955
380,578;  -35,094;   -0,153;    0,773
381,170;  203,655;   -0,972;    0,045
381,762;  107,548;    0,755;    1,409
382,354;   83,461;   -0,065;   -1,318
382,945;   11,968;   -2,976;    0,318
383,537;  -29,447;   -2,705;   -1,955
384,129;  -24,735;   -2,160;   -1,136
384,721;   83,093;   -0,252;    0,955
385,312;   29,067;   -0,161;   -0,955
385,904;   91,506;   -2,706;    1,591
386,496;   21,682;   -0,979;    1,045
387,087;  138,618;    1,022;    2,500
387,679;   69,277;   -1,160;    0,045
388,270;   49,513;    2,840;    2,045
388,862;   36,179;    1,295;   -0,318
389,453;   20,942;   -0,887;    1,045
390,045;   22,819;   -0,705;   -2,682
390,636;  -71,180;    0,204;   -0,591
391,227;  -10,174;   -0,523;   -0,045
391,819;  -40,171;    0,204;    0,773
392,410;  185,747;    1,022;    0,045
393,001;   16,080;   -0,979;   -1,591
393,593;   74,558;    1,930;   -0,045
394,184;  107,727;    1,385;   -0,409
394,775;    3,128;    1,839;    2,136
395,366;  -60,739;    1,385;    0,773
395,957;   91,881;    0,113;    0,136
396,548;   -7,248;   -0,342;    2,682
397,139;   82,531;   -2,433;    0,591
397,730;   16,127;   -1,888;    0,955
398,321;   34,169;   -1,252;    0,955
398,912;  -20,028;   -0,615;    0,136
399,503;  -26,370;   -3,524;   -1,409
400,094;   11,568;    0,294;    1,682
400,685;    8,452;   -0,433;    0,045
401,276;  -35,411;    0,930;   -0,955
401,867;  -50,942;   -0,888;    0,773
402,458;  -78,908;   -2,251;   -2,318
403,048;   33,369;    1,112;    0,591
403,639;  -10,256;    0,840;    0,864
404,230;   82,685;    2,476;    0,318
404,821;  137,175;   -0,615;    0,045
405,411;   56,398;    1,203;   -2,591
406,002;  -21,224;   -1,252;   -1,136
406,592;  176,732;    2,294;    0,045
407,183;   58,946;    0,566;   -1,500
407,774;   30,115;    3,475;   -0,136
408,364;    2,306;    0,930;    0,409
408,954;   99,971;    0,384;    1,227
409,545;   95,409;    1,021;    1,045
410,135;   59,381;    1,293;    0,500
410,726;   19,780;    1,838;    0,318
411,316;  179,277;    0,111;    0,773
411,906;   35,885;   -0,253;   -0,409
412,497;   53,713;   -1,070;   -0,045
413,087;    3,788;   -1,980;   -0,227
413,677;  -57,279;   -0,707;    3,864
414,267;  -66,696;    0,656;    1,409
414,857;  -79,572;   -2,980;    4,227
415,448;  -73,152;    0,839;    0,500
416,038;  -46,547;    0,020;   -0,591
416,628;   -6,568;   -0,889;    0,409
417,218;   39,205;    0,565;    3,318
417,808;  180,874;    0,202;   -0,409
418,398;   70,912;    0,020;    2,682
418,988;  -37,820;    2,020;    0,591
419,578;   50,722;   -0,707;    1,409
420,168;  -13,195;   -1,343;   -0,955
420,757;  111,698;   -1,343;   -1,500
421,347;   13,483;    0,111;   -0,227
421,937;  -18,592;    2,292;    1,409
422,527;  108,752;    0,838;   -0,773
423,116;  230,484;   -0,253;   -0,045
423,706;   -2,477;   -1,889;    0,318
424,296;  -42,670;    1,384;    0,682
424,885;   53,603;   -0,071;   -3,045
425,475;   26,322;    1,474;   -2,864
426,065;  -62,838;   -0,980;   -0,318
426,654;  -76,003;   -0,435;   -0,318
427,244;  161,104;    0,020;    1,409
427,833;  131,065;    1,383;   -0,500
428,423;   20,996;   -0,526;    1,136
429,012;   13,781;   -0,344;   -1,136
429,601;  134,345;   -1,344;    0,136
430,191;   35,597;    1,292;    4,318
430,780;  -51,935;   -0,344;   -0,409
431,369;  107,259;    0,746;   -0,045
431,959;   17,683;   -1,254;    0,500
432,548;  -37,541;   -1,163;   -0,045
433,137;  -92,566;   -1,254;   -1,318
433,726;  -34,616;    0,292;    0,500
434,315;   -0,780;   -0,526;    2,409
434,905;   95,564;   -1,254;    1,409
435,494;   84,395;    0,746;    0,955
436,083;  -27,166;   -0,981;   -0,955
436,672;   52,719;    0,110;    0,500
437,261;    5,626;    0,292;   -1,955
437,850;  215,539;    1,383;    0,682
438,439;  262,983;    3,291;    1,955
439,027;  368,755;    3,655;    1,773
439,616;  288,897;    2,927;    1,227
440,205;   84,851;    0,200;   -2,136
440,794;   40,652;    2,109;   -0,045
441,383;  -18,333;   -1,346;   -0,591
441,971;  -41,901;   -2,436;    0,591
442,560;  -29,736;    0,563;   -1,773
443,149; -110,603;    0,379;   -1,318
443,737;  -73,194;   -0,074;   -2,318
444,326;  -49,901;    0,018;    0,318
444,915;  -14,442;   -1,982;    0,864
445,503;   -4,412;   -2,891;   -0,318
446,092;  250,723;    0,382;    2,136
446,680;  187,624;    0,382;    0,318
447,269;   86,914;   -0,346;   -0,318
447,857;   74,388;    0,018;   -1,773
448,445;   32,641;    0,563;    1,318
449,034;  -28,088;   -1,528;   -1,136
449,622;  -13,264;   -1,073;    3,500
450,210;  249,337;    2,017;    2,227
450,799;  165,103;    0,290;   -0,591
451,387;  120,088;    1,381;   -0,591
451,975;  100,755;    2,654;    0,864
452,563;  179,987;    3,472;    2,318
453,151;   27,783;   -0,528;   -1,227
453,739;   65,977;   -1,347;    0,136
454,328;  165,328;    2,381;   -2,136
454,916;   95,267;    2,562;   -0,136
455,504;  110,398;    1,017;    1,227
456,092;    6,995;    0,017;   -1,591
456,679;  -21,385;    1,472;    0,682
457,267;  360,271;    4,017;    1,045
457,855;   67,578;    1,017;    1,409
458,443;  -55,199;   -0,165;    1,682
459,031;   82,628;    0,108;    2,409
459,619;   40,706;   -1,801;    2,864
460,206;  -40,576;    0,835;    2,045
460,794;  -42,831;   -2,983;   -0,227
461,382;   -0,451;   -0,529;   -0,864
461,970;   -1,425;    1,198;    1,864
462,557;  -66,494;   -0,711;   -0,682
463,145;   39,413;   -3,165;   -1,682
463,732;  274,317;    2,016;   -1,045
464,320;   62,754;   -0,075;   -3,045
464,907;  186,308;    2,743;   -0,773
465,495;   95,996;    0,743;   -1,227
466,082;   30,315;   -1,984;   -0,045
466,670;   56,973;   -2,529;    1,227
467,257;  -43,426;   -1,711;    2,045
467,844;   54,110;   -0,075;    0,045
468,432;   34,892;    0,834;    3,500
469,019;    3,287;    0,925;   -1,773
469,606;   81,257;    0,470;    3,682
470,193;  101,696;   -1,439;    0,227
470,780;   52,232;   -2,075;    0,864
471,368;  -11,273;   -1,257;   -0,773
471,955;   96,132;    1,379;   -0,682
472,542;   64,943;    0,652;   -1,136
473,129;  -40,958;   -0,166;    0,136
473,716;  -39,120;    1,470;    0,591
474,303;   -9,200;    0,652;   -0,864
474,890;    0,728;   -1,439;   -0,500
475,477;   98,767;   -1,621;    0,409
476,064;   -2,073;    1,106;   -1,591
476,650;  113,602;    0,288;    0,318
477,237;   36,784;   -0,258;    0,955
477,824;   11,485;   -1,076;    0,864
478,411;  -64,082;   -1,894;   -0,318
478,997;  -75,410;    0,560;   -0,773
479,584; -114,276;    1,196;   -0,409
480,171;   41,839;   -0,440;   -0,773
480,757;  101,748;    2,651;    0,773
481,344;    3,000;    0,469;    0,409
481,931;  -77,040;    1,105;    1,045
482,517;   41,863;   -1,258;    0,318
483,104;  103,328;    1,106;    2,864
483,690;  -16,837;   -1,804;    0,045
484,276;  -30,320;   -0,895;    0,227
484,863;  176,063;    2,469;    1,136
485,449;   24,324;   -0,077;    0,318
486,035;  -17,803;   -1,986;   -0,136
486,622;   63,172;   -0,895;    0,045
487,208;   -7,510;    1,378;    1,500
487,794;  -80,010;    0,741;    0,318
488,380;  -79,966;    0,105;   -1,409
488,967;  -78,569;   -1,168;   -0,409
489,553;  -60,988;   -1,895;   -1,409
490,139;    9,263;    1,559;    0,773
490,725;  -49,709;    0,741;   -0,227
491,311;   -5,314;    3,287;    3,045
491,897;  -27,934;   -0,986;    1,500
492,483;  -22,676;    0,105;    1,227
493,069;  392,874;    3,923;    0,864
493,655;  123,193;    1,650;    0,682
494,241;    2,678;    1,377;   -0,955
494,826;    8,188;    0,287;   -1,045
495,412;   61,220;    2,559;   -0,682
495,998;  -19,953;   -0,805;   -0,318
496,584;   41,825;    0,377;    1,045
497,169;   51,490;    1,014;   -0,682
497,755;  -14,162;    0,650;    1,227
498,341;  104,030;    0,559;    0,318
498,926;  221,177;    1,832;    1,955
499,512;  -14,446;    1,286;    2,955
500,097;  -12,815;    0,195;   -0,318
500,683;    5,210;   -0,350;    2,136
501,268;  -39,293;   -0,169;   -0,955
501,854;   -6,804;   -0,169;    1,227
502,439;  -22,468;   -0,624;   -1,773
503,024;   -5,883;    0,195;    0,500
503,610;   18,860;   -0,078;   -0,682
504,195;  -26,502;    0,558;    1,955
504,780;   59,638;    2,922;    1,227
505,366;  128,333;    3,013;    2,864
505,951;   60,001;    0,740;    1,045
506,536;   -9,999;   -3,260;   -3,682
507,121;   40,603;    0,285;   -0,318
507,706;   -1,017;    2,376;    1,045
508,291;  -43,448;    2,649;    1,136
508,876;  -34,294;   -0,988;    2,591
509,461;   -1,501;   -0,169;   -0,773
510,046;   28,691;    0,194;    0,318
510,631;   34,779;   -0,351;   -0,773
511,216;  -36,085;    2,467;   -0,500
511,801;   16,712;   -0,442;    2,591
512,386;   26,882;    0,740;    0,500
512,971;   40,491;   -2,988;    0,955
513,555;   78,354;   -0,897;   -1,500
514,140;   29,516;   -0,442;   -3,136
514,725;  133,024;   -0,715;   -1,136
515,309;   48,809;   -0,533;    0,318
515,894;  -17,138;   -0,624;   -2,227
516,479;    9,917;   -0,624;   -0,955
517,063;   12,231;    0,376;    1,227
517,648;  -28,383;    1,012;   -1,136
518,232;  -47,626;   -0,261;   -1,409
518,817;   20,989;   -0,079;    1,682
519,401;  107,106;    2,194;    0,591
519,985;   90,062;    1,103;    1,136
520,570;    0,011;    0,830;   -1,955
521,154;   73,602;    2,102;    0,591
521,738;  188,393;   -2,352;    2,409
522,323;   68,751;   -0,170;    1,682
522,907;   80,980;    0,466;   -0,136
523,491;   37,997;    0,557;    0,955
524,075;   35,430;    2,284;    0,591
524,659;  226,005;    1,466;    0,591
525,243;  205,696;    1,739;    0,409
525,827;  187,858;    0,648;   -0,045
526,411;  249,551;   -1,989;   -0,136
526,995;  420,210;   -0,352;    1,409
527,579;  576,414;   -0,443;   -1,045
528,163;  584,807;    0,375;   -1,500
528,747;  844,052;    2,466;   -0,773
529,331;  889,784;   -0,080;   -1,409
529,915;  811,941;    1,738;    0,955
530,499; 1107,818;   -0,807;    1,227
531,082; 1407,857;   -0,534;    1,591
531,666; 1647,437;    1,374;    0,773
532,250; 1844,667;    1,284;    2,682
532,833; 2257,741;    0,920;    2,773
533,417; 2359,330;   -1,807;    0,864
534,001; 2672,194;    1,647;   -0,318
534,584; 3212,160;    0,374;    0,500
535,168; 3436,967;    0,465;    1,409
535,751; 3982,929;    0,647;    0,045
536,334; 3977,706;   -0,898;   -0,409
536,918; 4725,358;    0,011;    1,591
537,501; 5114,981;   -0,899;    1,318
538,085; 5553,474;   -0,444;    1,045
538,668; 5975,635;    0,829;    2,409
539,251; 6669,250;    1,829;    3,773
539,834; 7097,955;    0,101;    0,773
540,418; 7435,869;   -1,990;    4,318
541,001; 7877,066;   -0,990;    1,773
541,584; 8190,838;    2,101;    2,227
542,167; 8296,651;    1,374;    2,955
542,750; 8693,551;    1,919;   -0,773
543,333; 8662,155;    0,555;    2,136
543,916; 9617,248;    0,192;    2,500
544,499;10285,725;   -1,354;    0,227
545,082;10626,255;    1,374;    3,591
545,665;11025,879;    1,919;    1,500
546,248;11520,700;    1,010;   -0,318
546,830;11464,823;   -0,445;    1,955
547,413;12051,554;    1,010;   -0,773
547,996;12724,866;    0,555;    0,500
548,579;12752,291;    0,919;    0,955
549,161;12729,548;    1,828;    2,682
549,744;12668,155;   -0,809;    0,409
550,326;13385,894;   -0,809;   -1,136
550,909;13357,575;    2,737;    0,591
551,492;13874,679;   -0,263;    0,227
552,074;13849,924;   -0,173;   -1,318
552,657;14446,261;    2,373;    0,045
553,239;14373,743;   -0,173;   -0,773
553,821;14441,087;   -1,082;    1,045
554,404;14063,314;    1,282;    1,136
554,986;14528,471;    0,464;    1,045
555,568;15162,499;    1,191;   -0,955
556,151;14577,932;    1,191;   -0,227
556,733;14847,535;   -0,264;   -0,864
557,315;15354,620;    0,100;    0,500
557,897;15223,748;    0,554;   -0,500
558,479;15425,791;   -1,991;    1,318
559,061;15666,684;   -0,719;   -0,864
559,643;16006,756;   -0,264;    0,045
560,225;16416,574;    1,645;    2,864
560,807;16498,302;    0,918;    0,318
561,389;16129,121;    0,554;    2,318
561,971;16865,603;    0,463;    2,136
562,553;16743,449;   -1,628;    1,591
563,135;16925,192;   -0,537;    1,136
563,717;16588,699;    3,372;    1,136
564,298;17279,605;    3,645;   -0,045
564,880;17075,446;    0,645;   -1,409
565,462;17279,083;    0,645;    1,318
566,043;18418,115;   -0,446;    2,318
566,625;18017,927;    1,918;    1,227
567,207;17898,936;    1,099;    1,682
567,788;18990,145;   -1,264;    1,500
568,370;19830,705;    1,917;   -0,500
568,951;19644,697;    0,190;    0,227
569,533;20558,146;   -0,628;   -0,500
570,114;21041,287;   -0,446;    0,682
570,695;21550,048;   -0,174;   -1,318
571,277;21972,023;   -0,265;   -1,682
571,858;22703,364;    2,008;   -1,136
572,439;23616,805;    1,554;   -1,045
573,021;23788,039;    2,099;   -2,773
573,602;24306,876;   -1,265;    0,318
574,183;25240,370;   -2,083;    2,227
574,764;25399,594;   -1,629;    0,409
575,345;25903,564;    0,917;   -0,136
575,926;26551,154;   -0,356;    0,136
576,507;26576,962;    1,099;   -0,227
577,088;27711,384;    3,099;    1,682
577,669;27777,366;    0,735;    1,955
578,250;28491,916;    0,644;   -1,045
578,831;29106,435;   -1,356;   -2,227
579,412;29338,708;   -0,810;    0,955
579,993;30350,147;    1,008;    0,227
580,573;30760,912;   -0,629;   -0,955
581,154;29802,949;    0,735;   -0,591
581,735;30612,328;    0,644;    0,773
582,315;30131,601;   -0,629;    2,136
582,896;30489,140;   -0,174;    1,227
583,477;30031,727;    0,189;    1,227
584,057;30226,752;    0,553;    0,955
584,638;30562,238;    2,553;    2,318
585,218;30569,650;   -0,538;    2,682
585,799;30805,456;    0,281;   -0,227
586,379;30789,930;    0,372;    1,591
586,959;29621,980;    0,735;    0,318
587,540;29122,504;   -0,629;    2,227
588,120;28651,418;    1,007;   -0,045
588,700;27670,868;    2,553;    2,136
589,281;27993,121;    0,462;   -0,955
589,861;27904,550;    0,099;   -1,682
590,441;27763,768;    2,371;   -2,682
591,021;26813,596;   -0,265;   -2,591
591,601;27032,832;   -0,537;    0,500
592,181;27092,115;   -0,719;   -0,773
592,761;26425,725;    0,007;    1,409
593,341;26392,670;   -0,901;    0,045
593,921;26385,988;   -0,265;    1,591
594,501;26328,740;   -0,538;    1,318
595,081;26183,464;    0,917;   -0,318
595,661;26552,402;   -1,447;    0,955
596,240;27073,773;   -0,537;    0,136
596,820;26714,883;    0,372;    1,955
597,400;26944,690;    2,008;    0,773
597,980;27155,943;    2,008;    1,045
598,559;27210,855;    2,735;   -0,227
599,139;26921,343;   -0,174;   -1,227
599,718;26903,888;   -0,174;   -0,409
600,298;27187,342;    0,735;    0,682
600,877;27361,323;    2,917;    1,409
601,457;27655,978;    2,281;    1,136
602,036;27582,918;    0,190;    2,045
602,616;27779,756;    0,644;    1,682
603,195;28102,700;   -0,355;    3,500
603,774;27669,519;   -0,901;    2,045
604,354;27580,861;    0,826;   -0,500
604,933;27144,634;    0,463;    1,864
605,512;27306,028;    3,554;    0,591
606,091;27344,084;   -0,537;    3,773
606,671;28196,133;    0,281;    0,773
607,250;27286,781;    1,644;    3,136
607,829;27531,108;    2,372;    3,227
608,408;27430,495;    1,190;    2,591
608,987;26455,506;    1,281;    3,409
609,566;26791,771;   -1,265;   -2,500
610,145;26888,132;   -1,082;    0,682
610,723;27367,823;    4,372;    6,864
611,302;26646,002;   -0,446;    1,682
611,881;26126,682;    5,008;   11,227
612,460;26960,212;    1,645;    3,955
613,039;27404,225;   -0,082;    2,045
613,617;26195,981;    1,736;    4,773
614,196;26341,699;    1,099;    1,227
614,775;26726,182;    1,009;    2,409
615,353;26671,180;    0,736;    0,864
615,932;26401,255;    0,100;    2,409
616,510;27004,994;    0,554;    0,591
617,089;26518,603;    7,100;   17,591
617,667;26271,988;    2,372;    6,136
618,246;26177,226;   -1,537;    1,318
618,824;26359,035;   -3,355;   -0,955
619,402;25959,131;   -2,900;   -1,773
619,981;26436,059;   -0,173;   -1,045
620,559;26329,250;    0,009;    1,682
621,137;25839,797;   -0,718;    1,864
621,715;25843,396;   -1,173;   -0,682
622,293;25766,577;   -0,537;   -0,773
622,871;26304,075;   -0,718;    0,500
623,450;25903,584;    0,373;   -0,864
624,028;25757,731;    0,191;   -0,955
624,606;25390,067;   -1,718;    1,682
625,183;25804,957;   -1,536;   -1,136
625,761;25476,406;    1,009;    1,136
626,339;25731,426;    1,373;    2,591
626,917;26121,927;   -0,172;   -0,045
627,495;26191,884;   -0,354;    1,318
628,073;25673,107;   -0,263;    2,864
628,650;25341,934;    0,100;    2,136
629,228;25772,504;    0,373;    4,409
629,806;25216,036;    2,282;    1,136
630,383;25487,092;    1,464;   -0,318
630,961;25277,614;    2,555;   -0,955
631,539;25057,958;    2,464;    0,227
632,116;24357,795;   11,373;   15,409
632,694;24840,467;    2,555;    6,500
633,271;25176,504;    0,828;    2,682
633,848;25161,218;    1,828;    2,045
634,426;25207,235;   -1,081;    1,773
635,003;24342,186;    1,101;   -0,409
635,580;24694,891;    1,192;    3,682
636,158;25261,105;    3,737;    1,227
636,735;25237,718;    0,555;   -0,500
637,312;25405,395;   -0,809;   -0,682
637,889;25484,721;   -4,354;   -0,682
638,466;24995,131;   -3,990;   -0,409
639,043;24996,367;    2,101;   -1,136
639,620;25335,329;   -2,262;   -0,955
640,197;25662,832;    1,100;    1,682
640,774;25796,254;   -0,172;    1,136
641,351;26228,586;    0,737;    1,136
641,928;25595,281;   -0,627;    1,409
642,505;25283,249;    0,828;   -0,500
643,082;25373,308;   -1,718;    1,227
643,658;24439,186;   -0,718;    1,500
644,235;25235,881;    1,191;    2,500
644,812;25516,667;    1,918;    0,773
645,388;25210,272;   -0,991;    1,409
645,965;25354,513;   -0,809;    1,682
646,542;25426,572;   -1,445;   -0,227
647,118;25353,267;    1,009;   -0,955
647,695;25690,144;   -0,263;    1,136
648,271;25632,203;   -0,536;    0,500
648,848;25954,444;    0,736;    2,227
649,424;25767,048;    0,827;    1,318
650,000;25561,926;   -0,354;   -1,045
650,577;25358,348;   -0,627;   -0,955
651,153;25826,589;   -1,809;    0,955
651,729;26852,921;    1,191;    0,864
652,305;26991,434;    0,645;    2,773
652,881;31240,221;   -0,082;    1,136
653,458;38156,825;    1,100;    0,227
654,034;42131,975;    0,282;    1,591
654,610;43742,034;    0,554;    0,773
655,186;45141,002;    0,645;    3,045
655,762;44865,606;   -0,991;    0,409
656,338;44931,211;    0,100;    0,136
656,913;45942,543;   -0,082;    0,409
657,489;45175,238;    0,827;   -0,318
658,065;45170,842;   -0,173;   -1,591
658,641;45825,901;   -0,900;   -0,864
659,217;45199,960;   -0,991;    0,409
659,792;44489,383;    0,645;   -0,409
660,368;44790,533;   -2,173;   -0,682
660,944;44502,865;   -2,082;    1,227
661,519;40099,560;   -0,628;    0,409
662,095;34186,074;   -1,719;    0,591
662,670;29314,405;    1,281;   -0,136
663,246;27996,464;    1,009;   -0,409
663,821;27226,796;    0,281;    1,682
664,396;26706,037;    0,009;    1,864
664,972;26954,914;    0,009;   -0,500
665,547;27270,973;    1,372;    0,136
666,122;27299,668;   -1,082;    0,318
666,698;27568,091;   -0,173;    0,318
667,273;26904,514;   -0,173;    0,136
667,848;27801,755;    2,372;    1,500
668,423;27578,814;    2,190;    2,318
668,998;28161,873;    2,827;   -0,682
669,573;28652,022;   -3,264;   -1,500
670,148;28478,900;   -1,446;   -0,682
670,723;28351,413;   -1,810;    0,318
671,298;28722,745;    2,372;    1,045
671,873;28883,258;   -0,082;   -0,136
672,448;28843,227;    0,645;    0,136
673,023;29193,740;   -1,992;   -0,227
673,597;29476,617;    0,827;    2,318
674,172;29283,585;   -0,355;    0,318
674,747;28779,190;    0,372;   -1,045
675,321;28636,158;   -0,628;    3,318
675,896;28213,944;    0,645;    1,045
676,471;29208,730;    2,645;    1,591
677,045;28941,062;   -1,264;    0,682
677,620;29041,848;    0,190;    1,136
678,194;29395,726;   -2,628;    1,136
678,769;28914,603;   -1,083;   -0,318
679,343;29130,571;   -0,628;    1,773
679,917;29062,630;   -1,446;    1,955
680,492;29188,689;    0,826;    3,227
681,066;29301,566;    3,372;    0,409
681,640;29316,171;    1,463;   -0,318
682,214;30177,866;    0,735;    0,500
682,788;29697,652;   -1,356;   -0,773
683,363;29643,620;   -1,810;    1,682
683,937;29357,861;   -1,719;   -0,318
684,511;30096,647;    0,463;   -0,591
685,085;29773,434;   -1,356;    0,318
685,659;29610,038;   -2,538;    0,864
686,232;29804,552;   -0,356;   -0,318
686,806;29553,974;   -0,901;    0,409
687,380;30183,488;   -0,174;    0,591
687,954;30411,456;   -1,174;    1,136
688,528;30113,515;   -0,719;    1,955
689,101;30921,301;   -3,992;    1,045
689,675;30486,815;   -0,356;   -0,136
690,249;29863,783;   -0,719;    0,409
690,822;30194,842;    0,280;    0,318
691,396;30260,901;   -0,265;    1,227
691,969;29707,687;    1,280;    0,136
692,543;30229,837;   -0,447;   -1,955
693,116;29837,714;   -0,265;   -1,409
693,690;29684,228;    0,099;    0,500
694,263;30259,741;   -1,083;    2,955
694,836;30306,709;    1,371;    3,591
695,410;28962,859;   -0,265;    1,773
695,983;29421,191;    0,189;    0,591
696,556;29393,977;   -0,447;   -1,045
697,129;29779,582;   -0,356;    1,409
697,703;29389,186;   -1,629;    1,955
698,276;29400,063;    1,462;   -0,773
698,849;29243,213;    1,280;    1,409
699,422;29601,181;   -1,083;    0,591
699,995;29276,695;    0,007;    0,136
700,568;29838,572;   -0,629;    3,045
701,140;29870,813;   -2,811;    1,682
701,713;29551,690;   -0,174;    2,409
702,286;29330,204;   -0,538;    0,864
702,859;29211,899;   -0,902;   -0,591
703,432;28299,413;    0,825;    0,682
704,004;28814,562;    0,462;    0,318
704,577;28698,712;   -0,629;    0,136
705,150;29351,226;    0,189;    2,500
705,722;29136,012;   -0,356;   -3,227
706,295;28848,162;   -0,175;   -0,591
706,867;28696,312;   -0,175;    1,955
707,440;28909,371;   -1,720;   -0,409
708,012;29199,157;    0,462;    0,591
708,584;29137,398;    2,462;    0,227
709,157;29480,548;    1,825;   -0,591
709,729;29083,425;    2,280;    2,045
710,301;29981,121;    0,734;    0,045
710,874;29942,452;   -1,447;   -0,227
711,446;28836,329;    0,371;    0,864
712,018;28691,025;    0,098;    0,500
712,590;28456,266;   -1,993;    1,682
713,162;29030,325;    0,825;    1,318
713,734;29258,202;    1,825;   -2,045
714,306;29091,170;   -1,902;   -0,409
714,878;27834,138;    0,825;    0,864
715,450;28670,470;    0,643;    0,864
716,022;28942,165;    1,552;    1,318
716,593;29093,133;    0,189;    0,591
717,165;29007,919;   -3,175;   -1,227
717,737;28737,251;    0,280;    0,409
718,309;28378,674;    0,280;   -0,045
718,880;28312,187;   -0,539;   -1,409
719,452;28561,428;   -0,175;   -1,591
720,024;28101,851;    0,734;   -0,591
720,595;28677,364;   -2,902;    0,955
721,167;28257,787;    0,370;   -2,045
721,738;27772,391;   -0,812;   -1,045
722,309;27762,178;   -0,993;   -1,227
722,881;27520,237;   -1,357;    0,773
723,452;28188,932;   -2,630;    2,864
724,023;28279,264;   -0,721;    2,682
724,595;28086,414;    0,007;    0,682
725,166;27865,473;    0,007;   -0,409
725,737;27456,350;    1,734;    0,227
726,308;27589,045;   -0,266;    0,318
726,879;28058,741;   -1,630;    1,227
727,450;27842,709;    0,552;   -0,045
728,021;27824,495;    3,097;    0,682
728,592;27594,827;    0,734;    0,500
729,163;27908,068;    0,643;   -0,136
729,734;27925,308;    0,188;   -0,227
730,305;28307,004;    1,734;    0,136
730,876;28672,245;    0,188;    2,955
731,447;28409,122;    2,188;    2,682
732,017;28486,999;    1,097;    1,864
732,588;28009,331;    0,734;    1,227
733,159;28186,026;    0,643;   -1,045
733,729;27989,267;    0,006;    0,409
734,300;27254,508;    0,915;    0,864
734,870;27732,294;    3,461;    0,591
735,441;28259,898;    0,370;   -0,591
736,011;28007,776;    0,643;   -1,591
736,582;27993,471;   -0,812;    0,045
737,152;27453,348;   -1,721;   -2,045
737,722;27875,134;   -0,267;   -0,682
738,293;27659,557;   -1,358;    1,318
738,863;27522,343;    2,461;    2,318
739,433;27293,039;    5,279;    0,318
740,003;27969,552;   -0,994;   -0,682
740,573;27303,066;    2,097;   -1,591
741,143;27256,307;   -1,085;    0,318
741,713;28107,366;    1,188;   -0,500
742,283;27801,879;    0,915;    1,591
742,853;27534,484;    1,915;    1,591
743,423;26956,906;    1,733;    0,045
743,993;27116,692;   -0,358;    1,500
744,563;26486,661;    0,097;   -0,864
745,133;26430,174;   -0,812;   -0,864
745,702;27132,324;   -0,267;    1,773
746,272;26392,747;   -0,176;    0,591
746,842;26117,624;   -1,358;   -0,591
747,411;26546,137;   -0,267;   -0,318
747,981;26774,742;    0,097;    0,500
748,551;26806,437;    2,278;   -1,045
749,120;26662,405;    0,642;   -0,227
749,690;27032,373;   -0,631;    2,409
750,259;27324,887;    1,369;    2,955
750,828;27292,582;    1,551;   -1,955
751,398;27600,005;    1,278;   -0,045
751,967;27001,246;    2,187;    0,409
752,536;27225,305;   -0,813;   -0,227
753,105;27706,273;    0,096;    0,227
753,675;27502,968;    0,096;    1,773
754,244;27472,300;   -0,904;    3,591
754,813;27483,268;    0,551;    1,227
755,382;27087,327;    0,460;    0,955
755,951;27602,022;    1,551;    3,682
756,520;27072,990;   -0,085;    1,864
757,089;27664,504;    0,278;    0,500
757,658;27783,745;    1,733;    1,227
758,227;27796,167;    1,096;    0,318
758,795;28199,045;    1,187;    1,136
759,364;28352,195;   -0,086;   -0,591
759,933;27391,617;   -1,176;   -0,045
760,501;26922,313;    0,733;   -1,318
761,070;27438,735;   -2,813;   -1,409
761,639;28092,431;   -1,904;    1,318
762,207;27422,308;    1,551;   -0,955
762,776;27345,549;    0,369;    0,864
763,344;27303,698;   -0,995;    0,591
763,913;26462,303;   -0,722;    1,409
764,481;27176,089;    1,005;   -0,136
765,049;26974,966;   -1,358;    1,409
765,618;26853,480;   -0,086;    0,318
766,186;26974,721;    0,278;    0,136
766,754;27173,416;    0,005;    1,864
767,322;26126,021;   -1,995;    0,409
767,890;26202,352;   -0,722;   -1,773
768,459;26584,593;   -2,177;   -0,318
769,027;26756,470;    1,641;    3,409
769,595;25723,620;    3,278;    2,591
770,163;26179,588;    3,823;    2,955
770,730;25968,920;    0,732;   -0,136
771,298;25807,252;    0,187;   -1,409
771,866;25873,583;   -1,541;    4,955
772,434;26224,461;   -0,631;   -1,864
773,002;26400,792;    0,005;    0,682
773,569;26072,942;    0,914;    1,682
774,137;25890,001;   -0,268;   -0,045
774,705;26636,697;    0,278;   -0,136
775,272;26112,301;    0,641;    0,682
775,840;25821,724;   -0,177;    2,682
776,407;25405,328;    0,277;    1,955
776,975;25021,569;   -0,632;    0,318
777,542;26059,992;   -1,086;   -0,045
778,110;25869,596;   -1,268;   -0,045
778,677;25567,473;   -2,359;   -0,864
779,244;25308,350;    2,186;    1,045
779,812;25389,955;    1,823;    0,864
780,379;25260,196;    0,005;    1,136
780,946;25457,982;    1,005;   -0,773
781,513;25820,405;   -1,450;    0,318
782,080;25219,918;   -0,086;    2,864
782,647;25944,068;   -0,268;    3,045
783,214;25538,673;   -0,177;    3,864
783,781;25112,004;   -0,723;   -0,682
784,348;24971,427;   -0,632;    1,500
784,915;25435,850;   -3,177;    0,318
785,482;25237,909;    1,368;    2,591
786,049;25702,058;    0,186;   -0,591
786,615;25814,754;    0,277;   -0,955
787,182;25605,995;    0,186;   -0,682
787,749;25207,963;   -2,814;    1,409
788,315;24538,204;   -1,632;   -0,409
788,882;24840,081;    1,550;   -1,227
789,448;25578,685;    1,732;   -0,955
790,015;25657,744;    1,095;    3,227
790,581;25144,076;    1,459;    0,227
791,148;25010,226;    0,641;    1,045
791,714;25259,012;   -0,541;    3,136
792,280;24909,980;    0,186;    1,591
792,847;24456,039;    0,550;    2,500
793,413;25059,826;   -0,269;   -0,318
793,979;24598,612;    3,459;   -1,318
794,545;24654,034;    4,459;    2,682
795,111;24039,548;    2,186;    1,318
795,678;24243,698;    0,731;   -1,682
796,244;23894,939;    3,368;    0,136
796,810;24448,452;    1,731;    0,773
797,375;24117,148;    0,549;   -2,136
797,941;24148,116;   -0,541;    0,591
798,507;24344,811;   -0,451;   -0,955
799,073;23864,597;   -0,360;    0,591
799,639;23897,020;   -2,632;    3,136
800,205;23968,715;    0,095;    2,682
800,770;23523,047;    0,640;    1,773
801,336;23606,652;    1,368;   -0,955
801,901;23327,529;    4,549;    3,136
802,467;23853,860;   -0,542;    2,045
803,033;23161,465;   -0,087;    0,864
803,598;23401,615;    1,913;   -1,045
804,163;23423,219;    1,095;   -0,318
804,729;23398,824;   -0,178;    1,136
805,294;23851,065;    0,822;    2,227
805,859;23605,487;    0,731;   -0,409
806,425;23015,092;    1,186;    2,682
806,990;22685,060;    2,186;    4,318
807,555;23205,301;   -1,451;    2,591
808,120;23060,450;    0,822;   -0,409
808,685;23159,237;    0,185;   -2,500
809,250;22657,023;    0,004;   -0,500
809,815;22962,355;    1,913;    0,682
810,380;23510,141;   -0,269;    1,591
810,945;24052,291;   -1,087;    2,045
811,510;23246,986;    2,094;    1,591
812,075;22947,682;   -0,633;   -1,409
812,640;22952,922;    2,003;    1,409
813,204;22988,709;    0,822;   -0,227
813,769;23461,313;    2,094;   -0,045
814,334;22885,099;    0,458;    0,864
814,898;22967,340;    0,367;    0,591
815,463;22851,308;    1,276;   -0,773
816,027;22789,004;   -0,724;   -2,318
816,592;22915,790;    0,640;   -2,045
817,156;22409,940;    2,094;    1,136
817,721;22268,817;    4,276;    2,318
818,285;22213,967;    2,912;    1,500
818,849;22910,299;   -1,451;    1,682
819,414;22774,540;   -0,269;    2,955
819,978;22353,689;   -1,269;    1,773
820,542;22919,930;    2,003;    0,500
821,106;22610,444;   -0,815;    0,682
821,670;22687,594;   -0,815;    2,591
822,234;22390,289;   -0,270;    1,409
822,798;21757,075;    0,003;    0,500
823,362;21712,043;   -0,633;    4,227
823,926;21038,284;    0,094;    1,136
824,490;21264,161;   -0,997;   -0,682
825,054;21715,130;   -0,088;   -1,136
825,618;21360,643;   -1,542;   -1,500
826,181;21323,975;    0,458;   -1,318
826,745;21237,761;    1,367;   -1,045
827,309;21588,002;    1,185;    1,318
827,872;20963,970;    1,367;    0,955
828,436;21968,756;    1,185;   -0,773
828,999;22003,452;   -0,997;    1,227
829,563;20810,783;   -0,179;    1,136
830,126;20624,751;   -0,179;   -0,591
830,690;20608,901;   -1,997;    2,864
831,253;20176,869;   -0,543;    2,227
831,816;20288,019;   -1,906;    0,500
832,380;20172,806;    0,185;    0,864
832,943;20436,410;   -1,361;   -0,500
833,506;19926,924;    2,639;   -1,227
834,069;20708,892;    3,912;   -0,955
834,632;20769,860;    1,730;    1,318
835,195;20669,737;    1,003;    0,955
835,758;19837,705;   -0,997;    1,955
836,321;19720,491;    0,730;   -1,045
836,884;19798,096;   -0,725;   -0,955
837,447;19857,882;   -2,816;    1,773
838,010;20075,759;    0,366;    3,227
838,573;20419,818;   -1,179;    0,773
839,135;20383,150;   -1,361;   -0,955
839,698;19823,936;    1,275;    0,409
840,261;19285,086;    1,003;   -0,227
840,823;19146,963;   -0,543;    0,864
841,386;19474,750;   -0,452;   -2,409
841,948;19330,627;   -1,361;    1,773
842,511;19056,140;    0,912;    1,682
843,073;19192,745;    1,912;    0,227
843,636;18991,440;   -0,361;   -0,227
844,198;18918,954;    0,911;    0,591
844,760;19002,467;    1,093;    1,955
845,322;18665,254;    0,548;    1,136
845,885;19095,222;    0,730;    0,591
846,447;19560,735;   -1,998;    0,227
847,009;19076,249;    1,911;   -0,682
847,571;19446,853;    0,820;   -2,045
848,133;19582,912;   -1,089;   -1,864
848,695;19383,517;   -0,543;    1,409
849,257;18936,485;   -1,089;   -1,682
849,819;19065,544;   -0,998;   -0,409
850,381;19163,512;   -0,725;   -0,864
850,942;19545,480;    1,093;   -0,591
851,504;19461,357;    1,184;    0,227
852,066;19550,871;    1,275;   -1,591
852,628;19054,839;   -0,180;    1,955
853,189;18620,807;    1,638;    2,682
853,751;18733,139;   -0,907;    1,409
854,312;18515,470;   -0,453;   -1,682
854,874;19004,257;   -2,089;   -0,773
855,435;19583,043;   -0,907;   -1,682
855,997;19745,284;   -1,816;   -0,136
856,558;19019,797;    0,366;    1,773
857,119;19128,583;    0,820;    2,864
857,681;18795,188;    0,002;    0,318
858,242;18830,338;    1,911;   -2,136
858,803;19294,760;    0,456;   -0,773
859,364;19835,183;    0,184;   -4,773
859,925;19150,697;   -2,453;   -0,955
860,486;19057,392;   -0,453;   -0,955
861,047;18787,178;   -0,544;   -1,227
861,608;18585,601;   -1,089;   -0,773
862,169;18750,296;    0,638;   -0,045
862,730;18533,173;    0,456;    1,409
863,291;18739,869;   -0,635;   -0,500
863,852;19109,291;   -0,635;    1,955
864,412;18600,169;   -0,271;   -0,864
864,973;17152,682;   -0,089;    0,500
865,534;17007,468;   -1,726;    0,227
866,094;18565,437;    1,820;    0,227
866,655;18163,950;    1,274;    3,318
867,215;18445,918;    0,274;    0,136
867,776;18345,250;    0,547;   -0,136
868,336;18410,400;   -1,453;    0,136
868,897;17827,004;    2,638;    1,682
869,457;17564,700;    1,365;    0,318
870,017;17820,031;    0,547;   -1,227
870,578;18354,363;   -0,817;    0,773
871,138;18035,877;   -2,089;   -0,955
871,698;17599,663;   -0,817;   -1,318
872,258;17471,540;   -0,453;   -2,864
872,818;17858,599;    2,729;    0,045
873,378;17813,294;    0,638;    1,045
873,938;17371,172;    0,547;    0,500
874,498;17691,412;    0,274;   -1,955
875,058;17551,471;    2,183;    1,773
875,618;17423,076;    1,910;   -2,682
876,177;17371,771;    1,274;    0,136
876,737;16991,285;   -0,090;    1,955
877,297;16974,435;    0,183;    1,955
877,856;16965,857;   -0,362;    0,318
878,416;16915,189;    1,183;   -0,136
878,976;17117,703;   -1,817;    0,409
879,535;17282,398;    0,092;    3,136
880,095;17050,730;   -0,544;    0,045
880,654;17145,971;   -1,090;    1,318
881,213;17229,120;    2,456;    1,500
881,773;16887,270;    2,637;    2,682
882,332;17212,238;    3,365;    5,136
882,891;17105,388;    3,092;    2,136
883,451;17574,447;   -1,272;    1,682
884,010;17013,506;   -2,908;   -0,409
884,569;17090,656;   -0,999;   -0,045
885,128;17199,715;    2,819;   -1,864
885,687;17279,229;    4,455;    0,682
886,246;16982,470;    1,455;    2,136
886,805;16783,165;    2,455;    2,045
887,364;17104,042;   -0,999;   -0,500
887,922;17440,556;   -1,181;    0,045
888,481;16925,433;   -1,545;    0,591
889,040;17245,674;    1,183;    2,136
889,599;17953,551;    2,455;    1,409
890,157;18014,337;    1,455;    2,409
890,716;17667,851;   -0,090;    0,227
891,274;17481,819;    0,092;   -1,136
891,833;17899,423;    1,546;    0,864
892,391;17777,391;   -0,454;    0,500
892,950;17885,814;    1,819;   -0,773
893,508;18260,782;    0,455;   -0,409
894,067;17589,023;    0,637;    0,136
894,625;17467,355;   -0,636;   -1,500
895,183;17751,141;   -0,363;   -0,682
895,741;17638,109;    1,728;   -1,773
896,299;17479,259;   -0,545;   -2,409
896,858;17694,136;    0,819;   -1,591
897,416;17749,650;    2,728;   -1,318
897,974;17528,709;    1,819;    0,318
898,532;17650,677;    6,091;    2,682
899,089;17540,645;    2,091;   -0,682
899,647;17613,067;   -1,454;    1,318
900,205;17296,308;    1,182;    1,045
900,763;17541,004;   -0,454;    0,227
901,321;17519,517;    2,364;   -1,409
901,878;16945,940;   -1,000;   -0,773
902,436;16832,453;   -1,363;    1,318
902,994;17180,876;    4,728;    3,682
903,551;16627,117;    0,728;    0,409
904,109;17029,630;    0,182;   -1,409
904,666;16585,689;    2,455;    1,045
905,224;16455,021;    0,182;   -0,409
905,781;16207,353;    0,727;   -0,318
906,338;16260,775;   -1,363;    1,045
906,895;16204,744;    0,637;    2,045
907,453;16119,530;    1,727;    1,136
908,010;16151,862;   -0,909;    0,409
908,567;15817,921;    1,273;    0,591
909,124;15311,889;    0,364;   -1,500
909,681;15371,675;   -2,909;    0,682
910,238;15516,461;    0,636;   -1,318
910,795;15829,884;   -0,273;   -1,136
911,352;15426,611;   -2,909;   -2,682
911,909;14865,157;   -1,364;   -0,864
912,466;15358,157;   -3,182;    1,500
913,022;14913,975;   -1,636;    0,500
913,579;15250,157;   -0,909;    2,045
914,136;14942,793;    1,636;    0,955
914,692;15289,338;    0,091;   -1,227
915,249;14866,066;    1,455;    0,409
915,806;15143,157;    0,182;    1,955
916,362;14846,611;    1,909;    1,864
916,918;14416,247;    2,000;    1,045
917,475;14373,702;   -1,182;    0,955
918,031;14428,702;    3,364;   -0,045
918,587;13894,611;   -0,909;   -0,318
919,144;14126,611;   -2,273;    0,227
919,700;14475,247;    1,727;    0,773
920,256;14056,884;    0,727;    0,045
920,812;13676,884;   -0,727;   -1,045
921,368;13642,975;   -1,727;   -1,045
921,924;13292,520;    0,182;   -0,136
922,480;12872,975;   -0,545;    1,227
923,036;13463,884;    1,273;    1,955
923,592;13384,611;    0,455;    0,318
924,148;13309,338;    0,455;   -0,955
924,704;12617,157;   -1,364;   -0,409
925,259;12875,066;   -0,273;    0,591
925,815;12655,157;    1,455;    0,500
926,371;12183,520;    2,909;    1,409
926,926;12068,066;    2,091;    0,591
927,482;11673,338;   -1,364;    0,773
928,037;11549,247;    0,909;    2,045
928,593;11795,247;    1,636;    1,045
929,148;11613,884;   -1,818;   -1,500
929,704;11112,702;   -1,455;   -0,500
930,259;11341,338;    0,091;   -0,136
930,814;10403,338;   -0,818;    1,955
931,369;10111,975;    1,091;   -0,773
931,925; 9965,157;   -0,091;    0,136
932,480; 9838,338;   -2,818;   -2,591
933,035; 9700,338;    0,545;   -0,318
933,590; 9492,975;    0,364;   -1,773
934,145; 9139,520;   -1,364;   -0,318
934,700; 9489,338;    0,455;   -0,591
935,255; 9296,247;   -0,091;    0,045
935,809; 8549,066;    3,182;    0,864
936,364; 7677,429;   -0,455;   -0,136
936,919; 7630,338;    0,455;   -1,773
937,474; 7471,157;    1,455;    0,136
938,028; 7281,793;   -1,636;    1,136
938,583; 6716,975;    1,818;    4,682
939,138; 7023,247;    2,091;    2,136
939,692; 6450,884;    1,636;   -1,136
940,247; 6144,247;   -0,727;   -1,045
940,801; 5679,338;   -0,636;    0,227
941,355; 5566,429;   -0,364;    2,591
941,910; 5207,157;   -0,273;   -2,136
942,464; 5316,520;   -0,818;   -0,318
943,018; 5085,247;    1,000;   -0,227
943,572; 5045,520;    2,545;   -0,682
944,126; 4428,975;    0,091;   -0,409
944,681; 4313,884;    3,091;    0,227
945,235; 4294,247;    1,000;   -0,591
945,789; 4243,793;    0,364;   -1,864
946,342; 4327,338;    0,455;   -0,591
946,896; 4167,520;   -2,273;    0,955
947,450; 3925,884;    1,545;   -0,227
948,004; 4080,247;    1,727;   -0,045
948,558; 4097,157;    0,273;   -0,864
949,111; 4023,338;   -0,273;   -0,318
949,665; 4035,884;    1,636;   -0,682
950,219; 3913,702;   -0,091;   -1,045
950,772; 4010,338;   -1,909;    1,864
951,326; 3915,429;    0,545;   -0,955
951,879; 4022,066;    0,727;   -2,318
952,433; 4018,066;    0,000;    2,227
952,986; 3893,157;    2,909;    0,682
953,539; 3842,884;   -0,273;    0,591
954,093; 3765,066;    0,545;   -1,318
954,646; 3887,884;    0,909;    1,318
955,199; 3687,793;    0,000;   -0,500
955,752; 3579,975;   -0,455;    1,773
956,305; 3539,247;   -0,091;    2,955
956,858; 3688,520;    0,818;   -0,318
957,411; 3859,702;   -0,545;    2,136
957,964; 3690,247;    1,364;    2,136
958,517; 3680,520;   -1,545;    3,136
959,070; 3518,702;   -0,455;    1,955
959,623; 3599,793;    1,091;    1,500
960,176; 3368,520;    1,727;    2,045
960,728; 3352,884;   -2,727;    0,773
961,281; 3389,975;    0,545;    0,500
961,834; 3444,247;   -0,909;    0,864
962,386; 3375,066;    1,727;    1,045
962,939; 3273,157;    0,364;   -0,318
963,491; 3432,884;    0,455;    1,136
964,043; 3304,520;    1,182;    2,409
964,596; 3422,975;   -1,000;    2,227
965,148; 3253,520;   -1,000;    1,773
965,700; 3183,611;    1,091;   -0,227
966,253; 3346,975;   -0,636;    0,318
966,805; 3171,157;   -2,273;    0,773
967,357; 3237,702;    1,091;   -1,500
967,909; 3156,247;    0,455;   -1,227
968,461; 3282,338;    0,545;    3,136
969,013; 3210,247;   -0,182;   -0,864
969,565; 3302,975;   -0,455;   -1,136
970,117; 3340,611;   -0,364;    1,045
970,669; 3189,793;    0,182;   -0,136
971,220; 3055,157;   -0,455;   -1,500
971,772; 2965,611;   -0,636;   -0,318
972,324; 3086,247;    0,091;   -0,500
972,876; 3040,157;    0,818;   -0,045
973,427; 3183,884;    1,909;   -1,045
973,979; 3132,338;   -0,727;   -2,500
974,530; 3197,975;    1,818;    1,318
975,082; 3201,702;   -0,545;    1,682
975,633; 3099,884;    1,091;    1,682
976,184; 3250,520;    0,909;    0,773
976,736; 3044,793;    0,091;    0,227
977,287; 2837,611;   -0,909;   -0,500
977,838; 3013,429;    0,909;   -0,318
978,389; 3078,429;   -1,000;   -0,500
978,940; 2947,338;    0,545;   -0,409
979,491; 2983,975;    0,091;   -0,500
980,042; 2947,066;    0,182;    3,045
980,593; 3007,429;   -2,545;    0,227
981,144; 3042,884;    2,545;   -0,500
981,695; 2997,611;    1,455;    1,500
982,246; 2965,520;   -0,273;    1,045
982,797; 3133,247;   -1,727;    0,682
983,347; 3237,702;    0,364;    0,591
983,898; 3386,793;    3,091;    0,409
984,449; 3208,338;    2,182;    0,773
984,999; 3133,247;    1,455;   -1,136
985,550; 2911,884;    0,182;   -0,318
986,100; 2950,702;   -0,455;   -0,318
986,651; 2986,702;   -0,818;    0,045
987,201; 2958,975;   -1,000;   -0,591
987,751; 3044,793;    0,818;    2,864
988,302; 3025,429;    2,636;    1,500
988,852; 3051,338;    0,455;   -1,136
989,402; 3097,247;    0,091;    0,682
989,952; 2997,429;   -2,182;    0,864
990,502; 3107,793;   -0,091;    0,682
991,052; 3069,793;   -0,727;    0,045
991,602; 2951,884;   -2,909;    1,318
992,152; 2945,702;    0,455;    0,682
992,702; 2944,975;    1,364;   -0,045
993,252; 2850,611;   -3,000;   -0,500
993,802; 2920,611;   -0,273;    1,318
994,352; 3171,793;   -1,545;    1,136
994,901; 3260,157;   -0,182;    3,227
995,451; 3185,338;   -0,182;    0,318
996,000; 3272,247;    1,636;    0,318
996,550; 2985,611;    2,273;    0,227
997,100; 2985,702;    1,273;   -0,045
997,649; 3257,884;    2,182;    0,955
998,198; 2906,157;    1,727;   -1,500
998,748; 3087,611;    1,091;   -2,318
999,297; 3012,975;   -0,818;   -0,409
999,846; 3050,338;    1,000;   -0,773
1000,395; 3108,884;   -0,818;    0,500
1000,945; 3053,793;    1,818;   -0,773
1001,494; 3152,702;    2,364;    0,682
1002,043; 3151,429;    4,636;    0,864
1002,592; 2994,793;   -1,091;    1,955
1003,141; 3135,429;   -0,455;   -0,682
1003,690; 2978,702;    1,727;    0,500
1004,238; 3073,520;    1,455;   -0,045
1004,787; 2722,702;    1,364;    1,227
1005,336; 2929,429;    0,364;    0,682
1005,885; 3067,884;    1,364;   -2,773
1006,433; 3223,066;    0,545;    0,955
1006,982; 3284,429;    0,455;    1,682
1007,531; 3196,975;   -1,818;   -0,227
1008,079; 3164,793;   -2,273;    0,500
1008,627; 3318,338;   -1,455;    0,409
1009,176; 3043,066;    0,000;   -1,955
1009,724; 3092,702;    1,091;    0,864
1010,273; 3127,975;    1,273;    0,500
1010,821; 3257,793;    0,091;    1,409
1011,369; 2988,793;   -1,364;    1,318
1011,917; 2965,793;   -1,364;   -0,591
1012,465; 3247,157;    1,273;   -1,591
1013,013; 3370,611;    2,091;   -1,682
1013,561; 3226,157;    0,455;   -0,773
1014,109; 3259,611;   -1,909;    1,682
1014,657; 3166,702;    0,364;    0,591
1015,205; 3289,793;    1,636;   -0,955
1015,753; 3332,157;   -0,545;   -1,409
1016,301; 3379,702;   -2,636;    3,045
1016,848; 3356,975;   -1,273;    0,409
1017,396; 3383,884;    2,545;    0,045
1017,944; 3513,975;    1,182;    1,864
1018,491; 3279,793;    0,273;    1,409
1019,039; 3413,702;    0,455;    0,591
1019,586; 3358,611;   -1,364;    1,682
1020,134; 3473,793;    0,455;    1,500
1020,681; 3485,157;    0,182;   -1,136
1021,228; 3498,520;    2,909;   -2,227
1021,776; 3329,793;    1,182;   -1,136
1022,323; 3526,884;    0,455;    0,773
1022,870; 3486,066;   -1,000;   -0,045
1023,417; 3367,975;    2,636;    1,864
1023,964; 3533,702;    2,636;    1,227
1024,511; 3359,611;    1,000;    0,773
1025,058; 3153,429;    3,182;   -0,045
1025,605; 3212,520;   -2,273;    3,136
1026,152; 3416,702;    1,727;   -0,591
1026,699; 3165,884;    1,818;    1,318
1027,245; 3328,157;   -0,091;    0,318
1027,792; 3550,884;   -1,000;    1,409
1028,339; 3424,793;    2,364;   -0,045
1028,885; 3260,793;    1,000;   -0,227
1029,432; 3198,338;   -0,091;    0,227
1029,978; 3284,975;   -1,000;   -1,591
1030,525; 3177,793;    1,000;    0,409
1031,071; 3437,247;   -1,364;    1,136
1031,618; 3505,429;    0,364;    1,682
1032,164; 3313,338;   -0,091;    3,045
1032,710; 3367,066;    1,636;   -1,500
1033,256; 3283,338;   -0,636;   -0,136
1033,803; 3270,247;   -0,545;    1,500
1034,349; 2999,338;   -1,364;    0,136
1034,895; 3160,702;    0,000;   -0,318
1035,441; 3131,611;   -0,818;    0,318
1035,987; 3136,793;   -2,364;   -0,682
1036,533; 3115,066;   -1,455;   -0,955
1037,078; 3299,520;    1,455;    1,682
1037,624; 3134,975;    2,455;   -0,955
1038,170; 3150,338;    0,455;   -0,318
1038,716; 3070,429;    1,636;   -0,409
1039,261; 2988,793;   -2,273;   -0,773
1039,807; 2936,611;   -0,091;    3,409
1040,352; 2985,975;   -1,909;   -0,318
1040,898; 3049,338;   -1,545;   -0,682
1041,443; 2959,793;   -1,455;   -2,591
1041,989; 2938,793;    1,091;    1,591
1042,534; 2845,520;   -0,364;    2,591
1043,079; 2963,975;    2,909;    0,955
1043,625; 2753,247;    1,818;    0,500
1044,170; 2783,702;   -1,364;    1,045
1044,715; 3020,793;    2,455;    0,955
1045,260; 2834,793;    2,182;   -0,955
1045,805; 2926,157;    1,182;   -0,591
1046,350; 2850,429;    1,364;   -0,409
1046,895; 2783,429;    2,909;    1,591
1047,440; 2734,884;    5,364;    0,409
1047,985; 2643,247;    2,818;   -0,955
1048,530; 2572,611;    1,545;    1,227
1049,074; 2636,884;    0,000;    0,318
1049,619; 2618,338;   -1,364;    1,955
1050,164; 2408,702;    0,455;    0,227
1050,708; 2448,066;   -0,455;    0,045
1051,253; 2800,884;    1,273;   -2,227
1051,797; 2517,429;    0,818;   -1,318
1052,342; 2538,338;   -1,182;    1,045
1052,886; 2540,066;    0,364;   -1,409
1053,430; 2426,611;   -1,364;    0,136
1053,975; 2416,793;   -0,818;   -0,318
1054,519; 2394,066;   -0,727;    3,227
1055,063; 2408,702;    0,909;    1,318
1055,607; 2288,793;   -0,182;    0,227
1056,151; 2330,338;    2,909;    1,682
1056,695; 2255,338;    2,273;   -1,136
1057,239; 2328,429;   -1,727;   -0,682
1057,783; 2337,702;    0,818;   -1,500
1058,327; 2256,702;    0,000;    1,409
1058,871; 2478,429;   -0,545;    1,318
1059,415; 2183,975;   -0,818;   -0,045
1059,958; 2439,429;    1,455;    2,591
1060,502; 2165,520;   -1,000;   -0,773
1061,046; 2090,702;    0,364;   -0,955
1061,589; 2061,611;   -3,000;   -1,136
1062,133; 1946,429;   -1,273;    1,864
1062,676; 1878,611;    1,182;    0,864
1063,220; 1876,066;    1,091;    0,500
1063,763; 1892,884;    0,909;    1,136
1064,306; 1982,520;   -0,909;    1,864
1064,849; 1853,975;   -0,909;    0,591
1065,393; 1856,429;    2,000;   -1,500
1065,936; 1987,793;    0,182;   -0,409
1066,479; 1891,520;   -1,455;    1,318
1067,022; 1881,975;   -0,273;   -0,227
1067,565; 1785,793;   -0,091;   -1,318
1068,108; 1816,611;    0,727;   -0,591
1068,651; 1795,702;   -0,636;    1,409
1069,194; 1717,702;   -0,455;   -1,682
1069,736; 1706,884;   -1,273;    0,955
1070,279; 1689,429;   -1,364;   -0,500
1070,822; 1734,520;   -2,000;   -0,318
1071,364; 1819,702;   -0,364;    1,318
1071,907; 1648,247;   -0,727;    3,227
1072,450; 1555,429;    0,000;   -0,045
1072,992; 1548,338;   -0,273;    3,136
1073,535; 1676,611;    2,091;    2,136
1074,077; 1469,520;   -0,727;    2,045
1074,619; 1434,975;   -1,364;    0,591
1075,161; 1482,157;   -1,091;    1,500
1075,704; 1643,975;    1,545;    1,227
1076,246; 1440,975;   -0,182;    0,682
1076,788; 1387,975;   -0,364;    1,773
1077,330; 1461,793;    1,273;    2,136
1077,872; 1419,066;    0,909;    0,955
1078,414; 1629,611;    2,727;    0,773
1078,956; 1369,520;    1,273;   -0,227
1079,498; 1619,793;    1,636;    0,318
1080,040; 1334,429;    1,909;   -1,318
1080,581; 1271,793;    1,636;   -0,318
1081,123; 1213,975;    0,091;   -0,773
1081,665; 1259,520;   -1,182;   -0,955
1082,206; 1542,157;    1,364;   -0,500
1082,748; 1392,975;    0,727;    2,045
1083,289; 1295,429;   -2,000;    1,318
1083,831; 1189,066;   -0,545;    0,227
1084,372; 1219,429;    0,000;    0,591
1084,913; 1220,975;    1,091;    0,864
1085,455; 1201,338;   -1,909;   -2,045
1085,996; 1167,975;   -2,273;    0,136
1086,537; 1179,884;   -0,091;    0,864
1087,078; 1201,429;   -0,909;   -2,136
1087,619; 1251,702;   -1,273;    0,227
1088,160; 1176,066;    0,000;    1,318
1088,701; 1169,884;   -1,091;    0,682
1089,242; 1099,066;    1,364;   -2,227
1089,783; 1188,157;   -0,273;    1,409
1090,324; 1142,066;    0,455;    0,682
1090,865; 1037,702;    2,727;   -0,409
1091,405;  998,066;    0,727;    2,227
1091,946; 1036,793;    0,182;   -0,955
1092,487;  961,793;    0,818;   -1,409
1093,027; 1123,338;   -1,364;   -1,500
1093,568;  972,157;   -0,364;    1,227
1094,108; 1070,157;    0,273;    1,773
1094,649; 1011,793;   -1,182;    0,136
1095,189;  952,793;   -0,636;   -0,682
1095,729;  893,066;   -0,091;    0,955
1096,269;  907,975;    0,727;   -0,955
1096,810; 1218,429;   -1,364;    0,500
1097,350; 1040,247;    1,364;   -0,773
1097,890;  938,702;    0,364;    1,227
1098,430; 1182,520;    2,364;    2,864
1098,970; 1052,429;    2,182;    1,682
1099,510;  927,702;    0,545;   -2,318
1100,050;  847,884;    1,000;   -1,591
1100,589;  809,066;   -0,727;   -0,318
1101,129;  940,975;    0,818;   -0,955
1101,669; 1091,884;    1,727;    2,136
1102,209;  907,793;   -0,091;    2,227
1102,748;  869,793;    0,000;    0,955
1103,288;  859,793;    1,273;   -1,227
1103,827;  887,429;    3,091;   -2,227
1104,367;  764,247;   -0,091;   -2,409
1104,906;  738,884;    1,364;   -1,136
1105,445;  811,066;    0,636;   -1,136
1105,985;  740,975;   -0,727;    1,500
1106,524;  782,157;   -1,727;   -0,682
1107,063;  764,066;   -2,727;    1,409
1107,602;  744,066;   -1,909;   -1,500
1108,141;  666,611;   -1,909;    1,500
1108,680;  760,247;   -3,455;   -0,591
1109,219;  695,702;   -0,909;   -0,500
1109,758;  698,884;    0,455;    0,682
1110,297;  672,884;    1,000;   -0,682
1110,836;  618,793;   -0,727;    0,955
1111,375;  779,611;   -2,545;    0,409
1111,913;  791,793;   -1,000;    0,773
1112,452;  723,066;   -0,273;    0,136
1112,991;  605,157;    1,091;    1,955
1113,529;  573,702;   -0,818;   -0,045
1114,068;  636,066;   -0,273;    2,955
1114,606;  536,793;   -0,364;   -0,955
1115,144;  695,066;   -1,273;    1,045
1115,683;  625,066;   -0,727;    0,318
1116,221;  677,884;   -0,455;   -0,864
1116,759;  597,157;    0,636;   -0,864
1117,297;  793,611;    0,000;    1,864
1117,836;  600,975;   -2,182;   -1,227
1118,374;  601,429;    0,182;   -0,682
1118,912;  539,884;    0,909;    2,682
1119,450;  533,247;    1,000;    0,864
1119,988;  579,429;    1,545;    2,136
1120,525; 1025,884;    5,091;    3,318
1121,063;  731,338;    1,182;    1,864
1121,601;  543,247;   -0,909;   -1,227
1122,139;  501,884;   -0,727;   -2,045
1122,676;  697,975;   -0,727;    2,773
1123,214;  626,338;   -1,182;    4,409
1123,751;  447,793;    1,727;    2,227
1124,289;  576,884;   -0,091;   -0,409
1124,826;  443,066;    1,727;    0,227
1125,364;  366,884;    1,727;   -0,955
1125,901;  557,429;    1,182;    1,227
1126,438;  666,975;    0,818;    0,955
1126,975;  391,611;   -0,727;   -0,773
1127,513;  451,520;    0,273;    2,136
1128,050;  352,611;    1,636;   -0,682
1128,587;  459,520;    2,000;   -0,227
1129,124;  504,157;    0,091;    1,318
1129,661;  371,702;    0,273;    0,227
1130,198;  537,157;    1,636;    0,773
1130,734;  483,793;    0,182;    1,409
1131,271;  340,338;   -0,909;    0,864
1131,808;  509,611;    2,909;    3,045
1132,345;  378,793;    1,545;    0,318
1132,881;  261,247;   -1,545;   -1,864
1133,418;  399,702;    0,727;   -1,136
1133,954;  332,884;    2,455;   -2,682
1134,491;  409,520;    1,364;   -0,773
1135,027;  301,066;    2,364;    0,864
1135,564;  385,429;    0,273;    2,955
1136,100;  377,975;    0,364;    2,136
1136,636;  268,247;   -1,273;   -1,045
1137,172;  358,429;    0,000;   -1,045
1137,708;  287,247;   -1,364;   -1,045
1138,245;  275,520;    1,273;   -1,227
1138,781;  236,702;    1,091;   -3,318
1139,317;  307,157;    1,273;   -1,409
1139,852;  289,338;    3,091;    0,136
1140,388;  411,157;   -1,182;   -0,409
1140,924;  294,884;   -1,091;   -2,227
1141,460;  238,157;   -1,636;    0,136
1141,996;  172,793;   -1,364;    2,682
1142,531;  220,247;    1,364;    3,318
1143,067;  426,975;    1,182;    1,045
1143,602;  483,520;   -0,091;   -0,318
1144,138;  331,247;   -2,636;    1,045
1144,673;  192,429;   -1,455;    1,409
1145,209;  256,884;   -1,909;   -0,318
1145,744;  182,884;   -0,727;    0,864
1146,279;  313,157;    1,818;   -0,136
1146,815;  234,247;    1,545;   -2,682
1147,350;  270,702;   -1,364;    0,045
1147,885;  191,975;   -0,818;   -1,318
1148,420;  177,793;   -2,273;    0,773
1148,955;  164,157;   -1,727;    1,864
1149,490;  191,066;   -0,909;   -1,591
1150,025;  173,338;    0,455;   -1,773
1150,560;  282,429;    1,091;   -0,955
1151,094;  258,520;    1,455;   -0,591
1151,629;  267,793;    1,636;    0,864
1152,164;  194,520;    1,364;    1,318
1152,698;  150,429;   -0,182;   -0,136
1153,233;  111,611;    0,091;   -0,682
1153,767;  157,793;   -3,000;   -2,318
1154,302;  209,338;   -1,455;    1,773
1154,836;  200,611;   -0,455;   -2,136
1155,371;  256,702;   -1,364;    3,682
1155,905;  207,066;   -0,636;    1,682
1156,439;  173,520;   -0,636;   -0,500
1156,973;  206,429;    0,364;    0,318
1157,507;  135,247;   -0,364;    0,682
1158,042;  154,338;   -0,727;    1,045
1158,576;  212,884;    0,182;    1,773
1159,110;  196,520;   -0,818;    2,409
1159,643;  174,520;    0,636;   -0,045
1160,177;  119,066;   -1,545;    1,500

