
Integration time [ms]:   0,040
Averaging Nr. [scans]: 11
Smoothing Nr. [pixels]: 0
Data measured with spectrometer [name]: 7318044SP
Wave   ;Sample   ;Dark     ;Reference
[nm]   ;[counts] ;[counts] ;[counts] 

186,757;   39,376;   31,551;    1,318
187,357;   61,207;   22,551;    0,955
187,958;   38,270;   15,460;   -1,591
188,558;   78,375;    8,915;   -1,227
189,159;   50,845;    6,733;   -4,500
189,759;   17,814;    7,278;   -3,591
190,360;   14,573;    2,824;   -2,136
190,960;   59,271;    2,915;   -4,136
191,560;   69,600;    3,189;   -6,591
192,161;  302,313;    4,372;   -3,500
192,761;  148,277;    4,010;   -3,227
193,361;   97,840;    1,556;   -3,773
193,962;  147,944;    2,010;   -2,682
194,562;   78,235;    1,189;   -3,955
195,162;  103,774;   -2,448;   -2,227
195,762;  263,571;   -3,176;   -0,045
196,362;  213,761;    1,370;   -2,500
196,963;   82,530;    2,006;   -0,864
197,563;  159,467;    1,551;   -0,955
198,163;   99,248;    0,096;   -0,682
198,763;  114,721;    1,733;   -0,500
199,363;  224,147;    3,096;   -0,500
199,963;  185,532;    0,369;    0,409
200,563;  162,208;    2,823;   -1,409
201,163;  145,703;    3,277;   -0,227
201,763;  230,155;    3,732;    0,318
202,363;  163,039;    1,459;    1,500
202,963;  285,202;    1,459;    1,045
203,563;  399,498;    0,277;    0,500
204,162;  245,500;    2,096;   -1,864
204,762;  227,074;    0,550;    0,591
205,362;  204,123;    3,004;    1,955
205,962;  293,703;    3,096;    1,955
206,562;  295,512;    1,823;    2,318
207,161;  271,142;   -0,087;    0,318
207,761;  428,633;    1,277;    2,409
208,361;  301,047;   -0,268;    1,409
208,960;  399,297;    0,459;    1,500
209,560;  469,258;    1,277;    1,591
210,160;  443,067;    0,550;    1,864
210,759;  414,818;    4,186;    1,227
211,359;  424,177;    1,459;    1,045
211,958;  692,160;    1,277;    2,045
212,558;  766,974;    1,732;    1,864
213,157;  600,983;    1,822;    1,500
213,757; 1051,636;    3,822;   -0,227
214,356;  759,656;    1,277;   -0,409
214,956; 1091,060;    3,095;    0,409
215,555;  708,003;    2,095;    2,136
216,154;  657,215;   -2,723;   -0,591
216,754;  667,668;    0,277;    0,773
217,353;  808,624;   -0,268;   -1,045
217,952;  660,804;   -0,178;    0,318
218,552;  883,623;    1,368;   -0,773
219,151;  780,389;    0,277;    0,955
219,750;  783,099;    0,004;   -0,227
220,349;  916,687;   -0,451;    1,045
220,948;  987,878;   -1,360;    1,136
221,548; 1006,074;    0,913;    1,227
222,147; 1107,101;   -0,087;   -0,409
222,746; 1386,876;   -0,451;   -0,955
223,345; 1278,879;    0,731;    0,500
223,944; 1284,291;   -0,451;    0,773
224,543; 1470,918;    1,004;   -1,409
225,142; 1587,226;    0,094;    0,136
225,741; 1478,901;   -0,814;    1,045
226,340; 1504,208;   -0,451;   -0,955
226,939; 1955,281;   -0,996;   -0,136
227,538; 1937,748;   -0,360;   -0,773
228,137; 2062,155;   -0,814;    0,864
228,735; 2203,154;   -0,541;    1,227
229,334; 1973,789;   -0,905;   -0,227
229,933; 2346,033;    0,459;    0,591
230,532; 2448,207;    1,186;   -0,409
231,131; 2483,414;    1,732;    0,318
231,729; 2630,484;   -2,450;   -2,318
232,328; 2766,452;   -0,723;   -1,500
232,927; 2834,289;    1,004;   -0,500
233,525; 2972,438;    3,640;    0,045
234,124; 3186,358;    2,368;   -1,591
234,723; 3199,909;    0,913;   -1,045
235,321; 3329,162;    2,277;    0,136
235,920; 3575,031;    1,186;   -1,227
236,518; 3836,374;    3,459;    0,318
237,117; 3983,771;    0,004;   -0,227
237,715; 4159,850;    0,640;   -0,500
238,314; 4191,573;   -0,087;   -2,318
238,912; 4286,967;   -0,723;   -1,409
239,510; 4360,964;    0,459;   -1,227
240,109; 4517,405;    0,004;    3,773
240,707; 4546,105;   -0,996;    1,227
241,305; 4932,231;    0,550;    0,136
241,904; 5139,595;   -0,178;   -2,045
242,502; 5086,960;   -0,632;   -0,227
243,100; 5042,121;   -0,087;   -0,955
243,698; 5302,928;    0,732;    1,682
244,297; 5500,881;   -0,632;    0,682
244,895; 5311,252;   -0,269;   -2,318
245,493; 5607,228;    2,186;   -0,591
246,091; 5645,649;    1,368;   -1,318
246,689; 5636,648;    1,004;    0,591
247,287; 5807,708;    0,822;   -1,136
247,885; 6090,540;   -1,451;    1,227
248,483; 6173,677;    1,822;   -0,500
249,081; 6305,249;    0,185;    1,591
249,679; 6464,368;   -0,178;    1,682
250,277; 6729,171;   -1,723;    0,864
250,875; 6718,668;   -1,087;   -1,045
251,473; 6732,984;   -1,178;    0,500
252,071; 6917,677;    1,459;    1,045
252,669; 7088,291;   -1,814;    0,318
253,267; 7367,677;   -0,087;    0,773
253,864; 7306,890;   -0,360;    0,682
254,462; 7169,992;    1,640;    1,591
255,060; 7173,625;   -0,269;    1,318
255,658; 7503,927;    0,822;   -0,136
256,255; 7868,980;    0,186;   -2,045
256,853; 7761,630;   -0,269;    1,409
257,451; 7752,317;    0,822;    1,864
258,048; 8003,587;    1,822;    1,864
258,646; 7766,355;    1,731;   -1,045
259,243; 7941,267;   -0,087;    2,227
259,841; 8017,897;   -0,814;    0,318
260,438; 7908,055;   -0,087;    0,864
261,036; 8620,821;   -1,905;    1,409
261,633; 8530,110;   -0,087;    2,227
262,231; 8283,046;    2,731;   -0,045
262,828; 8371,725;   -0,905;    1,136
263,425; 8398,585;    0,913;   -0,591
264,023; 8643,080;    0,186;    0,045
264,620; 8225,808;   -0,360;   -0,318
265,217; 8559,655;   -2,087;    3,136
265,815; 8722,248;   -1,905;    2,136
266,412; 8441,838;    0,731;    0,136
267,009; 8474,771;   -1,451;    0,773
267,606; 8371,446;    0,822;   -0,955
268,203; 8385,400;   -0,269;   -0,591
268,801; 8671,593;    1,731;    0,591
269,398; 8968,845;   -0,360;    2,500
269,995; 8932,271;    0,277;    1,591
270,592; 8698,638;   -0,632;   -0,500
271,189; 8923,239;    0,186;    0,409
271,786; 9054,344;   -0,632;    1,227
272,383; 8855,277;   -1,087;    0,227
272,980; 9074,106;    0,277;    0,318
273,577; 9519,175;    0,004;    1,227
274,174; 9077,754;    0,822;    2,591
274,771; 9045,654;   -0,814;   -0,773
275,367; 9193,720;    2,277;    1,409
275,964; 9157,789;    0,731;   -0,500
276,561; 9253,384;    1,549;   -1,045
277,158; 9464,186;    0,095;   -1,773
277,755; 9595,067;    2,185;    0,409
278,351; 8991,718;   -0,451;   -1,500
278,948; 9296,218;   -0,815;    0,045
279,545; 9278,695;   -1,360;    2,318
280,141; 9882,678;   -1,723;   -2,045
280,738; 9771,017;   -0,451;   -0,136
281,334;10051,208;   -1,633;    0,591
281,931; 9423,109;   -0,087;   -1,318
282,528; 9525,227;    0,822;   -0,500
283,124;10213,174;   -1,087;   -0,500
283,721;10124,924;   -0,451;    1,409
284,317; 9931,989;    0,185;    2,500
284,913;10488,895;   -1,360;    0,591
285,510;10641,350;    0,640;   -0,318
286,106;10660,129;   -2,269;   -0,955
286,703;10273,640;   -0,360;    1,955
287,299;10483,352;   -1,451;   -0,591
287,895;10704,384;    0,822;   -1,045
288,491;11254,481;    0,186;    2,136
289,088;10975,002;   -2,360;    2,409
289,684;11033,473;   -1,723;    1,500
290,280;11044,222;    0,368;    0,682
290,876;11089,777;    1,822;    5,500
291,472;11031,307;    1,276;    2,227
292,068;11113,948;    1,367;    0,227
292,665;10848,534;    2,095;    0,773
293,261;10450,786;    0,276;    2,136
293,857;10841,584;    2,913;    2,136
294,453;10757,578;    3,550;    0,955
295,049;10658,512;   -0,268;    1,955
295,644;10709,591;    0,095;    0,136
296,240;10620,276;   -0,905;   -0,136
296,836;10660,080;   -0,995;    0,318
297,432;10901,553;    1,096;   -0,500
298,028;10922,250;    0,732;    0,773
298,624;11355,627;    1,459;    1,864
299,220;11588,136;    2,368;    0,591
299,815;11257,205;    1,005;   -0,409
300,411;11092,330;    0,914;    1,773
301,007;11091,157;    1,368;    0,227
301,602;11158,687;   -0,541;   -2,318
302,198;11284,969;    0,732;   -0,773
302,794;11619,285;    1,187;   -0,500
303,389;11738,106;   -1,177;    1,045
303,985;11810,077;    0,550;    1,409
304,580;11749,467;    1,459;    1,591
305,176;11740,208;   -3,086;    0,136
305,771;11710,245;   -1,268;   -1,227
306,367;11480,674;    4,095;    0,136
306,962;11837,414;    0,641;    1,500
307,558;11574,808;   -0,450;    0,136
308,153;11527,300;    1,095;   -1,136
308,748;11749,902;   -0,814;    1,682
309,344;11728,340;   -0,632;   -1,318
309,939;11809,274;   -1,905;   -1,318
310,534;12079,853;   -0,086;   -1,682
311,130;12010,145;    0,459;   -2,500
311,725;11747,333;    1,004;   -0,500
312,320;12045,294;    2,459;    0,045
312,915;11883,217;    1,459;   -1,045
313,510;12007,000;    1,550;   -0,500
314,105;12492,069;    1,096;    1,409
314,700;11906,983;   -3,086;   -1,045
315,295;11533,648;   -0,904;    0,045
315,890;11134,322;    1,277;    0,864
316,485;11486,607;   -0,359;   -0,318
317,080;11590,688;   -3,086;    1,591
317,675;12122,840;    2,005;   -0,682
318,270;11535,427;    5,550;    3,318
318,865;11542,881;    3,278;    3,045
319,460;11377,020;   -0,904;    0,591
320,055;11639,026;   -0,541;   -1,227
320,650;11315,628;   -1,995;   -0,591
321,244;11350,847;   -0,177;   -1,409
321,839;12256,167;   -1,541;   -0,227
322,434;12150,839;   -1,086;   -1,591
323,029;11751,370;    1,732;    1,591
323,623;11565,993;    1,550;    0,773
324,218;11360,274;    2,368;    1,409
324,812;11245,650;    1,096;    1,591
325,407;11054,020;   -0,814;    2,045
326,002;10968,718;    0,277;   -0,409
326,596;11281,527;    0,914;    1,318
327,191;11479,624;    0,823;   -1,045
327,785;11042,709;   -0,813;   -0,227
328,379;11256,018;    1,368;    0,136
328,974;11084,412;    0,914;   -3,955
329,568;11318,408;    0,186;   -2,409
330,163;11112,674;    2,096;    1,045
330,757;11447,578;    2,459;    1,591
331,351;10801,147;    0,459;    0,682
331,945;11113,648;    0,914;    1,409
332,540;10754,966;   -1,723;   -0,591
333,134;10880,276;   -1,086;    0,773
333,728;11100,844;    0,005;    0,318
334,322;11431,684;   -1,177;   -0,864
334,916;10745,617;    0,277;    0,955
335,510;11046,903;   -0,450;   -0,136
336,105;11307,987;   -1,086;    1,591
336,699;10986,422;   -1,086;    0,591
337,293;10953,039;   -1,723;    0,318
337,887;11109,961;   -2,723;    1,955
338,481;11199,814;    0,459;    0,591
339,074;11346,616;   -0,359;    2,682
339,668;11166,127;   -1,632;    1,227
340,262;11423,216;    1,732;    3,227
340,856;10912,684;    1,822;   -0,682
341,450;10319,568;    1,004;    1,864
342,044;11204,676;    1,459;    0,136
342,637;11000,496;    0,913;   -2,136
343,231;10835,742;   -2,360;    0,682
343,825;10791,876;   -1,086;   -0,591
344,419;10779,107;   -1,995;    0,500
345,012;10567,131;    2,459;    4,045
345,606;10558,915;    4,641;    1,591
346,199;10402,755;   -1,813;   -0,227
346,793; 9941,812;    1,914;    2,045
347,386;10137,528;   -0,813;   -1,136
347,980;10139,198;   -0,268;   -0,045
348,573; 9943,248;    2,278;    0,409
349,167; 9623,206;    5,278;    4,773
349,760; 9946,692;    2,914;    2,682
350,354; 9938,055;   -0,813;    1,136
350,947; 9682,372;    1,096;    1,682
351,540; 9369,129;   -0,358;   -1,409
352,134; 9330,723;    1,096;    1,136
352,727; 9381,741;   -0,086;    1,136
353,320; 9159,847;    0,005;    0,591
353,913; 9043,700;   -1,995;    1,864
354,507; 9235,885;    0,823;   -1,227
355,100; 9259,154;    0,460;    0,864
355,693; 8476,402;    2,005;    2,409
356,286; 8547,995;    0,823;    2,773
356,879; 8885,966;   -0,722;    1,227
357,472; 8493,181;   -0,904;    1,500
358,065; 8703,594;   -0,722;    2,500
358,658; 8616,784;   -0,540;    2,318
359,251; 8263,967;   -1,631;   -0,591
359,844; 7774,319;   -1,904;   -1,136
360,437; 7952,670;   -2,995;    0,045
361,030; 8238,027;    1,369;   -0,682
361,623; 7806,949;    2,824;    0,318
362,215; 7851,713;   -0,086;    2,045
362,808; 7687,990;   -2,358;   -1,682
363,401; 7894,731;   -2,449;    0,136
363,994; 7635,513;   -0,631;   -1,500
364,586; 7575,615;    0,824;   -1,500
365,179; 7784,088;   -0,449;   -1,136
365,772; 7256,921;   -1,995;    2,045
366,364; 7559,762;    1,915;   -3,227
366,957; 7758,095;    2,279;   -0,045
367,549; 7760,572;    2,188;   -0,864
368,142; 7411,374;    1,825;   -1,500
368,734; 7611,644;    0,734;   -2,136
369,327; 7587,177;    1,643;   -0,500
369,919; 7524,670;   -1,538;    0,409
370,512; 7322,668;   -1,083;   -0,500
371,104; 7078,308;   -0,901;    1,591
371,696; 7205,544;    1,191;   -0,955
372,289; 7292,744;    0,373;    1,136
372,881; 7462,275;   -2,080;    1,318
373,473; 7394,940;   -2,170;    1,136
374,066; 7190,643;   -0,169;    0,500
374,658; 7035,492;    0,378;    1,136
375,250; 7388,621;    0,653;   -1,409
375,842; 7227,094;    0,473;   -0,045
376,434; 7100,116;   -0,435;   -0,409
377,026; 7690,758;    0,204;   -2,500
377,618; 7600,074;   -0,158;   -0,682
378,210; 7430,682;   -0,338;   -1,955
378,802; 7276,909;    0,754;   -0,591
379,394; 7245,671;    1,846;    0,682
379,986; 7808,667;    1,393;   -0,955
380,578; 7892,617;   -0,153;    0,773
381,170; 7264,712;   -0,972;    0,045
381,762; 7229,798;    0,755;    1,409
382,354; 7417,464;   -0,065;   -1,318
382,945; 7537,254;   -2,976;    0,318
383,537; 7675,662;   -2,705;   -1,955
384,129; 7712,406;   -2,160;   -1,136
384,721; 7853,595;   -0,252;    0,955
385,312; 7784,834;   -0,161;   -0,955
385,904; 7887,238;   -2,706;    1,591
386,496; 7263,761;   -0,979;    1,045
387,087; 7400,084;    1,022;    2,500
387,679; 7443,065;   -1,160;    0,045
388,270; 7562,777;    2,840;    2,045
388,862; 7659,181;    1,295;   -0,318
389,453; 7557,084;   -0,887;    1,045
390,045; 7830,690;   -0,705;   -2,682
390,636; 7793,914;    0,204;   -0,591
391,227; 7646,482;   -0,523;   -0,045
391,819; 7746,130;    0,204;    0,773
392,410; 7789,024;    1,022;    0,045
393,001; 7734,738;   -0,979;   -1,591
393,593; 8029,142;    1,930;   -0,045
394,184; 7873,467;    1,385;   -0,409
394,775; 7778,316;    1,839;    2,136
395,366; 7975,080;    1,385;    0,773
395,957; 7995,238;    0,113;    0,136
396,548; 8287,619;   -0,342;    2,682
397,139; 8566,956;   -2,433;    0,591
397,730; 8308,230;   -1,888;    0,955
398,321; 8382,973;   -1,252;    0,955
398,912; 8409,373;   -0,615;    0,136
399,503; 8497,765;   -3,524;   -1,409
400,094; 7951,897;    0,294;    1,682
400,685; 7785,819;   -0,433;    0,045
401,276; 7866,996;    0,930;   -0,955
401,867; 8194,099;   -0,888;    0,773
402,458; 8284,146;   -2,251;   -2,318
403,048; 8243,831;    1,112;    0,591
403,639; 7904,629;    0,840;    0,864
404,230; 8135,681;    2,476;    0,318
404,821; 8066,220;   -0,615;    0,045
405,411; 8184,808;    1,203;   -2,591
406,002; 7801,408;   -1,252;   -1,136
406,592; 7652,152;    2,294;    0,045
407,183; 7960,568;    0,566;   -1,500
407,774; 7862,165;    3,475;   -0,136
408,364; 8183,584;    0,930;    0,409
408,954; 7800,742;    0,384;    1,227
409,545; 7863,376;    1,021;    1,045
410,135; 7413,759;    1,293;    0,500
410,726; 7559,822;    1,838;    0,318
411,316; 7922,495;    0,111;    0,773
411,906; 7623,813;   -0,253;   -0,409
412,497; 7118,910;   -1,070;   -0,045
413,087; 7726,154;   -1,980;   -0,227
413,677; 8124,853;   -0,707;    3,864
414,267; 7954,547;    0,656;    1,409
414,857; 7946,460;   -2,980;    4,227
415,448; 8268,915;    0,839;    0,500
416,038; 7958,404;    0,020;   -0,591
416,628; 7911,669;   -0,889;    0,409
417,218; 7374,012;    0,565;    3,318
417,808; 7614,106;    0,202;   -0,409
418,398; 8060,410;    0,020;    2,682
418,988; 8097,292;    2,020;    0,591
419,578; 8343,735;   -0,707;    1,409
420,168; 8703,996;   -1,343;   -0,955
420,757; 8266,037;   -1,343;   -1,500
421,347; 7944,125;    0,111;   -0,227
421,937; 8112,790;    2,292;    1,409
422,527; 8066,253;    0,838;   -0,773
423,116; 7859,713;   -0,253;   -0,045
423,706; 8225,964;   -1,889;    0,318
424,296; 8202,417;    1,384;    0,682
424,885; 8617,871;   -0,071;   -3,045
425,475; 8909,427;    1,474;   -2,864
426,065; 8839,365;   -0,980;   -0,318
426,654; 8459,999;   -0,435;   -0,318
427,244; 8574,006;    0,020;    1,409
427,833; 8005,092;    1,383;   -0,500
428,423; 8487,597;   -0,526;    1,136
429,012; 9225,343;   -0,344;   -1,136
429,601; 8725,746;   -1,344;    0,136
430,191; 8986,487;    1,292;    4,318
430,780; 8602,659;   -0,344;   -0,409
431,369; 8544,838;    0,746;   -0,045
431,959; 9160,053;   -1,254;    0,500
432,548; 8956,359;   -1,163;   -0,045
433,137; 9107,548;   -1,254;   -1,318
433,726; 9588,542;    0,292;    0,500
434,315; 8955,336;   -0,526;    2,409
434,905; 9056,848;   -1,254;    1,409
435,494; 8977,047;    0,746;    0,955
436,083; 9448,333;   -0,981;   -0,955
436,672; 9336,705;    0,110;    0,500
437,261; 8919,234;    0,292;   -1,955
437,850; 8992,470;    1,383;    0,682
438,439; 8966,373;    3,291;    1,955
439,027; 8818,469;    3,655;    1,773
439,616; 9172,059;    2,927;    1,227
440,205; 9060,106;    0,200;   -2,136
440,794; 9100,971;    2,109;   -0,045
441,383; 9370,321;   -1,346;   -0,591
441,971; 9234,227;   -2,436;    0,591
442,560; 9128,001;    0,563;   -1,773
443,149; 8857,673;    0,379;   -1,318
443,737; 8999,809;   -0,074;   -2,318
444,326; 9224,912;    0,018;    0,318
444,915; 9282,394;   -1,982;    0,864
445,503; 9719,932;   -2,891;   -0,318
446,092; 8988,755;    0,382;    2,136
446,680; 9491,220;    0,382;    0,318
447,269; 9692,559;   -0,346;   -0,318
447,857; 9488,481;    0,018;   -1,773
448,445; 9596,607;    0,563;    1,318
449,034; 9802,179;   -1,528;   -1,136
449,622; 9919,998;   -1,073;    3,500
450,210; 9129,572;    2,017;    2,227
450,799; 9697,940;    0,290;   -0,591
451,387; 9665,249;    1,381;   -0,591
451,975; 9292,878;    2,654;    0,864
452,563; 9398,836;    3,472;    2,318
453,151; 9432,946;   -0,528;   -1,227
453,739; 9377,942;   -1,347;    0,136
454,328; 9224,994;    2,381;   -2,136
454,916; 8942,944;    2,562;   -0,136
455,504; 9142,783;    1,017;    1,227
456,092; 9320,078;    0,017;   -1,591
456,679; 9283,231;    1,472;    0,682
457,267; 9205,972;    4,017;    1,045
457,855; 9360,495;    1,017;    1,409
458,443; 9116,601;   -0,165;    1,682
459,031; 9290,955;    0,108;    2,409
459,619; 9735,552;   -1,801;    2,864
460,206; 9875,134;    0,835;    2,045
460,794; 9968,629;   -2,983;   -0,227
461,382;10173,770;   -0,529;   -0,864
461,970; 9752,709;    1,198;    1,864
462,557; 9796,738;   -0,711;   -0,682
463,145; 9951,428;   -3,165;   -1,682
463,732;10118,085;    2,016;   -1,045
464,320;10060,495;   -0,075;   -3,045
464,907; 9732,731;    2,743;   -0,773
465,495; 9611,460;    0,743;   -1,227
466,082; 9774,342;   -1,984;   -0,045
466,670; 9697,254;   -2,529;    1,227
467,257;10124,169;   -1,711;    2,045
467,844;10274,388;   -0,075;    0,045
468,432;10276,421;    0,834;    3,500
469,019; 9789,954;    0,925;   -1,773
469,606;10249,731;    0,470;    3,682
470,193;10091,907;   -1,439;    0,227
470,780; 9669,948;   -2,075;    0,864
471,368;10032,445;   -1,257;   -0,773
471,955; 9820,348;    1,379;   -0,682
472,542; 9430,487;    0,652;   -1,136
473,129; 9644,867;   -0,166;    0,136
473,716; 9406,468;    1,470;    0,591
474,303; 9649,287;    0,652;   -0,864
474,890; 9950,349;   -1,439;   -0,500
475,477; 9926,509;   -1,621;    0,409
476,064; 9822,347;    1,106;   -1,591
476,650; 9740,966;    0,288;    0,318
477,237; 9598,057;   -0,258;    0,955
477,824; 9749,909;   -1,076;    0,864
478,411; 9781,361;   -1,894;   -0,318
478,997; 9980,831;    0,560;   -0,773
479,584;10057,548;    1,196;   -0,409
480,171;10742,721;   -0,440;   -0,773
480,757;10416,134;    2,651;    0,773
481,344;10703,965;    0,469;    0,409
481,931;10210,352;    1,105;    1,045
482,517;11140,420;   -1,258;    0,318
483,104;11695,608;    1,106;    2,864
483,690;11989,701;   -1,804;    0,045
484,276;12363,473;   -0,895;    0,227
484,863;12151,283;    2,469;    1,136
485,449;12720,122;   -0,077;    0,318
486,035;12696,518;   -1,986;   -0,136
486,622;13128,323;   -0,895;    0,045
487,208;13065,211;    1,378;    1,500
487,794;12915,981;    0,741;    0,318
488,380;13049,077;    0,105;   -1,409
488,967;13113,830;   -1,168;   -0,409
489,553;13195,305;   -1,895;   -1,409
490,139;13374,094;    1,559;    0,773
490,725;12787,188;    0,741;   -0,227
491,311;12443,336;    3,287;    3,045
491,897;11768,883;   -0,986;    1,500
492,483;11595,919;    0,105;    1,227
493,069;11344,492;    3,923;    0,864
493,655;11328,990;    1,650;    0,682
494,241;11247,047;    1,377;   -0,955
494,826;11657,395;    0,287;   -1,045
495,412;11136,789;    2,559;   -0,682
495,998;11309,823;   -0,805;   -0,318
496,584;11422,299;    0,377;    1,045
497,169;11387,003;    1,014;   -0,682
497,755;11388,724;    0,650;    1,227
498,341;11915,912;    0,559;    0,318
498,926;11460,165;    1,832;    1,955
499,512;11650,066;    1,286;    2,955
500,097;11800,680;    0,195;   -0,318
500,683;11751,581;   -0,350;    2,136
501,268;12098,613;   -0,169;   -0,955
501,854;11817,045;   -0,169;    1,227
502,439;11761,881;   -0,624;   -1,773
503,024;11971,383;    0,195;    0,500
503,610;12053,775;   -0,078;   -0,682
504,195;12067,086;    0,558;    1,955
504,780;12190,888;    2,922;    1,227
505,366;11991,702;    3,013;    2,864
505,951;11733,322;    0,740;    1,045
506,536;11760,803;   -3,260;   -3,682
507,121;11742,644;    0,285;   -0,318
507,706;12289,646;    2,376;    1,045
508,291;12654,141;    2,649;    1,136
508,876;12143,117;   -0,988;    2,591
509,461;11634,376;   -0,169;   -0,773
510,046;12027,313;    0,194;    0,318
510,631;12251,210;   -0,351;   -0,773
511,216;11920,189;    2,467;   -0,500
511,801;12300,865;   -0,442;    2,591
512,386;12585,458;    0,740;    0,500
512,971;12544,749;   -2,988;    0,955
513,555;12127,343;   -0,897;   -1,500
514,140;12864,469;   -0,442;   -3,136
514,725;12887,550;   -0,715;   -1,136
515,309;13008,637;   -0,533;    0,318
515,894;12482,515;   -0,624;   -2,227
516,479;12933,976;   -0,624;   -0,955
517,063;12759,879;    0,376;    1,227
517,648;12886,882;    1,012;   -1,136
518,232;12533,581;   -0,261;   -1,409
518,817;12858,734;   -0,079;    1,682
519,401;13096,972;    2,194;    0,591
519,985;12603,603;    1,103;    1,136
520,570;12490,282;    0,830;   -1,955
521,154;12779,534;    2,102;    0,591
521,738;12947,552;   -2,352;    2,409
522,323;13533,530;   -0,170;    1,682
522,907;13248,338;    0,466;   -0,136
523,491;12976,067;    0,557;    0,955
524,075;12990,402;    2,284;    0,591
524,659;13041,239;    1,466;    0,591
525,243;12479,090;    1,739;    0,409
525,827;12774,826;    0,648;   -0,045
526,411;13620,694;   -1,989;   -0,136
526,995;13798,124;   -0,352;    1,409
527,579;13389,512;   -0,443;   -1,045
528,163;13722,190;    0,375;   -1,500
528,747;13631,550;    2,466;   -0,773
529,331;13906,668;   -0,080;   -1,409
529,915;14116,494;    1,738;    0,955
530,499;14078,737;   -0,807;    1,227
531,082;13752,057;   -0,534;    1,591
531,666;13196,510;    1,374;    0,773
532,250;13911,612;    1,284;    2,682
532,833;14245,477;    0,920;    2,773
533,417;14121,054;   -1,807;    0,864
534,001;14080,915;    1,647;   -0,318
534,584;14792,051;    0,374;    0,500
535,168;14624,595;    0,465;    1,409
535,751;14637,542;    0,647;    0,045
536,334;14118,366;   -0,898;   -0,409
536,918;14701,212;    0,011;    1,591
537,501;14783,131;   -0,899;    1,318
538,085;14786,590;   -0,444;    1,045
538,668;14973,379;    0,829;    2,409
539,251;15219,350;    1,829;    3,773
539,834;15229,984;    0,101;    0,773
540,418;15158,487;   -1,990;    4,318
541,001;15276,451;   -0,990;    1,773
541,584;15311,725;    2,101;    2,227
542,167;14985,429;    1,374;    2,955
542,750;15170,466;    1,919;   -0,773
543,333;14762,366;    0,555;    2,136
543,916;15495,291;    0,192;    2,500
544,499;16088,995;   -1,354;    0,227
545,082;16132,239;    1,374;    3,591
545,665;16243,173;    1,919;    1,500
546,248;16583,912;    1,010;   -0,318
546,830;16235,787;   -0,445;    1,955
547,413;16646,772;    1,010;   -0,773
547,996;17189,114;    0,555;    0,500
548,579;16958,094;    0,919;    0,955
549,161;16762,339;    1,828;    2,682
549,744;16561,228;   -0,809;    0,409
550,326;17051,684;   -0,809;   -1,136
550,909;16816,663;    2,737;    0,591
551,492;17224,771;   -0,263;    0,227
552,074;16984,335;   -0,173;   -1,318
552,657;17522,760;    2,373;    0,045
553,239;17322,127;   -0,173;   -0,773
553,821;17285,204;   -1,082;    1,045
554,404;16735,547;    1,282;    1,136
554,986;17099,464;    0,464;    1,045
555,568;17693,558;    1,191;   -0,955
556,151;16940,438;    1,191;   -0,227
556,733;17170,642;   -0,264;   -0,864
557,315;17624,936;    0,100;    0,500
557,897;17420,540;    0,554;   -0,500
558,479;17530,662;   -1,991;    1,318
559,061;17667,046;   -0,719;   -0,864
559,643;17995,733;   -0,264;    0,045
560,225;18342,893;    1,645;    2,864
560,807;18402,097;    0,918;    0,318
561,389;17846,161;    0,554;    2,318
561,971;18622,641;    0,463;    2,136
562,553;18411,804;   -1,628;    1,591
563,135;18530,651;   -0,537;    1,136
563,717;18103,802;    3,372;    1,136
564,298;18792,930;    3,645;   -0,045
564,880;18529,473;    0,645;   -1,409
565,462;18712,655;    0,645;    1,318
566,043;19792,300;   -0,446;    2,318
566,625;19399,118;    1,918;    1,227
567,207;19211,311;    1,099;    1,682
567,788;20262,042;   -1,264;    1,500
568,370;21100,755;    1,917;   -0,500
568,951;20939,561;    0,190;    0,227
569,533;21720,674;   -0,628;   -0,500
570,114;22198,246;   -0,446;    0,682
570,695;22659,272;   -0,174;   -1,318
571,277;23149,825;   -0,265;   -1,682
571,858;23842,031;    2,008;   -1,136
572,439;24717,901;    1,554;   -1,045
573,021;24898,148;    2,099;   -2,773
573,602;25345,685;   -1,265;    0,318
574,183;26198,845;   -2,083;    2,227
574,764;26316,267;   -1,629;    0,409
575,345;26839,547;    0,917;   -0,136
575,926;27456,530;   -0,356;    0,136
576,507;27441,048;    1,099;   -0,227
577,088;28546,290;    3,099;    1,682
577,669;28516,636;    0,735;    1,955
578,250;29190,390;    0,644;   -1,045
578,831;29816,655;   -1,356;   -2,227
579,412;30095,788;   -0,810;    0,955
579,993;31036,851;    1,008;    0,227
580,573;31352,973;   -0,629;   -0,955
581,154;30286,576;    0,735;   -0,591
581,735;31135,423;    0,644;    0,773
582,315;30655,786;   -0,629;    2,136
582,896;30988,267;   -0,174;    1,227
583,477;30485,010;    0,189;    1,227
584,057;30649,729;    0,553;    0,955
584,638;30919,942;    2,553;    2,318
585,218;30883,819;   -0,538;    2,682
585,799;31047,753;    0,281;   -0,227
586,379;31102,290;    0,372;    1,591
586,959;29872,815;    0,735;    0,318
587,540;29269,561;   -0,629;    2,227
588,120;28849,520;    1,007;   -0,045
588,700;27877,717;    2,553;    2,136
589,281;28128,639;    0,462;   -0,955
589,861;28108,674;    0,099;   -1,682
590,441;27956,459;    2,371;   -2,682
591,021;26921,941;   -0,265;   -2,591
591,601;27178,407;   -0,537;    0,500
592,181;27221,253;   -0,719;   -0,773
592,761;26522,176;    0,007;    1,409
593,341;26420,238;   -0,901;    0,045
593,921;26387,169;   -0,265;    1,591
594,501;26309,118;   -0,538;    1,318
595,081;26145,107;    0,917;   -0,318
595,661;26486,356;   -1,447;    0,955
596,240;27036,983;   -0,537;    0,136
596,820;26618,273;    0,372;    1,955
597,400;26757,203;    2,008;    0,773
597,980;27031,554;    2,008;    1,045
598,559;27069,201;    2,735;   -0,227
599,139;26795,205;   -0,174;   -1,227
599,718;26696,387;   -0,174;   -0,409
600,298;26971,777;    0,735;    0,682
600,877;27144,010;    2,917;    1,409
601,457;27459,028;    2,281;    1,136
602,036;27339,224;    0,190;    2,045
602,616;27529,189;    0,644;    1,682
603,195;27850,664;   -0,355;    3,500
603,774;27340,455;   -0,901;    2,045
604,354;27287,881;    0,826;   -0,500
604,933;26801,314;    0,463;    1,864
605,512;26902,307;    3,554;    0,591
606,091;26961,901;   -0,537;    3,773
606,671;27820,998;    0,281;    0,773
607,250;26919,272;    1,644;    3,136
607,829;27139,984;    2,372;    3,227
608,408;26973,415;    1,190;    2,591
608,987;26039,303;    1,281;    3,409
609,566;26390,266;   -1,265;   -2,500
610,145;26497,366;   -1,082;    0,682
610,723;26857,581;    4,372;    6,864
611,302;26111,388;   -0,446;    1,682
611,881;25629,485;    5,008;   11,227
612,460;26474,456;    1,645;    3,955
613,039;26913,110;   -0,082;    2,045
613,617;25667,926;    1,736;    4,773
614,196;25847,668;    1,099;    1,227
614,775;26181,805;    1,009;    2,409
615,353;26115,313;    0,736;    0,864
615,932;25843,920;    0,100;    2,409
616,510;26467,623;    0,554;    0,591
617,089;25922,801;    7,100;   17,591
617,667;25718,194;    2,372;    6,136
618,246;25594,853;   -1,537;    1,318
618,824;25777,734;   -3,355;   -0,955
619,402;25340,553;   -2,900;   -1,773
619,981;25864,362;   -0,173;   -1,045
620,559;25714,326;    0,009;    1,682
621,137;25235,845;   -0,718;    1,864
621,715;25281,969;   -1,173;   -0,682
622,293;25218,450;   -0,537;   -0,773
622,871;25640,209;   -0,718;    0,500
623,450;25223,648;    0,373;   -0,864
624,028;25147,629;    0,191;   -0,955
624,606;24777,288;   -1,718;    1,682
625,183;25194,703;   -1,536;   -1,136
625,761;24797,066;    1,009;    1,136
626,339;25056,625;    1,373;    2,591
626,917;25503,870;   -0,172;   -0,045
627,495;25520,448;   -0,354;    1,318
628,073;24943,560;   -0,263;    2,864
628,650;24646,909;    0,100;    2,136
629,228;25083,676;    0,373;    4,409
629,806;24531,637;    2,282;    1,136
630,383;24781,777;    1,464;   -0,318
630,961;24590,395;    2,555;   -0,955
631,539;24342,109;    2,464;    0,227
632,116;23663,031;   11,373;   15,409
632,694;24257,869;    2,555;    6,500
633,271;24491,333;    0,828;    2,682
633,848;24423,252;    1,828;    2,045
634,426;24504,751;   -1,081;    1,773
635,003;23655,242;    1,101;   -0,409
635,580;23916,875;    1,192;    3,682
636,158;24528,954;    3,737;    1,227
636,735;24486,273;    0,555;   -0,500
637,312;24568,679;   -0,809;   -0,682
637,889;24707,899;   -4,354;   -0,682
638,466;24171,508;   -3,990;   -0,409
639,043;24211,610;    2,101;   -1,136
639,620;24520,670;   -2,262;   -0,955
640,197;24804,162;    1,100;    1,682
640,774;24977,755;   -0,172;    1,136
641,351;25374,892;    0,737;    1,136
641,928;24762,485;   -0,627;    1,409
642,505;24425,622;    0,828;   -0,500
643,082;24554,306;   -1,718;    1,227
643,658;23633,080;   -0,718;    1,500
644,235;24353,309;    1,191;    2,500
644,812;24602,446;    1,918;    0,773
645,388;24376,039;   -0,991;    1,409
645,965;24491,813;   -0,809;    1,682
646,542;24560,587;   -1,445;   -0,227
647,118;24493,543;    1,009;   -0,955
647,695;24812,135;   -0,263;    1,136
648,271;24708,637;   -0,536;    0,500
648,848;25033,320;    0,736;    2,227
649,424;24879,003;    0,827;    1,318
650,000;24626,959;   -0,354;   -1,045
650,577;24420,642;   -0,627;   -0,955
651,153;24864,235;   -1,809;    0,955
651,729;25895,009;    1,191;    0,864
652,305;25966,056;    0,645;    2,773
652,881;29971,285;   -0,082;    1,136
653,458;36435,331;    1,100;    0,227
654,034;40251,469;    0,282;    1,591
654,610;41785,880;    0,554;    0,773
655,186;43157,927;    0,645;    3,045
655,762;42853,701;   -0,991;    0,409
656,338;42856,748;    0,100;    0,136
656,913;43804,976;   -0,082;    0,409
657,489;43110,114;    0,827;   -0,318
658,065;43096,979;   -0,173;   -1,591
658,641;43741,662;   -0,900;   -0,864
659,217;43149,073;   -0,991;    0,409
659,792;42511,029;    0,645;   -0,409
660,368;42701,712;   -2,173;   -0,682
660,944;42496,032;   -2,082;    1,227
661,519;38407,715;   -0,628;    0,409
662,095;32724,853;   -1,719;    0,591
662,670;28125,172;    1,281;   -0,136
663,246;26915,492;    1,009;   -0,409
663,821;26173,539;    0,281;    1,682
664,396;25695,768;    0,009;    1,864
664,972;25905,724;    0,009;   -0,500
665,547;26231,680;    1,372;    0,136
666,122;26249,999;   -1,082;    0,318
666,698;26518,046;   -0,173;    0,318
667,273;25868,002;   -0,173;    0,136
667,848;26664,776;    2,372;    1,500
668,423;26463,005;    2,190;    2,318
668,998;26991,597;    2,827;   -0,682
669,573;27504,826;   -3,264;   -1,500
670,148;27334,782;   -1,446;   -0,682
670,723;27170,829;   -1,810;    0,318
671,298;27602,421;    2,372;    1,045
671,873;27666,559;   -0,082;   -0,136
672,448;27631,151;    0,645;    0,136
673,023;27980,016;   -1,992;   -0,227
673,597;28274,336;    0,827;    2,318
674,172;28075,656;   -0,355;    0,318
674,747;27585,430;    0,372;   -1,045
675,321;27454,931;   -0,628;    3,318
675,896;27016,614;    0,645;    1,045
676,471;28012,298;    2,645;    1,591
677,045;27770,981;   -1,264;    0,682
677,620;27834,028;    0,190;    1,136
678,194;28136,893;   -2,628;    1,136
678,769;27662,303;   -1,083;   -0,318
679,343;27891,259;   -0,628;    1,773
679,917;27809,670;   -1,446;    1,955
680,492;27936,080;    0,826;    3,227
681,066;28009,855;    3,372;    0,409
681,640;28037,083;    1,463;   -0,318
682,214;28844,312;    0,735;    0,500
682,788;28397,268;   -1,356;   -0,773
683,363;28336,133;   -1,810;    1,682
683,937;28005,271;   -1,719;   -0,318
684,511;28779,681;    0,463;   -0,591
685,085;28469,092;   -1,356;    0,318
685,659;28232,866;   -2,538;    0,864
686,232;28507,276;   -0,356;   -0,318
686,806;28240,869;   -0,901;    0,409
687,380;28873,916;   -0,174;    0,591
687,954;29093,781;   -1,174;    1,136
688,528;28785,919;   -0,719;    1,955
689,101;29553,511;   -3,992;    1,045
689,675;29167,012;   -0,356;   -0,136
690,249;28546,605;   -0,719;    0,409
690,822;28883,106;    0,280;    0,318
691,396;28975,153;   -0,265;    1,227
691,969;28376,745;    1,280;    0,136
692,543;28921,883;   -0,447;   -1,955
693,116;28574,203;   -0,265;   -1,409
693,690;28394,522;    0,099;    0,500
694,263;28904,933;   -1,083;    2,955
694,836;28899,343;    1,371;    3,591
695,410;27588,299;   -0,265;    1,773
695,983;28041,255;    0,189;    0,591
696,556;28097,120;   -0,447;   -1,045
697,129;28491,167;   -0,356;    1,409
697,703;28112,760;   -1,629;    1,955
698,276;28147,079;    1,462;   -0,773
698,849;27930,490;    1,280;    1,409
699,422;28319,809;   -1,083;    0,591
699,995;28019,856;    0,007;    0,136
700,568;28442,267;   -0,629;    3,045
701,140;28493,314;   -2,811;    1,682
701,713;28200,724;   -0,174;    2,409
702,286;27963,316;   -0,538;    0,864
702,859;27877,454;   -0,902;   -0,591
703,432;27016,138;    0,825;    0,682
704,004;27532,093;    0,462;    0,318
704,577;27430,140;   -0,629;    0,136
705,150;27966,460;    0,189;    2,500
705,722;27754,234;   -0,356;   -3,227
706,295;27465,736;   -0,175;   -0,591
706,867;27347,692;   -0,175;    1,955
707,440;27568,193;   -1,720;   -0,409
708,012;27809,058;    0,462;    0,591
708,584;27717,196;    2,462;    0,227
709,157;28064,970;    1,825;   -0,591
709,729;27725,562;    2,280;    2,045
710,301;28589,882;    0,734;    0,045
710,874;28568,020;   -1,447;   -0,227
711,446;27439,521;    0,371;    0,864
712,018;27343,568;    0,098;    0,500
712,590;27121,706;   -1,993;    1,682
713,162;27622,116;    0,825;    1,318
713,734;27868,436;    1,825;   -2,045
714,306;27795,028;   -1,902;   -0,409
714,878;26518,075;    0,825;    0,864
715,450;27320,304;    0,643;    0,864
716,022;27540,351;    1,552;    1,318
716,593;27672,852;    0,189;    0,591
717,165;27676,354;   -3,175;   -1,227
717,737;27313,582;    0,280;    0,409
718,309;26981,538;    0,280;   -0,045
718,880;26970,858;   -0,539;   -1,409
719,452;27194,450;   -0,175;   -1,591
720,024;26762,043;    0,734;   -0,591
720,595;27336,635;   -2,902;    0,955
721,167;26873,045;    0,370;   -2,045
721,738;26420,092;   -0,812;   -1,045
722,309;26339,412;   -0,993;   -1,227
722,881;26169,095;   -1,357;    0,773
723,452;26791,415;   -2,630;    2,864
724,023;26940,462;   -0,721;    2,682
724,595;26748,599;    0,007;    0,682
725,166;26520,101;    0,007;   -0,409
725,737;26187,239;    1,734;    0,227
726,308;26254,104;   -0,266;    0,318
726,879;26677,787;   -1,630;    1,227
727,450;26540,925;    0,552;   -0,045
728,021;26525,335;    3,097;    0,682
728,592;26297,837;    0,734;    0,500
729,163;26624,702;    0,643;   -0,136
729,734;26629,930;    0,188;   -0,227
730,305;26951,705;    1,734;    0,136
730,876;27260,479;    0,188;    2,955
731,447;26991,980;    2,188;    2,682
732,017;27088,845;    1,097;    1,864
732,588;26580,892;    0,734;    1,227
733,159;26796,212;    0,643;   -1,045
733,729;26639,804;    0,006;    0,409
734,300;25919,578;    0,915;    0,864
734,870;26386,171;    3,461;    0,591
735,441;26917,036;    0,370;   -0,591
736,011;26651,901;    0,643;   -1,591
736,582;26641,039;   -0,812;    0,045
737,152;26113,085;   -1,721;   -2,045
737,722;26514,769;   -0,267;   -0,682
738,293;26234,906;   -1,358;    1,318
738,863;26121,862;    2,461;    2,318
739,433;26007,273;    5,279;    0,318
740,003;26591,593;   -0,994;   -0,682
740,573;25956,367;    2,097;   -1,591
741,143;25885,414;   -1,085;    0,318
741,713;26715,551;    1,188;   -0,500
742,283;26443,962;    0,915;    1,591
742,853;26207,645;    1,915;    1,591
743,423;25698,147;    1,733;    0,045
743,993;25830,466;   -0,358;    1,500
744,563;25164,513;    0,097;   -0,864
745,133;25146,469;   -0,812;   -0,864
745,702;25805,334;   -0,267;    1,773
746,272;25062,926;   -0,176;    0,591
746,842;24819,337;   -1,358;   -0,591
747,411;25307,020;   -0,267;   -0,318
747,981;25461,431;    0,097;    0,500
748,551;25496,569;    2,278;   -1,045
749,120;25325,070;    0,642;   -0,227
749,690;25735,571;   -0,631;    2,409
750,259;26080,346;    1,369;    2,955
750,828;25939,211;    1,551;   -1,955
751,398;26256,439;    1,278;   -0,045
751,967;25712,941;    2,187;    0,409
752,536;25914,079;   -0,813;   -0,227
753,105;26391,034;    0,096;    0,227
753,675;26172,081;    0,096;    1,773
754,244;26135,037;   -0,904;    3,591
754,813;26122,357;    0,551;    1,227
755,382;25673,677;    0,460;    0,955
755,951;26213,723;    1,551;    3,682
756,520;25738,134;   -0,085;    1,864
757,089;26300,544;    0,278;    0,500
757,658;26430,228;    1,733;    1,227
758,227;26464,002;    1,096;    0,318
758,795;26791,685;    1,187;    1,136
759,364;26998,368;   -0,086;   -0,591
759,933;26003,143;   -1,176;   -0,045
760,501;25582,735;    0,733;   -1,318
761,070;26053,509;   -2,813;   -1,409
761,639;26739,920;   -1,904;    1,318
762,207;26074,330;    1,551;   -0,955
762,776;25981,013;    0,369;    0,864
763,344;25949,878;   -0,995;    0,591
763,913;25094,925;   -0,722;    1,409
764,481;25825,608;    1,005;   -0,136
765,049;25607,201;   -1,358;    1,409
765,618;25486,520;   -0,086;    0,318
766,186;25597,022;    0,278;    0,136
766,754;25738,069;    0,005;    1,864
767,322;24779,843;   -1,995;    0,409
767,890;24856,344;   -0,722;   -1,773
768,459;25236,755;   -2,177;   -0,318
769,027;25375,165;    1,641;    3,409
769,595;24395,303;    3,278;    2,591
770,163;24837,986;    3,823;    2,955
770,730;24610,488;    0,732;   -0,136
771,298;24427,444;    0,187;   -1,409
771,866;24554,582;   -1,541;    4,955
772,434;24887,447;   -0,631;   -1,864
773,002;25020,221;    0,005;    0,682
773,569;24674,995;    0,914;    1,682
774,137;24482,405;   -0,268;   -0,045
774,705;25302,089;    0,278;   -0,136
775,272;24811,499;    0,641;    0,682
775,840;24513,637;   -0,177;    2,682
776,407;24076,502;    0,277;    1,955
776,975;23726,185;   -0,632;    0,318
777,542;24750,960;   -1,086;   -0,045
778,110;24559,734;   -1,268;   -0,045
778,677;24222,235;   -2,359;   -0,864
779,244;23949,737;    2,186;    1,045
779,812;24103,329;    1,823;    0,864
780,379;23967,376;    0,005;    1,136
780,946;24224,332;    1,005;   -0,773
781,513;24503,015;   -1,450;    0,318
782,080;23937,153;   -0,086;    2,864
782,647;24662,018;   -0,268;    3,045
783,214;24205,792;   -0,177;    3,864
783,781;23826,657;   -0,723;   -0,682
784,348;23722,704;   -0,632;    1,500
784,915;24145,205;   -3,177;    0,318
785,482;23924,070;    1,368;    2,591
786,049;24372,572;    0,186;   -0,591
786,615;24493,710;    0,277;   -0,955
787,182;24248,757;    0,186;   -0,682
787,749;23930,712;   -2,814;    1,409
788,315;23266,487;   -1,632;   -0,409
788,882;23561,624;    1,550;   -1,227
789,448;24214,671;    1,732;   -0,955
790,015;24286,173;    1,095;    3,227
790,581;23837,220;    1,459;    0,227
791,148;23720,994;    0,641;    1,045
791,714;23934,132;   -0,541;    3,136
792,280;23629,360;    0,186;    1,591
792,847;23255,680;    0,550;    2,500
793,413;23767,181;   -0,269;   -0,318
793,979;23321,683;    3,459;   -1,318
794,545;23367,093;    4,459;    2,682
795,111;22758,867;    2,186;    1,318
795,678;22964,187;    0,731;   -1,682
796,244;22578,052;    3,368;    0,136
796,810;23190,463;    1,731;    0,773
797,375;22925,055;    0,549;   -2,136
797,941;22952,556;   -0,541;    0,591
798,507;23060,603;   -0,451;   -0,955
799,073;22645,377;   -0,360;    0,591
799,639;22731,242;   -2,632;    3,136
800,205;22779,835;    0,095;    2,682
800,770;22330,882;    0,640;    1,773
801,336;22415,020;    1,368;   -0,955
801,901;22075,703;    4,549;    3,136
802,467;22596,568;   -0,542;    2,045
803,033;21965,524;   -0,087;    0,864
803,598;22172,025;    1,913;   -1,045
804,163;22232,163;    1,095;   -0,318
804,729;22168,028;   -0,178;    1,136
805,294;22602,348;    0,822;    2,227
805,859;22375,485;    0,731;   -0,409
806,425;21825,351;    1,186;    2,682
806,990;21497,125;    2,186;    4,318
807,555;21999,444;   -1,451;    2,591
808,120;21879,855;    0,822;   -0,409
808,685;21964,174;    0,185;   -2,500
809,250;21438,039;    0,004;   -0,500
809,815;21758,541;    1,913;    0,682
810,380;22310,133;   -0,269;    1,591
810,945;22832,362;   -1,087;    2,045
811,510;22043,318;    2,094;    1,591
812,075;21682,819;   -0,633;   -1,409
812,640;21717,412;    2,003;    1,409
813,204;21813,640;    0,822;   -0,227
813,769;22302,778;    2,094;   -0,045
814,334;21718,552;    0,458;    0,864
814,898;21791,781;    0,367;    0,591
815,463;21637,010;    1,276;   -0,773
816,027;21586,057;   -0,724;   -2,318
816,592;21705,831;    0,640;   -2,045
817,156;21212,241;    2,094;    1,136
817,721;21045,015;    4,276;    2,318
818,285;21051,426;    2,912;    1,500
818,849;21672,927;   -1,451;    1,682
819,414;21598,520;   -0,269;    2,955
819,978;21173,112;   -1,269;    1,773
820,542;21782,704;    2,003;    0,500
821,106;21431,206;   -0,815;    0,682
821,670;21558,980;   -0,815;    2,591
822,234;21326,209;   -0,270;    1,409
822,798;20694,801;    0,003;    0,500
823,362;20641,848;   -0,633;    4,227
823,926;19972,986;    0,094;    1,136
824,490;20206,760;   -0,997;   -0,682
825,054;20617,170;   -0,088;   -1,136
825,618;20273,945;   -1,542;   -1,500
826,181;20224,628;    0,458;   -1,318
826,745;20105,493;    1,367;   -1,045
827,309;20424,994;    1,185;    1,318
827,872;19826,950;    1,367;    0,955
828,436;20862,724;    1,185;   -0,773
828,999;20892,317;   -0,997;    1,227
829,563;19713,909;   -0,179;    1,136
830,126;19539,138;   -0,179;   -0,591
830,690;19553,457;   -1,997;    2,864
831,253;19042,686;   -0,543;    2,227
831,816;19182,278;   -1,906;    0,500
832,380;19127,962;    0,185;    0,864
832,943;19353,736;   -1,361;   -0,500
833,506;18839,237;    2,639;   -1,227
834,069;19602,557;    3,912;   -0,955
834,632;19671,967;    1,730;    1,318
835,195;19577,014;    1,003;    0,955
835,758;18811,334;   -0,997;    1,955
836,321;18656,926;    0,730;   -1,045
836,884;18765,609;   -0,725;   -0,955
837,447;18806,747;   -2,816;    1,773
838,010;19024,249;    0,366;    3,227
838,573;19278,568;   -1,179;    0,773
839,135;19289,888;   -1,361;   -0,955
839,698;18761,844;    1,275;    0,409
840,261;18271,163;    1,003;   -0,227
840,823;18170,210;   -0,543;    0,864
841,386;18435,621;   -0,452;   -2,409
841,948;18311,122;   -1,361;    1,773
842,511;18092,169;    0,912;    1,682
843,073;18213,489;    1,912;    0,227
843,636;18010,718;   -0,361;   -0,227
844,198;17885,673;    0,911;    0,591
844,760;18033,902;    1,093;    1,955
845,322;17690,949;    0,548;    1,136
845,885;18122,905;    0,730;    0,591
846,447;18583,406;   -1,998;    0,227
847,009;18113,635;    1,911;   -0,682
847,571;18450,864;    0,820;   -2,045
848,133;18573,365;   -1,089;   -1,864
848,695;18378,776;   -0,543;    1,409
849,257;17945,005;   -1,089;   -1,682
849,819;18095,051;   -0,998;   -0,409
850,381;18179,462;   -0,725;   -0,864
850,942;18544,872;    1,093;   -0,591
851,504;18477,556;    1,184;    0,227
852,066;18489,693;    1,275;   -1,591
852,628;18025,286;   -0,180;    1,955
853,189;17591,787;    1,638;    2,682
853,751;17712,016;   -0,907;    1,409
854,312;17536,063;   -0,453;   -1,682
854,874;18009,928;   -2,089;   -0,773
855,435;18546,520;   -0,907;   -1,682
855,997;18713,113;   -1,816;   -0,136
856,558;17957,614;    0,366;    1,773
857,119;18113,479;    0,820;    2,864
857,681;17810,708;    0,002;    0,318
858,242;17836,209;    1,911;   -2,136
858,803;18278,256;    0,456;   -0,773
859,364;18827,848;    0,184;   -4,773
859,925;18155,350;   -2,453;   -0,955
860,486;18069,306;   -0,453;   -0,955
861,047;17808,535;   -0,544;   -1,227
861,608;17630,036;   -1,089;   -0,773
862,169;17768,537;    0,638;   -0,045
862,730;17518,221;    0,456;    1,409
863,291;17774,358;   -0,635;   -0,500
863,852;18106,951;   -0,635;    1,955
864,412;17593,089;   -0,271;   -0,864
864,973;16225,499;   -0,089;    0,500
865,534;16060,000;   -1,726;    0,227
866,094;17553,684;    1,820;    0,227
866,655;17196,094;    1,274;    3,318
867,215;17476,868;    0,274;    0,136
867,776;17357,461;    0,547;   -0,136
868,336;17473,599;   -1,453;    0,136
868,897;16937,373;    2,638;    1,682
869,457;16701,420;    1,365;    0,318
870,017;16920,739;    0,547;   -1,227
870,578;17405,422;   -0,817;    0,773
871,138;17120,378;   -2,089;   -0,955
871,698;16662,062;   -0,817;   -1,318
872,258;16532,018;   -0,453;   -2,864
872,818;16901,065;    2,729;    0,045
873,378;16856,657;    0,638;    1,045
873,938;16423,067;    0,547;    0,500
874,498;16769,114;    0,274;   -1,955
875,058;16654,525;    2,183;    1,773
875,618;16502,844;    1,910;   -2,682
876,177;16428,891;    1,274;    0,136
876,737;16001,665;   -0,090;    1,955
877,297;16052,803;    0,183;    1,955
877,856;16036,668;   -0,362;    0,318
878,416;15991,261;    1,183;   -0,136
878,976;16183,126;   -1,817;    0,409
879,535;16391,173;    0,092;    3,136
880,095;16148,129;   -0,544;    0,045
880,654;16288,630;   -1,090;    1,318
881,213;16323,950;    2,456;    1,500
881,773;15968,451;    2,637;    2,682
882,332;16271,043;    3,365;    5,136
882,891;16144,181;    3,092;    2,136
883,451;16612,501;   -1,272;    1,682
884,010;16079,184;   -2,908;   -0,409
884,569;16200,867;   -0,999;   -0,045
885,128;16320,823;    2,819;   -1,864
885,687;16364,961;    4,455;    0,682
886,246;16080,826;    1,455;    2,136
886,805;15880,600;    2,455;    2,045
887,364;16173,829;   -0,999;   -0,500
887,922;16504,058;   -1,181;    0,045
888,481;15998,923;   -1,545;    0,591
889,040;16331,151;    1,183;    2,136
889,599;17016,289;    2,455;    1,409
890,157;17064,518;    1,455;    2,409
890,716;16720,292;   -0,090;    0,227
891,274;16531,884;    0,092;   -1,136
891,833;16981,659;    1,546;    0,864
892,391;16839,251;   -0,454;    0,500
892,950;16917,934;    1,819;   -0,773
893,508;17298,072;    0,455;   -0,409
894,067;16646,664;    0,637;    0,136
894,625;16490,802;   -0,636;   -1,500
895,183;16782,303;   -0,363;   -0,682
895,741;16617,441;    1,728;   -1,773
896,299;16526,397;   -0,545;   -2,409
896,858;16712,535;    0,819;   -1,591
897,416;16805,400;    2,728;   -1,318
897,974;16549,901;    1,819;    0,318
898,532;16655,403;    6,091;    2,682
899,089;16581,723;    2,091;   -0,682
899,647;16688,679;   -1,454;    1,318
900,205;16386,634;    1,182;    1,045
900,763;16565,954;   -0,454;    0,227
901,321;16595,819;    2,364;   -1,409
901,878;16071,866;   -1,000;   -0,773
902,436;15929,186;   -1,363;    1,318
902,994;16299,323;    4,728;    3,682
903,551;15736,007;    0,728;    0,409
904,109;16132,781;    0,182;   -1,409
904,666;15761,100;    2,455;    1,045
905,224;15594,147;    0,182;   -0,409
905,781;15347,558;    0,727;   -0,318
906,338;15418,059;   -1,363;    1,045
906,895;15356,379;    0,637;    2,045
907,453;15257,608;    1,727;    1,136
908,010;15303,109;   -0,909;    0,409
908,567;14959,974;    1,273;    0,591
909,124;14474,203;    0,364;   -1,500
909,681;14527,431;   -2,909;    0,682
910,238;14677,478;    0,636;   -1,318
910,795;15002,343;   -0,273;   -1,136
911,352;14644,162;   -2,909;   -2,682
911,909;14091,980;   -1,364;   -0,864
912,466;14604,616;   -3,182;    1,500
913,022;14119,434;   -1,636;    0,500
913,579;14469,343;   -0,909;    2,045
914,136;14164,798;    1,636;    0,955
914,692;14536,707;    0,091;   -1,227
915,249;14112,707;    1,455;    0,409
915,806;14322,162;    0,182;    1,955
916,362;14077,162;    1,909;    1,864
916,918;13651,525;    2,000;    1,045
917,475;13621,253;   -1,182;    0,955
918,031;13687,707;    3,364;   -0,045
918,587;13154,162;   -0,909;   -0,318
919,144;13365,707;   -2,273;    0,227
919,700;13692,798;    1,727;    0,773
920,256;13308,707;    0,727;    0,045
920,812;12955,253;   -0,727;   -1,045
921,368;12911,616;   -1,727;   -1,045
921,924;12584,343;    0,182;   -0,136
922,480;12146,253;   -0,545;    1,227
923,036;12787,525;    1,273;    1,955
923,592;12682,434;    0,455;    0,318
924,148;12615,071;    0,455;   -0,955
924,704;11918,343;   -1,364;   -0,409
925,259;12204,162;   -0,273;    0,591
925,815;11953,525;    1,455;    0,500
926,371;11492,616;    2,909;    1,409
926,926;11379,980;    2,091;    0,591
927,482;11001,343;   -1,364;    0,773
928,037;10878,980;    0,909;    2,045
928,593;11178,889;    1,636;    1,045
929,148;11045,253;   -1,818;   -1,500
929,704;10557,707;   -1,455;   -0,500
930,259;10725,707;    0,091;   -0,136
930,814; 9839,525;   -0,818;    1,955
931,369; 9510,616;    1,091;   -0,773
931,925; 9430,980;   -0,091;    0,136
932,480; 9328,980;   -2,818;   -2,591
933,035; 9222,798;    0,545;   -0,318
933,590; 8996,798;    0,364;   -1,773
934,145; 8659,071;   -1,364;   -0,318
934,700; 8994,434;    0,455;   -0,591
935,255; 8762,616;   -0,091;    0,045
935,809; 8071,616;    3,182;    0,864
936,364; 7235,525;   -0,455;   -0,136
936,919; 7226,889;    0,455;   -1,773
937,474; 7124,162;    1,455;    0,136
938,028; 6878,616;   -1,636;    1,136
938,583; 6357,889;    1,818;    4,682
939,138; 6643,071;    2,091;    2,136
939,692; 6098,162;    1,636;   -1,136
940,247; 5805,798;   -0,727;   -1,045
940,801; 5362,980;   -0,636;    0,227
941,355; 5265,162;   -0,364;    2,591
941,910; 4936,343;   -0,273;   -2,136
942,464; 5035,980;   -0,818;   -0,318
943,018; 4827,889;    1,000;   -0,227
943,572; 4767,707;    2,545;   -0,682
944,126; 4216,434;    0,091;   -0,409
944,681; 4122,434;    3,091;    0,227
945,235; 4090,162;    1,000;   -0,591
945,789; 4025,889;    0,364;   -1,864
946,342; 4121,525;    0,455;   -0,591
946,896; 3923,707;   -2,273;    0,955
947,450; 3699,253;    1,545;   -0,227
948,004; 3880,798;    1,727;   -0,045
948,558; 3903,434;    0,273;   -0,864
949,111; 3810,525;   -0,273;   -0,318
949,665; 3848,980;    1,636;   -0,682
950,219; 3739,253;   -0,091;   -1,045
950,772; 3807,434;   -1,909;    1,864
951,326; 3715,889;    0,545;   -0,955
951,879; 3820,525;    0,727;   -2,318
952,433; 3824,889;    0,000;    2,227
952,986; 3674,071;    2,909;    0,682
953,539; 3647,253;   -0,273;    0,591
954,093; 3563,980;    0,545;   -1,318
954,646; 3696,434;    0,909;    1,318
955,199; 3508,980;    0,000;   -0,500
955,752; 3398,616;   -0,455;    1,773
956,305; 3357,980;   -0,091;    2,955
956,858; 3527,162;    0,818;   -0,318
957,411; 3686,162;   -0,545;    2,136
957,964; 3513,071;    1,364;    2,136
958,517; 3497,980;   -1,545;    3,136
959,070; 3340,253;   -0,455;    1,955
959,623; 3426,253;    1,091;    1,500
960,176; 3200,707;    1,727;    2,045
960,728; 3181,707;   -2,727;    0,773
961,281; 3254,162;    0,545;    0,500
961,834; 3284,889;   -0,909;    0,864
962,386; 3209,798;    1,727;    1,045
962,939; 3118,798;    0,364;   -0,318
963,491; 3260,980;    0,455;    1,136
964,043; 3142,162;    1,182;    2,409
964,596; 3269,162;   -1,000;    2,227
965,148; 3110,525;   -1,000;    1,773
965,700; 3035,434;    1,091;   -0,227
966,253; 3176,525;   -0,636;    0,318
966,805; 3017,798;   -2,273;    0,773
967,357; 3068,525;    1,091;   -1,500
967,909; 3020,253;    0,455;   -1,227
968,461; 3143,525;    0,545;    3,136
969,013; 3080,162;   -0,182;   -0,864
969,565; 3129,707;   -0,455;   -1,136
970,117; 3195,798;   -0,364;    1,045
970,669; 3026,343;    0,182;   -0,136
971,220; 2906,253;   -0,455;   -1,500
971,772; 2828,071;   -0,636;   -0,318
972,324; 2946,798;    0,091;   -0,500
972,876; 2918,434;    0,818;   -0,045
973,427; 3041,343;    1,909;   -1,045
973,979; 2998,889;   -0,727;   -2,500
974,530; 3013,071;    1,818;    1,318
975,082; 3035,253;   -0,545;    1,682
975,633; 2947,525;    1,091;    1,682
976,184; 3070,707;    0,909;    0,773
976,736; 2872,616;    0,091;    0,227
977,287; 2684,343;   -0,909;   -0,500
977,838; 2873,980;    0,909;   -0,318
978,389; 2919,616;   -1,000;   -0,500
978,940; 2788,343;    0,545;   -0,409
979,491; 2802,071;    0,091;   -0,500
980,042; 2794,980;    0,182;    3,045
980,593; 2851,798;   -2,545;    0,227
981,144; 2911,980;    2,545;   -0,500
981,695; 2871,343;    1,455;    1,500
982,246; 2831,798;   -0,273;    1,045
982,797; 2971,253;   -1,727;    0,682
983,347; 3078,343;    0,364;    0,591
983,898; 3235,162;    3,091;    0,409
984,449; 3058,980;    2,182;    0,773
984,999; 2977,798;    1,455;   -1,136
985,550; 2765,343;    0,182;   -0,318
986,100; 2800,798;   -0,455;   -0,318
986,651; 2827,980;   -0,818;    0,045
987,201; 2810,525;   -1,000;   -0,591
987,751; 2887,434;    0,818;    2,864
988,302; 2884,889;    2,636;    1,500
988,852; 2894,525;    0,455;   -1,136
989,402; 2949,980;    0,091;    0,682
989,952; 2880,798;   -2,182;    0,864
990,502; 2968,798;   -0,091;    0,682
991,052; 2927,980;   -0,727;    0,045
991,602; 2794,616;   -2,909;    1,318
992,152; 2808,889;    0,455;    0,682
992,702; 2788,071;    1,364;   -0,045
993,252; 2703,616;   -3,000;   -0,500
993,802; 2799,616;   -0,273;    1,318
994,352; 3016,162;   -1,545;    1,136
994,901; 3101,343;   -0,182;    3,227
995,451; 3016,980;   -0,182;    0,318
996,000; 3106,798;    1,636;    0,318
996,550; 2855,343;    2,273;    0,227
997,100; 2832,798;    1,273;   -0,045
997,649; 3105,616;    2,182;    0,955
998,198; 2751,980;    1,727;   -1,500
998,748; 2931,798;    1,091;   -2,318
999,297; 2846,525;   -0,818;   -0,409
999,846; 2915,343;    1,000;   -0,773
1000,395; 2955,798;   -0,818;    0,500
1000,945; 2903,616;    1,818;   -0,773
1001,494; 3007,343;    2,364;    0,682
1002,043; 2996,162;    4,636;    0,864
1002,592; 2851,343;   -1,091;    1,955
1003,141; 2989,253;   -0,455;   -0,682
1003,690; 2831,343;    1,727;    0,500
1004,238; 2917,525;    1,455;   -0,045
1004,787; 2569,616;    1,364;    1,227
1005,336; 2794,162;    0,364;    0,682
1005,885; 2937,162;    1,364;   -2,773
1006,433; 3070,980;    0,545;    0,955
1006,982; 3124,162;    0,455;    1,682
1007,531; 3028,343;   -1,818;   -0,227
1008,079; 3002,525;   -2,273;    0,500
1008,627; 3137,616;   -1,455;    0,409
1009,176; 2879,616;    0,000;   -1,955
1009,724; 2911,889;    1,091;    0,864
1010,273; 2966,616;    1,273;    0,500
1010,821; 3083,343;    0,091;    1,409
1011,369; 2832,253;   -1,364;    1,318
1011,917; 2785,707;   -1,364;   -0,591
1012,465; 3082,980;    1,273;   -1,591
1013,013; 3210,071;    2,091;   -1,682
1013,561; 3092,798;    0,455;   -0,773
1014,109; 3118,162;   -1,909;    1,682
1014,657; 2997,343;    0,364;    0,591
1015,205; 3129,162;    1,636;   -0,955
1015,753; 3171,889;   -0,545;   -1,409
1016,301; 3200,162;   -2,636;    3,045
1016,848; 3195,980;   -1,273;    0,409
1017,396; 3239,434;    2,545;    0,045
1017,944; 3372,707;    1,182;    1,864
1018,491; 3143,162;    0,273;    1,409
1019,039; 3279,434;    0,455;    0,591
1019,586; 3206,253;   -1,364;    1,682
1020,134; 3298,343;    0,455;    1,500
1020,681; 3320,616;    0,182;   -1,136
1021,228; 3325,434;    2,909;   -2,227
1021,776; 3169,889;    1,182;   -1,136
1022,323; 3375,616;    0,455;    0,773
1022,870; 3299,889;   -1,000;   -0,045
1023,417; 3206,162;    2,636;    1,864
1023,964; 3350,707;    2,636;    1,227
1024,511; 3192,707;    1,000;    0,773
1025,058; 2992,253;    3,182;   -0,045
1025,605; 3066,071;   -2,273;    3,136
1026,152; 3291,253;    1,727;   -0,591
1026,699; 2986,253;    1,818;    1,318
1027,245; 3162,434;   -0,091;    0,318
1027,792; 3411,253;   -1,000;    1,409
1028,339; 3274,798;    2,364;   -0,045
1028,885; 3123,525;    1,000;   -0,227
1029,432; 3060,253;   -0,091;    0,227
1029,978; 3110,980;   -1,000;   -1,591
1030,525; 3030,434;    1,000;    0,409
1031,071; 3283,071;   -1,364;    1,136
1031,618; 3374,525;    0,364;    1,682
1032,164; 3162,343;   -0,091;    3,045
1032,710; 3207,434;    1,636;   -1,500
1033,256; 3132,707;   -0,636;   -0,136
1033,803; 3115,071;   -0,545;    1,500
1034,349; 2835,253;   -1,364;    0,136
1034,895; 2983,616;    0,000;   -0,318
1035,441; 2965,071;   -0,818;    0,318
1035,987; 2985,616;   -2,364;   -0,682
1036,533; 2982,071;   -1,455;   -0,955
1037,078; 3161,525;    1,455;    1,682
1037,624; 3005,980;    2,455;   -0,955
1038,170; 3010,525;    0,455;   -0,318
1038,716; 2912,798;    1,636;   -0,409
1039,261; 2836,616;   -2,273;   -0,773
1039,807; 2781,071;   -0,091;    3,409
1040,352; 2841,889;   -1,909;   -0,318
1040,898; 2889,980;   -1,545;   -0,682
1041,443; 2803,434;   -1,455;   -2,591
1041,989; 2810,889;    1,091;    1,591
1042,534; 2683,616;   -0,364;    2,591
1043,079; 2816,253;    2,909;    0,955
1043,625; 2616,253;    1,818;    0,500
1044,170; 2661,525;   -1,364;    1,045
1044,715; 2911,253;    2,455;    0,955
1045,260; 2729,071;    2,182;   -0,955
1045,805; 2785,616;    1,182;   -0,591
1046,350; 2708,798;    1,364;   -0,409
1046,895; 2656,616;    2,909;    1,591
1047,440; 2610,343;    5,364;    0,409
1047,985; 2528,616;    2,818;   -0,955
1048,530; 2432,343;    1,545;    1,227
1049,074; 2509,434;    0,000;    0,318
1049,619; 2499,889;   -1,364;    1,955
1050,164; 2296,798;    0,455;    0,227
1050,708; 2337,980;   -0,455;    0,045
1051,253; 2697,889;    1,273;   -2,227
1051,797; 2419,798;    0,818;   -1,318
1052,342; 2436,071;   -1,182;    1,045
1052,886; 2419,434;    0,364;   -1,409
1053,430; 2316,343;   -1,364;    0,136
1053,975; 2342,343;   -0,818;   -0,318
1054,519; 2297,343;   -0,727;    3,227
1055,063; 2301,525;    0,909;    1,318
1055,607; 2199,616;   -0,182;    0,227
1056,151; 2219,071;    2,909;    1,682
1056,695; 2149,798;    2,273;   -1,136
1057,239; 2206,343;   -1,727;   -0,682
1057,783; 2206,162;    0,818;   -1,500
1058,327; 2149,434;    0,000;    1,409
1058,871; 2386,616;   -0,545;    1,318
1059,415; 2106,980;   -0,818;   -0,045
1059,958; 2356,071;    1,455;    2,591
1060,502; 2078,798;   -1,000;   -0,773
1061,046; 1983,343;    0,364;   -0,955
1061,589; 1968,253;   -3,000;   -1,136
1062,133; 1855,707;   -1,273;    1,864
1062,676; 1801,071;    1,182;    0,864
1063,220; 1800,525;    1,091;    0,500
1063,763; 1833,798;    0,909;    1,136
1064,306; 1903,253;   -0,909;    1,864
1064,849; 1779,162;   -0,909;    0,591
1065,393; 1781,980;    2,000;   -1,500
1065,936; 1896,253;    0,182;   -0,409
1066,479; 1792,071;   -1,455;    1,318
1067,022; 1820,798;   -0,273;   -0,227
1067,565; 1699,162;   -0,091;   -1,318
1068,108; 1748,707;    0,727;   -0,591
1068,651; 1707,980;   -0,636;    1,409
1069,194; 1637,889;   -0,455;   -1,682
1069,736; 1651,343;   -1,273;    0,955
1070,279; 1621,525;   -1,364;   -0,500
1070,822; 1665,253;   -2,000;   -0,318
1071,364; 1744,343;   -0,364;    1,318
1071,907; 1575,071;   -0,727;    3,227
1072,450; 1476,434;    0,000;   -0,045
1072,992; 1478,889;   -0,273;    3,136
1073,535; 1629,343;    2,091;    2,136
1074,077; 1421,343;   -0,727;    2,045
1074,619; 1378,980;   -1,364;    0,591
1075,161; 1412,071;   -1,091;    1,500
1075,704; 1593,071;    1,545;    1,227
1076,246; 1383,889;   -0,182;    0,682
1076,788; 1320,253;   -0,364;    1,773
1077,330; 1393,798;    1,273;    2,136
1077,872; 1358,434;    0,909;    0,955
1078,414; 1580,071;    2,727;    0,773
1078,956; 1302,980;    1,273;   -0,227
1079,498; 1560,525;    1,636;    0,318
1080,040; 1278,434;    1,909;   -1,318
1080,581; 1225,889;    1,636;   -0,318
1081,123; 1146,525;    0,091;   -0,773
1081,665; 1197,616;   -1,182;   -0,955
1082,206; 1488,253;    1,364;   -0,500
1082,748; 1343,343;    0,727;    2,045
1083,289; 1219,707;   -2,000;    1,318
1083,831; 1130,616;   -0,545;    0,227
1084,372; 1164,525;    0,000;    0,591
1084,913; 1167,162;    1,091;    0,864
1085,455; 1146,434;   -1,909;   -2,045
1085,996; 1109,434;   -2,273;    0,136
1086,537; 1136,707;   -0,091;    0,864
1087,078; 1166,343;   -0,909;   -2,136
1087,619; 1207,162;   -1,273;    0,227
1088,160; 1129,343;    0,000;    1,318
1088,701; 1112,162;   -1,091;    0,682
1089,242; 1052,798;    1,364;   -2,227
1089,783; 1152,525;   -0,273;    1,409
1090,324; 1114,616;    0,455;    0,682
1090,865;  994,162;    2,727;   -0,409
1091,405;  964,343;    0,727;    2,227
1091,946; 1007,071;    0,182;   -0,955
1092,487;  927,616;    0,818;   -1,409
1093,027; 1078,343;   -1,364;   -1,500
1093,568;  937,980;   -0,364;    1,227
1094,108; 1024,980;    0,273;    1,773
1094,649;  975,253;   -1,182;    0,136
1095,189;  912,343;   -0,636;   -0,682
1095,729;  857,071;   -0,091;    0,955
1096,269;  872,343;    0,727;   -0,955
1096,810; 1178,071;   -1,364;    0,500
1097,350; 1007,707;    1,364;   -0,773
1097,890;  901,162;    0,364;    1,227
1098,430; 1150,889;    2,364;    2,864
1098,970; 1029,162;    2,182;    1,682
1099,510;  899,253;    0,545;   -2,318
1100,050;  830,525;    1,000;   -1,591
1100,589;  789,525;   -0,727;   -0,318
1101,129;  905,616;    0,818;   -0,955
1101,669; 1062,071;    1,727;    2,136
1102,209;  889,980;   -0,091;    2,227
1102,748;  837,071;    0,000;    0,955
1103,288;  829,525;    1,273;   -1,227
1103,827;  859,162;    3,091;   -2,227
1104,367;  734,071;   -0,091;   -2,409
1104,906;  701,525;    1,364;   -1,136
1105,445;  782,434;    0,636;   -1,136
1105,985;  715,980;   -0,727;    1,500
1106,524;  759,071;   -1,727;   -0,682
1107,063;  745,616;   -2,727;    1,409
1107,602;  719,525;   -1,909;   -1,500
1108,141;  637,525;   -1,909;    1,500
1108,680;  736,071;   -3,455;   -0,591
1109,219;  672,707;   -0,909;   -0,500
1109,758;  672,071;    0,455;    0,682
1110,297;  647,343;    1,000;   -0,682
1110,836;  591,253;   -0,727;    0,955
1111,375;  765,343;   -2,545;    0,409
1111,913;  764,980;   -1,000;    0,773
1112,452;  698,434;   -0,273;    0,136
1112,991;  592,343;    1,091;    1,955
1113,529;  559,253;   -0,818;   -0,045
1114,068;  628,889;   -0,273;    2,955
1114,606;  520,980;   -0,364;   -0,955
1115,144;  689,434;   -1,273;    1,045
1115,683;  619,343;   -0,727;    0,318
1116,221;  655,162;   -0,455;   -0,864
1116,759;  567,071;    0,636;   -0,864
1117,297;  763,798;    0,000;    1,864
1117,836;  584,616;   -2,182;   -1,227
1118,374;  589,343;    0,182;   -0,682
1118,912;  533,616;    0,909;    2,682
1119,450;  518,616;    1,000;    0,864
1119,988;  555,889;    1,545;    2,136
1120,525; 1014,253;    5,091;    3,318
1121,063;  707,162;    1,182;    1,864
1121,601;  522,525;   -0,909;   -1,227
1122,139;  481,798;   -0,727;   -2,045
1122,676;  680,889;   -0,727;    2,773
1123,214;  607,889;   -1,182;    4,409
1123,751;  416,162;    1,727;    2,227
1124,289;  541,434;   -0,091;   -0,409
1124,826;  414,343;    1,727;    0,227
1125,364;  349,616;    1,727;   -0,955
1125,901;  537,798;    1,182;    1,227
1126,438;  652,525;    0,818;    0,955
1126,975;  377,798;   -0,727;   -0,773
1127,513;  454,707;    0,273;    2,136
1128,050;  348,343;    1,636;   -0,682
1128,587;  455,889;    2,000;   -0,227
1129,124;  489,616;    0,091;    1,318
1129,661;  361,071;    0,273;    0,227
1130,198;  528,525;    1,636;    0,773
1130,734;  475,162;    0,182;    1,409
1131,271;  333,162;   -0,909;    0,864
1131,808;  510,343;    2,909;    3,045
1132,345;  376,434;    1,545;    0,318
1132,881;  254,525;   -1,545;   -1,864
1133,418;  389,071;    0,727;   -1,136
1133,954;  331,616;    2,455;   -2,682
1134,491;  397,343;    1,364;   -0,773
1135,027;  300,343;    2,364;    0,864
1135,564;  385,889;    0,273;    2,955
1136,100;  376,889;    0,364;    2,136
1136,636;  266,889;   -1,273;   -1,045
1137,172;  353,071;    0,000;   -1,045
1137,708;  290,162;   -1,364;   -1,045
1138,245;  287,071;    1,273;   -1,227
1138,781;  233,707;    1,091;   -3,318
1139,317;  299,707;    1,273;   -1,409
1139,852;  286,071;    3,091;    0,136
1140,388;  400,889;   -1,182;   -0,409
1140,924;  287,343;   -1,091;   -2,227
1141,460;  228,707;   -1,636;    0,136
1141,996;  157,616;   -1,364;    2,682
1142,531;  212,889;    1,364;    3,318
1143,067;  417,889;    1,182;    1,045
1143,602;  481,343;   -0,091;   -0,318
1144,138;  324,434;   -2,636;    1,045
1144,673;  185,162;   -1,455;    1,409
1145,209;  264,798;   -1,909;   -0,318
1145,744;  190,616;   -0,727;    0,864
1146,279;  314,253;    1,818;   -0,136
1146,815;  232,162;    1,545;   -2,682
1147,350;  273,889;   -1,364;    0,045
1147,885;  188,889;   -0,818;   -1,318
1148,420;  189,343;   -2,273;    0,773
1148,955;  172,798;   -1,727;    1,864
1149,490;  194,253;   -0,909;   -1,591
1150,025;  178,707;    0,455;   -1,773
1150,560;  281,798;    1,091;   -0,955
1151,094;  251,525;    1,455;   -0,591
1151,629;  258,434;    1,636;    0,864
1152,164;  184,343;    1,364;    1,318
1152,698;  153,889;   -0,182;   -0,136
1153,233;  108,434;    0,091;   -0,682
1153,767;  158,253;   -3,000;   -2,318
1154,302;  204,889;   -1,455;    1,773
1154,836;  197,434;   -0,455;   -2,136
1155,371;  257,525;   -1,364;    3,682
1155,905;  209,889;   -0,636;    1,682
1156,439;  169,162;   -0,636;   -0,500
1156,973;  207,253;    0,364;    0,318
1157,507;  140,162;   -0,364;    0,682
1158,042;  168,071;   -0,727;    1,045
1158,576;  215,253;    0,182;    1,773
1159,110;  206,253;   -0,818;    2,409
1159,643;  177,071;    0,636;   -0,045
1160,177;  115,525;   -1,545;    1,500

