
Integration time [ms]:   0,040
Averaging Nr. [scans]: 11
Smoothing Nr. [pixels]: 0
Data measured with spectrometer [name]: 7318044SP
Wave   ;Sample   ;Dark     ;Reference
[nm]   ;[counts] ;[counts] ;[counts] 

186,757;   22,537;   31,551;    1,318
187,357;   54,729;   22,551;    0,955
187,958;   34,338;   15,460;   -1,591
188,558;   70,809;    8,915;   -1,227
189,159;   41,549;    6,733;   -4,500
189,759;   11,882;    7,278;   -3,591
190,360;   18,181;    2,824;   -2,136
190,960;   51,509;    2,915;   -4,136
191,560;   60,554;    3,189;   -6,591
192,161;  284,334;    4,372;   -3,500
192,761;  130,638;    4,010;   -3,227
193,361;   87,472;    1,556;   -3,773
193,962;  141,316;    2,010;   -2,682
194,562;   61,002;    1,189;   -3,955
195,162;   98,283;   -2,448;   -2,227
195,762;  243,541;   -3,176;   -0,045
196,362;  197,005;    1,370;   -2,500
196,963;   66,231;    2,006;   -0,864
197,563;  134,082;    1,551;   -0,955
198,163;   91,140;    0,096;   -0,682
198,763;  102,157;    1,733;   -0,500
199,363;  203,038;    3,096;   -0,500
199,963;  172,245;    0,369;    0,409
200,563;  143,559;    2,823;   -1,409
201,163;  121,420;    3,277;   -0,227
201,763;  203,416;    3,732;    0,318
202,363;  150,302;    1,459;    1,500
202,963;  247,466;    1,459;    1,045
203,563;  361,579;    0,277;    0,500
204,162;  216,582;    2,096;   -1,864
204,762;  203,070;    0,550;    0,591
205,362;  171,208;    3,004;    1,955
205,962;  270,601;    3,096;    1,955
206,562;  270,777;    1,823;    2,318
207,161;  237,048;   -0,087;    0,318
207,761;  383,081;    1,277;    2,409
208,361;  270,402;   -0,268;    1,409
208,960;  364,471;    0,459;    1,500
209,560;  422,891;    1,277;    1,591
210,160;  411,789;    0,550;    1,864
210,759;  379,721;    4,186;    1,227
211,359;  384,903;    1,459;    1,045
211,958;  642,064;    1,277;    2,045
212,558;  715,423;    1,732;    1,864
213,157;  557,251;    1,822;    1,500
213,757;  991,544;    3,822;   -0,227
214,356;  700,016;    1,277;   -0,409
214,956; 1017,327;    3,095;    0,409
215,555;  655,729;    2,095;    2,136
216,154;  593,215;   -2,723;   -0,591
216,754;  610,395;    0,277;    0,773
217,353;  732,984;   -0,268;   -1,045
217,952;  590,443;   -0,178;    0,318
218,552;  829,262;    1,368;   -0,773
219,151;  705,483;    0,277;    0,955
219,750;  709,014;    0,004;   -0,227
220,349;  819,599;   -0,451;    1,045
220,948;  886,337;   -1,360;    1,136
221,548;  896,348;    0,913;    1,227
222,147;  999,829;   -0,087;   -0,409
222,746; 1278,062;   -0,451;   -0,955
223,345; 1142,793;    0,731;    0,500
223,944; 1149,293;   -0,451;    0,773
224,543; 1312,374;    1,004;   -1,409
225,142; 1414,505;    0,094;    0,136
225,741; 1317,722;   -0,814;    1,045
226,340; 1327,393;   -0,451;   -0,955
226,939; 1752,191;   -0,996;   -0,136
227,538; 1674,569;   -0,360;   -0,773
228,137; 1831,245;   -0,814;    0,864
228,735; 1908,699;   -0,541;    1,227
229,334; 1678,606;   -0,905;   -0,227
229,933; 2053,578;    0,459;    0,591
230,532; 2144,569;    1,186;   -0,409
231,131; 2186,411;    1,732;    0,318
231,729; 2280,847;   -2,450;   -2,318
232,328; 2352,541;   -0,723;   -1,500
232,927; 2417,921;    1,004;   -0,500
233,525; 2490,530;    3,640;    0,045
234,124; 2672,084;    2,368;   -1,591
234,723; 2711,181;    0,913;   -1,045
235,321; 2820,799;    2,277;    0,136
235,920; 3007,302;    1,186;   -1,227
236,518; 3261,375;    3,459;    0,318
237,117; 3388,318;    0,004;   -0,227
237,715; 3541,031;    0,640;   -0,500
238,314; 3569,298;   -0,087;   -2,318
238,912; 3694,602;   -0,723;   -1,409
239,510; 3701,599;    0,459;   -1,227
240,109; 3891,855;    0,004;    3,773
240,707; 3922,283;   -0,996;    1,227
241,305; 4254,955;    0,550;    0,136
241,904; 4462,410;   -0,178;   -2,045
242,502; 4446,230;   -0,632;   -0,227
243,100; 4401,575;   -0,087;   -0,955
243,698; 4628,197;    0,732;    1,682
244,297; 4811,425;   -0,632;    0,682
244,895; 4695,979;   -0,269;   -2,318
245,493; 5012,048;    2,186;   -0,591
246,091; 5016,105;    1,368;   -1,318
246,689; 5003,649;    1,004;    0,591
247,287; 5187,618;    0,822;   -1,136
247,885; 5476,997;   -1,451;    1,227
248,483; 5584,496;    1,822;   -0,500
249,081; 5687,073;    0,185;    1,591
249,679; 5817,555;   -0,178;    1,682
250,277; 6090,174;   -1,723;    0,864
250,875; 6076,849;   -1,087;   -1,045
251,473; 6120,986;   -1,178;    0,500
252,071; 6316,587;    1,459;    1,045
252,669; 6467,929;   -1,814;    0,318
253,267; 6727,683;   -0,087;    0,773
253,864; 6660,254;   -0,360;    0,682
254,462; 6579,904;    1,640;    1,591
255,060; 6552,264;   -0,269;    1,318
255,658; 6840,657;    0,822;   -0,136
256,255; 7241,708;    0,186;   -2,045
256,853; 7149,452;   -0,269;    1,409
257,451; 7132,228;    0,822;    1,864
258,048; 7400,497;    1,822;    1,864
258,646; 7172,540;    1,731;   -1,045
259,243; 7326,907;   -0,087;    2,227
259,841; 7400,263;   -0,814;    0,318
260,438; 7296,786;   -0,087;    0,864
261,036; 7998,275;   -1,905;    1,409
261,633; 7918,476;   -0,087;    2,227
262,231; 7671,594;    2,731;   -0,045
262,828; 7758,088;   -0,905;    1,136
263,425; 7809,131;    0,913;   -0,591
264,023; 8054,173;    0,186;    0,045
264,620; 7587,175;   -0,360;   -0,318
265,217; 7929,839;   -2,087;    3,136
265,815; 8072,162;   -1,905;    2,136
266,412; 7857,841;    0,731;    0,136
267,009; 7926,500;   -1,451;    0,773
267,606; 7833,267;    0,822;   -0,955
268,203; 7799,399;   -0,269;   -0,591
268,801; 8085,959;    1,731;    0,591
269,398; 8356,121;   -0,360;    2,500
269,995; 8307,088;    0,277;    1,591
270,592; 8101,182;   -0,632;   -0,500
271,189; 8276,970;    0,186;    0,409
271,786; 8396,526;   -0,632;    1,227
272,383; 8251,549;   -1,087;    0,227
272,980; 8428,925;    0,277;    0,318
273,577; 8861,082;    0,004;    1,227
274,174; 8462,298;    0,822;    2,591
274,771; 8405,566;   -0,814;   -0,773
275,367; 8547,809;    2,277;    1,409
275,964; 8553,970;    0,731;   -0,500
276,561; 8631,750;    1,549;   -1,045
277,158; 8850,918;    0,095;   -1,773
277,755; 8976,345;    2,185;    0,409
278,351; 8391,994;   -0,451;   -1,500
278,948; 8705,496;   -0,815;    0,045
279,545; 8712,426;   -1,360;    2,318
280,141; 9320,316;   -1,723;   -2,045
280,738; 9195,564;   -0,451;   -0,136
281,334; 9408,121;   -1,633;    0,591
281,931; 8819,662;   -0,087;   -1,318
282,528; 8948,052;    0,822;   -0,500
283,124; 9648,268;   -1,087;   -0,500
283,721; 9550,113;   -0,451;    1,409
284,317; 9386,906;    0,185;    2,500
284,913; 9953,812;   -1,360;    0,591
285,510;10127,448;    0,640;   -0,318
286,106;10141,316;   -2,269;   -0,955
286,703; 9747,281;   -0,360;    1,955
287,299; 9994,445;   -1,451;   -0,591
287,895;10201,478;    0,822;   -1,045
288,491;10753,667;    0,186;    2,136
289,088;10495,280;   -2,360;    2,409
289,684;10570,838;   -1,723;    1,500
290,280;10578,586;    0,368;    0,682
290,876;10660,143;    1,822;    5,500
291,472;10563,767;    1,276;    2,227
292,068;10660,500;    1,367;    0,227
292,665;10438,990;    2,095;    0,773
293,261;10085,517;    0,276;    2,136
293,857;10451,857;    2,913;    2,136
294,453;10412,305;    3,550;    0,955
295,049;10306,959;   -0,268;    1,955
295,644;10312,860;    0,095;    0,136
296,240;10226,725;   -0,905;   -0,136
296,836;10299,344;   -0,995;    0,318
297,432;10560,815;    1,096;   -0,500
298,028;10584,876;    0,732;    0,773
298,624;10989,073;    1,459;    1,864
299,220;11257,400;    2,368;    0,591
299,815;10920,652;    1,005;   -0,409
300,411;10735,050;    0,914;    1,773
301,007;10758,055;    1,368;    0,227
301,602;10788,679;   -0,541;   -2,318
302,198;10934,957;    0,732;   -0,773
302,794;11257,458;    1,187;   -0,500
303,389;11396,733;   -1,177;    1,045
303,985;11469,432;    0,550;    1,409
304,580;11439,820;    1,459;    1,591
305,176;11422,565;   -3,086;    0,136
305,771;11351,512;   -1,268;   -1,227
306,367;11157,941;    4,095;    0,136
306,962;11506,679;    0,641;    1,500
307,558;11245,708;   -0,450;    0,136
308,153;11147,111;    1,095;   -1,136
308,748;11396,530;   -0,814;    1,682
309,344;11364,881;   -0,632;   -1,318
309,939;11438,450;   -1,905;   -1,318
310,534;11727,211;   -0,086;   -1,682
311,130;11642,047;    0,459;   -2,500
311,725;11361,144;    1,004;   -0,500
312,320;11674,286;    2,459;    0,045
312,915;11534,302;    1,459;   -1,045
313,510;11603,084;    1,550;   -0,500
314,105;12104,150;    1,096;    1,409
314,700;11541,247;   -3,086;   -1,045
315,295;11160,366;   -0,904;    0,045
315,890;10745,404;    1,277;    0,864
316,485;11105,327;   -0,359;   -0,318
317,080;11235,044;   -3,086;    1,591
317,675;11746,014;    2,005;   -0,682
318,270;11161,233;    5,550;    3,318
318,865;11200,142;    3,278;    3,045
319,460;11029,284;   -0,904;    0,591
320,055;11256,831;   -0,541;   -1,227
320,650;10942,251;   -1,995;   -0,591
321,244;10965,290;   -0,177;   -1,409
321,839;11869,431;   -1,541;   -0,227
322,434;11754,286;   -1,086;   -1,591
323,029;11417,722;    1,732;    1,591
323,623;11252,621;    1,550;    0,773
324,218;11006,899;    2,368;    1,409
324,812;10898,095;    1,096;    1,591
325,407;10684,284;   -0,814;    2,045
326,002;10611,619;    0,277;   -0,409
326,596;10933,335;    0,914;    1,318
327,191;11127,888;    0,823;   -1,045
327,785;10715,153;   -0,813;   -0,227
328,379;10935,736;    1,368;    0,136
328,974;10704,403;    0,914;   -3,955
329,568;10978,762;    0,186;   -2,409
330,163;10819,300;    2,096;    1,045
330,757;11171,208;    2,459;    1,591
331,351;10531,867;    0,459;    0,682
331,945;10839,093;    0,914;    1,409
332,540;10408,958;   -1,723;   -0,591
333,134;10559,452;   -1,086;    0,773
333,728;10790,110;    0,005;    0,318
334,322;11147,311;   -1,177;   -0,864
334,916;10440,703;    0,277;    0,955
335,510;10789,168;   -0,450;   -0,136
336,105;11039,979;   -1,086;    1,591
336,699;10736,688;   -1,086;    0,591
337,293;10681,216;   -1,723;    0,318
337,887;10829,953;   -2,723;    1,955
338,481;10941,352;    0,459;    0,591
339,074;11102,157;   -0,359;    2,682
339,668;10956,122;   -1,632;    1,227
340,262;11178,665;    1,732;    3,227
340,856;10710,498;    1,822;   -0,682
341,450;10099,929;    1,004;    1,864
342,044;10961,398;    1,459;    0,136
342,637;10762,128;    0,913;   -2,136
343,231;10629,653;   -2,360;    0,682
343,825;10602,869;   -1,086;   -0,591
344,419;10549,734;   -1,995;    0,500
345,012;10360,485;    2,459;    4,045
345,606;10363,813;    4,641;    1,591
346,199;10223,561;   -1,813;   -0,227
346,793; 9756,890;    1,914;    2,045
347,386; 9988,881;   -0,813;   -1,136
347,980; 9991,820;   -0,268;   -0,045
348,573; 9768,505;    2,278;    0,409
349,167; 9432,551;    5,278;    4,773
349,760; 9763,492;    2,914;    2,682
350,354; 9758,577;   -0,813;    1,136
350,947; 9487,624;    1,096;    1,682
351,540; 9179,107;   -0,358;   -1,409
352,134; 9133,432;    1,096;    1,136
352,727; 9221,453;   -0,086;    1,136
353,320; 9016,103;    0,005;    0,591
353,913; 8863,138;   -1,995;    1,864
354,507; 9029,233;    0,823;   -1,227
355,100; 9069,955;    0,460;    0,864
355,693; 8331,017;    2,005;    2,409
356,286; 8342,885;    0,823;    2,773
356,879; 8741,948;   -0,722;    1,227
357,472; 8312,163;   -0,904;    1,500
358,065; 8538,938;   -0,722;    2,500
358,658; 8450,947;   -0,540;    2,318
359,251; 8100,949;   -1,631;   -0,591
359,844; 7592,299;   -1,904;   -1,136
360,437; 7752,563;   -2,995;    0,045
361,030; 8044,464;    1,369;   -0,682
361,623; 7651,291;    2,824;    0,318
362,215; 7663,966;   -0,086;    2,045
362,808; 7500,516;   -2,358;   -1,682
363,401; 7716,618;   -2,449;    0,136
363,994; 7465,308;   -0,631;   -1,500
364,586; 7395,316;    0,824;   -1,500
365,179; 7587,332;   -0,449;   -1,136
365,772; 7069,264;   -1,995;    2,045
366,364; 7374,552;    1,915;   -3,227
366,957; 7583,244;    2,279;   -0,045
367,549; 7576,447;    2,188;   -0,864
368,142; 7235,973;    1,825;   -1,500
368,734; 7422,600;    0,734;   -2,136
369,327; 7389,131;    1,643;   -0,500
369,919; 7311,802;   -1,538;    0,409
370,512; 7123,067;   -1,083;   -0,500
371,104; 6887,424;   -0,901;    1,591
371,696; 7038,738;    1,191;   -0,955
372,289; 7125,295;    0,373;    1,136
372,881; 7267,994;   -2,080;    1,318
373,473; 7195,194;   -2,170;    1,136
374,066; 6990,512;   -0,169;    0,500
374,658; 6853,879;    0,378;    1,136
375,250; 7202,164;    0,653;   -1,409
375,842; 7035,607;    0,473;   -0,045
376,434; 6928,788;   -0,435;   -0,409
377,026; 7496,398;    0,204;   -2,500
377,618; 7373,320;   -0,158;   -0,682
378,210; 7225,537;   -0,338;   -1,955
378,802; 7091,200;    0,754;   -0,591
379,394; 7045,856;    1,846;    0,682
379,986; 7626,294;    1,393;   -0,955
380,578; 7682,787;   -0,153;    0,773
381,170; 7074,257;   -0,972;    0,045
381,762; 7048,812;    0,755;    1,409
382,354; 7215,137;   -0,065;   -1,318
382,945; 7288,312;   -2,976;    0,318
383,537; 7466,200;   -2,705;   -1,955
384,129; 7488,327;   -2,160;   -1,136
384,721; 7657,977;   -0,252;    0,955
385,312; 7555,584;   -0,161;   -0,955
385,904; 7658,439;   -2,706;    1,591
386,496; 7055,321;   -0,979;    1,045
387,087; 7185,819;    1,022;    2,500
387,679; 7225,524;   -1,160;    0,045
388,270; 7352,415;    2,840;    2,045
388,862; 7476,185;    1,295;   -0,318
389,453; 7365,632;   -0,887;    1,045
390,045; 7620,965;   -0,705;   -2,682
390,636; 7566,277;    0,204;   -0,591
391,227; 7396,758;   -0,523;   -0,045
391,819; 7508,044;    0,204;    0,773
392,410; 7559,760;    1,022;    0,045
393,001; 7490,300;   -0,979;   -1,591
393,593; 7735,433;    1,930;   -0,045
394,184; 7628,393;    1,385;   -0,409
394,775; 7579,242;    1,839;    2,136
395,366; 7760,911;    1,385;    0,773
395,957; 7757,337;    0,113;    0,136
396,548; 8050,085;   -0,342;    2,682
397,139; 8341,872;   -2,433;    0,591
397,730; 8064,879;   -1,888;    0,955
398,321; 8112,716;   -1,252;    0,955
398,912; 8166,025;   -0,615;    0,136
399,503; 8246,054;   -3,524;   -1,409
400,094; 7707,915;    0,294;    1,682
400,685; 7571,470;   -0,433;    0,045
401,276; 7659,191;    0,930;   -0,955
401,867; 7966,297;   -0,888;    0,773
402,458; 8042,250;   -2,251;   -2,318
403,048; 8012,757;    1,112;    0,591
403,639; 7648,369;    0,840;    0,864
404,230; 7885,698;    2,476;    0,318
404,821; 7812,145;   -0,615;    0,045
405,411; 7941,553;    1,203;   -2,591
406,002; 7542,880;   -1,252;   -1,136
406,592; 7406,263;    2,294;    0,045
407,183; 7690,593;    0,566;   -1,500
407,774; 7618,552;    3,475;   -0,136
408,364; 7905,151;    0,930;    0,409
408,954; 7532,310;    0,384;    1,227
409,545; 7596,581;    1,021;    1,045
410,135; 7144,057;    1,293;    0,500
410,726; 7277,945;    1,838;    0,318
411,316; 7632,705;    0,111;    0,773
411,906; 7326,934;   -0,253;   -0,409
412,497; 6864,299;   -1,070;   -0,045
413,087; 7443,271;   -1,980;   -0,227
413,677; 7784,430;   -0,707;    3,864
414,267; 7625,669;    0,656;    1,409
414,857; 7632,765;   -2,980;    4,227
415,448; 7909,760;    0,839;    0,500
416,038; 7588,704;    0,020;   -0,591
416,628; 7542,246;   -0,889;    0,409
417,218; 7048,954;    0,565;    3,318
417,808; 7280,958;    0,202;   -0,409
418,398; 7716,717;    0,020;    2,682
418,988; 7711,145;    2,020;    0,591
419,578; 7904,404;   -0,707;    1,409
420,168; 8230,754;   -1,343;   -0,955
420,757; 7818,427;   -1,343;   -1,500
421,347; 7529,890;    0,111;   -0,227
421,937; 7674,281;    2,292;    1,409
422,527; 7620,201;    0,838;   -0,773
423,116; 7443,565;   -0,253;   -0,045
423,706; 7771,090;   -1,889;    0,318
424,296; 7737,179;    1,384;    0,682
424,885; 8128,452;   -0,071;   -3,045
425,475; 8348,464;    1,474;   -2,864
426,065; 8275,038;   -0,980;   -0,318
426,654; 7933,041;   -0,435;   -0,318
427,244; 8034,589;    0,020;    1,409
427,833; 7482,674;    1,383;   -0,500
428,423; 7940,002;   -0,526;    1,136
429,012; 8656,750;   -0,344;   -1,136
429,601; 8165,610;   -1,344;    0,136
430,191; 8396,074;    1,292;    4,318
430,780; 8016,063;   -0,344;   -0,409
431,369; 7943,338;    0,746;   -0,045
431,959; 8512,736;   -1,254;    0,500
432,548; 8297,223;   -1,163;   -0,045
433,137; 8408,960;   -1,254;   -1,318
433,726; 8895,044;    0,292;    0,500
434,315; 8300,293;   -0,526;    2,409
434,905; 8378,264;   -1,254;    1,409
435,494; 8290,461;    0,746;    0,955
436,083; 8712,563;   -0,981;   -0,955
436,672; 8574,754;    0,110;    0,500
437,261; 8151,286;    0,292;   -1,955
437,850; 8253,793;    1,383;    0,682
438,439; 8195,882;    3,291;    1,955
439,027; 8038,980;    3,655;    1,773
439,616; 8380,208;    2,927;    1,227
440,205; 8190,253;    0,200;   -2,136
440,794; 8233,848;    2,109;   -0,045
441,383; 8500,019;   -1,346;   -0,591
441,971; 8351,470;   -2,436;    0,591
442,560; 8169,974;    0,563;   -1,773
443,149; 7902,407;    0,379;   -1,318
443,737; 8056,337;   -0,074;   -2,318
444,326; 8281,522;    0,018;    0,318
444,915; 8285,185;   -1,982;    0,864
445,503; 8629,176;   -2,891;   -0,318
446,092; 7948,364;    0,382;    2,136
446,680; 8453,467;    0,382;    0,318
447,269; 8550,171;   -0,346;   -0,318
447,857; 8341,550;    0,018;   -1,773
448,445; 8451,950;    0,563;    1,318
449,034; 8656,157;   -1,528;   -1,136
449,622; 8713,613;   -1,073;    3,500
450,210; 8010,465;    2,017;    2,227
450,799; 8520,197;    0,290;   -0,591
451,387; 8476,052;    1,381;   -0,591
451,975; 8127,044;    2,654;    0,864
452,563; 8184,635;    3,472;    2,318
453,151; 8234,840;   -0,528;   -1,227
453,739; 8143,387;   -1,347;    0,136
454,328; 8007,892;    2,381;   -2,136
454,916; 7720,298;    2,562;   -0,136
455,504; 7900,135;    1,017;    1,227
456,092; 8051,338;    0,017;   -1,591
456,679; 8019,673;    1,472;    0,682
457,267; 7970,234;    4,017;    1,045
457,855; 8099,577;    1,017;    1,409
458,443; 7846,414;   -0,165;    1,682
459,031; 7988,493;    0,108;    2,409
459,619; 8368,179;   -1,801;    2,864
460,206; 8486,490;    0,835;    2,045
460,794; 8572,168;   -2,983;   -0,227
461,382; 8779,131;   -0,529;   -0,864
461,970; 8354,524;    1,198;    1,864
462,557; 8428,371;   -0,711;   -0,682
463,145; 8550,878;   -3,165;   -1,682
463,732; 8658,175;    2,016;   -1,045
464,320; 8580,497;   -0,075;   -3,045
464,907; 8293,460;    2,743;   -0,773
465,495; 8187,194;    0,743;   -1,227
466,082; 8316,071;   -1,984;   -0,045
466,670; 8200,256;   -2,529;    1,227
467,257; 8614,537;   -1,711;    2,045
467,844; 8737,120;   -0,075;    0,045
468,432; 8765,790;    0,834;    3,500
469,019; 8317,145;    0,925;   -1,773
469,606; 8713,011;    0,470;    3,682
470,193; 8549,372;   -1,439;    0,227
470,780; 8164,864;   -2,075;    0,864
471,368; 8470,363;   -1,257;   -0,773
471,955; 8269,265;    1,379;   -0,682
472,542; 7919,498;    0,652;   -1,136
473,129; 8126,785;   -0,166;    0,136
473,716; 7876,749;    1,470;    0,591
474,303; 8026,023;    0,652;   -0,864
474,890; 8257,545;   -1,439;   -0,500
475,477; 8261,161;   -1,621;    0,409
476,064; 8180,275;    1,106;   -1,591
476,650; 8079,164;    0,288;    0,318
477,237; 7888,527;   -0,258;    0,955
477,824; 8042,472;   -1,076;    0,864
478,411; 8042,105;   -1,894;   -0,318
478,997; 8224,759;    0,560;   -0,773
479,584; 8227,388;    1,196;   -0,409
480,171; 8843,197;   -0,440;   -0,773
480,757; 8522,067;    2,651;    0,773
481,344; 8773,623;    0,469;    0,409
481,931; 8272,656;    1,105;    1,045
482,517; 9105,174;   -1,258;    0,318
483,104; 9515,903;    1,106;    2,864
483,690; 9721,451;   -1,804;    0,045
484,276;10002,135;   -0,895;    0,227
484,863; 9773,580;    2,469;    1,136
485,449;10257,513;   -0,077;    0,318
486,035;10263,274;   -1,986;   -0,136
486,622;10643,076;   -0,895;    0,045
487,208;10579,147;    1,378;    1,500
487,794;10467,192;    0,741;    0,318
488,380;10551,744;    0,105;   -1,409
488,967;10602,138;   -1,168;   -0,409
489,553;10699,156;   -1,895;   -1,409
490,139;10905,855;    1,559;    0,773
490,725;10401,040;    0,741;   -0,227
491,311;10110,279;    3,287;    3,045
491,897; 9599,554;   -0,986;    1,500
492,483; 9494,409;    0,105;    1,227
493,069; 9367,890;    3,923;    0,864
493,655; 9347,117;    1,650;    0,682
494,241; 9311,174;    1,377;   -0,955
494,826; 9663,610;    0,287;   -1,045
495,412; 9205,823;    2,559;   -0,682
495,998; 9452,135;   -0,805;   -0,318
496,584; 9564,792;    0,377;    1,045
497,169; 9617,043;    1,014;   -0,682
497,755; 9645,495;    0,650;    1,227
498,341;10178,224;    0,559;    0,318
498,926; 9833,297;    1,832;    1,955
499,512;10071,753;    1,286;    2,955
500,097;10208,181;    0,195;   -0,318
500,683;10250,080;   -0,350;    2,136
501,268;10672,931;   -0,169;   -0,955
501,854;10493,273;   -0,169;    1,227
502,439;10452,386;   -0,624;   -1,773
503,024;10705,067;    0,195;    0,500
503,610;10846,459;   -0,078;   -0,682
504,195;10922,316;    0,558;    1,955
504,780;11129,843;    2,922;    1,227
505,366;11001,656;    3,013;    2,864
505,951;10814,557;    0,740;    1,045
506,536;10898,674;   -3,260;   -3,682
507,121;10941,604;    0,285;   -0,318
507,706;11512,697;    2,376;    1,045
508,291;11909,558;    2,649;    1,136
508,876;11413,086;   -0,988;    2,591
509,461;10958,160;   -0,169;   -0,773
510,046;11435,642;    0,194;    0,318
510,631;11713,992;   -0,351;   -0,773
511,216;11424,973;    2,467;   -0,500
511,801;11844,464;   -0,442;    2,591
512,386;12144,877;    0,740;    0,500
512,971;12121,626;   -2,988;    0,955
513,555;11746,581;   -0,897;   -1,500
514,140;12530,890;   -0,442;   -3,136
514,725;12567,521;   -0,715;   -1,136
515,309;12726,698;   -0,533;    0,318
515,894;12231,757;   -0,624;   -2,227
516,479;12664,674;   -0,624;   -0,955
517,063;12526,122;    0,376;    1,227
517,648;12693,670;    1,012;   -1,136
518,232;12348,921;   -0,261;   -1,409
518,817;12688,801;   -0,079;    1,682
519,401;12933,675;    2,194;    0,591
519,985;12477,032;    1,103;    1,136
520,570;12358,895;    0,830;   -1,955
521,154;12666,785;    2,102;    0,591
521,738;12842,352;   -2,352;    2,409
522,323;13408,598;   -0,170;    1,682
522,907;13173,683;    0,466;   -0,136
523,491;12909,958;    0,557;    0,955
524,075;12898,020;    2,284;    0,591
524,659;12957,764;    1,466;    0,591
525,243;12462,071;    1,739;    0,409
525,827;12715,990;    0,648;   -0,045
526,411;13547,492;   -1,989;   -0,136
526,995;13766,105;   -0,352;    1,409
527,579;13360,134;   -0,443;   -1,045
528,163;13697,359;    0,375;   -1,500
528,747;13606,719;    2,466;   -0,773
529,331;13921,018;   -0,080;   -1,409
529,915;14100,482;    1,738;    0,955
530,499;14033,452;   -0,807;    1,227
531,082;13739,314;   -0,534;    1,591
531,666;13200,865;    1,374;    0,773
532,250;13876,054;    1,284;    2,682
532,833;14224,194;    0,920;    2,773
533,417;14109,590;   -1,807;    0,864
534,001;14082,544;    1,647;   -0,318
534,584;14739,227;    0,374;    0,500
535,168;14597,317;    0,465;    1,409
535,751;14602,441;    0,647;    0,045
536,334;14093,721;   -0,898;   -0,409
536,918;14692,113;    0,011;    1,591
537,501;14780,579;   -0,899;    1,318
538,085;14764,766;   -0,444;    1,045
538,668;14902,282;    0,829;    2,409
539,251;15254,708;    1,829;    3,773
539,834;15311,614;    0,101;    0,773
540,418;15199,030;   -1,990;    4,318
541,001;15293,720;   -0,990;    1,773
541,584;15299,090;    2,101;    2,227
542,167;14998,155;    1,374;    2,955
542,750;15192,556;    1,919;   -0,773
543,333;14770,369;    0,555;    2,136
543,916;15512,564;    0,192;    2,500
544,499;16097,360;   -1,354;    0,227
545,082;16073,241;    1,374;    3,591
545,665;16251,538;    1,919;    1,500
546,248;16599,460;    1,010;   -0,318
546,830;16266,880;   -0,445;    1,955
547,413;16627,140;    1,010;   -0,773
547,996;17177,029;    0,555;    0,500
548,579;16950,466;    0,919;    0,955
549,161;16743,347;    1,828;    2,682
549,744;16510,876;   -0,809;    0,409
550,326;17025,241;   -0,809;   -1,136
550,909;16845,130;    2,737;    0,591
551,492;17271,963;   -0,263;    0,227
552,074;17026,712;   -0,173;   -1,318
552,657;17533,501;    2,373;    0,045
553,239;17324,959;   -0,173;   -0,773
553,821;17259,035;   -1,082;    1,045
554,404;16798,288;    1,282;    1,136
554,986;17161,388;    0,464;    1,045
555,568;17767,665;    1,191;   -0,955
556,151;16966,636;    1,191;   -0,227
556,733;17183,293;   -0,264;   -0,864
557,315;17631,864;    0,100;    0,500
557,897;17437,103;    0,554;   -0,500
558,479;17573,953;   -1,991;    1,318
559,061;17624,704;   -0,719;   -0,864
559,643;17989,571;   -0,264;    0,045
560,225;18346,727;    1,645;    2,864
560,807;18395,299;    0,918;    0,318
561,389;17918,909;    0,554;    2,318
561,971;18628,848;    0,463;    2,136
562,553;18438,553;   -1,628;    1,591
563,135;18573,491;   -0,537;    1,136
563,717;18160,914;    3,372;    1,136
564,298;18814,589;    3,645;   -0,045
564,880;18562,319;    0,645;   -1,409
565,462;18734,319;    0,645;    1,318
566,043;19859,687;   -0,446;    2,318
566,625;19383,232;    1,918;    1,227
567,207;19212,428;    1,099;    1,682
567,788;20287,886;   -1,264;    1,500
568,370;21150,694;    1,917;   -0,500
568,951;20920,952;    0,190;    0,227
569,533;21777,250;   -0,628;   -0,500
570,114;22257,089;   -0,446;    0,682
570,695;22710,210;   -0,174;   -1,318
571,277;23176,947;   -0,265;   -1,682
571,858;23896,060;    2,008;   -1,136
572,439;24744,201;    1,554;   -1,045
573,021;24879,910;    2,099;   -2,773
573,602;25381,718;   -1,265;    0,318
574,183;26245,516;   -2,083;    2,227
574,764;26343,210;   -1,629;    0,409
575,345;26875,491;    0,917;   -0,136
575,926;27553,290;   -0,356;    0,136
576,507;27487,899;    1,099;   -0,227
577,088;28564,323;    3,099;    1,682
577,669;28560,035;    0,735;    1,955
578,250;29253,516;    0,644;   -1,045
578,831;29893,966;   -1,356;   -2,227
579,412;30114,096;   -0,810;    0,955
579,993;31021,886;    1,008;    0,227
580,573;31399,009;   -0,629;   -0,955
581,154;30401,520;    0,735;   -0,591
581,735;31243,185;    0,644;    0,773
582,315;30699,003;   -0,629;    2,136
582,896;31023,028;   -0,174;    1,227
583,477;30563,774;    0,189;    1,227
584,057;30737,310;    0,553;    0,955
584,638;31025,159;    2,553;    2,318
585,218;30951,672;   -0,538;    2,682
585,799;31156,788;    0,281;   -0,227
586,379;31150,232;    0,372;    1,591
586,959;29974,940;    0,735;    0,318
587,540;29331,327;   -0,629;    2,227
588,120;28919,925;    1,007;   -0,045
588,700;27906,392;    2,553;    2,136
589,281;28176,220;    0,462;   -0,955
589,861;28057,983;    0,099;   -1,682
590,441;27921,949;    2,371;   -2,682
591,021;26907,249;   -0,265;   -2,591
591,601;27214,075;   -0,537;    0,500
592,181;27189,103;   -0,719;   -0,773
592,761;26521,397;    0,007;    1,409
593,341;26466,000;   -0,901;    0,045
593,921;26454,383;   -0,265;    1,591
594,501;26400,971;   -0,538;    1,318
595,081;26243,412;    0,917;   -0,318
595,661;26541,845;   -1,447;    0,955
596,240;27020,833;   -0,537;    0,136
596,820;26654,122;    0,372;    1,955
597,400;26860,873;    2,008;    0,773
597,980;27086,948;    2,008;    1,045
598,559;27104,598;    2,735;   -0,227
599,139;26847,512;   -0,174;   -1,227
599,718;26752,966;   -0,174;   -0,409
600,298;26946,901;    0,735;    0,682
600,877;27203,223;    2,917;    1,409
601,457;27493,239;    2,281;    1,136
602,036;27353,620;    0,190;    2,045
602,616;27591,675;    0,644;    1,682
603,195;27894,966;   -0,355;    3,500
603,774;27476,303;   -0,901;    2,045
604,354;27377,365;    0,826;   -0,500
604,933;26861,800;    0,463;    1,864
605,512;26974,337;    3,554;    0,591
606,091;27023,384;   -0,537;    3,773
606,671;27801,027;    0,281;    0,773
607,250;26968,575;    1,644;    3,136
607,829;27181,466;    2,372;    3,227
608,408;27073,443;    1,190;    2,591
608,987;26049,873;    1,281;    3,409
609,566;26364,118;   -1,265;   -2,500
610,145;26490,300;   -1,082;    0,682
610,723;26923,152;    4,372;    6,864
611,302;26183,230;   -0,446;    1,682
611,881;25716,600;    5,008;   11,227
612,460;26485,208;    1,645;    3,955
613,039;26933,859;   -0,082;    2,045
613,617;25697,681;    1,736;    4,773
614,196;25891,238;    1,099;    1,227
614,775;26241,918;    1,009;    2,409
615,353;26246,060;    0,736;    0,864
615,932;25936,850;    0,100;    2,409
616,510;26518,917;    0,554;    0,591
617,089;26064,004;    7,100;   17,591
617,667;25809,397;    2,372;    6,136
618,246;25656,600;   -1,537;    1,318
618,824;25818,481;   -3,355;   -0,955
619,402;25393,300;   -2,900;   -1,773
619,981;25901,290;   -0,173;   -1,045
620,559;25716,252;    0,009;    1,682
621,137;25265,317;   -0,718;    1,864
621,715;25277,624;   -1,173;   -0,682
622,293;25206,832;   -0,537;   -0,773
622,871;25670,864;   -0,718;    0,500
623,450;25293,755;    0,373;   -0,864
624,028;25207,919;    0,191;   -0,955
624,606;24791,304;   -1,718;    1,682
625,183;25162,808;   -1,536;   -1,136
625,761;24808,807;    1,009;    1,136
626,339;25090,550;    1,373;    2,591
626,917;25515,973;   -0,172;   -0,045
627,495;25557,642;   -0,354;    1,318
628,073;25000,843;   -0,263;    2,864
628,650;24657,013;    0,100;    2,136
629,228;25116,873;    0,373;    4,409
629,806;24532,832;    2,282;    1,136
630,383;24817,516;    1,464;   -0,318
630,961;24625,590;    2,555;   -0,955
631,539;24335,211;    2,464;    0,227
632,116;23671,772;   11,373;   15,409
632,694;24265,426;    2,555;    6,500
633,271;24552,705;    0,828;    2,682
633,848;24430,534;    1,828;    2,045
634,426;24504,757;   -1,081;    1,773
635,003;23668,335;    1,101;   -0,409
635,580;23960,695;    1,192;    3,682
636,158;24571,596;    3,737;    1,227
636,735;24517,917;    0,555;   -0,500
637,312;24650,962;   -0,809;   -0,682
637,889;24732,723;   -4,354;   -0,682
638,466;24218,054;   -3,990;   -0,409
639,043;24237,880;    2,101;   -1,136
639,620;24574,394;   -2,262;   -0,955
640,197;24902,898;    1,100;    1,682
640,774;25012,218;   -0,172;    1,136
641,351;25400,629;    0,737;    1,136
641,928;24771,949;   -0,627;    1,409
642,505;24434,451;    0,828;   -0,500
643,082;24584,498;   -1,718;    1,227
643,658;23603,000;   -0,718;    1,500
644,235;24394,047;    1,191;    2,500
644,812;24653,549;    1,918;    0,773
645,388;24411,232;   -0,991;    1,409
645,965;24504,734;   -0,809;    1,682
646,542;24595,781;   -1,445;   -0,227
647,118;24532,192;    1,009;   -0,955
647,695;24851,785;   -0,263;    1,136
648,271;24783,741;   -0,536;    0,500
648,848;25069,152;    0,736;    2,227
649,424;24884,926;    0,827;    1,318
650,000;24674,428;   -0,354;   -1,045
650,577;24469,384;   -0,627;   -0,955
651,153;24931,704;   -1,809;    0,955
651,729;25871,387;    1,191;    0,864
652,305;25973,616;    0,645;    2,773
652,881;29993,845;   -0,082;    1,136
653,458;36545,256;    1,100;    0,227
654,034;40328,031;    0,282;    1,591
654,610;41850,987;    0,554;    0,773
655,186;43244,034;    0,645;    3,045
655,762;42901,809;   -0,991;    0,409
656,338;42913,583;    0,100;    0,136
656,913;43867,176;   -0,082;    0,409
657,489;43239,405;    0,827;   -0,318
658,065;43140,543;   -0,173;   -1,591
658,641;43823,954;   -0,900;   -0,864
659,217;43230,092;   -0,991;    0,409
659,792;42636,048;    0,645;   -0,409
660,368;42829,913;   -2,173;   -0,682
660,944;42557,688;   -2,082;    1,227
661,519;38470,462;   -0,628;    0,409
662,095;32827,055;   -1,719;    0,591
662,670;28180,193;    1,281;   -0,136
663,246;26927,604;    1,009;   -0,409
663,821;26189,833;    0,281;    1,682
664,396;25703,789;    0,009;    1,864
664,972;25956,655;    0,009;   -0,500
665,547;26301,065;    1,372;    0,136
666,122;26327,294;   -1,082;    0,318
666,698;26570,796;   -0,173;    0,318
667,273;25956,752;   -0,173;    0,136
667,848;26707,890;    2,372;    1,500
668,423;26461,210;    2,190;    2,318
668,998;27036,712;    2,827;   -0,682
669,573;27568,759;   -3,264;   -1,500
670,148;27394,715;   -1,446;   -0,682
670,723;27214,581;   -1,810;    0,318
671,298;27628,264;    2,372;    1,045
671,873;27723,221;   -0,082;   -0,136
672,448;27725,813;    0,645;    0,136
673,023;28067,133;   -1,992;   -0,227
673,597;28315,726;    0,827;    2,318
674,172;28131,137;   -0,355;    0,318
674,747;27632,002;    0,372;   -1,045
675,321;27499,049;   -0,628;    3,318
675,896;27083,460;    0,645;    1,045
676,471;28084,144;    2,645;    1,591
677,045;27747,736;   -1,264;    0,682
677,620;27824,692;    0,190;    1,136
678,194;28184,649;   -2,628;    1,136
678,769;27730,696;   -1,083;   -0,318
679,343;27962,925;   -0,628;    1,773
679,917;27848,608;   -1,446;    1,955
680,492;27909,201;    0,826;    3,227
681,066;28074,976;    3,372;    0,409
681,640;28095,205;    1,463;   -0,318
682,214;28873,343;    0,735;    0,500
682,788;28421,481;   -1,356;   -0,773
683,363;28345,619;   -1,810;    1,682
683,937;28069,484;   -1,719;   -0,318
684,511;28830,259;    0,463;   -0,591
685,085;28526,306;   -1,356;    0,318
685,659;28338,353;   -2,538;    0,864
686,232;28543,946;   -0,356;   -0,318
686,806;28323,629;   -0,901;    0,409
687,380;28980,949;   -0,174;    0,591
687,954;29194,087;   -1,174;    1,136
688,528;28800,316;   -0,719;    1,955
689,101;29614,909;   -3,992;    1,045
689,675;29175,320;   -0,356;   -0,136
690,249;28588,640;   -0,719;    0,409
690,822;28854,596;    0,280;    0,318
691,396;28996,916;   -0,265;    1,227
691,969;28411,599;    1,280;    0,136
692,543;28873,556;   -0,447;   -1,955
693,116;28528,875;   -0,265;   -1,409
693,690;28400,104;    0,099;    0,500
694,263;29006,970;   -1,083;    2,955
694,836;29003,653;    1,371;    3,591
695,410;27703,064;   -0,265;    1,773
695,983;28088,384;    0,189;    0,591
696,556;28089,249;   -0,447;   -1,045
697,129;28463,388;   -0,356;    1,409
697,703;28072,707;   -1,629;    1,955
698,276;28134,027;    1,462;   -0,773
698,849;27947,165;    1,280;    1,409
699,422;28325,576;   -1,083;    0,591
699,995;27982,805;    0,007;    0,136
700,568;28474,671;   -0,629;    3,045
701,140;28458,900;   -2,811;    1,682
701,713;28251,129;   -0,174;    2,409
702,286;27985,176;   -0,538;    0,864
702,859;27862,132;   -0,902;   -0,591
703,432;27043,452;    0,825;    0,682
704,004;27588,590;    0,462;    0,318
704,577;27450,910;   -0,629;    0,136
705,150;28044,412;    0,189;    2,500
705,722;27828,913;   -0,356;   -3,227
706,295;27619,870;   -0,175;   -0,591
706,867;27456,008;   -0,175;    1,955
707,440;27619,691;   -1,720;   -0,409
708,012;27852,557;    0,462;    0,591
708,584;27810,149;    2,462;    0,227
709,157;28117,651;    1,825;   -0,591
709,729;27714,607;    2,280;    2,045
710,301;28611,836;    0,734;    0,045
710,874;28603,429;   -1,447;   -0,227
711,446;27498,385;    0,371;    0,864
712,018;27323,614;    0,098;    0,500
712,590;27102,298;   -1,993;    1,682
713,162;27636,709;    0,825;    1,318
713,734;27883,483;    1,825;   -2,045
714,306;27812,076;   -1,902;   -0,409
714,878;26537,487;    0,825;    0,864
715,450;27347,625;    0,643;    0,864
716,022;27595,854;    1,552;    1,318
716,593;27742,719;    0,189;    0,591
717,165;27653,221;   -3,175;   -1,227
717,737;27362,086;    0,280;    0,409
718,309;27049,042;    0,280;   -0,045
718,880;26993,090;   -0,539;   -1,409
719,452;27253,682;   -0,175;   -1,591
720,024;26805,366;    0,734;   -0,591
720,595;27409,049;   -2,902;    0,955
721,167;26939,006;    0,370;   -2,045
721,738;26467,689;   -0,812;   -1,045
722,309;26417,282;   -0,993;   -1,227
722,881;26247,693;   -1,357;    0,773
723,452;26817,012;   -2,630;    2,864
724,023;26983,969;   -0,721;    2,682
724,595;26786,561;    0,007;    0,682
725,166;26507,609;    0,007;   -0,409
725,737;26146,292;    1,734;    0,227
726,308;26305,157;   -0,266;    0,318
726,879;26739,477;   -1,630;    1,227
727,450;26568,888;    0,552;   -0,045
728,021;26508,117;    3,097;    0,682
728,592;26283,710;    0,734;    0,500
729,163;26667,666;    0,643;   -0,136
729,734;26675,259;    0,188;   -0,227
730,305;27008,579;    1,734;    0,136
730,876;27340,353;    0,188;    2,955
731,447;27012,582;    2,188;    2,682
732,017;27151,811;    1,097;    1,864
732,588;26621,222;    0,734;    1,227
733,159;26810,269;    0,643;   -1,045
733,729;26658,316;    0,006;    0,409
734,300;25965,273;    0,915;    0,864
734,870;26360,956;    3,461;    0,591
735,441;26937,185;    0,370;   -0,591
736,011;26722,232;    0,643;   -1,591
736,582;26668,552;   -0,812;    0,045
737,152;26144,236;   -1,721;   -2,045
737,722;26589,465;   -0,267;   -0,682
738,293;26318,330;   -1,358;    1,318
738,863;26175,195;    2,461;    2,318
739,433;25947,152;    5,279;    0,318
740,003;26591,199;   -0,994;   -0,682
740,573;26065,792;    2,097;   -1,591
741,143;26054,839;   -1,085;    0,318
741,713;26824,522;    1,188;   -0,500
742,283;26451,842;    0,915;    1,591
742,853;26245,708;    1,915;    1,591
743,423;25738,482;    1,733;    0,045
743,993;25821,620;   -0,358;    1,500
744,563;25271,304;    0,097;   -0,864
745,133;25228,078;   -0,812;   -0,864
745,702;25844,489;   -0,267;    1,773
746,272;25082,445;   -0,176;    0,591
746,842;24865,492;   -1,358;   -0,591
747,411;25320,540;   -0,267;   -0,318
747,981;25505,859;    0,097;    0,500
748,551;25555,270;    2,278;   -1,045
749,120;25362,499;    0,642;   -0,227
749,690;25730,819;   -0,631;    2,409
750,259;26046,503;    1,369;    2,955
750,828;25996,004;    1,551;   -1,955
751,398;26249,688;    1,278;   -0,045
751,967;25714,372;    2,187;    0,409
752,536;25965,782;   -0,813;   -0,227
753,105;26364,284;    0,096;    0,227
753,675;26159,422;    0,096;    1,773
754,244;26110,197;   -0,904;    3,591
754,813;26187,789;    0,551;    1,227
755,382;25751,291;    0,460;    0,955
755,951;26289,793;    1,551;    3,682
756,520;25789,113;   -0,085;    1,864
757,089;26348,342;    0,278;    0,500
757,658;26484,389;    1,733;    1,227
758,227;26477,618;    1,096;    0,318
758,795;26786,483;    1,187;    1,136
759,364;27041,985;   -0,086;   -0,591
759,933;26057,487;   -1,176;   -0,045
760,501;25607,170;    0,733;   -1,318
761,070;26081,945;   -2,813;   -1,409
761,639;26741,628;   -1,904;    1,318
762,207;26100,675;    1,551;   -0,955
762,776;26027,086;    0,369;    0,864
763,344;25984,406;   -0,995;    0,591
763,913;25168,362;   -0,722;    1,409
764,481;25882,773;    1,005;   -0,136
765,049;25668,911;   -1,358;    1,409
765,618;25527,504;   -0,086;    0,318
766,186;25572,824;    0,278;    0,136
766,754;25817,416;    0,005;    1,864
767,322;24836,373;   -1,995;    0,409
767,890;24904,784;   -0,722;   -1,773
768,459;25271,103;   -2,177;   -0,318
769,027;25394,332;    1,641;    3,409
769,595;24391,561;    3,278;    2,591
770,163;24823,154;    3,823;    2,955
770,730;24592,474;    0,732;   -0,136
771,298;24485,703;    0,187;   -1,409
771,866;24635,114;   -1,541;    4,955
772,434;24906,252;   -0,631;   -1,864
773,002;25057,754;    0,005;    0,682
773,569;24702,801;    0,914;    1,682
774,137;24525,303;   -0,268;   -0,045
774,705;25322,804;    0,278;   -0,136
775,272;24851,124;    0,641;    0,682
775,840;24591,444;   -0,177;    2,682
776,407;24145,128;    0,277;    1,955
776,975;23730,266;   -0,632;    0,318
777,542;24742,222;   -1,086;   -0,045
778,110;24578,542;   -1,268;   -0,045
778,677;24260,407;   -2,359;   -0,864
779,244;24043,727;    2,186;    1,045
779,812;24139,593;    1,823;    0,864
780,379;23984,912;    0,005;    1,136
780,946;24264,869;    1,005;   -0,773
781,513;24574,370;   -1,450;    0,318
782,080;23944,599;   -0,086;    2,864
782,647;24660,919;   -0,268;    3,045
783,214;24238,330;   -0,177;    3,864
783,781;23862,559;   -0,723;   -0,682
784,348;23759,788;   -0,632;    1,500
784,915;24231,290;   -3,177;    0,318
785,482;24001,973;    1,368;    2,591
786,049;24376,293;    0,186;   -0,591
786,615;24491,704;    0,277;   -0,955
787,182;24293,206;    0,186;   -0,682
787,749;23982,889;   -2,814;    1,409
788,315;23288,300;   -1,632;   -0,409
788,882;23595,893;    1,550;   -1,227
789,448;24243,576;    1,732;   -0,955
790,015;24232,169;    1,095;    3,227
790,581;23849,580;    1,459;    0,227
791,148;23784,082;    0,641;    1,045
791,714;23938,311;   -0,541;    3,136
792,280;23684,085;    0,186;    1,591
792,847;23247,769;    0,550;    2,500
793,413;23794,452;   -0,269;   -0,318
793,979;23334,318;    3,459;   -1,318
794,545;23428,728;    4,459;    2,682
795,111;22831,048;    2,186;    1,318
795,678;23057,186;    0,731;   -1,682
796,244;22688,961;    3,368;    0,136
796,810;23204,917;    1,731;    0,773
797,375;22904,692;    0,549;   -2,136
797,941;22974,011;   -0,541;    0,591
798,507;23123,877;   -0,451;   -0,955
799,073;22685,742;   -0,360;    0,591
799,639;22770,335;   -2,632;    3,136
800,205;22777,382;    0,095;    2,682
800,770;22328,793;    0,640;    1,773
801,336;22399,476;    1,368;   -0,955
801,901;22120,160;    4,549;    3,136
802,467;22678,480;   -0,542;    2,045
803,033;22012,436;   -0,087;    0,864
803,598;22259,756;    1,913;   -1,045
804,163;22263,076;    1,095;   -0,318
804,729;22238,669;   -0,178;    1,136
805,294;22603,625;    0,822;    2,227
805,859;22364,945;    0,731;   -0,409
806,425;21864,992;    1,186;    2,682
806,990;21565,221;    2,186;    4,318
807,555;22022,723;   -1,451;    2,591
808,120;21926,315;    0,822;   -0,409
808,685;21972,635;    0,185;   -2,500
809,250;21515,228;    0,004;   -0,500
809,815;21818,548;    1,913;    0,682
810,380;22302,049;   -0,269;    1,591
810,945;22854,733;   -1,087;    2,045
811,510;22103,871;    2,094;    1,591
812,075;21752,009;   -0,633;   -1,409
812,640;21797,147;    2,003;    1,409
813,204;21894,013;    0,822;   -0,227
813,769;22342,514;    2,094;   -0,045
814,334;21748,289;    0,458;    0,864
814,898;21802,700;    0,367;    0,591
815,463;21666,292;    1,276;   -0,773
816,027;21639,885;   -0,724;   -2,318
816,592;21730,932;    0,640;   -2,045
817,156;21222,616;    2,094;    1,136
817,721;21083,481;    4,276;    2,318
818,285;21085,437;    2,912;    1,500
818,849;21752,030;   -1,451;    1,682
819,414;21620,350;   -0,269;    2,955
819,978;21226,124;   -1,269;    1,773
820,542;21779,990;    2,003;    0,500
821,106;21505,946;   -0,815;    0,682
821,670;21592,539;   -0,815;    2,591
822,234;21342,040;   -0,270;    1,409
822,798;20714,906;    0,003;    0,500
823,362;20675,135;   -0,633;    4,227
823,926;20033,545;    0,094;    1,136
824,490;20221,047;   -0,997;   -0,682
825,054;20622,367;   -0,088;   -1,136
825,618;20320,232;   -1,542;   -1,500
826,181;20228,007;    0,458;   -1,318
826,745;20137,509;    1,367;   -1,045
827,309;20500,101;    1,185;    1,318
827,872;19901,785;    1,367;    0,955
828,436;20857,014;    1,185;   -0,773
828,999;20918,516;   -0,997;    1,227
829,563;19765,017;   -0,179;    1,136
830,126;19580,428;   -0,179;   -0,591
830,690;19571,293;   -1,997;    2,864
831,253;19099,250;   -0,543;    2,227
831,816;19249,842;   -1,906;    0,500
832,380;19190,435;    0,185;    0,864
832,943;19428,573;   -1,361;   -0,500
833,506;18876,711;    2,639;   -1,227
834,069;19665,940;    3,912;   -0,955
834,632;19731,806;    1,730;    1,318
835,195;19599,762;    1,003;    0,955
835,758;18815,536;   -0,997;    1,955
836,321;18650,856;    0,730;   -1,045
836,884;18757,540;   -0,725;   -0,955
837,447;18838,860;   -2,816;    1,773
838,010;19088,452;    0,366;    3,227
838,573;19346,954;   -1,179;    0,773
839,135;19329,365;   -1,361;   -0,955
839,698;18762,503;    1,275;    0,409
840,261;18314,368;    1,003;   -0,227
840,823;18182,961;   -0,543;    0,864
841,386;18501,190;   -0,452;   -2,409
841,948;18378,783;   -1,361;    1,773
842,511;18142,557;    0,912;    1,682
843,073;18264,604;    1,912;    0,227
843,636;18062,742;   -0,361;   -0,227
844,198;17981,335;    0,911;    0,591
844,760;18066,564;    1,093;    1,955
845,322;17705,611;    0,548;    1,136
845,885;18154,386;    0,730;    0,591
846,447;18549,524;   -1,998;    0,227
847,009;18132,753;    1,911;   -0,682
847,571;18512,618;    0,820;   -2,045
848,133;18578,574;   -1,089;   -1,864
848,695;18414,440;   -0,543;    1,409
849,257;17950,032;   -1,089;   -1,682
849,819;18113,716;   -0,998;   -0,409
850,381;18163,763;   -0,725;   -0,864
850,942;18555,628;    1,093;   -0,591
851,504;18509,130;    1,184;    0,227
852,066;18534,723;    1,275;   -1,591
852,628;18124,224;   -0,180;    1,955
853,189;17652,999;    1,638;    2,682
853,751;17766,592;   -0,907;    1,409
854,312;17583,730;   -0,453;   -1,682
854,874;18095,050;   -2,089;   -0,773
855,435;18585,006;   -0,907;   -1,682
855,997;18714,962;   -1,816;   -0,136
856,558;18043,555;    0,366;    1,773
857,119;18135,420;    0,820;    2,864
857,681;17826,013;    0,002;    0,318
858,242;17855,605;    1,911;   -2,136
858,803;18321,289;    0,456;   -0,773
859,364;18906,972;    0,184;   -4,773
859,925;18240,747;   -2,453;   -0,955
860,486;18140,521;   -0,453;   -0,955
861,047;17855,387;   -0,544;   -1,227
861,608;17643,798;   -1,089;   -0,773
862,169;17761,936;    0,638;   -0,045
862,730;17567,074;    0,456;    1,409
863,291;17813,212;   -0,635;   -0,500
863,852;18170,168;   -0,635;    1,955
864,412;17671,761;   -0,271;   -0,864
864,973;16286,899;   -0,089;    0,500
865,534;16112,673;   -1,726;    0,227
866,094;17588,993;    1,820;    0,227
866,655;17242,859;    1,274;    3,318
867,215;17510,360;    0,274;    0,136
867,776;17382,862;    0,547;   -0,136
868,336;17463,182;   -1,453;    0,136
868,897;16926,411;    2,638;    1,682
869,457;16661,185;    1,365;    0,318
870,017;16954,323;    0,547;   -1,227
870,578;17470,371;   -0,817;    0,773
871,138;17103,509;   -2,089;   -0,955
871,698;16699,738;   -0,817;   -1,318
872,258;16582,239;   -0,453;   -2,864
872,818;16913,196;    2,729;    0,045
873,378;16884,607;    0,638;    1,045
873,938;16440,563;    0,547;    0,500
874,498;16812,519;    0,274;   -1,955
875,058;16699,475;    2,183;    1,773
875,618;16516,523;    1,910;   -2,682
876,177;16482,206;    1,274;    0,136
876,737;16082,708;   -0,090;    1,955
877,297;16060,573;    0,183;    1,955
877,856;16056,802;   -0,362;    0,318
878,416;16035,849;    1,183;   -0,136
878,976;16245,442;   -1,817;    0,409
879,535;16430,580;    0,092;    3,136
880,095;16167,809;   -0,544;    0,045
880,654;16250,856;   -1,090;    1,318
881,213;16314,903;    2,456;    1,500
881,773;15967,042;    2,637;    2,682
882,332;16292,998;    3,365;    5,136
882,891;16198,772;    3,092;    2,136
883,451;16675,910;   -1,272;    1,682
884,010;16132,685;   -2,908;   -0,409
884,569;16229,005;   -0,999;   -0,045
885,128;16379,143;    2,819;   -1,864
885,687;16430,190;    4,455;    0,682
886,246;16115,510;    1,455;    2,136
886,805;15849,739;    2,455;    2,045
887,364;16166,059;   -0,999;   -0,500
887,922;16560,197;   -1,181;    0,045
888,481;16040,517;   -1,545;    0,591
889,040;16314,382;    1,183;    2,136
889,599;16974,611;    2,455;    1,409
890,157;17048,749;    1,455;    2,409
890,716;16711,887;   -0,090;    0,227
891,274;16533,298;    0,092;   -1,136
891,833;16997,345;    1,546;    0,864
892,391;16900,302;   -0,454;    0,500
892,950;16914,349;    1,819;   -0,773
893,508;17327,305;    0,455;   -0,409
894,067;16691,080;    0,637;    0,136
894,625;16595,309;   -0,636;   -1,500
895,183;16827,174;   -0,363;   -0,682
895,741;16706,221;    1,728;   -1,773
896,299;16544,905;   -0,545;   -2,409
896,858;16716,497;    0,819;   -1,591
897,416;16856,726;    2,728;   -1,318
897,974;16588,773;    1,819;    0,318
898,532;16666,093;    6,091;    2,682
899,089;16658,959;    2,091;   -0,682
899,647;16727,551;   -1,454;    1,318
900,205;16415,689;    1,182;    1,045
900,763;16609,373;   -0,454;    0,227
901,321;16615,875;    2,364;   -1,409
901,878;16071,649;   -1,000;   -0,773
902,436;15960,696;   -1,363;    1,318
902,994;16314,016;    4,728;    3,682
903,551;15742,336;    0,728;    0,409
904,109;16131,020;    0,182;   -1,409
904,666;15754,340;    2,455;    1,045
905,224;15599,569;    0,182;   -0,409
905,781;15326,434;    0,727;   -0,318
906,338;15431,117;   -1,363;    1,045
906,895;15349,801;    0,637;    2,045
907,453;15288,212;    1,727;    1,136
908,010;15318,532;   -0,909;    0,409
908,567;14953,488;    1,273;    0,591
909,124;14478,717;    0,364;   -1,500
909,681;14560,037;   -2,909;    0,682
910,238;14708,448;    0,636;   -1,318
910,795;15023,313;   -0,273;   -1,136
911,352;14646,040;   -2,909;   -2,682
911,909;14056,040;   -1,364;   -0,864
912,466;14599,859;   -3,182;    1,500
913,022;14151,495;   -1,636;    0,500
913,579;14499,495;   -0,909;    2,045
914,136;14201,222;    1,636;    0,955
914,692;14537,404;    0,091;   -1,227
915,249;14123,586;    1,455;    0,409
915,806;14386,131;    0,182;    1,955
916,362;14126,677;    1,909;    1,864
916,918;13693,313;    2,000;    1,045
917,475;13628,131;   -1,182;    0,955
918,031;13730,222;    3,364;   -0,045
918,587;13210,586;   -0,909;   -0,318
919,144;13419,768;   -2,273;    0,227
919,700;13717,768;    1,727;    0,773
920,256;13295,495;    0,727;    0,045
920,812;12939,222;   -0,727;   -1,045
921,368;12929,404;   -1,727;   -1,045
921,924;12573,131;    0,182;   -0,136
922,480;12153,222;   -0,545;    1,227
923,036;12746,313;    1,273;    1,955
923,592;12676,586;    0,455;    0,318
924,148;12606,586;    0,455;   -0,955
924,704;11940,495;   -1,364;   -0,409
925,259;12210,677;   -0,273;    0,591
925,815;11967,949;    1,455;    0,500
926,371;11477,131;    2,909;    1,409
926,926;11398,949;    2,091;    0,591
927,482;11062,677;   -1,364;    0,773
928,037;10937,859;    0,909;    2,045
928,593;11189,404;    1,636;    1,045
929,148;11019,586;   -1,818;   -1,500
929,704;10542,949;   -1,455;   -0,500
930,259;10781,040;    0,091;   -0,136
930,814; 9836,404;   -0,818;    1,955
931,369; 9535,677;    1,091;   -0,773
931,925; 9463,677;   -0,091;    0,136
932,480; 9371,949;   -2,818;   -2,591
933,035; 9233,949;    0,545;   -0,318
933,590; 8974,131;    0,364;   -1,773
934,145; 8645,677;   -1,364;   -0,318
934,700; 8985,949;    0,455;   -0,591
935,255; 8812,404;   -0,091;    0,045
935,809; 8091,131;    3,182;    0,864
936,364; 7269,131;   -0,455;   -0,136
936,919; 7222,768;    0,455;   -1,773
937,474; 7138,859;    1,455;    0,136
938,028; 6872,131;   -1,636;    1,136
938,583; 6364,313;    1,818;    4,682
939,138; 6652,313;    2,091;    2,136
939,692; 6102,222;    1,636;   -1,136
940,247; 5813,222;   -0,727;   -1,045
940,801; 5381,768;   -0,636;    0,227
941,355; 5271,222;   -0,364;    2,591
941,910; 4937,677;   -0,273;   -2,136
942,464; 5031,586;   -0,818;   -0,318
943,018; 4831,859;    1,000;   -0,227
943,572; 4787,131;    2,545;   -0,682
944,126; 4218,677;    0,091;   -0,409
944,681; 4105,404;    3,091;    0,227
945,235; 4097,586;    1,000;   -0,591
945,789; 4026,859;    0,364;   -1,864
946,342; 4125,040;    0,455;   -0,591
946,896; 3948,404;   -2,273;    0,955
947,450; 3720,404;    1,545;   -0,227
948,004; 3903,677;    1,727;   -0,045
948,558; 3891,040;    0,273;   -0,864
949,111; 3815,040;   -0,273;   -0,318
949,665; 3850,677;    1,636;   -0,682
950,219; 3727,949;   -0,091;   -1,045
950,772; 3802,859;   -1,909;    1,864
951,326; 3715,677;    0,545;   -0,955
951,879; 3821,859;    0,727;   -2,318
952,433; 3835,495;    0,000;    2,227
952,986; 3667,586;    2,909;    0,682
953,539; 3639,131;   -0,273;    0,591
954,093; 3565,313;    0,545;   -1,318
954,646; 3680,495;    0,909;    1,318
955,199; 3497,586;    0,000;   -0,500
955,752; 3403,677;   -0,455;    1,773
956,305; 3364,131;   -0,091;    2,955
956,858; 3515,040;    0,818;   -0,318
957,411; 3682,495;   -0,545;    2,136
957,964; 3492,495;    1,364;    2,136
958,517; 3513,768;   -1,545;    3,136
959,070; 3339,040;   -0,455;    1,955
959,623; 3420,222;    1,091;    1,500
960,176; 3193,313;    1,727;    2,045
960,728; 3177,768;   -2,727;    0,773
961,281; 3236,586;    0,545;    0,500
961,834; 3275,949;   -0,909;    0,864
962,386; 3208,586;    1,727;    1,045
962,939; 3131,677;    0,364;   -0,318
963,491; 3249,040;    0,455;    1,136
964,043; 3136,495;    1,182;    2,409
964,596; 3258,040;   -1,000;    2,227
965,148; 3095,313;   -1,000;    1,773
965,700; 3024,131;    1,091;   -0,227
966,253; 3172,404;   -0,636;    0,318
966,805; 3018,404;   -2,273;    0,773
967,357; 3061,768;    1,091;   -1,500
967,909; 3023,859;    0,455;   -1,227
968,461; 3124,040;    0,545;    3,136
969,013; 3061,404;   -0,182;   -0,864
969,565; 3132,859;   -0,455;   -1,136
970,117; 3208,677;   -0,364;    1,045
970,669; 3034,949;    0,182;   -0,136
971,220; 2906,859;   -0,455;   -1,500
971,772; 2845,495;   -0,636;   -0,318
972,324; 2962,859;    0,091;   -0,500
972,876; 2899,949;    0,818;   -0,045
973,427; 3027,131;    1,909;   -1,045
973,979; 3000,404;   -0,727;   -2,500
974,530; 3039,586;    1,818;    1,318
975,082; 3054,586;   -0,545;    1,682
975,633; 2958,131;    1,091;    1,682
976,184; 3093,949;    0,909;    0,773
976,736; 2888,586;    0,091;    0,227
977,287; 2683,768;   -0,909;   -0,500
977,838; 2856,040;    0,909;   -0,318
978,389; 2936,768;   -1,000;   -0,500
978,940; 2797,040;    0,545;   -0,409
979,491; 2833,040;    0,091;   -0,500
980,042; 2789,677;    0,182;    3,045
980,593; 2820,495;   -2,545;    0,227
981,144; 2886,586;    2,545;   -0,500
981,695; 2866,040;    1,455;    1,500
982,246; 2816,313;   -0,273;    1,045
982,797; 2956,404;   -1,727;    0,682
983,347; 3067,313;    0,364;    0,591
983,898; 3241,495;    3,091;    0,409
984,449; 3068,768;    2,182;    0,773
984,999; 2969,859;    1,455;   -1,136
985,550; 2775,768;    0,182;   -0,318
986,100; 2803,768;   -0,455;   -0,318
986,651; 2838,768;   -0,818;    0,045
987,201; 2814,404;   -1,000;   -0,591
987,751; 2896,949;    0,818;    2,864
988,302; 2892,404;    2,636;    1,500
988,852; 2907,404;    0,455;   -1,136
989,402; 2947,404;    0,091;    0,682
989,952; 2857,404;   -2,182;    0,864
990,502; 2946,222;   -0,091;    0,682
991,052; 2918,222;   -0,727;    0,045
991,602; 2797,404;   -2,909;    1,318
992,152; 2799,677;    0,455;    0,682
992,702; 2778,677;    1,364;   -0,045
993,252; 2699,768;   -3,000;   -0,500
993,802; 2785,040;   -0,273;    1,318
994,352; 3027,768;   -1,545;    1,136
994,901; 3113,313;   -0,182;    3,227
995,451; 3025,313;   -0,182;    0,318
996,000; 3118,313;    1,636;    0,318
996,550; 2828,768;    2,273;    0,227
997,100; 2815,677;    1,273;   -0,045
997,649; 3095,949;    2,182;    0,955
998,198; 2761,040;    1,727;   -1,500
998,748; 2931,313;    1,091;   -2,318
999,297; 2860,859;   -0,818;   -0,409
999,846; 2921,677;    1,000;   -0,773
1000,395; 2947,040;   -0,818;    0,500
1000,945; 2903,586;    1,818;   -0,773
1001,494; 3022,949;    2,364;    0,682
1002,043; 3000,677;    4,636;    0,864
1002,592; 2841,040;   -1,091;    1,955
1003,141; 2967,313;   -0,455;   -0,682
1003,690; 2832,404;    1,727;    0,500
1004,238; 2929,222;    1,455;   -0,045
1004,787; 2576,495;    1,364;    1,227
1005,336; 2793,859;    0,364;    0,682
1005,885; 2934,949;    1,364;   -2,773
1006,433; 3087,313;    0,545;    0,955
1006,982; 3142,131;    0,455;    1,682
1007,531; 3024,768;   -1,818;   -0,227
1008,079; 2990,677;   -2,273;    0,500
1008,627; 3153,404;   -1,455;    0,409
1009,176; 2896,677;    0,000;   -1,955
1009,724; 2923,949;    1,091;    0,864
1010,273; 2980,313;    1,273;    0,500
1010,821; 3102,586;    0,091;    1,409
1011,369; 2838,677;   -1,364;    1,318
1011,917; 2822,859;   -1,364;   -0,591
1012,465; 3082,131;    1,273;   -1,591
1013,013; 3204,040;    2,091;   -1,682
1013,561; 3074,586;    0,455;   -0,773
1014,109; 3108,404;   -1,909;    1,682
1014,657; 2997,040;    0,364;    0,591
1015,205; 3133,586;    1,636;   -0,955
1015,753; 3157,586;   -0,545;   -1,409
1016,301; 3198,949;   -2,636;    3,045
1016,848; 3190,222;   -1,273;    0,409
1017,396; 3241,040;    2,545;    0,045
1017,944; 3373,677;    1,182;    1,864
1018,491; 3129,495;    0,273;    1,409
1019,039; 3255,131;    0,455;    0,591
1019,586; 3192,222;   -1,364;    1,682
1020,134; 3301,859;    0,455;    1,500
1020,681; 3304,949;    0,182;   -1,136
1021,228; 3305,859;    2,909;   -2,227
1021,776; 3153,677;    1,182;   -1,136
1022,323; 3377,677;    0,455;    0,773
1022,870; 3301,040;   -1,000;   -0,045
1023,417; 3211,040;    2,636;    1,864
1023,964; 3337,222;    2,636;    1,227
1024,511; 3199,586;    1,000;    0,773
1025,058; 3010,040;    3,182;   -0,045
1025,605; 3037,222;   -2,273;    3,136
1026,152; 3276,677;    1,727;   -0,591
1026,699; 2995,859;    1,818;    1,318
1027,245; 3176,677;   -0,091;    0,318
1027,792; 3377,677;   -1,000;    1,409
1028,339; 3248,131;    2,364;   -0,045
1028,885; 3105,404;    1,000;   -0,227
1029,432; 3045,040;   -0,091;    0,227
1029,978; 3114,222;   -1,000;   -1,591
1030,525; 3024,677;    1,000;    0,409
1031,071; 3277,677;   -1,364;    1,136
1031,618; 3369,222;    0,364;    1,682
1032,164; 3161,313;   -0,091;    3,045
1032,710; 3208,859;    1,636;   -1,500
1033,256; 3124,586;   -0,636;   -0,136
1033,803; 3113,404;   -0,545;    1,500
1034,349; 2832,131;   -1,364;    0,136
1034,895; 2985,040;    0,000;   -0,318
1035,441; 2970,222;   -0,818;    0,318
1035,987; 2976,677;   -2,364;   -0,682
1036,533; 2979,949;   -1,455;   -0,955
1037,078; 3160,404;    1,455;    1,682
1037,624; 2986,040;    2,455;   -0,955
1038,170; 3025,586;    0,455;   -0,318
1038,716; 2919,222;    1,636;   -0,409
1039,261; 2841,949;   -2,273;   -0,773
1039,807; 2786,495;   -0,091;    3,409
1040,352; 2868,404;   -1,909;   -0,318
1040,898; 2903,586;   -1,545;   -0,682
1041,443; 2799,859;   -1,455;   -2,591
1041,989; 2812,495;    1,091;    1,591
1042,534; 2712,040;   -0,364;    2,591
1043,079; 2832,313;    2,909;    0,955
1043,625; 2626,313;    1,818;    0,500
1044,170; 2670,586;   -1,364;    1,045
1044,715; 2926,677;    2,455;    0,955
1045,260; 2743,222;    2,182;   -0,955
1045,805; 2779,131;    1,182;   -0,591
1046,350; 2716,859;    1,364;   -0,409
1046,895; 2669,131;    2,909;    1,591
1047,440; 2612,768;    5,364;    0,409
1047,985; 2525,222;    2,818;   -0,955
1048,530; 2445,949;    1,545;    1,227
1049,074; 2506,404;    0,000;    0,318
1049,619; 2479,768;   -1,364;    1,955
1050,164; 2301,404;    0,455;    0,227
1050,708; 2340,040;   -0,455;    0,045
1051,253; 2699,768;    1,273;   -2,227
1051,797; 2412,313;    0,818;   -1,318
1052,342; 2432,404;   -1,182;    1,045
1052,886; 2421,586;    0,364;   -1,409
1053,430; 2318,040;   -1,364;    0,136
1053,975; 2322,949;   -0,818;   -0,318
1054,519; 2295,040;   -0,727;    3,227
1055,063; 2310,949;    0,909;    1,318
1055,607; 2194,131;   -0,182;    0,227
1056,151; 2224,313;    2,909;    1,682
1056,695; 2144,495;    2,273;   -1,136
1057,239; 2215,222;   -1,727;   -0,682
1057,783; 2210,586;    0,818;   -1,500
1058,327; 2164,222;    0,000;    1,409
1058,871; 2385,131;   -0,545;    1,318
1059,415; 2105,949;   -0,818;   -0,045
1059,958; 2356,677;    1,455;    2,591
1060,502; 2084,131;   -1,000;   -0,773
1061,046; 1991,313;    0,364;   -0,955
1061,589; 1982,222;   -3,000;   -1,136
1062,133; 1870,859;   -1,273;    1,864
1062,676; 1794,586;    1,182;    0,864
1063,220; 1795,131;    1,091;    0,500
1063,763; 1825,040;    0,909;    1,136
1064,306; 1892,859;   -0,909;    1,864
1064,849; 1786,495;   -0,909;    0,591
1065,393; 1792,222;    2,000;   -1,500
1065,936; 1887,859;    0,182;   -0,409
1066,479; 1791,949;   -1,455;    1,318
1067,022; 1798,677;   -0,273;   -0,227
1067,565; 1712,222;   -0,091;   -1,318
1068,108; 1744,222;    0,727;   -0,591
1068,651; 1712,131;   -0,636;    1,409
1069,194; 1641,222;   -0,455;   -1,682
1069,736; 1628,040;   -1,273;    0,955
1070,279; 1603,131;   -1,364;   -0,500
1070,822; 1665,495;   -2,000;   -0,318
1071,364; 1750,768;   -0,364;    1,318
1071,907; 1568,131;   -0,727;    3,227
1072,450; 1488,677;    0,000;   -0,045
1072,992; 1470,040;   -0,273;    3,136
1073,535; 1604,313;    2,091;    2,136
1074,077; 1413,677;   -0,727;    2,045
1074,619; 1369,949;   -1,364;    0,591
1075,161; 1404,586;   -1,091;    1,500
1075,704; 1590,677;    1,545;    1,227
1076,246; 1401,677;   -0,182;    0,682
1076,788; 1312,222;   -0,364;    1,773
1077,330; 1390,313;    1,273;    2,136
1077,872; 1355,859;    0,909;    0,955
1078,414; 1569,949;    2,727;    0,773
1078,956; 1321,677;    1,273;   -0,227
1079,498; 1577,131;    1,636;    0,318
1080,040; 1282,949;    1,909;   -1,318
1080,581; 1215,859;    1,636;   -0,318
1081,123; 1145,768;    0,091;   -0,773
1081,665; 1201,040;   -1,182;   -0,955
1082,206; 1477,768;    1,364;   -0,500
1082,748; 1350,949;    0,727;    2,045
1083,289; 1224,768;   -2,000;    1,318
1083,831; 1140,677;   -0,545;    0,227
1084,372; 1168,859;    0,000;    0,591
1084,913; 1174,859;    1,091;    0,864
1085,455; 1156,313;   -1,909;   -2,045
1085,996; 1127,859;   -2,273;    0,136
1086,537; 1142,768;   -0,091;    0,864
1087,078; 1164,040;   -0,909;   -2,136
1087,619; 1202,586;   -1,273;    0,227
1088,160; 1134,040;    0,000;    1,318
1088,701; 1124,768;   -1,091;    0,682
1089,242; 1060,677;    1,364;   -2,227
1089,783; 1143,222;   -0,273;    1,409
1090,324; 1115,859;    0,455;    0,682
1090,865; 1003,222;    2,727;   -0,409
1091,405;  966,313;    0,727;    2,227
1091,946;  993,040;    0,182;   -0,955
1092,487;  931,040;    0,818;   -1,409
1093,027; 1084,949;   -1,364;   -1,500
1093,568;  929,859;   -0,364;    1,227
1094,108; 1024,859;    0,273;    1,773
1094,649;  963,859;   -1,182;    0,136
1095,189;  904,859;   -0,636;   -0,682
1095,729;  850,313;   -0,091;    0,955
1096,269;  857,040;    0,727;   -0,955
1096,810; 1174,313;   -1,364;    0,500
1097,350;  999,313;    1,364;   -0,773
1097,890;  899,131;    0,364;    1,227
1098,430; 1159,586;    2,364;    2,864
1098,970; 1037,222;    2,182;    1,682
1099,510;  898,586;    0,545;   -2,318
1100,050;  816,404;    1,000;   -1,591
1100,589;  777,586;   -0,727;   -0,318
1101,129;  908,222;    0,818;   -0,955
1101,669; 1066,768;    1,727;    2,136
1102,209;  890,768;   -0,091;    2,227
1102,748;  845,677;    0,000;    0,955
1103,288;  833,040;    1,273;   -1,227
1103,827;  860,586;    3,091;   -2,227
1104,367;  734,495;   -0,091;   -2,409
1104,906;  700,495;    1,364;   -1,136
1105,445;  773,404;    0,636;   -1,136
1105,985;  712,404;   -0,727;    1,500
1106,524;  757,859;   -1,727;   -0,682
1107,063;  725,495;   -2,727;    1,409
1107,602;  705,313;   -1,909;   -1,500
1108,141;  639,222;   -1,909;    1,500
1108,680;  736,404;   -3,455;   -0,591
1109,219;  673,586;   -0,909;   -0,500
1109,758;  673,313;    0,455;    0,682
1110,297;  645,040;    1,000;   -0,682
1110,836;  588,222;   -0,727;    0,955
1111,375;  751,859;   -2,545;    0,409
1111,913;  763,586;   -1,000;    0,773
1112,452;  696,495;   -0,273;    0,136
1112,991;  575,222;    1,091;    1,955
1113,529;  540,586;   -0,818;   -0,045
1114,068;  609,313;   -0,273;    2,955
1114,606;  514,586;   -0,364;   -0,955
1115,144;  674,222;   -1,273;    1,045
1115,683;  611,586;   -0,727;    0,318
1116,221;  664,313;   -0,455;   -0,864
1116,759;  578,404;    0,636;   -0,864
1117,297;  768,404;    0,000;    1,864
1117,836;  579,222;   -2,182;   -1,227
1118,374;  580,949;    0,182;   -0,682
1118,912;  526,131;    0,909;    2,682
1119,450;  513,677;    1,000;    0,864
1119,988;  564,586;    1,545;    2,136
1120,525; 1010,495;    5,091;    3,318
1121,063;  714,495;    1,182;    1,864
1121,601;  517,859;   -0,909;   -1,227
1122,139;  476,768;   -0,727;   -2,045
1122,676;  671,222;   -0,727;    2,773
1123,214;  598,222;   -1,182;    4,409
1123,751;  409,586;    1,727;    2,227
1124,289;  556,222;   -0,091;   -0,409
1124,826;  420,677;    1,727;    0,227
1125,364;  346,222;    1,727;   -0,955
1125,901;  528,859;    1,182;    1,227
1126,438;  644,949;    0,818;    0,955
1126,975;  376,768;   -0,727;   -0,773
1127,513;  444,131;    0,273;    2,136
1128,050;  351,949;    1,636;   -0,682
1128,587;  451,768;    2,000;   -0,227
1129,124;  484,313;    0,091;    1,318
1129,661;  351,949;    0,273;    0,227
1130,198;  523,040;    1,636;    0,773
1130,734;  474,313;    0,182;    1,409
1131,271;  325,040;   -0,909;    0,864
1131,808;  491,677;    2,909;    3,045
1132,345;  376,949;    1,545;    0,318
1132,881;  252,495;   -1,545;   -1,864
1133,418;  381,859;    0,727;   -1,136
1133,954;  320,768;    2,455;   -2,682
1134,491;  394,040;    1,364;   -0,773
1135,027;  295,222;    2,364;    0,864
1135,564;  385,949;    0,273;    2,955
1136,100;  373,586;    0,364;    2,136
1136,636;  259,222;   -1,273;   -1,045
1137,172;  352,495;    0,000;   -1,045
1137,708;  277,313;   -1,364;   -1,045
1138,245;  275,404;    1,273;   -1,227
1138,781;  228,313;    1,091;   -3,318
1139,317;  298,495;    1,273;   -1,409
1139,852;  286,859;    3,091;    0,136
1140,388;  403,495;   -1,182;   -0,409
1140,924;  285,222;   -1,091;   -2,227
1141,460;  230,404;   -1,636;    0,136
1141,996;  166,040;   -1,364;    2,682
1142,531;  215,859;    1,364;    3,318
1143,067;  422,495;    1,182;    1,045
1143,602;  474,586;   -0,091;   -0,318
1144,138;  320,495;   -2,636;    1,045
1144,673;  190,677;   -1,455;    1,409
1145,209;  256,040;   -1,909;   -0,318
1145,744;  183,495;   -0,727;    0,864
1146,279;  320,768;    1,818;   -0,136
1146,815;  230,586;    1,545;   -2,682
1147,350;  269,677;   -1,364;    0,045
1147,885;  182,313;   -0,818;   -1,318
1148,420;  187,949;   -2,273;    0,773
1148,955;  164,677;   -1,727;    1,864
1149,490;  187,040;   -0,909;   -1,591
1150,025;  170,040;    0,455;   -1,773
1150,560;  283,949;    1,091;   -0,955
1151,094;  251,404;    1,455;   -0,591
1151,629;  254,859;    1,636;    0,864
1152,164;  186,677;    1,364;    1,318
1152,698;  141,404;   -0,182;   -0,136
1153,233;  102,949;    0,091;   -0,682
1153,767;  151,495;   -3,000;   -2,318
1154,302;  195,040;   -1,455;    1,773
1154,836;  193,495;   -0,455;   -2,136
1155,371;  251,222;   -1,364;    3,682
1155,905;  196,586;   -0,636;    1,682
1156,439;  164,313;   -0,636;   -0,500
1156,973;  198,131;    0,364;    0,318
1157,507;  138,313;   -0,364;    0,682
1158,042;  161,677;   -0,727;    1,045
1158,576;  210,586;    0,182;    1,773
1159,110;  197,131;   -0,818;    2,409
1159,643;  175,586;    0,636;   -0,045
1160,177;  114,768;   -1,545;    1,500

