
Integration time [ms]:   0,040
Averaging Nr. [scans]: 11
Smoothing Nr. [pixels]: 0
Data measured with spectrometer [name]: 7318044SP
Wave   ;Sample   ;Dark     ;Reference
[nm]   ;[counts] ;[counts] ;[counts] 

186,757;   28,198;   31,551;    1,318
187,357;   54,844;   22,551;    0,955
187,958;   31,089;   15,460;   -1,591
188,558;   77,560;    8,915;   -1,227
189,159;   46,573;    6,733;   -4,500
189,759;   16,451;    7,278;   -3,591
190,360;   12,841;    2,824;   -2,136
190,960;   45,441;    2,915;   -4,136
191,560;   59,848;    3,189;   -6,591
192,161;  285,625;    4,372;   -3,500
192,761;  143,380;    4,010;   -3,227
193,361;   95,668;    1,556;   -3,773
193,962;  151,878;    2,010;   -2,682
194,562;   73,477;    1,189;   -3,955
195,162;   98,396;   -2,448;   -2,227
195,762;  257,110;   -3,176;   -0,045
196,362;  205,393;    1,370;   -2,500
196,963;   86,800;    2,006;   -0,864
197,563;  149,470;    1,551;   -0,955
198,163;   94,892;    0,096;   -0,682
198,763;  109,364;    1,733;   -0,500
199,363;  204,427;    3,096;   -0,500
199,963;  175,180;    0,369;    0,409
200,563;  148,402;    2,823;   -1,409
201,163;  128,446;    3,277;   -0,227
201,763;  213,351;    3,732;    0,318
202,363;  154,600;    1,459;    1,500
202,963;  266,765;    1,459;    1,045
203,563;  371,060;    0,277;    0,500
204,162;  225,790;    2,096;   -1,864
204,762;  211,461;    0,550;    0,591
205,362;  187,507;    3,004;    1,955
205,962;  280,354;    3,096;    1,955
206,562;  279,440;    1,823;    2,318
207,161;  254,075;   -0,087;    0,318
207,761;  406,834;    1,277;    2,409
208,361;  282,155;   -0,268;    1,409
208,960;  378,679;    0,459;    1,500
209,560;  451,009;    1,277;    1,591
210,160;  436,634;    0,550;    1,864
210,759;  400,747;    4,186;    1,227
211,359;  408,021;    1,459;    1,045
211,958;  670,636;    1,277;    2,045
212,558;  742,631;    1,732;    1,864
213,157;  577,278;    1,822;    1,500
213,757; 1013,207;    3,822;   -0,227
214,356;  714,134;    1,277;   -0,409
214,956; 1051,262;    3,095;    0,409
215,555;  687,120;    2,095;    2,136
216,154;  628,060;   -2,723;   -0,591
216,754;  628,786;    0,277;    0,773
217,353;  765,738;   -0,268;   -1,045
217,952;  631,016;   -0,178;    0,318
218,552;  863,744;    1,368;   -0,773
219,151;  766,420;    0,277;    0,955
219,750;  757,769;    0,004;   -0,227
220,349;  869,808;   -0,451;    1,045
220,948;  940,001;   -1,360;    1,136
221,548;  950,739;    0,913;    1,227
222,147; 1062,493;   -0,087;   -0,409
222,746; 1345,635;   -0,451;   -0,955
223,345; 1213,821;    0,731;    0,500
223,944; 1227,775;   -0,451;    0,773
224,543; 1397,492;    1,004;   -1,409
225,142; 1511,170;    0,094;    0,136
225,741; 1403,659;   -0,814;    1,045
226,340; 1411,057;   -0,451;   -0,955
226,939; 1834,037;   -0,996;   -0,136
227,538; 1777,596;   -0,360;   -0,773
228,137; 1932,272;   -0,814;    0,864
228,735; 2062,271;   -0,541;    1,227
229,334; 1821,270;   -0,905;   -0,227
229,933; 2176,969;    0,459;    0,591
230,532; 2280,141;    1,186;   -0,409
231,131; 2321,347;    1,732;    0,318
231,729; 2461,329;   -2,450;   -2,318
232,328; 2554,296;   -0,723;   -1,500
232,927; 2597,494;    1,004;   -0,500
233,525; 2715,558;    3,640;    0,045
234,124; 2929,656;    2,368;   -1,591
234,723; 2936,026;    0,913;   -1,045
235,321; 3071,736;    2,277;    0,136
235,920; 3264,329;    1,186;   -1,227
236,518; 3516,493;    3,459;    0,318
237,117; 3686,527;    0,004;   -0,227
237,715; 3844,967;    0,640;   -0,500
238,314; 3869,416;   -0,087;   -2,318
238,912; 3983,265;   -0,723;   -1,409
239,510; 4013,080;    0,459;   -1,227
240,109; 4186,700;    0,004;    3,773
240,707; 4218,855;   -0,996;    1,227
241,305; 4574,982;    0,550;    0,136
241,904; 4774,982;   -0,178;   -2,045
242,502; 4745,621;   -0,632;   -0,227
243,100; 4712,693;   -0,087;   -0,955
243,698; 4960,497;    0,732;    1,682
244,297; 5126,998;   -0,632;    0,682
244,895; 4971,189;   -0,269;   -2,318
245,493; 5282,530;    2,186;   -0,591
246,091; 5341,314;    1,368;   -1,318
246,689; 5320,768;    1,004;    0,591
247,287; 5481,464;    0,822;   -1,136
247,885; 5758,571;   -1,451;    1,227
248,483; 5870,069;    1,822;   -0,500
249,081; 5991,555;    0,185;    1,591
249,679; 6147,764;   -0,178;    1,682
250,277; 6403,656;   -1,723;    0,864
250,875; 6415,512;   -1,087;   -1,045
251,473; 6440,559;   -1,178;    0,500
252,071; 6625,341;    1,459;    1,045
252,669; 6779,048;   -1,814;    0,318
253,267; 7044,257;   -0,087;    0,773
253,864; 6980,555;   -0,360;    0,682
254,462; 6866,841;    1,640;    1,591
255,060; 6847,019;   -0,269;    1,318
255,658; 7156,230;    0,822;   -0,136
256,255; 7544,099;    0,186;   -2,045
256,853; 7432,025;   -0,269;    1,409
257,451; 7425,619;    0,822;    1,864
258,048; 7701,797;    1,822;    1,864
258,646; 7458,840;    1,731;   -1,045
259,243; 7633,116;   -0,087;    2,227
259,841; 7691,472;   -0,814;    0,318
260,438; 7584,541;   -0,087;    0,864
261,036; 8317,757;   -1,905;    1,409
261,633; 8209,777;   -0,087;    2,227
262,231; 7980,440;    2,731;   -0,045
262,828; 8050,296;   -0,905;    1,136
263,425; 8106,250;    0,913;   -0,591
264,023; 8345,382;    0,186;    0,045
264,620; 7913,839;   -0,360;   -0,318
265,217; 8250,321;   -2,087;    3,136
265,815; 8379,190;   -1,905;    2,136
266,412; 8149,505;    0,731;    0,136
267,009; 8181,073;   -1,451;    0,773
267,606; 8102,204;    0,822;   -0,955
268,203; 8092,427;   -0,269;   -0,591
268,801; 8384,896;    1,731;    0,591
269,398; 8666,694;   -0,360;    2,500
269,995; 8639,387;    0,277;    1,591
270,592; 8409,573;   -0,632;   -0,500
271,189; 8607,634;    0,186;    0,409
271,786; 8695,463;   -0,632;    1,227
272,383; 8552,122;   -1,087;    0,227
272,980; 8742,680;    0,277;    0,318
273,577; 9180,291;    0,004;    1,227
274,174; 8751,416;    0,822;    2,591
274,771; 8735,411;   -0,814;   -0,773
275,367; 8874,836;    2,277;    1,409
275,964; 8847,270;    0,731;   -0,500
276,561; 8939,686;    1,549;   -1,045
277,158; 9143,037;    0,095;   -1,773
277,755; 9282,828;    2,185;    0,409
278,351; 8679,021;   -0,451;   -1,500
278,948; 9011,524;   -0,815;    0,045
279,545; 8975,454;   -1,360;    2,318
280,141; 9607,798;   -1,723;   -2,045
280,738; 9468,592;   -0,451;   -0,136
281,334; 9709,058;   -1,633;    0,591
281,931; 9122,963;   -0,087;   -1,318
282,528; 9276,717;    0,822;   -0,500
283,124; 9931,750;   -1,087;   -0,500
283,721; 9816,778;   -0,451;    1,409
284,317; 9655,116;    0,185;    2,500
284,913;10200,476;   -1,360;    0,591
285,510;10376,749;    0,640;   -0,318
286,106;10439,981;   -2,269;   -0,955
286,703;10051,036;   -0,360;    1,955
287,299;10259,291;   -1,451;   -0,591
287,895;10440,960;    0,822;   -1,045
288,491;11007,149;    0,186;    2,136
289,088;10739,671;   -2,360;    2,409
289,684;10792,593;   -1,723;    1,500
290,280;10816,613;    0,368;    0,682
290,876;10917,625;    1,822;    5,500
291,472;10814,795;    1,276;    2,227
292,068;10870,891;    1,367;    0,227
292,665;10612,745;    2,095;    0,773
293,261;10285,454;    0,276;    2,136
293,857;10656,521;    2,913;    2,136
294,453;10567,786;    3,550;    0,955
295,049;10478,622;   -0,268;    1,955
295,644;10524,977;    0,095;    0,136
296,240;10426,933;   -0,905;   -0,136
296,836;10490,006;   -0,995;    0,318
297,432;10732,750;    1,096;   -0,500
298,028;10747,356;    0,732;    0,773
298,624;11173,191;    1,459;    1,864
299,220;11433,426;    2,368;    0,591
299,815;11106,133;    1,005;   -0,409
300,411;10905,440;    0,914;    1,773
301,007;10893,354;    1,368;    0,227
301,602;10955,250;   -0,541;   -2,318
302,198;11116,801;    0,732;   -0,773
302,794;11461,120;    1,187;   -0,500
303,389;11582,122;   -1,177;    1,045
303,985;11660,640;    0,550;    1,409
304,580;11573,119;    1,459;    1,591
305,176;11562,864;   -3,086;    0,136
305,771;11494,356;   -1,268;   -1,227
306,367;11305,059;    4,095;    0,136
306,962;11680,250;    0,641;    1,500
307,558;11430,098;   -0,450;    0,136
308,153;11362,865;    1,095;   -1,136
308,748;11602,648;   -0,814;    1,682
309,344;11549,907;   -0,632;   -1,318
309,939;11648,385;   -1,905;   -1,318
310,534;11916,146;   -0,086;   -1,682
311,130;11844,709;    0,459;   -2,500
311,725;11601,352;    1,004;   -0,500
312,320;11921,221;    2,459;    0,045
312,915;11709,238;    1,459;   -1,045
313,510;11792,474;    1,550;   -0,500
314,105;12292,448;    1,096;    1,409
314,700;11728,545;   -3,086;   -1,045
315,295;11372,846;   -0,904;    0,045
315,890;10929,430;    1,277;    0,864
316,485;11306,263;   -0,359;   -0,318
317,080;11403,434;   -3,086;    1,591
317,675;11945,586;    2,005;   -0,682
318,270;11356,986;    5,550;    3,318
318,865;11386,895;    3,278;    3,045
319,460;11258,129;   -0,904;    0,591
320,055;11486,221;   -0,541;   -1,227
320,650;11129,459;   -1,995;   -0,591
321,244;11192,679;   -0,177;   -1,409
321,839;12105,093;   -1,541;   -0,227
322,434;11949,585;   -1,086;   -1,591
323,029;11596,475;    1,732;    1,591
323,623;11417,466;    1,550;    0,773
324,218;11222,652;    2,368;    1,409
324,812;11074,121;    1,096;    1,591
325,407;10888,129;   -0,814;    2,045
326,002;10791,191;    0,277;   -0,409
326,596;11101,088;    0,914;    1,318
327,191;11309,732;    0,823;   -1,045
327,785;10925,088;   -0,813;   -0,227
328,379;11128,126;    1,368;    0,136
328,974;10897,066;    0,914;   -3,955
329,568;11121,607;    0,186;   -2,409
330,163;10952,689;    2,096;    1,045
330,757;11309,235;    2,459;    1,591
331,351;10644,984;    0,459;    0,682
331,945;10963,210;    0,914;    1,409
332,540;10545,166;   -1,723;   -0,591
333,134;10711,660;   -1,086;    0,773
333,728;10948,045;    0,005;    0,318
334,322;11287,064;   -1,177;   -0,864
334,916;10572,639;    0,277;    0,955
335,510;10904,649;   -0,450;   -0,136
336,105;11160,732;   -1,086;    1,591
336,699;10900,714;   -1,086;    0,591
337,293;10844,970;   -1,723;    0,318
337,887;10988,888;   -2,723;    1,955
338,481;11056,378;    0,459;    0,591
339,074;11209,638;   -0,359;    2,682
339,668;11079,421;   -1,632;    1,227
340,262;11310,055;    1,732;    3,227
340,856;10832,616;    1,822;   -0,682
341,450;10223,138;    1,004;    1,864
342,044;11078,425;    1,459;    0,136
342,637;10904,791;    0,913;   -2,136
343,231;10760,407;   -2,360;    0,682
343,825;10706,713;   -1,086;   -0,591
344,419;10652,397;   -1,995;    0,500
345,012;10470,511;    2,459;    4,045
345,606;10496,112;    4,641;    1,591
346,199;10340,041;   -1,813;   -0,227
346,793; 9863,916;    1,914;    2,045
347,386;10089,544;   -0,813;   -1,136
347,980;10059,846;   -0,268;   -0,045
348,573; 9851,711;    2,278;    0,409
349,167; 9549,303;    5,278;    4,773
349,760; 9876,153;    2,914;    2,682
350,354; 9836,237;   -0,813;    1,136
350,947; 9588,648;    1,096;    1,682
351,540; 9277,132;   -0,358;   -1,409
352,134; 9240,729;    1,096;    1,136
352,727; 9296,296;   -0,086;    1,136
353,320; 9110,491;    0,005;    0,591
353,913; 8963,345;   -1,995;    1,864
354,507; 9157,712;    0,823;   -1,227
355,100; 9166,889;    0,460;    0,864
355,693; 8403,223;    2,005;    2,409
356,286; 8442,910;    0,823;    2,773
356,879; 8813,700;   -0,722;    1,227
357,472; 8425,370;   -0,904;    1,500
358,065; 8609,054;   -0,722;    2,500
358,658; 8516,518;   -0,540;    2,318
359,251; 8179,883;   -1,631;   -0,591
359,844; 7687,051;   -1,904;   -1,136
360,437; 7878,588;   -2,995;    0,045
361,030; 8127,125;    1,369;   -0,682
361,623; 7748,043;    2,824;    0,318
362,215; 7757,354;   -0,086;    2,045
362,808; 7609,905;   -2,358;   -1,682
363,401; 7808,097;   -2,449;    0,136
363,994; 7545,877;   -0,631;   -1,500
364,586; 7508,976;    0,824;   -1,500
365,179; 7682,537;   -0,449;   -1,136
365,772; 7185,107;   -1,995;    2,045
366,364; 7477,303;    1,915;   -3,227
366,957; 7632,721;    2,279;   -0,045
367,549; 7659,015;    2,188;   -0,864
368,142; 7346,904;    1,825;   -1,500
368,734; 7521,622;    0,734;   -2,136
369,327; 7476,334;    1,643;   -0,500
369,919; 7437,368;   -1,538;    0,409
370,512; 7230,905;   -1,083;   -0,500
371,104; 6988,261;   -0,901;    1,591
371,696; 7169,392;    1,191;   -0,955
372,289; 7252,856;    0,373;    1,136
372,881; 7394,281;   -2,080;    1,318
373,473; 7308,479;   -2,170;    1,136
374,066; 7115,340;   -0,169;    0,500
374,658; 6943,340;    0,378;    1,136
375,250; 7328,075;    0,653;   -1,409
375,842; 7169,424;    0,473;   -0,045
376,434; 7032,602;   -0,435;   -0,409
377,026; 7611,390;    0,204;   -2,500
377,618; 7498,307;   -0,158;   -0,682
378,210; 7334,066;   -0,338;   -1,955
378,802; 7170,000;    0,754;   -0,591
379,394; 7136,380;    1,846;    0,682
379,986; 7721,999;    1,393;   -0,955
380,578; 7813,309;   -0,153;    0,773
381,170; 7152,508;   -0,972;    0,045
381,762; 7124,066;    0,755;    1,409
382,354; 7307,029;   -0,065;   -1,318
382,945; 7424,935;   -2,976;    0,318
383,537; 7579,190;   -2,705;   -1,955
384,129; 7608,410;   -2,160;   -1,136
384,721; 7805,789;   -0,252;    0,955
385,312; 7698,487;   -0,161;   -0,955
385,904; 7766,796;   -2,706;    1,591
386,496; 7148,678;   -0,979;    1,045
387,087; 7320,447;    1,022;    2,500
387,679; 7352,061;   -1,160;    0,045
388,270; 7479,679;    2,840;    2,045
388,862; 7597,358;    1,295;   -0,318
389,453; 7478,714;   -0,887;    1,045
390,045; 7734,229;   -0,705;   -2,682
390,636; 7672,086;    0,204;   -0,591
391,227; 7548,749;   -0,523;   -0,045
391,819; 7632,127;    0,204;    0,773
392,410; 7689,570;    1,022;    0,045
393,001; 7634,021;   -0,979;   -1,591
393,593; 7899,063;    1,930;   -0,045
394,184; 7764,840;    1,385;   -0,409
394,775; 7689,690;    1,839;    2,136
395,366; 7894,812;    1,385;    0,773
395,957; 7893,420;    0,113;    0,136
396,548; 8160,623;   -0,342;    2,682
397,139; 8469,954;   -2,433;    0,591
397,730; 8220,962;   -1,888;    0,955
398,321; 8298,163;   -1,252;    0,955
398,912; 8313,473;   -0,615;    0,136
399,503; 8387,775;   -3,524;   -1,409
400,094; 7848,363;    0,294;    1,682
400,685; 7702,918;   -0,433;    0,045
401,276; 7800,275;    0,930;   -0,955
401,867; 8102,017;   -0,888;    0,773
402,458; 8199,061;   -2,251;   -2,318
403,048; 8175,296;    1,112;    0,591
403,639; 7776,816;    0,840;    0,864
404,230; 8016,783;    2,476;    0,318
404,821; 7964,956;   -0,615;    0,045
405,411; 8089,910;    1,203;   -2,591
406,002; 7691,419;   -1,252;   -1,136
406,592; 7559,984;    2,294;    0,045
407,183; 7842,587;    0,566;   -1,500
407,774; 7750,818;    3,475;   -0,136
408,364; 8068,144;    0,930;    0,409
408,954; 7685,577;    0,384;    1,227
409,545; 7738,484;    1,021;    1,045
410,135; 7248,870;    1,293;    0,500
410,726; 7400,304;    1,838;    0,318
411,316; 7812,608;    0,111;    0,773
411,906; 7506,475;   -0,253;   -0,409
412,497; 7004,567;   -1,070;   -0,045
413,087; 7572,902;   -1,980;   -0,227
413,677; 7972,789;   -0,707;    3,864
414,267; 7784,483;    0,656;    1,409
414,857; 7789,942;   -2,980;    4,227
415,448; 8077,482;    0,839;    0,500
416,038; 7771,789;    0,020;   -0,591
416,628; 7734,423;   -0,889;    0,409
417,218; 7212,585;    0,565;    3,318
417,808; 7461,045;    0,202;   -0,409
418,398; 7926,531;    0,020;    2,682
418,988; 7945,413;    2,020;    0,591
419,578; 8167,127;   -0,707;    1,409
420,168; 8485,203;   -1,343;   -0,955
420,757; 8083,422;   -1,343;   -1,500
421,347; 7766,158;    0,111;   -0,227
421,937; 7924,004;    2,292;    1,409
422,527; 7868,015;    0,838;   -0,773
423,116; 7648,379;   -0,253;   -0,045
423,706; 8003,631;   -1,889;    0,318
424,296; 8013,721;    1,384;    0,682
424,885; 8382,357;   -0,071;   -3,045
425,475; 8659,005;    1,474;   -2,864
426,065; 8572,580;   -0,980;   -0,318
426,654; 8180,583;   -0,435;   -0,318
427,244; 8301,494;    0,020;    1,409
427,833; 7754,852;    1,383;   -0,500
428,423; 8223,907;   -0,526;    1,136
429,012; 8981,110;   -0,344;   -1,136
429,601; 8478,425;   -1,344;    0,136
430,191; 8727,344;    1,292;    4,318
430,780; 8330,514;   -0,344;   -0,409
431,369; 8227,244;    0,746;   -0,045
431,959; 8846,642;   -1,254;    0,500
432,548; 8650,311;   -1,163;   -0,045
433,137; 8756,776;   -1,254;   -1,318
433,726; 9281,768;    0,292;    0,500
434,315; 8670,654;   -0,526;    2,409
434,905; 8716,262;   -1,254;    1,409
435,494; 8638,277;    0,746;    0,955
436,083; 9081,924;   -0,981;   -0,955
436,672; 8952,388;    0,110;    0,500
437,261; 8546,284;    0,292;   -1,955
437,850; 8641,609;    1,383;    0,682
438,439; 8592,608;    3,291;    1,955
439,027; 8431,251;    3,655;    1,773
439,616; 8770,570;    2,927;    1,227
440,205; 8681,888;    0,200;   -2,136
440,794; 8690,938;    2,109;   -0,045
441,383; 8955,018;   -1,346;   -0,591
441,971; 8807,924;   -2,436;    0,591
442,560; 8666,428;    0,563;   -1,773
443,149; 8426,684;    0,379;   -1,318
443,737; 8519,610;   -0,074;   -2,318
444,326; 8771,703;    0,018;    0,318
444,915; 8798,184;   -1,982;    0,864
445,503; 9181,448;   -2,891;   -0,318
446,092; 8479,364;    0,382;    2,136
446,680; 8975,376;    0,382;    0,318
447,269; 9129,534;   -0,346;   -0,318
447,857; 8913,186;    0,018;   -1,773
448,445; 9032,495;    0,563;    1,318
449,034; 9245,794;   -1,528;   -1,136
449,622; 9372,522;   -1,073;    3,500
450,210; 8591,102;    2,017;    2,227
450,799; 9110,380;    0,290;   -0,591
451,387; 9057,235;    1,381;   -0,591
451,975; 8703,317;    2,654;    0,864
452,563; 8798,272;    3,472;    2,318
453,151; 8832,841;   -0,528;   -1,227
453,739; 8776,389;   -1,347;    0,136
454,328; 8627,984;    2,381;   -2,136
454,916; 8342,209;    2,562;   -0,136
455,504; 8528,319;    1,017;    1,227
456,092; 8703,975;    0,017;   -1,591
456,679; 8637,129;    1,472;    0,682
457,267; 8571,872;    4,017;    1,045
457,855; 8740,306;    1,017;    1,409
458,443; 8510,689;   -0,165;    1,682
459,031; 8603,404;    0,108;    2,409
459,619; 9044,999;   -1,801;    2,864
460,206; 9145,582;    0,835;    2,045
460,794; 9240,988;   -2,983;   -0,227
461,382; 9418,861;   -0,529;   -0,864
461,970; 9065,163;    1,198;    1,864
462,557; 9096,374;   -0,711;   -0,682
463,145; 9253,698;   -3,165;   -1,682
463,732; 9376,542;    2,016;   -1,045
464,320; 9308,501;   -0,075;   -3,045
464,907; 9016,827;    2,743;   -0,773
465,495; 8875,834;    0,743;   -1,227
466,082; 9018,711;   -1,984;   -0,045
466,670; 8953,714;   -2,529;    1,227
467,257; 9339,176;   -1,711;    2,045
467,844; 9498,305;   -0,075;    0,045
468,432; 9475,703;    0,834;    3,500
469,019; 9033,876;    0,925;   -1,773
469,606; 9481,287;    0,470;    3,682
470,193; 9287,558;   -1,439;    0,227
470,780; 8867,323;   -2,075;    0,864
471,368; 9197,459;   -1,257;   -0,773
471,955; 8976,088;    1,379;   -0,682
472,542; 8628,685;    0,652;   -1,136
473,129; 8849,426;   -0,166;    0,136
473,716; 8630,753;    1,470;    0,591
474,303; 8784,573;    0,652;   -0,864
474,890; 9056,005;   -1,439;   -0,500
475,477; 9060,712;   -1,621;    0,409
476,064; 8944,008;    1,106;   -1,591
476,650; 8851,260;    0,288;    0,318
477,237; 8681,350;   -0,258;    0,955
477,824; 8822,204;   -1,076;    0,864
478,411; 8825,383;   -1,894;   -0,318
478,997; 9024,310;    0,560;   -0,773
479,584; 9063,394;    1,196;   -0,409
480,171; 9723,658;   -0,440;   -0,773
480,757; 9376,528;    2,651;    0,773
481,344; 9645,901;    0,469;    0,409
481,931; 9140,663;    1,105;    1,045
482,517;10023,999;   -1,258;    0,318
483,104;10490,546;    1,106;    2,864
483,690;10738,548;   -1,804;    0,045
484,276;11065,869;   -0,895;    0,227
484,863;10820,131;    2,469;    1,136
485,449;11359,065;   -0,077;    0,318
486,035;11337,099;   -1,986;   -0,136
486,622;11732,991;   -0,895;    0,045
487,208;11674,426;    1,378;    1,500
487,794;11552,472;    0,741;    0,318
488,380;11668,206;    0,105;   -1,409
488,967;11741,510;   -1,168;   -0,409
489,553;11783,709;   -1,895;   -1,409
490,139;11979,408;    1,559;    0,773
490,725;11475,321;    0,741;   -0,227
491,311;11108,286;    3,287;    3,045
491,897;10515,016;   -0,986;    1,500
492,483;10378,780;    0,105;    1,227
493,069;10186,988;    3,923;    0,864
493,655;10198,034;    1,650;    0,682
494,241;10151,181;    1,377;   -0,955
494,826;10516,163;    0,287;   -1,045
495,412;10014,739;    2,559;   -0,682
495,998;10219,689;   -0,805;   -0,318
496,584;10352,709;    0,377;    1,045
497,169;10337,506;    1,014;   -0,682
497,755;10363,322;    0,650;    1,227
498,341;10944,687;    0,559;    0,318
498,926;10534,941;    1,832;    1,955
499,512;10751,035;    1,286;    2,955
500,097;10915,463;    0,195;   -0,318
500,683;10912,635;   -0,350;    2,136
501,268;11271,394;   -0,169;   -0,955
501,854;11060,828;   -0,169;    1,227
502,439;11048,396;   -0,624;   -1,773
503,024;11277,622;    0,195;    0,500
503,610;11361,014;   -0,078;   -0,682
504,195;11411,962;    0,558;    1,955
504,780;11589,397;    2,922;    1,227
505,366;11410,029;    3,013;    2,864
505,951;11217,112;    0,740;    1,045
506,536;11300,320;   -3,260;   -3,682
507,121;11300,614;    0,285;   -0,318
507,706;11842,525;    2,376;    1,045
508,291;12255,840;    2,649;    1,136
508,876;11779,733;   -0,988;    2,591
509,461;11267,898;   -0,169;   -0,773
510,046;11712,562;    0,194;    0,318
510,631;11952,276;   -0,351;   -0,773
511,216;11660,165;    2,467;   -0,500
511,801;12057,746;   -0,442;    2,591
512,386;12342,615;    0,740;    0,500
512,971;12299,637;   -2,988;    0,955
513,555;11901,501;   -0,897;   -1,500
514,140;12675,446;   -0,442;   -3,136
514,725;12712,532;   -0,715;   -1,136
515,309;12858,709;   -0,533;    0,318
515,894;12319,496;   -0,624;   -2,227
516,479;12803,958;   -0,624;   -0,955
517,063;12656,678;    0,376;    1,227
517,648;12803,591;    1,012;   -1,136
518,232;12478,388;   -0,261;   -1,409
518,817;12793,722;   -0,079;    1,682
519,401;13023,596;    2,194;    0,591
519,985;12520,135;    1,103;    1,136
520,570;12391,635;    0,830;   -1,955
521,154;12729,070;    2,102;    0,591
521,738;12889,910;   -2,352;    2,409
522,323;13455,156;   -0,170;    1,682
522,907;13162,423;    0,466;   -0,136
523,491;12941,789;    0,557;    0,955
524,075;12909,669;    2,284;    0,591
524,659;13014,322;    1,466;    0,591
525,243;12503,083;    1,739;    0,409
525,827;12796,457;    0,648;   -0,045
526,411;13601,959;   -1,989;   -0,136
526,995;13743,300;   -0,352;    1,409
527,579;13360,784;   -0,443;   -1,045
528,163;13696,009;    0,375;   -1,500
528,747;13619,823;    2,466;   -0,773
529,331;13934,759;   -0,080;   -1,409
529,915;14132,314;    1,738;    0,955
530,499;14092,829;   -0,807;    1,227
531,082;13788,237;   -0,534;    1,591
531,666;13250,424;    1,374;    0,773
532,250;13901,703;    1,284;    2,682
532,833;14235,299;    0,920;    2,773
533,417;14111,603;   -1,807;    0,864
534,001;14079,195;    1,647;   -0,318
534,584;14744,242;    0,374;    0,500
535,168;14594,240;    0,465;    1,409
535,751;14613,910;    0,647;    0,045
536,334;14128,281;   -0,898;   -0,409
536,918;14712,673;    0,011;    1,591
537,501;14801,229;   -0,899;    1,318
538,085;14803,417;   -0,444;    1,045
538,668;14915,479;    0,829;    2,409
539,251;15210,995;    1,829;    3,773
539,834;15269,446;    0,101;    0,773
540,418;15198,136;   -1,990;    4,318
541,001;15302,553;   -0,990;    1,773
541,584;15298,106;    2,101;    2,227
542,167;15003,533;    1,374;    2,955
542,750;15161,025;    1,919;   -0,773
543,333;14749,021;    0,555;    2,136
543,916;15529,671;    0,192;    2,500
544,499;16111,103;   -1,354;    0,227
545,082;16105,347;    1,374;    3,591
545,665;16245,099;    1,919;    1,500
546,248;16574,476;    1,010;   -0,318
546,830;16248,987;   -0,445;    1,955
547,413;16631,065;    1,010;   -0,773
547,996;17176,136;    0,555;    0,500
548,579;16956,483;    0,919;    0,955
549,161;16751,273;    1,828;    2,682
549,744;16556,347;   -0,809;    0,409
550,326;17056,257;   -0,809;   -1,136
550,909;16800,693;    2,737;    0,591
551,492;17232,525;   -0,263;    0,227
552,074;17039,911;   -0,173;   -1,318
552,657;17542,063;    2,373;    0,045
553,239;17343,340;   -0,173;   -0,773
553,821;17260,324;   -1,082;    1,045
554,404;16766,850;    1,282;    1,136
554,986;17154,405;    0,464;    1,045
555,568;17726,591;    1,191;   -0,955
556,151;16948,289;    1,191;   -0,227
556,733;17152,219;   -0,264;   -0,864
557,315;17618,881;    0,100;    0,500
557,897;17417,393;    0,554;   -0,500
558,479;17560,516;   -1,991;    1,318
559,061;17686,267;   -0,719;   -0,864
559,643;18001,589;   -0,264;    0,045
560,225;18354,836;    1,645;    2,864
560,807;18378,862;    0,918;    0,318
561,389;17891,927;    0,554;    2,318
561,971;18626,048;    0,463;    2,136
562,553;18405,299;   -1,628;    1,591
563,135;18548,418;   -0,537;    1,136
563,717;18162,568;    3,372;    1,136
564,298;18860,789;    3,645;   -0,045
564,880;18641,611;    0,645;   -1,409
565,462;18779,156;    0,645;    1,318
566,043;19859,888;   -0,446;    2,318
566,625;19370,523;    1,918;    1,227
567,207;19178,174;    1,099;    1,682
567,788;20294,178;   -1,264;    1,500
568,370;21137,622;    1,917;   -0,500
568,951;20960,880;    0,190;    0,227
569,533;21788,633;   -0,628;   -0,500
570,114;22214,198;   -0,446;    0,682
570,695;22697,593;   -0,174;   -1,318
571,277;23116,602;   -0,265;   -1,682
571,858;23823,261;    2,008;   -1,136
572,439;24724,129;    1,554;   -1,045
573,021;24892,930;    2,099;   -2,773
573,602;25343,101;   -1,265;    0,318
574,183;26261,535;   -2,083;    2,227
574,764;26392,502;   -1,629;    0,409
575,345;26883,602;    0,917;   -0,136
575,926;27503,582;   -0,356;    0,136
576,507;27452,373;    1,099;   -0,227
577,088;28523,342;    3,099;    1,682
577,669;28547,782;    0,735;    1,955
578,250;29214,717;    0,644;   -1,045
578,831;29883,350;   -1,356;   -2,227
579,412;30137,389;   -0,810;    0,955
579,993;31066,179;    1,008;    0,227
580,573;31420,665;   -0,629;   -0,955
581,154;30398,904;    0,735;   -0,591
581,735;31195,387;    0,644;    0,773
582,315;30672,387;   -0,629;    2,136
582,896;31046,139;   -0,174;    1,227
583,477;30553,067;    0,189;    1,227
584,057;30708,876;    0,553;    0,955
584,638;30956,724;    2,553;    2,318
585,218;30947,692;   -0,538;    2,682
585,799;31147,898;    0,281;   -0,227
586,379;31135,979;    0,372;    1,591
586,959;29984,324;    0,735;    0,318
587,540;29368,165;   -0,629;    2,227
588,120;28922,764;    1,007;   -0,045
588,700;27927,412;    2,553;    2,136
589,281;28171,513;    0,462;   -0,955
589,861;28170,548;    0,099;   -1,682
590,441;28005,333;    2,371;   -2,682
591,021;26962,996;   -0,265;   -2,591
591,601;27230,822;   -0,537;    0,500
592,181;27217,940;   -0,719;   -0,773
592,761;26478,509;    0,007;    1,409
593,341;26428,202;   -0,901;    0,045
593,921;26480,676;   -0,265;    1,591
594,501;26348,445;   -0,538;    1,318
595,081;26184,250;    0,917;   -0,318
595,661;26565,683;   -1,447;    0,955
596,240;27070,216;   -0,537;    0,136
596,820;26631,232;    0,372;    1,955
597,400;26864,438;    2,008;    0,773
597,980;27064,968;    2,008;    1,045
598,559;27088,436;    2,735;   -0,227
599,139;26813,441;   -0,174;   -1,227
599,718;26730,622;   -0,174;   -0,409
600,298;26953,739;    0,735;    0,682
600,877;27136,879;    2,917;    1,409
601,457;27462,349;    2,281;    1,136
602,036;27410,639;    0,190;    2,045
602,616;27624,785;    0,644;    1,682
603,195;27938,439;   -0,355;    3,500
603,774;27439,322;   -0,901;    2,045
604,354;27374,112;    0,826;   -0,500
604,933;26881,638;    0,463;    1,864
605,512;26988,265;    3,554;    0,591
606,091;27068,221;   -0,537;    3,773
606,671;27862,683;    0,281;    0,773
607,250;26938,957;    1,644;    3,136
607,829;27148,484;    2,372;    3,227
608,408;27065,553;    1,190;    2,591
608,987;26085,982;    1,281;    3,409
609,566;26384,956;   -1,265;   -2,500
610,145;26495,137;   -1,082;    0,682
610,723;26880,716;    4,372;    6,864
611,302;26144,157;   -0,446;    1,682
611,881;25717,527;    5,008;   11,227
612,460;26545,863;    1,645;    3,955
613,039;26972,968;   -0,082;    2,045
613,617;25725,609;    1,736;    4,773
614,196;25877,984;    1,099;    1,227
614,775;26190,027;    1,009;    2,409
615,353;26175,533;    0,736;    0,864
615,932;25957,868;    0,100;    2,409
616,510;26475,299;    0,554;    0,591
617,089;26006,477;    7,100;   17,591
617,667;25710,142;    2,372;    6,136
618,246;25661,345;   -1,537;    1,318
618,824;25849,499;   -3,355;   -0,955
619,402;25415,591;   -2,900;   -1,773
619,981;25909,490;   -0,173;   -1,045
620,559;25790,088;    0,009;    1,682
621,137;25318,699;   -0,718;    1,864
621,715;25317,823;   -1,173;   -0,682
622,293;25241,031;   -0,537;   -0,773
622,871;25712,336;   -0,718;    0,500
623,450;25316,681;    0,373;   -0,864
624,028;25206,663;    0,191;   -0,955
624,606;24848,776;   -1,718;    1,682
625,183;25210,098;   -1,536;   -1,136
625,761;24851,915;    1,009;    1,136
626,339;25094,113;    1,373;    2,591
626,917;25511,898;   -0,172;   -0,045
627,495;25553,113;   -0,354;    1,318
628,073;24997,314;   -0,263;    2,864
628,650;24661,575;    0,100;    2,136
629,228;25103,981;    0,373;    4,409
629,806;24510,213;    2,282;    1,136
630,383;24794,442;    1,464;   -0,318
630,961;24611,789;    2,555;   -0,955
631,539;24376,046;    2,464;    0,227
632,116;23659,334;   11,373;   15,409
632,694;24265,080;    2,555;    6,500
633,271;24570,175;    0,828;    2,682
633,848;24477,005;    1,828;    2,045
634,426;24535,682;   -1,081;    1,773
635,003;23695,350;    1,101;   -0,409
635,580;23966,347;    1,192;    3,682
636,158;24482,884;    3,737;    1,227
636,735;24478,751;    0,555;   -0,500
637,312;24621,796;   -0,809;   -0,682
637,889;24767,466;   -4,354;   -0,682
638,466;24230,979;   -3,990;   -0,409
639,043;24250,168;    2,101;   -1,136
639,620;24524,318;   -2,262;   -0,955
640,197;24872,915;    1,100;    1,682
640,774;25026,235;   -0,172;    1,136
641,351;25414,009;    0,737;    1,136
641,928;24846,420;   -0,627;    1,409
642,505;24464,376;    0,828;   -0,500
643,082;24609,060;   -1,718;    1,227
643,658;23638,016;   -0,718;    1,500
644,235;24363,336;    1,191;    2,500
644,812;24705,565;    1,918;    0,773
645,388;24405,703;   -0,991;    1,409
645,965;24482,478;   -0,809;    1,682
646,542;24572,798;   -1,445;   -0,227
647,118;24545,209;    1,009;   -0,955
647,695;24838,620;   -0,263;    1,136
648,271;24778,485;   -0,536;    0,500
648,848;25101,623;    0,736;    2,227
649,424;24931,307;    0,827;    1,318
650,000;24698,263;   -0,354;   -1,045
650,577;24513,492;   -0,627;   -0,955
651,153;24947,994;   -1,809;    0,955
651,729;25915,314;    1,191;    0,864
652,305;26004,361;    0,645;    2,773
652,881;29957,045;   -0,082;    1,136
653,458;36522,455;    1,100;    0,227
654,034;40301,048;    0,282;    1,591
654,610;41827,913;    0,554;    0,773
655,186;43192,415;    0,645;    3,045
655,762;42909,099;   -0,991;    0,409
656,338;42965,510;    0,100;    0,136
656,913;43896,011;   -0,082;    0,409
657,489;43200,786;    0,827;   -0,318
658,065;43166,288;   -0,173;   -1,591
658,641;43854,335;   -0,900;   -0,864
659,217;43186,200;   -0,991;    0,409
659,792;42593,611;    0,645;   -0,409
660,368;42826,749;   -2,173;   -0,682
660,944;42594,433;   -2,082;    1,227
661,519;38448,026;   -0,628;    0,409
662,095;32804,800;   -1,719;    0,591
662,670;28174,120;    1,281;   -0,136
663,246;26953,713;    1,009;   -0,409
663,821;26200,942;    0,281;    1,682
664,396;25714,262;    0,009;    1,864
664,972;25908,036;    0,009;   -0,500
665,547;26267,538;    1,372;    0,136
666,122;26287,585;   -1,082;    0,318
666,698;26519,814;   -0,173;    0,318
667,273;25877,134;   -0,173;    0,136
667,848;26742,363;    2,372;    1,500
668,423;26486,410;    2,190;    2,318
668,998;27042,912;    2,827;   -0,682
669,573;27557,050;   -3,264;   -1,500
670,148;27419,734;   -1,446;   -0,682
670,723;27197,327;   -1,810;    0,318
671,298;27620,283;    2,372;    1,045
671,873;27726,603;   -0,082;   -0,136
672,448;27646,650;    0,645;    0,136
673,023;28049,515;   -1,992;   -0,227
673,597;28348,926;    0,827;    2,318
674,172;28154,064;   -0,355;    0,318
674,747;27604,475;    0,372;   -1,045
675,321;27433,886;   -0,628;    3,318
675,896;27093,024;    0,645;    1,045
676,471;28036,072;    2,645;    1,591
677,045;27804,573;   -1,264;    0,682
677,620;27856,439;    0,190;    1,136
678,194;28155,486;   -2,628;    1,136
678,769;27765,988;   -1,083;   -0,318
679,343;28012,762;   -0,628;    1,773
679,917;27837,991;   -1,446;    1,955
680,492;27946,584;    0,826;    3,227
681,066;28081,358;    3,372;    0,409
681,640;28111,133;    1,463;   -0,318
682,214;28882,907;    0,735;    0,500
682,788;28396,046;   -1,356;   -0,773
683,363;28303,911;   -1,810;    1,682
683,937;28091,322;   -1,719;   -0,318
684,511;28832,824;    0,463;   -0,591
685,085;28566,507;   -1,356;    0,318
685,659;28299,645;   -2,538;    0,864
686,232;28547,420;   -0,356;   -0,318
686,806;28322,922;   -0,901;    0,409
687,380;28930,060;   -0,174;    0,591
687,954;29129,925;   -1,174;    1,136
688,528;28832,700;   -0,719;    1,955
689,101;29596,383;   -3,992;    1,045
689,675;29195,067;   -0,356;   -0,136
690,249;28604,659;   -0,719;    0,409
690,822;28918,888;    0,280;    0,318
691,396;29006,027;   -0,265;    1,227
691,969;28483,256;    1,280;    0,136
692,543;28900,303;   -0,447;   -1,955
693,116;28561,986;   -0,265;   -1,409
693,690;28425,761;    0,099;    0,500
694,263;28962,354;   -1,083;    2,955
694,836;29001,946;    1,371;    3,591
695,410;27665,266;   -0,265;    1,773
695,983;28142,041;    0,189;    0,591
696,556;28145,633;   -0,447;   -1,045
697,129;28521,044;   -0,356;    1,409
697,703;28144,001;   -1,629;    1,955
698,276;28138,684;    1,462;   -0,773
698,849;27950,731;    1,280;    1,409
699,422;28304,506;   -1,083;    0,591
699,995;27990,644;    0,007;    0,136
700,568;28507,055;   -0,629;    3,045
701,140;28547,375;   -2,811;    1,682
701,713;28288,422;   -0,174;    2,409
702,286;28083,833;   -0,538;    0,864
702,859;27954,516;   -0,902;   -0,591
703,432;27070,018;    0,825;    0,682
704,004;27615,247;    0,462;    0,318
704,577;27416,294;   -0,629;    0,136
705,150;27970,978;    0,189;    2,500
705,722;27779,662;   -0,356;   -3,227
706,295;27544,709;   -0,175;   -0,591
706,867;27436,302;   -0,175;    1,955
707,440;27648,985;   -1,720;   -0,409
708,012;27885,941;    0,462;    0,591
708,584;27775,625;    2,462;    0,227
709,157;28086,309;    1,825;   -0,591
709,729;27722,538;    2,280;    2,045
710,301;28642,494;    0,734;    0,045
710,874;28609,814;   -1,447;   -0,227
711,446;27507,497;    0,371;    0,864
712,018;27377,545;    0,098;    0,500
712,590;27155,137;   -1,993;    1,682
713,162;27652,912;    0,825;    1,318
713,734;27911,141;    1,825;   -2,045
714,306;27827,006;   -1,902;   -0,409
714,878;26539,417;    0,825;    0,864
715,450;27343,828;    0,643;    0,864
716,022;27608,512;    1,552;    1,318
716,593;27727,286;    0,189;    0,591
717,165;27698,879;   -3,175;   -1,227
717,737;27376,835;    0,280;    0,409
718,309;27065,246;    0,280;   -0,045
718,880;27001,111;   -0,539;   -1,409
719,452;27203,068;   -0,175;   -1,591
720,024;26773,842;    0,734;   -0,591
720,595;27374,071;   -2,902;    0,955
721,167;26913,846;    0,370;   -2,045
721,738;26464,984;   -0,812;   -1,045
722,309;26417,577;   -0,993;   -1,227
722,881;26189,987;   -1,357;    0,773
723,452;26850,307;   -2,630;    2,864
724,023;26998,082;   -0,721;    2,682
724,595;26794,947;    0,007;    0,682
725,166;26535,449;    0,007;   -0,409
725,737;26201,951;    1,734;    0,227
726,308;26297,998;   -0,266;    0,318
726,879;26729,954;   -1,630;    1,227
727,450;26582,274;    0,552;   -0,045
728,021;26566,412;    3,097;    0,682
728,592;26341,187;    0,734;    0,500
729,163;26673,143;    0,643;   -0,136
729,734;26658,645;    0,188;   -0,227
730,305;27013,692;    1,734;    0,136
730,876;27358,103;    0,188;    2,955
731,447;27066,514;    2,188;    2,682
732,017;27134,834;    1,097;    1,864
732,588;26637,881;    0,734;    1,227
733,159;26820,565;    0,643;   -1,045
733,729;26674,157;    0,006;    0,409
734,300;25966,114;    0,915;    0,864
734,870;26373,343;    3,461;    0,591
735,441;26953,844;    0,370;   -0,591
736,011;26732,255;    0,643;   -1,591
736,582;26664,939;   -0,812;    0,045
737,152;26115,259;   -1,721;   -2,045
737,722;26570,397;   -0,267;   -0,682
738,293;26338,808;   -1,358;    1,318
738,863;26200,946;    2,461;    2,318
739,433;26015,084;    5,279;    0,318
740,003;26652,222;   -0,994;   -0,682
740,573;26038,179;    2,097;   -1,591
741,143;26013,317;   -1,085;    0,318
741,713;26801,818;    1,188;   -0,500
742,283;26412,320;    0,915;    1,591
742,853;26185,731;    1,915;    1,591
743,423;25718,415;    1,733;    0,045
743,993;25841,189;   -0,358;    1,500
744,563;25222,964;    0,097;   -0,864
745,133;25159,738;   -0,812;   -0,864
745,702;25912,422;   -0,267;    1,773
746,272;25096,833;   -0,176;    0,591
746,842;24861,243;   -1,358;   -0,591
747,411;25313,563;   -0,267;   -0,318
747,981;25449,247;    0,097;    0,500
748,551;25560,203;    2,278;   -1,045
749,120;25371,160;    0,642;   -0,227
749,690;25731,480;   -0,631;    2,409
750,259;26043,436;    1,369;    2,955
750,828;25959,029;    1,551;   -1,955
751,398;26217,348;    1,278;   -0,045
751,967;25710,396;    2,187;    0,409
752,536;25979,534;   -0,813;   -0,227
753,105;26335,399;    0,096;    0,227
753,675;26180,901;    0,096;    1,773
754,244;26141,857;   -0,904;    3,591
754,813;26166,268;    0,551;    1,227
755,382;25774,770;    0,460;    0,955
755,951;26330,363;    1,551;    3,682
756,520;25795,410;   -0,085;    1,864
757,089;26307,457;    0,278;    0,500
757,658;26430,868;    1,733;    1,227
758,227;26514,006;    1,096;    0,318
758,795;26833,690;    1,187;    1,136
759,364;27059,464;   -0,086;   -0,591
759,933;26121,602;   -1,176;   -0,045
760,501;25665,740;    0,733;   -1,318
761,070;26097,424;   -2,813;   -1,409
761,639;26784,835;   -1,904;    1,318
762,207;26097,337;    1,551;   -0,955
762,776;25969,838;    0,369;    0,864
763,344;26013,795;   -0,995;    0,591
763,913;25180,842;   -0,722;    1,409
764,481;25837,344;    1,005;   -0,136
765,049;25632,118;   -1,358;    1,409
765,618;25552,711;   -0,086;    0,318
766,186;25661,485;    0,278;    0,136
766,754;25829,078;    0,005;    1,864
767,322;24830,489;   -1,995;    0,409
767,890;24881,536;   -0,722;   -1,773
768,459;25260,129;   -2,177;   -0,318
769,027;25396,630;    1,641;    3,409
769,595;24439,950;    3,278;    2,591
770,163;24871,452;    3,823;    2,955
770,730;24664,954;    0,732;   -0,136
771,298;24475,547;    0,187;   -1,409
771,866;24535,321;   -1,541;    4,955
772,434;24883,005;   -0,631;   -1,864
773,002;25095,143;    0,005;    0,682
773,569;24762,008;    0,914;    1,682
774,137;24554,146;   -0,268;   -0,045
774,705;25328,194;    0,278;   -0,136
775,272;24799,968;    0,641;    0,682
775,840;24585,743;   -0,177;    2,682
776,407;24087,881;    0,277;    1,955
776,975;23744,928;   -0,632;    0,318
777,542;24735,248;   -1,086;   -0,045
778,110;24569,750;   -1,268;   -0,045
778,677;24317,797;   -2,359;   -0,864
779,244;24002,390;    2,186;    1,045
779,812;24132,255;    1,823;    0,864
780,379;24039,575;    0,005;    1,136
780,946;24262,895;    1,005;   -0,773
781,513;24564,124;   -1,450;    0,318
782,080;23934,444;   -0,086;    2,864
782,647;24674,218;   -0,268;    3,045
783,214;24230,902;   -0,177;    3,864
783,781;23834,131;   -0,723;   -0,682
784,348;23761,633;   -0,632;    1,500
784,915;24235,680;   -3,177;    0,318
785,482;24024,454;    1,368;    2,591
786,049;24419,774;    0,186;   -0,591
786,615;24598,094;    0,277;   -0,955
787,182;24262,323;    0,186;   -0,682
787,749;23964,007;   -2,814;    1,409
788,315;23305,327;   -1,632;   -0,409
788,882;23576,738;    1,550;   -1,227
789,448;24299,149;    1,732;   -0,955
790,015;24332,469;    1,095;    3,227
790,581;23825,243;    1,459;    0,227
791,148;23727,927;    0,641;    1,045
791,714;24017,701;   -0,541;    3,136
792,280;23691,021;    0,186;    1,591
792,847;23259,159;    0,550;    2,500
793,413;23788,843;   -0,269;   -0,318
793,979;23333,617;    3,459;   -1,318
794,545;23379,846;    4,459;    2,682
795,111;22786,621;    2,186;    1,318
795,678;23001,759;    0,731;   -1,682
796,244;22678,897;    3,368;    0,136
796,810;23244,490;    1,731;    0,773
797,375;22937,810;    0,549;   -2,136
797,941;22973,402;   -0,541;    0,591
798,507;23132,813;   -0,451;   -0,955
799,073;22683,770;   -0,360;    0,591
799,639;22736,090;   -2,632;    3,136
800,205;22805,682;    0,095;    2,682
800,770;22372,275;    0,640;    1,773
801,336;22417,868;    1,368;   -0,955
801,901;22077,551;    4,549;    3,136
802,467;22705,871;   -0,542;    2,045
803,033;22057,827;   -0,087;    0,864
803,598;22238,966;    1,913;   -1,045
804,163;22258,013;    1,095;   -0,318
804,729;22258,060;   -0,178;    1,136
805,294;22621,834;    0,822;    2,227
805,859;22441,154;    0,731;   -0,409
806,425;21885,293;    1,186;    2,682
806,990;21560,067;    2,186;    4,318
807,555;22096,387;   -1,451;    2,591
808,120;21898,162;    0,822;   -0,409
808,685;21965,391;    0,185;   -2,500
809,250;21483,801;    0,004;   -0,500
809,815;21804,212;    1,913;    0,682
810,380;22350,441;   -0,269;    1,591
810,945;22868,216;   -1,087;    2,045
811,510;22058,718;    2,094;    1,591
812,075;21747,128;   -0,633;   -1,409
812,640;21836,994;    2,003;    1,409
813,204;21900,496;    0,822;   -0,227
813,769;22377,361;    2,094;   -0,045
814,334;21796,954;    0,458;    0,864
814,898;21826,092;    0,367;    0,591
815,463;21697,139;    1,276;   -0,773
816,027;21670,277;   -0,724;   -2,318
816,592;21756,052;    0,640;   -2,045
817,156;21258,553;    2,094;    1,136
817,721;21097,601;    4,276;    2,318
818,285;21087,557;    2,912;    1,500
818,849;21721,331;   -1,451;    1,682
819,414;21571,106;   -0,269;    2,955
819,978;21205,153;   -1,269;    1,773
820,542;21774,019;    2,003;    0,500
821,106;21458,248;   -0,815;    0,682
821,670;21564,113;   -0,815;    2,591
822,234;21309,706;   -0,270;    1,409
822,798;20714,935;    0,003;    0,500
823,362;20661,073;   -0,633;    4,227
823,926;19982,211;    0,094;    1,136
824,490;20178,349;   -0,997;   -0,682
825,054;20636,487;   -0,088;   -1,136
825,618;20272,898;   -1,542;   -1,500
826,181;20218,673;    0,458;   -1,318
826,745;20133,811;    1,367;   -1,045
827,309;20457,131;    1,185;    1,318
827,872;19864,451;    1,367;    0,955
828,436;20854,589;    1,185;   -0,773
828,999;20912,818;   -0,997;    1,227
829,563;19725,592;   -0,179;    1,136
830,126;19548,185;   -0,179;   -0,591
830,690;19565,596;   -1,997;    2,864
831,253;19120,461;   -0,543;    2,227
831,816;19241,599;   -1,906;    0,500
832,380;19134,010;    0,185;    0,864
832,943;19393,421;   -1,361;   -0,500
833,506;18899,832;    2,639;   -1,227
834,069;19683,334;    3,912;   -0,955
834,632;19725,199;    1,730;    1,318
835,195;19636,974;    1,003;    0,955
835,758;18818,748;   -0,997;    1,955
836,321;18666,886;    0,730;   -1,045
836,884;18790,752;   -0,725;   -0,955
837,447;18836,890;   -2,816;    1,773
838,010;19097,392;    0,366;    3,227
838,573;19373,802;   -1,179;    0,773
839,135;19342,668;   -1,361;   -0,955
839,698;18793,715;    1,275;    0,409
840,261;18322,217;    1,003;   -0,227
840,823;18184,173;   -0,543;    0,864
841,386;18474,675;   -0,452;   -2,409
841,948;18356,177;   -1,361;    1,773
842,511;18130,951;    0,912;    1,682
843,073;18250,453;    1,912;    0,227
843,636;18041,136;   -0,361;   -0,227
844,198;17972,547;    0,911;    0,591
844,760;18055,685;    1,093;    1,955
845,322;17754,187;    0,548;    1,136
845,885;18211,507;    0,730;    0,591
846,447;18625,191;   -1,998;    0,227
847,009;18153,965;    1,911;   -0,682
847,571;18483,649;    0,820;   -2,045
848,133;18626,151;   -1,089;   -1,864
848,695;18449,380;   -0,543;    1,409
849,257;17985,700;   -1,089;   -1,682
849,819;18126,201;   -0,998;   -0,409
850,381;18222,158;   -0,725;   -0,864
850,942;18554,932;    1,093;   -0,591
851,504;18496,434;    1,184;    0,227
852,066;18532,936;    1,275;   -1,591
852,628;18083,619;   -0,180;    1,955
853,189;17642,121;    1,638;    2,682
853,751;17792,986;   -0,907;    1,409
854,312;17609,397;   -0,453;   -1,682
854,874;18083,445;   -2,089;   -0,773
855,435;18626,128;   -0,907;   -1,682
855,997;18751,812;   -1,816;   -0,136
856,558;18015,223;    0,366;    1,773
857,119;18122,815;    0,820;    2,864
857,681;17843,681;    0,002;    0,318
858,242;17884,910;    1,911;   -2,136
858,803;18276,321;    0,456;   -0,773
859,364;18863,095;    0,184;   -4,773
859,925;18225,142;   -2,453;   -0,955
860,486;18106,280;   -0,453;   -0,955
861,047;17831,964;   -0,544;   -1,227
861,608;17627,193;   -1,089;   -0,773
862,169;17802,604;    0,638;   -0,045
862,730;17549,287;    0,456;    1,409
863,291;17799,244;   -0,635;   -0,500
863,852;18130,382;   -0,635;    1,955
864,412;17635,793;   -0,271;   -0,864
864,973;16250,658;   -0,089;    0,500
865,534;16092,251;   -1,726;    0,227
866,094;17570,571;    1,820;    0,227
866,655;17224,345;    1,274;    3,318
867,215;17542,665;    0,274;    0,136
867,776;17376,258;    0,547;   -0,136
868,336;17467,851;   -1,453;    0,136
868,897;16929,807;    2,638;    1,682
869,457;16688,854;    1,365;    0,318
870,017;16938,810;    0,547;   -1,227
870,578;17433,767;   -0,817;    0,773
871,138;17128,541;   -2,089;   -0,955
871,698;16665,498;   -0,817;   -1,318
872,258;16541,817;   -0,453;   -2,864
872,818;16908,410;    2,729;    0,045
873,378;16848,548;    0,638;    1,045
873,938;16416,596;    0,547;    0,500
874,498;16751,188;    0,274;   -1,955
875,058;16663,508;    2,183;    1,773
875,618;16512,101;    1,910;   -2,682
876,177;16423,603;    1,274;    0,136
876,737;16014,377;   -0,090;    1,955
877,297;16030,424;    0,183;    1,955
877,856;16031,290;   -0,362;    0,318
878,416;15995,246;    1,183;   -0,136
878,976;16237,839;   -1,817;    0,409
879,535;16413,522;    0,092;    3,136
880,095;16138,206;   -0,544;    0,045
880,654;16254,980;   -1,090;    1,318
881,213;16345,118;    2,456;    1,500
881,773;16009,438;    2,637;    2,682
882,332;16319,395;    3,365;    5,136
882,891;16220,260;    3,092;    2,136
883,451;16675,126;   -1,272;    1,682
884,010;16116,173;   -2,908;   -0,409
884,569;16193,129;   -0,999;   -0,045
885,128;16340,540;    2,819;   -1,864
885,687;16413,133;    4,455;    0,682
886,246;16091,089;    1,455;    2,136
886,805;15856,045;    2,455;    2,045
887,364;16167,002;   -0,999;   -0,500
887,922;16546,958;   -1,181;    0,045
888,481;16080,005;   -1,545;    0,591
889,040;16366,780;    1,183;    2,136
889,599;17017,827;    2,455;    1,409
890,157;17078,147;    1,455;    2,409
890,716;16736,103;   -0,090;    0,227
891,274;16569,968;    0,092;   -1,136
891,833;17010,925;    1,546;    0,864
892,391;16898,245;   -0,454;    0,500
892,950;16923,110;    1,819;   -0,773
893,508;17293,157;    0,455;   -0,409
894,067;16687,568;    0,637;    0,136
894,625;16564,252;   -0,636;   -1,500
895,183;16805,481;   -0,363;   -0,682
895,741;16686,346;    1,728;   -1,773
896,299;16501,939;   -0,545;   -2,409
896,858;16700,168;    0,819;   -1,591
897,416;16858,670;    2,728;   -1,318
897,974;16583,353;    1,819;    0,318
898,532;16679,855;    6,091;    2,682
899,089;16621,357;    2,091;   -0,682
899,647;16664,859;   -1,454;    1,318
900,205;16445,542;    1,182;    1,045
900,763;16659,408;   -0,454;    0,227
901,321;16611,637;    2,364;   -1,409
901,878;16064,502;   -1,000;   -0,773
902,436;15956,095;   -1,363;    1,318
902,994;16322,324;    4,728;    3,682
903,551;15742,189;    0,728;    0,409
904,109;16150,600;    0,182;   -1,409
904,666;15757,102;    2,455;    1,045
905,224;15602,604;    0,182;   -0,409
905,781;15346,651;    0,727;   -0,318
906,338;15413,880;   -1,363;    1,045
906,895;15378,109;    0,637;    2,045
907,453;15289,520;    1,727;    1,136
908,010;15325,931;   -0,909;    0,409
908,567;14925,069;    1,273;    0,591
909,124;14478,843;    0,364;   -1,500
909,681;14594,072;   -2,909;    0,682
910,238;14742,756;    0,636;   -1,318
910,795;15017,621;   -0,273;   -1,136
911,352;14662,258;   -2,909;   -2,682
911,909;14101,439;   -1,364;   -0,864
912,466;14587,439;   -3,182;    1,500
913,022;14141,894;   -1,636;    0,500
913,579;14500,712;   -0,909;    2,045
914,136;14176,348;    1,636;    0,955
914,692;14529,258;    0,091;   -1,227
915,249;14151,530;    1,455;    0,409
915,806;14350,985;    0,182;    1,955
916,362;14092,530;    1,909;    1,864
916,918;13666,985;    2,000;    1,045
917,475;13628,803;   -1,182;    0,955
918,031;13721,348;    3,364;   -0,045
918,587;13188,076;   -0,909;   -0,318
919,144;13415,530;   -2,273;    0,227
919,700;13719,621;    1,727;    0,773
920,256;13302,712;    0,727;    0,045
920,812;12935,530;   -0,727;   -1,045
921,368;12961,712;   -1,727;   -1,045
921,924;12563,621;    0,182;   -0,136
922,480;12171,439;   -0,545;    1,227
923,036;12763,803;    1,273;    1,955
923,592;12701,076;    0,455;    0,318
924,148;12608,167;    0,455;   -0,955
924,704;11946,985;   -1,364;   -0,409
925,259;12221,167;   -0,273;    0,591
925,815;11971,894;    1,455;    0,500
926,371;11505,621;    2,909;    1,409
926,926;11404,258;    2,091;    0,591
927,482;11019,348;   -1,364;    0,773
928,037;10920,803;    0,909;    2,045
928,593;11176,803;    1,636;    1,045
929,148;11037,894;   -1,818;   -1,500
929,704;10549,076;   -1,455;   -0,500
930,259;10779,894;    0,091;   -0,136
930,814; 9845,076;   -0,818;    1,955
931,369; 9563,348;    1,091;   -0,773
931,925; 9466,985;   -0,091;    0,136
932,480; 9351,530;   -2,818;   -2,591
933,035; 9250,258;    0,545;   -0,318
933,590; 9017,712;    0,364;   -1,773
934,145; 8668,439;   -1,364;   -0,318
934,700; 9007,894;    0,455;   -0,591
935,255; 8812,439;   -0,091;    0,045
935,809; 8086,985;    3,182;    0,864
936,364; 7240,439;   -0,455;   -0,136
936,919; 7207,712;    0,455;   -1,773
937,474; 7113,530;    1,455;    0,136
938,028; 6860,985;   -1,636;    1,136
938,583; 6364,348;    1,818;    4,682
939,138; 6662,712;    2,091;    2,136
939,692; 6115,167;    1,636;   -1,136
940,247; 5796,258;   -0,727;   -1,045
940,801; 5366,712;   -0,636;    0,227
941,355; 5275,258;   -0,364;    2,591
941,910; 4926,621;   -0,273;   -2,136
942,464; 5032,985;   -0,818;   -0,318
943,018; 4820,167;    1,000;   -0,227
943,572; 4787,803;    2,545;   -0,682
944,126; 4225,712;    0,091;   -0,409
944,681; 4113,803;    3,091;    0,227
945,235; 4097,985;    1,000;   -0,591
945,789; 4023,348;    0,364;   -1,864
946,342; 4132,530;    0,455;   -0,591
946,896; 3938,712;   -2,273;    0,955
947,450; 3705,894;    1,545;   -0,227
948,004; 3875,439;    1,727;   -0,045
948,558; 3923,621;    0,273;   -0,864
949,111; 3838,803;   -0,273;   -0,318
949,665; 3859,439;    1,636;   -0,682
950,219; 3746,803;   -0,091;   -1,045
950,772; 3814,348;   -1,909;    1,864
951,326; 3719,348;    0,545;   -0,955
951,879; 3822,348;    0,727;   -2,318
952,433; 3841,167;    0,000;    2,227
952,986; 3668,439;    2,909;    0,682
953,539; 3634,348;   -0,273;    0,591
954,093; 3571,894;    0,545;   -1,318
954,646; 3702,530;    0,909;    1,318
955,199; 3514,712;    0,000;   -0,500
955,752; 3393,712;   -0,455;    1,773
956,305; 3363,985;   -0,091;    2,955
956,858; 3522,894;    0,818;   -0,318
957,411; 3672,712;   -0,545;    2,136
957,964; 3518,258;    1,364;    2,136
958,517; 3509,439;   -1,545;    3,136
959,070; 3344,894;   -0,455;    1,955
959,623; 3428,167;    1,091;    1,500
960,176; 3206,894;    1,727;    2,045
960,728; 3186,712;   -2,727;    0,773
961,281; 3231,076;    0,545;    0,500
961,834; 3277,439;   -0,909;    0,864
962,386; 3202,712;    1,727;    1,045
962,939; 3133,439;    0,364;   -0,318
963,491; 3252,348;    0,455;    1,136
964,043; 3128,348;    1,182;    2,409
964,596; 3250,621;   -1,000;    2,227
965,148; 3107,985;   -1,000;    1,773
965,700; 3043,712;    1,091;   -0,227
966,253; 3182,621;   -0,636;    0,318
966,805; 3018,712;   -2,273;    0,773
967,357; 3054,985;    1,091;   -1,500
967,909; 3032,439;    0,455;   -1,227
968,461; 3133,076;    0,545;    3,136
969,013; 3063,439;   -0,182;   -0,864
969,565; 3143,712;   -0,455;   -1,136
970,117; 3220,258;   -0,364;    1,045
970,669; 3042,076;    0,182;   -0,136
971,220; 2925,258;   -0,455;   -1,500
971,772; 2846,803;   -0,636;   -0,318
972,324; 2964,258;    0,091;   -0,500
972,876; 2902,076;    0,818;   -0,045
973,427; 3043,985;    1,909;   -1,045
973,979; 3003,258;   -0,727;   -2,500
974,530; 3053,348;    1,818;    1,318
975,082; 3056,167;   -0,545;    1,682
975,633; 2955,712;    1,091;    1,682
976,184; 3082,621;    0,909;    0,773
976,736; 2886,985;    0,091;    0,227
977,287; 2699,985;   -0,909;   -0,500
977,838; 2857,348;    0,909;   -0,318
978,389; 2919,621;   -1,000;   -0,500
978,940; 2798,530;    0,545;   -0,409
979,491; 2847,894;    0,091;   -0,500
980,042; 2807,894;    0,182;    3,045
980,593; 2854,167;   -2,545;    0,227
981,144; 2897,530;    2,545;   -0,500
981,695; 2865,894;    1,455;    1,500
982,246; 2822,530;   -0,273;    1,045
982,797; 2982,076;   -1,727;    0,682
983,347; 3079,803;    0,364;    0,591
983,898; 3233,167;    3,091;    0,409
984,449; 3074,076;    2,182;    0,773
984,999; 2963,258;    1,455;   -1,136
985,550; 2756,076;    0,182;   -0,318
986,100; 2800,167;   -0,455;   -0,318
986,651; 2835,348;   -0,818;    0,045
987,201; 2810,803;   -1,000;   -0,591
987,751; 2890,530;    0,818;    2,864
988,302; 2881,439;    2,636;    1,500
988,852; 2910,439;    0,455;   -1,136
989,402; 2965,894;    0,091;    0,682
989,952; 2863,985;   -2,182;    0,864
990,502; 2980,621;   -0,091;    0,682
991,052; 2932,167;   -0,727;    0,045
991,602; 2798,803;   -2,909;    1,318
992,152; 2805,621;    0,455;    0,682
992,702; 2786,258;    1,364;   -0,045
993,252; 2704,076;   -3,000;   -0,500
993,802; 2799,258;   -0,273;    1,318
994,352; 3019,258;   -1,545;    1,136
994,901; 3109,894;   -0,182;    3,227
995,451; 3026,348;   -0,182;    0,318
996,000; 3116,985;    1,636;    0,318
996,550; 2838,621;    2,273;    0,227
997,100; 2836,621;    1,273;   -0,045
997,649; 3105,076;    2,182;    0,955
998,198; 2762,803;    1,727;   -1,500
998,748; 2946,712;    1,091;   -2,318
999,297; 2853,803;   -0,818;   -0,409
999,846; 2919,439;    1,000;   -0,773
1000,395; 2964,167;   -0,818;    0,500
1000,945; 2921,621;    1,818;   -0,773
1001,494; 3000,439;    2,364;    0,682
1002,043; 2997,803;    4,636;    0,864
1002,592; 2852,985;   -1,091;    1,955
1003,141; 2982,712;   -0,455;   -0,682
1003,690; 2853,621;    1,727;    0,500
1004,238; 2926,712;    1,455;   -0,045
1004,787; 2581,894;    1,364;    1,227
1005,336; 2808,621;    0,364;    0,682
1005,885; 2939,803;    1,364;   -2,773
1006,433; 3067,530;    0,545;    0,955
1006,982; 3121,258;    0,455;    1,682
1007,531; 3041,076;   -1,818;   -0,227
1008,079; 2990,803;   -2,273;    0,500
1008,627; 3121,530;   -1,455;    0,409
1009,176; 2865,348;    0,000;   -1,955
1009,724; 2897,076;    1,091;    0,864
1010,273; 2967,621;    1,273;    0,500
1010,821; 3086,803;    0,091;    1,409
1011,369; 2830,076;   -1,364;    1,318
1011,917; 2824,803;   -1,364;   -0,591
1012,465; 3083,712;    1,273;   -1,591
1013,013; 3187,167;    2,091;   -1,682
1013,561; 3063,348;    0,455;   -0,773
1014,109; 3127,076;   -1,909;    1,682
1014,657; 3003,439;    0,364;    0,591
1015,205; 3137,076;    1,636;   -0,955
1015,753; 3177,076;   -0,545;   -1,409
1016,301; 3195,985;   -2,636;    3,045
1016,848; 3214,803;   -1,273;    0,409
1017,396; 3237,258;    2,545;    0,045
1017,944; 3360,439;    1,182;    1,864
1018,491; 3134,439;    0,273;    1,409
1019,039; 3279,985;    0,455;    0,591
1019,586; 3193,439;   -1,364;    1,682
1020,134; 3294,167;    0,455;    1,500
1020,681; 3308,803;    0,182;   -1,136
1021,228; 3330,258;    2,909;   -2,227
1021,776; 3161,258;    1,182;   -1,136
1022,323; 3397,348;    0,455;    0,773
1022,870; 3325,712;   -1,000;   -0,045
1023,417; 3203,894;    2,636;    1,864
1023,964; 3359,530;    2,636;    1,227
1024,511; 3208,167;    1,000;    0,773
1025,058; 3014,348;    3,182;   -0,045
1025,605; 3065,985;   -2,273;    3,136
1026,152; 3269,985;    1,727;   -0,591
1026,699; 2996,803;    1,818;    1,318
1027,245; 3172,894;   -0,091;    0,318
1027,792; 3361,985;   -1,000;    1,409
1028,339; 3260,803;    2,364;   -0,045
1028,885; 3115,803;    1,000;   -0,227
1029,432; 3049,803;   -0,091;    0,227
1029,978; 3116,985;   -1,000;   -1,591
1030,525; 3028,348;    1,000;    0,409
1031,071; 3267,348;   -1,364;    1,136
1031,618; 3373,712;    0,364;    1,682
1032,164; 3153,167;   -0,091;    3,045
1032,710; 3190,530;    1,636;   -1,500
1033,256; 3114,348;   -0,636;   -0,136
1033,803; 3120,894;   -0,545;    1,500
1034,349; 2831,985;   -1,364;    0,136
1034,895; 2999,621;    0,000;   -0,318
1035,441; 2973,348;   -0,818;    0,318
1035,987; 2972,803;   -2,364;   -0,682
1036,533; 2974,894;   -1,455;   -0,955
1037,078; 3150,439;    1,455;    1,682
1037,624; 2988,258;    2,455;   -0,955
1038,170; 3014,894;    0,455;   -0,318
1038,716; 2921,712;    1,636;   -0,409
1039,261; 2836,258;   -2,273;   -0,773
1039,807; 2777,348;   -0,091;    3,409
1040,352; 2842,621;   -1,909;   -0,318
1040,898; 2901,076;   -1,545;   -0,682
1041,443; 2799,530;   -1,455;   -2,591
1041,989; 2821,076;    1,091;    1,591
1042,534; 2706,621;   -0,364;    2,591
1043,079; 2836,167;    2,909;    0,955
1043,625; 2611,803;    1,818;    0,500
1044,170; 2658,621;   -1,364;    1,045
1044,715; 2906,258;    2,455;    0,955
1045,260; 2725,985;    2,182;   -0,955
1045,805; 2786,076;    1,182;   -0,591
1046,350; 2714,167;    1,364;   -0,409
1046,895; 2671,803;    2,909;    1,591
1047,440; 2615,985;    5,364;    0,409
1047,985; 2520,167;    2,818;   -0,955
1048,530; 2451,985;    1,545;    1,227
1049,074; 2521,530;    0,000;    0,318
1049,619; 2496,258;   -1,364;    1,955
1050,164; 2289,803;    0,455;    0,227
1050,708; 2336,076;   -0,455;    0,045
1051,253; 2704,530;    1,273;   -2,227
1051,797; 2412,621;    0,818;   -1,318
1052,342; 2427,894;   -1,182;    1,045
1052,886; 2418,258;    0,364;   -1,409
1053,430; 2317,894;   -1,364;    0,136
1053,975; 2326,348;   -0,818;   -0,318
1054,519; 2298,530;   -0,727;    3,227
1055,063; 2315,348;    0,909;    1,318
1055,607; 2210,985;   -0,182;    0,227
1056,151; 2221,894;    2,909;    1,682
1056,695; 2136,621;    2,273;   -1,136
1057,239; 2210,803;   -1,727;   -0,682
1057,783; 2213,258;    0,818;   -1,500
1058,327; 2163,167;    0,000;    1,409
1058,871; 2387,439;   -0,545;    1,318
1059,415; 2102,167;   -0,818;   -0,045
1059,958; 2377,439;    1,455;    2,591
1060,502; 2102,803;   -1,000;   -0,773
1061,046; 2016,803;    0,364;   -0,955
1061,589; 1986,985;   -3,000;   -1,136
1062,133; 1858,621;   -1,273;    1,864
1062,676; 1789,894;    1,182;    0,864
1063,220; 1798,712;    1,091;    0,500
1063,763; 1822,439;    0,909;    1,136
1064,306; 1906,985;   -0,909;    1,864
1064,849; 1787,985;   -0,909;    0,591
1065,393; 1788,348;    2,000;   -1,500
1065,936; 1900,985;    0,182;   -0,409
1066,479; 1789,894;   -1,455;    1,318
1067,022; 1805,621;   -0,273;   -0,227
1067,565; 1707,348;   -0,091;   -1,318
1068,108; 1744,258;    0,727;   -0,591
1068,651; 1729,803;   -0,636;    1,409
1069,194; 1640,712;   -0,455;   -1,682
1069,736; 1640,167;   -1,273;    0,955
1070,279; 1630,894;   -1,364;   -0,500
1070,822; 1667,258;   -2,000;   -0,318
1071,364; 1748,803;   -0,364;    1,318
1071,907; 1571,439;   -0,727;    3,227
1072,450; 1486,439;    0,000;   -0,045
1072,992; 1484,167;   -0,273;    3,136
1073,535; 1624,803;    2,091;    2,136
1074,077; 1413,803;   -0,727;    2,045
1074,619; 1387,258;   -1,364;    0,591
1075,161; 1406,348;   -1,091;    1,500
1075,704; 1593,712;    1,545;    1,227
1076,246; 1411,439;   -0,182;    0,682
1076,788; 1323,894;   -0,364;    1,773
1077,330; 1404,167;    1,273;    2,136
1077,872; 1369,167;    0,909;    0,955
1078,414; 1572,803;    2,727;    0,773
1078,956; 1326,894;    1,273;   -0,227
1079,498; 1576,348;    1,636;    0,318
1080,040; 1275,985;    1,909;   -1,318
1080,581; 1214,439;    1,636;   -0,318
1081,123; 1158,985;    0,091;   -0,773
1081,665; 1188,258;   -1,182;   -0,955
1082,206; 1479,439;    1,364;   -0,500
1082,748; 1346,621;    0,727;    2,045
1083,289; 1230,894;   -2,000;    1,318
1083,831; 1124,348;   -0,545;    0,227
1084,372; 1169,348;    0,000;    0,591
1084,913; 1186,076;    1,091;    0,864
1085,455; 1146,803;   -1,909;   -2,045
1085,996; 1111,530;   -2,273;    0,136
1086,537; 1132,439;   -0,091;    0,864
1087,078; 1154,530;   -0,909;   -2,136
1087,619; 1215,167;   -1,273;    0,227
1088,160; 1132,985;    0,000;    1,318
1088,701; 1118,712;   -1,091;    0,682
1089,242; 1050,621;    1,364;   -2,227
1089,783; 1150,985;   -0,273;    1,409
1090,324; 1113,803;    0,455;    0,682
1090,865; 1001,167;    2,727;   -0,409
1091,405;  968,985;    0,727;    2,227
1091,946;  984,348;    0,182;   -0,955
1092,487;  913,258;    0,818;   -1,409
1093,027; 1080,985;   -1,364;   -1,500
1093,568;  934,621;   -0,364;    1,227
1094,108; 1030,439;    0,273;    1,773
1094,649;  970,530;   -1,182;    0,136
1095,189;  916,439;   -0,636;   -0,682
1095,729;  842,167;   -0,091;    0,955
1096,269;  859,530;    0,727;   -0,955
1096,810; 1182,712;   -1,364;    0,500
1097,350; 1005,258;    1,364;   -0,773
1097,890;  900,712;    0,364;    1,227
1098,430; 1150,712;    2,364;    2,864
1098,970; 1030,803;    2,182;    1,682
1099,510;  883,076;    0,545;   -2,318
1100,050;  818,076;    1,000;   -1,591
1100,589;  792,076;   -0,727;   -0,318
1101,129;  908,439;    0,818;   -0,955
1101,669; 1060,621;    1,727;    2,136
1102,209;  891,985;   -0,091;    2,227
1102,748;  844,530;    0,000;    0,955
1103,288;  837,985;    1,273;   -1,227
1103,827;  861,348;    3,091;   -2,227
1104,367;  729,348;   -0,091;   -2,409
1104,906;  701,258;    1,364;   -1,136
1105,445;  778,803;    0,636;   -1,136
1105,985;  720,167;   -0,727;    1,500
1106,524;  770,076;   -1,727;   -0,682
1107,063;  735,258;   -2,727;    1,409
1107,602;  713,258;   -1,909;   -1,500
1108,141;  632,894;   -1,909;    1,500
1108,680;  736,712;   -3,455;   -0,591
1109,219;  665,076;   -0,909;   -0,500
1109,758;  676,076;    0,455;    0,682
1110,297;  647,076;    1,000;   -0,682
1110,836;  594,803;   -0,727;    0,955
1111,375;  752,439;   -2,545;    0,409
1111,913;  769,439;   -1,000;    0,773
1112,452;  695,803;   -0,273;    0,136
1112,991;  587,803;    1,091;    1,955
1113,529;  544,894;   -0,818;   -0,045
1114,068;  613,530;   -0,273;    2,955
1114,606;  511,439;   -0,364;   -0,955
1115,144;  675,439;   -1,273;    1,045
1115,683;  621,803;   -0,727;    0,318
1116,221;  667,621;   -0,455;   -0,864
1116,759;  573,439;    0,636;   -0,864
1117,297;  763,803;    0,000;    1,864
1117,836;  577,530;   -2,182;   -1,227
1118,374;  579,985;    0,182;   -0,682
1118,912;  524,712;    0,909;    2,682
1119,450;  517,167;    1,000;    0,864
1119,988;  564,167;    1,545;    2,136
1120,525; 1016,258;    5,091;    3,318
1121,063;  717,439;    1,182;    1,864
1121,601;  526,985;   -0,909;   -1,227
1122,139;  481,439;   -0,727;   -2,045
1122,676;  679,167;   -0,727;    2,773
1123,214;  611,167;   -1,182;    4,409
1123,751;  427,803;    1,727;    2,227
1124,289;  563,621;   -0,091;   -0,409
1124,826;  425,076;    1,727;    0,227
1125,364;  347,712;    1,727;   -0,955
1125,901;  530,258;    1,182;    1,227
1126,438;  646,258;    0,818;    0,955
1126,975;  384,712;   -0,727;   -0,773
1127,513;  440,985;    0,273;    2,136
1128,050;  350,348;    1,636;   -0,682
1128,587;  454,348;    2,000;   -0,227
1129,124;  497,258;    0,091;    1,318
1129,661;  365,803;    0,273;    0,227
1130,198;  528,439;    1,636;    0,773
1130,734;  458,985;    0,182;    1,409
1131,271;  321,803;   -0,909;    0,864
1131,808;  500,167;    2,909;    3,045
1132,345;  371,621;    1,545;    0,318
1132,881;  249,076;   -1,545;   -1,864
1133,418;  392,348;    0,727;   -1,136
1133,954;  328,167;    2,455;   -2,682
1134,491;  397,258;    1,364;   -0,773
1135,027;  295,258;    2,364;    0,864
1135,564;  387,712;    0,273;    2,955
1136,100;  362,439;    0,364;    2,136
1136,636;  264,985;   -1,273;   -1,045
1137,172;  354,621;    0,000;   -1,045
1137,708;  283,621;   -1,364;   -1,045
1138,245;  284,530;    1,273;   -1,227
1138,781;  241,712;    1,091;   -3,318
1139,317;  299,530;    1,273;   -1,409
1139,852;  290,439;    3,091;    0,136
1140,388;  398,712;   -1,182;   -0,409
1140,924;  285,712;   -1,091;   -2,227
1141,460;  233,076;   -1,636;    0,136
1141,996;  163,712;   -1,364;    2,682
1142,531;  206,167;    1,364;    3,318
1143,067;  412,621;    1,182;    1,045
1143,602;  471,985;   -0,091;   -0,318
1144,138;  333,894;   -2,636;    1,045
1144,673;  192,712;   -1,455;    1,409
1145,209;  257,167;   -1,909;   -0,318
1145,744;  191,439;   -0,727;    0,864
1146,279;  320,803;    1,818;   -0,136
1146,815;  231,439;    1,545;   -2,682
1147,350;  272,167;   -1,364;    0,045
1147,885;  193,712;   -0,818;   -1,318
1148,420;  192,894;   -2,273;    0,773
1148,955;  166,985;   -1,727;    1,864
1149,490;  183,348;   -0,909;   -1,591
1150,025;  172,894;    0,455;   -1,773
1150,560;  283,530;    1,091;   -0,955
1151,094;  258,076;    1,455;   -0,591
1151,629;  259,258;    1,636;    0,864
1152,164;  181,167;    1,364;    1,318
1152,698;  148,803;   -0,182;   -0,136
1153,233;  105,621;    0,091;   -0,682
1153,767;  154,621;   -3,000;   -2,318
1154,302;  201,439;   -1,455;    1,773
1154,836;  205,258;   -0,455;   -2,136
1155,371;  254,076;   -1,364;    3,682
1155,905;  201,076;   -0,636;    1,682
1156,439;  159,621;   -0,636;   -0,500
1156,973;  200,348;    0,364;    0,318
1157,507;  136,985;   -0,364;    0,682
1158,042;  164,894;   -0,727;    1,045
1158,576;  209,258;    0,182;    1,773
1159,110;  201,894;   -0,818;    2,409
1159,643;  172,621;    0,636;   -0,045
1160,177;  113,621;   -1,545;    1,500

