
Integration time [ms]:   0,040
Averaging Nr. [scans]: 11
Smoothing Nr. [pixels]: 0
Data measured with spectrometer [name]: 7318044SP
Wave   ;Sample   ;Dark     ;Reference
[nm]   ;[counts] ;[counts] ;[counts] 

186,757;   22,625;   31,551;    1,318
187,357;   56,999;   22,551;    0,955
187,958;   34,698;   15,460;   -1,591
188,558;   73,623;    8,915;   -1,227
189,159;   43,910;    6,733;   -4,500
189,759;   19,242;    7,278;   -3,591
190,360;   10,543;    2,824;   -2,136
190,960;   54,237;    2,915;   -4,136
191,560;   63,194;    3,189;   -6,591
192,161;  286,525;    4,372;   -3,500
192,761;  141,381;    4,010;   -3,227
193,361;   92,670;    1,556;   -3,773
193,962;  145,420;    2,010;   -2,682
194,562;   75,643;    1,189;   -3,955
195,162;  102,465;   -2,448;   -2,227
195,762;  257,631;   -3,176;   -0,045
196,362;  214,913;    1,370;   -2,500
196,963;   80,138;    2,006;   -0,864
197,563;  159,351;    1,551;   -0,955
198,163;  105,499;    0,096;   -0,682
198,763;  107,971;    1,733;   -0,500
199,363;  214,034;    3,096;   -0,500
199,963;  179,058;    0,369;    0,409
200,563;  152,826;    2,823;   -1,409
201,163;  135,686;    3,277;   -0,227
201,763;  219,410;    3,732;    0,318
202,363;  160,113;    1,459;    1,500
202,963;  275,550;    1,459;    1,045
203,563;  390,845;    0,277;    0,500
204,162;  231,030;    2,096;   -1,864
204,762;  214,881;    0,550;    0,591
205,362;  184,110;    3,004;    1,955
205,962;  279,686;    3,096;    1,955
206,562;  291,861;    1,823;    2,318
207,161;  257,676;   -0,087;    0,318
207,761;  406,073;    1,277;    2,409
208,361;  287,668;   -0,268;    1,409
208,960;  384,464;    0,459;    1,500
209,560;  451,428;    1,277;    1,591
210,160;  441,054;    0,550;    1,864
210,759;  413,077;    4,186;    1,227
211,359;  418,439;    1,459;    1,045
211,958;  672,056;    1,277;    2,045
212,558;  754,234;    1,732;    1,864
213,157;  595,516;    1,822;    1,500
213,757; 1035,262;    3,822;   -0,227
214,356;  731,735;    1,277;   -0,409
214,956; 1061,319;    3,095;    0,409
215,555;  694,084;    2,095;    2,136
216,154;  635,296;   -2,723;   -0,591
216,754;  654,840;    0,277;    0,773
217,353;  776,249;   -0,268;   -1,045
217,952;  630,888;   -0,178;    0,318
218,552;  863,797;    1,368;   -0,773
219,151;  771,201;    0,277;    0,955
219,750;  775,185;    0,004;   -0,227
220,349;  898,952;   -0,451;    1,045
220,948;  968,327;   -1,360;    1,136
221,548;  985,429;    0,913;    1,227
222,147; 1090,911;   -0,087;   -0,409
222,746; 1363,961;   -0,451;   -0,955
223,345; 1242,419;    0,731;    0,500
223,944; 1257,192;   -0,451;    0,773
224,543; 1410,910;    1,004;   -1,409
225,142; 1535,040;    0,094;    0,136
225,741; 1433,531;   -0,814;    1,045
226,340; 1458,838;   -0,451;   -0,955
226,939; 1892,000;   -0,996;   -0,136
227,538; 1833,104;   -0,360;   -0,773
228,137; 2008,963;   -0,814;    0,864
228,735; 2130,872;   -0,541;    1,227
229,334; 1885,325;   -0,905;   -0,227
229,933; 2256,024;    0,459;    0,591
230,532; 2351,833;    1,186;   -0,409
231,131; 2384,403;    1,732;    0,318
231,729; 2522,475;   -2,450;   -2,318
232,328; 2636,351;   -0,723;   -1,500
232,927; 2699,459;    1,004;   -0,500
233,525; 2827,794;    3,640;    0,045
234,124; 3018,621;    2,368;   -1,591
234,723; 3027,172;    0,913;   -1,045
235,321; 3170,881;    2,277;    0,136
235,920; 3390,475;    1,186;   -1,227
236,518; 3662,275;    3,459;    0,318
237,117; 3825,036;    0,004;   -0,227
237,715; 3975,477;    0,640;   -0,500
238,314; 4026,744;   -0,087;   -2,318
238,912; 4110,320;   -0,723;   -1,409
239,510; 4130,772;    0,459;   -1,227
240,109; 4322,120;    0,004;    3,773
240,707; 4345,457;   -0,996;    1,227
241,305; 4731,311;    0,550;    0,136
241,904; 4937,492;   -0,178;   -2,045
242,502; 4864,404;   -0,632;   -0,227
243,100; 4842,021;   -0,087;   -0,955
243,698; 5070,734;    0,732;    1,682
244,297; 5255,871;   -0,632;    0,682
244,895; 5119,061;   -0,269;   -2,318
245,493; 5437,856;    2,186;   -0,591
246,091; 5471,914;    1,368;   -1,318
246,689; 5463,276;    1,004;    0,591
247,287; 5621,609;    0,822;   -1,136
247,885; 5897,987;   -1,451;    1,227
248,483; 6021,668;    1,822;   -0,500
249,081; 6141,608;    0,185;    1,591
249,679; 6272,999;   -0,178;    1,682
250,277; 6542,528;   -1,723;    0,864
250,875; 6536,203;   -1,087;   -1,045
251,473; 6543,431;   -1,178;    0,500
252,071; 6743,759;    1,459;    1,045
252,669; 6921,465;   -1,814;    0,318
253,267; 7166,127;   -0,087;    0,773
253,864; 7115,881;   -0,360;    0,682
254,462; 6994,894;    1,640;    1,591
255,060; 6971,709;   -0,269;    1,318
255,658; 7273,738;    0,822;   -0,136
256,255; 7675,881;    0,186;   -2,045
256,853; 7555,260;   -0,269;    1,409
257,451; 7566,764;    0,822;    1,864
258,048; 7832,942;    1,822;    1,864
258,646; 7595,530;    1,731;   -1,045
259,243; 7801,260;   -0,087;    2,227
259,841; 7832,799;   -0,814;    0,318
260,438; 7738,776;   -0,087;    0,864
261,036; 8421,902;   -1,905;    1,409
261,633; 8333,012;   -0,087;    2,227
262,231; 8081,402;    2,731;   -0,045
262,828; 8184,442;   -0,905;    1,136
263,425; 8252,031;    0,913;   -0,591
264,023; 8494,436;    0,186;    0,045
264,620; 8037,892;   -0,360;   -0,318
265,217; 8370,284;   -2,087;    3,136
265,815; 8516,242;   -1,905;    2,136
266,412; 8287,467;    0,731;    0,136
267,009; 8307,763;   -1,451;    0,773
267,606; 8218,530;    0,822;   -0,955
268,203; 8199,209;   -0,269;   -0,591
268,801; 8470,313;    1,731;    0,591
269,398; 8790,748;   -0,360;    2,500
269,995; 8758,533;    0,277;    1,591
270,592; 8519,810;   -0,632;   -0,500
271,189; 8715,778;    0,186;    0,409
271,786; 8843,972;   -0,632;    1,227
272,383; 8693,995;   -1,087;    0,227
272,980; 8875,916;    0,277;    0,318
273,577; 9302,983;    0,004;    1,227
274,174; 8913,198;    0,822;    2,591
274,771; 8901,192;   -0,814;   -0,773
275,367; 9004,073;    2,277;    1,409
275,964; 8954,688;    0,731;   -0,500
276,561; 9070,649;    1,549;   -1,045
277,158; 9312,090;    0,095;   -1,773
277,755; 9444,880;    2,185;    0,409
278,351; 8834,075;   -0,451;   -1,500
278,948; 9112,667;   -0,815;    0,045
279,545; 9163,780;   -1,360;    2,318
280,141; 9732,579;   -1,723;   -2,045
280,738; 9580,282;   -0,451;   -0,136
281,334; 9832,838;   -1,633;    0,591
281,931; 9234,014;   -0,087;   -1,318
282,528; 9377,587;    0,822;   -0,500
283,124;10056,258;   -1,087;   -0,500
283,721; 9968,739;   -0,451;    1,409
284,317; 9793,713;    0,185;    2,500
284,913;10310,710;   -1,360;    0,591
285,510;10505,892;    0,640;   -0,318
286,106;10531,578;   -2,269;   -0,955
286,703;10132,180;   -0,360;    1,955
287,299;10336,162;   -1,451;   -0,591
287,895;10557,468;    0,822;   -1,045
288,491;11117,929;    0,186;    2,136
289,088;10840,633;   -2,360;    2,409
289,684;10896,920;   -1,723;    1,500
290,280;10886,213;    0,368;    0,682
290,876;10975,952;    1,822;    5,500
291,472;10920,666;    1,276;    2,227
292,068;11008,125;    1,367;    0,227
292,665;10716,253;    2,095;    0,773
293,261;10341,870;    0,276;    2,136
293,857;10753,121;    2,913;    2,136
294,453;10685,841;    3,550;    0,955
295,049;10542,952;   -0,268;    1,955
295,644;10584,488;    0,095;    0,136
296,240;10485,172;   -0,905;   -0,136
296,836;10567,973;   -0,995;    0,318
297,432;10813,172;    1,096;   -0,500
298,028;10831,688;    0,732;    0,773
298,624;11272,885;    1,459;    1,864
299,220;11505,211;    2,368;    0,591
299,815;11144,463;    1,005;   -0,409
300,411;10936,043;    0,914;    1,773
301,007;10987,049;    1,368;    0,227
301,602;11040,490;   -0,541;   -2,318
302,198;11180,587;    0,732;   -0,773
302,794;11521,269;    1,187;   -0,500
303,389;11647,544;   -1,177;    1,045
303,985;11729,334;    0,550;    1,409
304,580;11707,087;    1,459;    1,591
305,176;11660,649;   -3,086;    0,136
305,771;11576,504;   -1,268;   -1,227
306,367;11414,115;    4,095;    0,136
306,962;11775,308;    0,641;    1,500
307,558;11514,338;   -0,450;    0,136
308,153;11435,649;    1,095;   -1,136
308,748;11676,978;   -0,814;    1,682
309,344;11633,237;   -0,632;   -1,318
309,939;11678,170;   -1,905;   -1,318
310,534;11985,930;   -0,086;   -1,682
311,130;11908,040;    0,459;   -2,500
311,725;11639,773;    1,004;   -0,500
312,320;11958,643;    2,459;    0,045
312,915;11783,477;    1,459;   -1,045
313,510;11845,350;    1,550;   -0,500
314,105;12368,052;    1,096;    1,409
314,700;11776,604;   -3,086;   -1,045
315,295;11413,905;   -0,904;    0,045
315,890;10993,034;    1,277;    0,864
316,485;11364,956;   -0,359;   -0,318
317,080;11495,582;   -3,086;    1,591
317,675;12001,462;    2,005;   -0,682
318,270;11427,227;    5,550;    3,318
318,865;11473,408;    3,278;    3,045
319,460;11279,005;   -0,904;    0,591
320,055;11536,917;   -0,541;   -1,227
320,650;11179,428;   -1,995;   -0,591
321,244;11246,102;   -0,177;   -1,409
321,839;12171,061;   -1,541;   -0,227
322,434;12082,733;   -1,086;   -1,591
323,029;11651,353;    1,732;    1,591
323,623;11506,160;    1,550;    0,773
324,218;11263,438;    2,368;    1,409
324,812;11158,543;    1,096;    1,591
325,407;10979,550;   -0,814;    2,045
326,002;10862,976;    0,277;   -0,409
326,596;11175,602;    0,914;    1,318
327,191;11376,063;    0,823;   -1,045
327,785;10964,329;   -0,813;   -0,227
328,379;11161,548;    1,368;    0,136
328,974;10970,578;    0,914;   -3,955
329,568;11193,938;    0,186;   -2,409
330,163;10998,203;    2,096;    1,045
330,757;11385,292;    2,459;    1,591
331,351;10755,405;    0,459;    0,682
331,945;11003,632;    0,914;    1,409
332,540;10601,133;   -1,723;   -0,591
333,134;10760,535;   -1,086;    0,773
333,728;10994,375;    0,005;    0,318
334,322;11331,122;   -1,177;   -0,864
334,916;10644,604;    0,277;    0,955
335,510;10978,434;   -0,450;   -0,136
336,105;11214,699;   -1,086;    1,591
336,699;10909,135;   -1,086;    0,591
337,293;10883,845;   -1,723;    0,318
337,887;11016,400;   -2,723;    1,955
338,481;11121,163;    0,459;    0,591
339,074;11275,603;   -0,359;    2,682
339,668;11098,751;   -1,632;    1,227
340,262;11331,476;    1,732;    3,227
340,856;10887,763;    1,822;   -0,682
341,450;10267,194;    1,004;    1,864
342,044;11184,845;    1,459;    0,136
342,637;10930,574;    0,913;   -2,136
343,231;10758,279;   -2,360;    0,682
343,825;10761,407;   -1,086;   -0,591
344,419;10770,273;   -1,995;    0,500
345,012;10506,388;    2,459;    4,045
345,606;10477,898;    4,641;    1,591
346,199;10341,010;   -1,813;   -0,227
346,793; 9900,339;    1,914;    2,045
347,386;10101,330;   -0,813;   -1,136
347,980;10097,997;   -0,268;   -0,045
348,573; 9862,773;    2,278;    0,409
349,167; 9547,456;    5,278;    4,773
349,760; 9882,761;    2,914;    2,682
350,354; 9872,665;   -0,813;    1,136
350,947; 9635,893;    1,096;    1,682
351,540; 9343,740;   -0,358;   -1,409
352,134; 9268,155;    1,096;    1,136
352,727; 9339,175;   -0,086;    1,136
353,320; 9156,462;    0,005;    0,591
353,913; 8998,315;   -1,995;    1,864
354,507; 9153,592;    0,823;   -1,227
355,100; 9209,405;    0,460;    0,864
355,693; 8442,559;    2,005;    2,409
356,286; 8463,790;    0,823;    2,773
356,879; 8842,580;   -0,722;    1,227
357,472; 8450,886;   -0,904;    1,500
358,065; 8669,480;   -0,722;    2,500
358,658; 8585,761;   -0,540;    2,318
359,251; 8246,126;   -1,631;   -0,591
359,844; 7726,932;   -1,904;   -1,136
360,437; 7878,376;   -2,995;    0,045
361,030; 8161,278;    1,369;   -0,682
361,623; 7773,652;    2,824;    0,318
362,215; 7815,053;   -0,086;    2,045
362,808; 7631,421;   -2,358;   -1,682
363,401; 7846,251;   -2,449;    0,136
363,994; 7560,760;   -0,631;   -1,500
364,586; 7515,677;    0,824;   -1,500
365,179; 7712,876;   -0,449;   -1,136
365,772; 7193,988;   -1,995;    2,045
366,364; 7509,369;    1,915;   -3,227
366,957; 7712,334;    2,279;   -0,045
367,549; 7729,810;    2,188;   -0,864
368,142; 7407,155;    1,825;   -1,500
368,734; 7573,421;    0,734;   -2,136
369,327; 7530,589;    1,643;   -0,500
369,919; 7466,806;   -1,538;    0,409
370,512; 7275,619;   -1,083;   -0,500
371,104; 7016,251;   -0,901;    1,591
371,696; 7150,841;    1,191;   -0,955
372,289; 7257,309;    0,373;    1,136
372,881; 7384,375;   -2,080;    1,318
373,473; 7337,123;   -2,170;    1,136
374,066; 7153,174;   -0,169;    0,500
374,658; 7030,548;    0,378;    1,136
375,250; 7336,113;    0,653;   -1,409
375,842; 7193,473;    0,473;   -0,045
376,434; 7048,661;   -0,435;   -0,409
377,026; 7627,188;    0,204;   -2,500
377,618; 7505,482;   -0,158;   -0,682
378,210; 7352,706;   -0,338;   -1,955
378,802; 7222,102;    0,754;   -0,591
379,394; 7178,488;    1,846;    0,682
379,986; 7805,657;    1,393;   -0,955
380,578; 7869,787;   -0,153;    0,773
381,170; 7208,163;   -0,972;    0,045
381,762; 7163,896;    0,755;    1,409
382,354; 7361,670;   -0,065;   -1,318
382,945; 7464,203;   -2,976;    0,318
383,537; 7606,993;   -2,705;   -1,955
384,129; 7629,933;   -2,160;   -1,136
384,721; 7823,582;   -0,252;    0,955
385,312; 7744,641;   -0,161;   -0,955
385,904; 7788,952;   -2,706;    1,591
386,496; 7199,108;   -0,979;    1,045
387,087; 7339,426;    1,022;    2,500
387,679; 7399,495;   -1,160;    0,045
388,270; 7524,842;    2,840;    2,045
388,862; 7619,520;    1,295;   -0,318
389,453; 7512,968;   -0,887;    1,045
390,045; 7762,210;   -0,705;   -2,682
390,636; 7720,613;    0,204;   -0,591
391,227; 7578,821;   -0,523;   -0,045
391,819; 7691,106;    0,204;    0,773
392,410; 7746,912;    1,022;    0,045
393,001; 7699,087;   -0,979;   -1,591
393,593; 7962,583;    1,930;   -0,045
394,184; 7794,361;    1,385;   -0,409
394,775; 7717,301;    1,839;    2,136
395,366; 7923,516;    1,385;    0,773
395,957; 7910,308;    0,113;    0,136
396,548; 8241,782;   -0,342;    2,682
397,139; 8518,024;   -2,433;    0,591
397,730; 8234,030;   -1,888;    0,955
398,321; 8319,412;   -1,252;    0,955
398,912; 8354,903;   -0,615;    0,136
399,503; 8443,659;   -3,524;   -1,409
400,094; 7886,429;    0,294;    1,682
400,685; 7742,621;   -0,433;    0,045
401,276; 7821,706;    0,930;   -0,955
401,867; 8125,902;   -0,888;    0,773
402,458; 8218,310;   -2,251;   -2,318
403,048; 8214,271;    1,112;    0,591
403,639; 7849,066;    0,840;    0,864
404,230; 8066,666;    2,476;    0,318
404,821; 7994,023;   -0,615;    0,045
405,411; 8121,794;    1,203;   -2,591
406,002; 7717,666;   -1,252;   -1,136
406,592; 7588,049;    2,294;    0,045
407,183; 7883,377;    0,566;   -1,500
407,774; 7811,337;    3,475;   -0,136
408,364; 8097,299;    0,930;    0,409
408,954; 7733,459;    0,384;    1,227
409,545; 7787,366;    1,021;    1,045
410,135; 7333,569;    1,293;    0,500
410,726; 7475,182;    1,838;    0,318
411,316; 7843,125;    0,111;    0,773
411,906; 7533,263;   -0,253;   -0,409
412,497; 7064,356;   -1,070;   -0,045
413,087; 7649,782;   -1,980;   -0,227
413,677; 8035,485;   -0,707;    3,864
414,267; 7853,088;    0,656;    1,409
414,857; 7846,456;   -2,980;    4,227
415,448; 8121,999;    0,839;    0,500
416,038; 7840,487;    0,020;   -0,591
416,628; 7807,847;   -0,889;    0,409
417,218; 7266,736;    0,565;    3,318
417,808; 7538,740;    0,202;   -0,409
418,398; 7989,863;    0,020;    2,682
418,988; 7976,927;    2,020;    0,591
419,578; 8230,005;   -0,707;    1,409
420,168; 8546,991;   -1,343;   -0,955
420,757; 8125,665;   -1,343;   -1,500
421,347; 7818,943;    0,111;   -0,227
421,937; 7994,153;    2,292;    1,409
422,527; 7952,709;    0,838;   -0,773
423,116; 7761,438;   -0,253;   -0,045
423,706; 8080,235;   -1,889;    0,318
424,296; 8071,597;    1,384;    0,682
424,885; 8475,416;   -0,071;   -3,045
425,475; 8742,336;    1,474;   -2,864
426,065; 8673,547;   -0,980;   -0,318
426,654; 8294,730;   -0,435;   -0,318
427,244; 8392,551;    0,020;    1,409
427,833; 7898,637;    1,383;   -0,500
428,423; 8313,963;   -0,526;    1,136
429,012; 9084,711;   -0,344;   -1,136
429,601; 8584,298;   -1,344;    0,136
430,191; 8793,309;    1,292;    4,318
430,780; 8428,662;   -0,344;   -0,409
431,369; 8380,935;    0,746;   -0,045
431,959; 9006,514;   -1,254;    0,500
432,548; 8755,638;   -1,163;   -0,045
433,137; 8886,284;   -1,254;   -1,318
433,726; 9384,640;    0,292;    0,500
434,315; 8763,798;   -0,526;    2,409
434,905; 8849,314;   -1,254;    1,409
435,494; 8776,147;    0,746;    0,955
436,083; 9237,068;   -0,981;   -0,955
436,672; 9101,077;    0,110;    0,500
437,261; 8669,609;    0,292;   -1,955
437,850; 8793,571;    1,383;    0,682
438,439; 8734,841;    3,291;    1,955
439,027; 8592,574;    3,655;    1,773
439,616; 8939,256;    2,927;    1,227
440,205; 8793,120;    0,200;   -2,136
440,794; 8841,987;    2,109;   -0,045
441,383; 9111,248;   -1,346;   -0,591
441,971; 8994,336;   -2,436;    0,591
442,560; 8815,021;    0,563;   -1,773
443,149; 8547,808;    0,379;   -1,318
443,737; 8707,017;   -0,074;   -2,318
444,326; 8958,477;    0,018;    0,318
444,915; 9002,595;   -1,982;    0,864
445,503; 9398,405;   -2,891;   -0,318
446,092; 8631,411;    0,382;    2,136
446,680; 9159,877;    0,382;    0,318
447,269; 9360,671;   -0,346;   -0,318
447,857; 9112,595;    0,018;   -1,773
448,445; 9227,449;    0,563;    1,318
449,034; 9441,475;   -1,528;   -1,136
449,622; 9582,567;   -1,073;    3,500
450,210; 8814,508;    2,017;    2,227
450,799; 9326,877;    0,290;   -0,591
451,387; 9267,187;    1,381;   -0,591
451,975; 8927,997;    2,654;    0,864
452,563; 9020,589;    3,472;    2,318
453,151; 9054,065;   -0,528;   -1,227
453,739; 8983,429;   -1,347;    0,136
454,328; 8836,571;    2,381;   -2,136
454,916; 8573,886;    2,562;   -0,136
455,504; 8763,451;    1,017;    1,227
456,092; 8938,380;    0,017;   -1,591
456,679; 8896,079;    1,472;    0,682
457,267; 8831,731;    4,017;    1,045
457,855; 8965,618;    1,017;    1,409
458,443; 8728,455;   -0,165;    1,682
459,031; 8892,262;    0,108;    2,409
459,619; 9294,858;   -1,801;    2,864
460,206; 9422,713;    0,835;    2,045
460,794; 9516,481;   -2,983;   -0,227
461,382; 9739,171;   -0,529;   -0,864
461,970; 9337,019;    1,198;    1,864
462,557; 9392,775;   -0,711;   -0,682
463,145; 9551,645;   -3,165;   -1,682
463,732; 9682,579;    2,016;   -1,045
464,320; 9580,809;   -0,075;   -3,045
464,907; 9265,863;    2,743;   -0,773
465,495; 9196,232;    0,743;   -1,227
466,082; 9332,383;   -1,984;   -0,045
466,670; 9214,931;   -2,529;    1,227
467,257; 9672,393;   -1,711;    2,045
467,844; 9803,249;   -0,075;    0,045
468,432; 9817,010;    0,834;    3,500
469,019; 9328,545;    0,925;   -1,773
469,606; 9743,503;    0,470;    3,682
470,193; 9612,863;   -1,439;    0,227
470,780; 9186,174;   -2,075;    0,864
471,368; 9530,400;   -1,257;   -0,773
471,955; 9324,757;    1,379;   -0,682
472,542; 8953,353;    0,652;   -1,136
473,129; 9209,095;   -0,166;    0,136
473,716; 8946,332;    1,470;    0,591
474,303; 9123,969;    0,652;   -0,864
474,890; 9402,854;   -1,439;   -0,500
475,477; 9413,105;   -1,621;    0,409
476,064; 9281,309;    1,106;   -1,591
476,650; 9219,199;    0,288;    0,318
477,237; 9040,744;   -0,258;    0,955
477,824; 9211,597;   -1,076;    0,864
478,411; 9227,231;   -1,894;   -0,318
478,997; 9424,248;    0,560;   -0,773
479,584; 9465,694;    1,196;   -0,409
480,171;10120,958;   -0,440;   -0,773
480,757; 9786,464;    2,651;    0,773
481,344;10055,566;    0,469;    0,409
481,931; 9605,687;    1,105;    1,045
482,517;10483,661;   -1,258;    0,318
483,104;10965,300;    1,106;    2,864
483,690;11242,757;   -1,804;    0,045
484,276;11598,077;   -0,895;    0,227
484,863;11331,613;    2,469;    1,136
485,449;11944,454;   -0,077;    0,318
486,035;11938,488;   -1,986;   -0,136
486,622;12321,654;   -0,895;    0,045
487,208;12280,179;    1,378;    1,500
487,794;12137,678;    0,741;    0,318
488,380;12244,866;    0,105;   -1,409
488,967;12284,259;   -1,168;   -0,409
489,553;12339,369;   -1,895;   -1,409
490,139;12542,249;    1,559;    0,773
490,725;12031,798;    0,741;   -0,227
491,311;11646,491;    3,287;    3,045
491,897;11041,857;   -0,986;    1,500
492,483;10908,257;    0,105;    1,227
493,069;10715,375;    3,923;    0,864
493,655;10679,147;    1,650;    0,682
494,241;10605,385;    1,377;   -0,955
494,826;11021,004;    0,287;   -1,045
495,412;10490,489;    2,559;   -0,682
495,998;10666,164;   -0,805;   -0,318
496,584;10790,821;    0,377;    1,045
497,169;10826,981;    1,014;   -0,682
497,755;10821,341;    0,650;    1,227
498,341;11348,525;    0,559;    0,318
498,926;10934,961;    1,832;    1,955
499,512;11116,142;    1,286;    2,955
500,097;11290,117;    0,195;   -0,318
500,683;11305,290;   -0,350;    2,136
501,268;11682,322;   -0,169;   -0,955
501,854;11382,845;   -0,169;    1,227
502,439;11349,139;   -0,624;   -1,773
503,024;11556,366;    0,195;    0,500
503,610;11669,940;   -0,078;   -0,682
504,195;11669,706;    0,558;    1,955
504,780;11839,688;    2,922;    1,227
505,366;11664,775;    3,013;    2,864
505,951;11434,127;    0,740;    1,045
506,536;11495,517;   -3,260;   -3,682
507,121;11481,448;    0,285;   -0,318
507,706;12059,996;    2,376;    1,045
508,291;12455,946;    2,649;    1,136
508,876;11935,927;   -0,988;    2,591
509,461;11413,366;   -0,169;   -0,773
510,046;11860,666;    0,194;    0,318
510,631;12065,472;   -0,351;   -0,773
511,216;11765,815;    2,467;   -0,500
511,801;12170,580;   -0,442;    2,591
512,386;12477,902;    0,740;    0,500
512,971;12437,014;   -2,988;    0,955
513,555;11996,242;   -0,897;   -1,500
514,140;12770,550;   -0,442;   -3,136
514,725;12784,998;   -0,715;   -1,136
515,309;12931,539;   -0,533;    0,318
515,894;12396,599;   -0,624;   -2,227
516,479;12850,606;   -0,624;   -0,955
517,063;12685,418;    0,376;    1,227
517,648;12832,784;    1,012;   -1,136
518,232;12492,943;   -0,261;   -1,409
518,817;12850,005;   -0,079;    1,682
519,401;13052,424;    2,194;    0,591
519,985;12589,236;    1,103;    1,136
520,570;12462,826;    0,830;   -1,955
521,154;12731,897;    2,102;    0,591
521,738;12893,463;   -2,352;    2,409
522,323;13480,619;   -0,170;    1,682
522,907;13222,703;    0,466;   -0,136
523,491;12949,614;    0,557;    0,955
524,075;12944,040;    2,284;    0,591
524,659;13052,058;    1,466;    0,591
525,243;12510,728;    1,739;    0,409
525,827;12767,374;    0,648;   -0,045
526,411;13596,149;   -1,989;   -0,136
526,995;13799,853;   -0,352;    1,409
527,579;13427,426;   -0,443;   -1,045
528,163;13686,378;    0,375;   -1,500
528,747;13616,556;    2,466;   -0,773
529,331;13937,946;   -0,080;   -1,409
529,915;14124,773;    1,738;    0,955
530,499;14091,743;   -0,807;    1,227
531,082;13804,697;   -0,534;    1,591
531,666;13219,973;    1,374;    0,773
532,250;13913,708;    1,284;    2,682
532,833;14244,303;    0,920;    2,773
533,417;14094,335;   -1,807;    0,864
534,001;14082,198;    1,647;   -0,318
534,584;14761,517;    0,374;    0,500
535,168;14594,970;    0,465;    1,409
535,751;14628,459;    0,647;    0,045
536,334;14131,375;   -0,898;   -0,409
536,918;14695,403;    0,011;    1,591
537,501;14837,959;   -0,899;    1,318
538,085;14791,419;   -0,444;    1,045
538,668;14940,390;    0,829;    2,409
539,251;15244,906;    1,829;    3,773
539,834;15272,722;    0,101;    0,773
540,418;15203,773;   -1,990;    4,318
541,001;15324,737;   -0,990;    1,773
541,584;15326,287;    2,101;    2,227
542,167;15000,988;    1,374;    2,955
542,750;15157,753;    1,919;   -0,773
543,333;14789,202;    0,555;    2,136
543,916;15505,034;    0,192;    2,500
544,499;16114,466;   -1,354;    0,227
545,082;16136,892;    1,374;    3,591
545,665;16252,098;    1,919;    1,500
546,248;16576,929;    1,010;   -0,318
546,830;16268,895;   -0,445;    1,955
547,413;16678,063;    1,010;   -0,773
547,996;17185,406;    0,555;    0,500
548,579;16941,570;    0,919;    0,955
549,161;16777,996;    1,828;    2,682
549,744;16563,070;   -0,809;    0,409
550,326;17104,798;   -0,809;   -1,136
550,909;16846,506;    2,737;    0,591
551,492;17218,612;   -0,263;    0,227
552,074;17040,179;   -0,173;   -1,318
552,657;17548,240;    2,373;    0,045
553,239;17325,880;   -0,173;   -0,773
553,821;17288,047;   -1,082;    1,045
554,404;16787,027;    1,282;    1,136
554,986;17091,126;    0,464;    1,045
555,568;17704,494;    1,191;   -0,955
556,151;16935,283;    1,191;   -0,227
556,733;17134,850;   -0,264;   -0,864
557,315;17629,965;    0,100;    0,500
557,897;17418,204;    0,554;   -0,500
558,479;17533,691;   -1,991;    1,318
559,061;17649,531;   -0,719;   -0,864
559,643;17995,036;   -0,264;    0,045
560,225;18383,738;    1,645;    2,864
560,807;18380,854;    0,918;    0,318
561,389;17872,373;    0,554;    2,318
561,971;18604,947;    0,463;    2,136
562,553;18387,108;   -1,628;    1,591
563,135;18554,682;   -0,537;    1,136
563,717;18121,105;    3,372;    1,136
564,298;18827,234;    3,645;   -0,045
564,880;18572,054;    0,645;   -1,409
565,462;18747,872;    0,645;    1,318
566,043;19857,423;   -0,446;    2,318
566,625;19365,150;    1,918;    1,227
567,207;19224,800;    1,099;    1,682
567,788;20284,440;   -1,264;    1,500
568,370;21104,974;    1,917;   -0,500
568,951;20899,869;    0,190;    0,227
569,533;21730,711;   -0,628;   -0,500
570,114;22161,915;   -0,446;    0,682
570,695;22602,490;   -0,174;   -1,318
571,277;23130,499;   -0,265;   -1,682
571,858;23836,159;    2,008;   -1,136
572,439;24695,664;    1,554;   -1,045
573,021;24898,098;    2,099;   -2,773
573,602;25375,270;   -1,265;    0,318
574,183;26240,249;   -2,083;    2,227
574,764;26333,125;   -1,629;    0,409
575,345;26848,861;    0,917;   -0,136
575,926;27470,751;   -0,356;    0,136
576,507;27465,542;    1,099;   -0,227
577,088;28565,057;    3,099;    1,682
577,669;28495,313;    0,735;    1,955
578,250;29205,340;    0,644;   -1,045
578,831;29863,880;   -1,356;   -2,227
579,412;30082,648;   -0,810;    0,955
579,993;31033,801;    1,008;    0,227
580,573;31414,105;   -0,629;   -0,955
581,154;30423,617;    0,735;   -0,591
581,735;31246,191;    0,644;    0,773
582,315;30737,282;   -0,629;    2,136
582,896;31024,671;   -0,174;    1,227
583,477;30464,143;    0,189;    1,227
584,057;30674,861;    0,553;    0,955
584,638;30994,619;    2,553;    2,318
585,218;30949,224;   -0,538;    2,682
585,799;31147,703;    0,281;   -0,227
586,379;31125,420;    0,372;    1,591
586,959;29935,946;    0,735;    0,318
587,540;29368,514;   -0,629;    2,227
588,120;28926,565;    1,007;   -0,045
588,700;27874,306;    2,553;    2,136
589,281;28207,317;    0,462;   -0,955
589,861;28139,988;    0,099;   -1,682
590,441;27950,046;    2,371;   -2,682
591,021;26945,073;   -0,265;   -2,591
591,601;27200,900;   -0,537;    0,500
592,181;27241,837;   -0,719;   -0,773
592,761;26540,493;    0,007;    1,409
593,341;26480,097;   -0,901;    0,045
593,921;26451,117;   -0,265;    1,591
594,501;26293,704;   -0,538;    1,318
595,081;26180,691;    0,917;   -0,318
595,661;26501,124;   -1,447;    0,955
596,240;26999,203;   -0,537;    0,136
596,820;26662,220;    0,372;    1,955
597,400;26859,607;    2,008;    0,773
597,980;27079,137;    2,008;    1,045
598,559;27108,241;    2,735;   -0,227
599,139;26821,700;   -0,174;   -1,227
599,718;26743,700;   -0,174;   -0,409
600,298;26975,726;    0,735;    0,682
600,877;27111,412;    2,917;    1,409
601,457;27455,610;    2,281;    1,136
602,036;27346,808;    0,190;    2,045
602,616;27525,954;    0,644;    1,682
603,195;27877,064;   -0,355;    3,500
603,774;27438,583;   -0,901;    2,045
604,354;27310,100;    0,826;   -0,500
604,933;26812,989;    0,463;    1,864
605,512;26955,162;    3,554;    0,591
606,091;27029,755;   -0,537;    3,773
606,671;27816,762;    0,281;    0,773
607,250;26909,218;    1,644;    3,136
607,829;27196,292;    2,372;    3,227
608,408;27049,723;    1,190;    2,591
608,987;26065,882;    1,281;    3,409
609,566;26385,852;   -1,265;   -2,500
610,145;26456,945;   -1,082;    0,682
610,723;26850,251;    4,372;    6,864
611,302;26167,239;   -0,446;    1,682
611,881;25713,245;    5,008;   11,227
612,460;26508,580;    1,645;    3,955
613,039;26934,323;   -0,082;    2,045
613,617;25711,416;    1,736;    4,773
614,196;25898,247;    1,099;    1,227
614,775;26222,927;    1,009;    2,409
615,353;26179,252;    0,736;    0,864
615,932;25897,133;    0,100;    2,409
616,510;26507,381;    0,554;    0,591
617,089;25993,377;    7,100;   17,591
617,667;25762,861;    2,372;    6,136
618,246;25678,882;   -1,537;    1,318
618,824;25832,582;   -3,355;   -0,955
619,402;25414,310;   -2,900;   -1,773
619,981;25889,573;   -0,173;   -1,045
620,559;25692,536;    0,009;    1,682
621,137;25272,964;   -0,718;    1,864
621,715;25303,725;   -1,173;   -0,682
622,293;25220,751;   -0,537;   -0,773
622,871;25686,056;   -0,718;    0,500
623,450;25307,584;    0,373;   -0,864
624,028;25193,747;    0,191;   -0,955
624,606;24788,224;   -1,718;    1,682
625,183;25192,910;   -1,536;   -1,136
625,761;24810,455;    1,009;    1,136
626,339;25112,379;    1,373;    2,591
626,917;25501,985;   -0,172;   -0,045
627,495;25546,563;   -0,354;    1,318
628,073;24993,491;   -0,263;    2,864
628,650;24658,479;    0,100;    2,136
629,228;25102,612;    0,373;    4,409
629,806;24521,935;    2,282;    1,136
630,383;24830,528;    1,464;   -0,318
630,961;24627,147;    2,555;   -0,955
631,539;24409,859;    2,464;    0,227
632,116;23663,784;   11,373;   15,409
632,694;24232,439;    2,555;    6,500
633,271;24518,354;    0,828;    2,682
633,848;24452,637;    1,828;    2,045
634,426;24573,680;   -1,081;    1,773
635,003;23671,077;    1,101;   -0,409
635,580;23941,983;    1,192;    3,682
636,158;24528,246;    3,737;    1,227
636,735;24470,021;    0,555;   -0,500
637,312;24601,883;   -0,809;   -0,682
637,889;24715,827;   -4,354;   -0,682
638,466;24220,705;   -3,990;   -0,409
639,043;24215,169;    2,101;   -1,136
639,620;24600,228;   -2,262;   -0,955
640,197;24880,002;    1,100;    1,682
640,774;24989,686;   -0,172;    1,136
641,351;25397,005;    0,737;    1,136
641,928;24844,871;   -0,627;    1,409
642,505;24407,100;    0,828;   -0,500
643,082;24519,783;   -1,718;    1,227
643,658;23589,830;   -0,718;    1,500
644,235;24349,968;    1,191;    2,500
644,812;24632,379;    1,918;    0,773
645,388;24372,699;   -0,991;    1,409
645,965;24512,291;   -0,809;    1,682
646,542;24600,338;   -1,445;   -0,227
647,118;24524,931;    1,009;   -0,955
647,695;24879,251;   -0,263;    1,136
648,271;24751,571;   -0,536;    0,500
648,848;25103,618;    0,736;    2,227
649,424;24904,483;    0,827;    1,318
650,000;24677,439;   -0,354;   -1,045
650,577;24463,395;   -0,627;   -0,955
651,153;24902,624;   -1,809;    0,955
651,729;25913,762;    1,191;    0,864
652,305;26040,537;    0,645;    2,773
652,881;29972,857;   -0,082;    1,136
653,458;36476,085;    1,100;    0,227
654,034;40269,496;    0,282;    1,591
654,610;41835,816;    0,554;    0,773
655,186;43162,045;    0,645;    3,045
655,762;42897,728;   -0,991;    0,409
656,338;42923,048;    0,100;    0,136
656,913;43880,732;   -0,082;    0,409
657,489;43117,779;    0,827;   -0,318
658,065;43114,280;   -0,173;   -1,591
658,641;43874,055;   -0,900;   -0,864
659,217;43238,738;   -0,991;    0,409
659,792;42559,967;    0,645;   -0,409
660,368;42837,287;   -2,173;   -0,682
660,944;42580,061;   -2,082;    1,227
661,519;38416,836;   -0,628;    0,409
662,095;32777,610;   -1,719;    0,591
662,670;28171,566;    1,281;   -0,136
663,246;26935,159;    1,009;   -0,409
663,821;26214,842;    0,281;    1,682
664,396;25690,980;    0,009;    1,864
664,972;25905,846;    0,009;   -0,500
665,547;26240,438;    1,372;    0,136
666,122;26327,485;   -1,082;    0,318
666,698;26592,623;   -0,173;    0,318
667,273;25933,580;   -0,173;    0,136
667,848;26701,536;    2,372;    1,500
668,423;26479,946;    2,190;    2,318
668,998;27028,539;    2,827;   -0,682
669,573;27546,222;   -3,264;   -1,500
670,148;27352,906;   -1,446;   -0,682
670,723;27193,226;   -1,810;    0,318
671,298;27618,364;    2,372;    1,045
671,873;27714,684;   -0,082;   -0,136
672,448;27658,822;    0,645;    0,136
673,023;27991,414;   -1,992;   -0,227
673,597;28321,461;    0,827;    2,318
674,172;28119,599;   -0,355;    0,318
674,747;27618,737;    0,372;   -1,045
675,321;27485,784;   -0,628;    3,318
675,896;27045,104;    0,645;    1,045
676,471;28042,242;    2,645;    1,591
677,045;27754,198;   -1,264;    0,682
677,620;27835,336;    0,190;    1,136
678,194;28132,747;   -2,628;    1,136
678,769;27731,249;   -1,083;   -0,318
679,343;27941,023;   -0,628;    1,773
679,917;27823,616;   -1,446;    1,955
680,492;27964,027;    0,826;    3,227
681,066;28062,074;    3,372;    0,409
681,640;28076,848;    1,463;   -0,318
682,214;28933,531;    0,735;    0,500
682,788;28396,669;   -1,356;   -0,773
683,363;28334,535;   -1,810;    1,682
683,937;28071,855;   -1,719;   -0,318
684,511;28789,447;    0,463;   -0,591
685,085;28536,767;   -1,356;    0,318
685,659;28324,360;   -2,538;    0,864
686,232;28566,225;   -0,356;   -0,318
686,806;28307,636;   -0,901;    0,409
687,380;28961,228;   -0,174;    0,591
687,954;29156,457;   -1,174;    1,136
688,528;28819,595;   -0,719;    1,955
689,101;29597,915;   -3,992;    1,045
689,675;29213,144;   -0,356;   -0,136
690,249;28597,009;   -0,719;    0,409
690,822;28874,874;    0,280;    0,318
691,396;28983,831;   -0,265;    1,227
691,969;28368,969;    1,280;    0,136
692,543;28849,561;   -0,447;   -1,955
693,116;28564,608;   -0,265;   -1,409
693,690;28441,655;    0,099;    0,500
694,263;28982,248;   -1,083;    2,955
694,836;28997,204;    1,371;    3,591
695,410;27662,433;   -0,265;    1,773
695,983;28102,571;    0,189;    0,591
696,556;28108,618;   -0,447;   -1,045
697,129;28522,392;   -0,356;    1,409
697,703;28124,985;   -1,629;    1,955
698,276;28163,759;    1,462;   -0,773
698,849;27955,988;    1,280;    1,409
699,422;28313,308;   -1,083;    0,591
699,995;28068,628;    0,007;    0,136
700,568;28569,130;   -0,629;    3,045
701,140;28522,813;   -2,811;    1,682
701,713;28230,860;   -0,174;    2,409
702,286;27983,725;   -0,538;    0,864
702,859;27897,954;   -0,902;   -0,591
703,432;27055,365;    0,825;    0,682
704,004;27553,139;    0,462;    0,318
704,577;27450,732;   -0,629;    0,136
705,150;27998,506;    0,189;    2,500
705,722;27758,190;   -0,356;   -3,227
706,295;27557,510;   -0,175;   -0,591
706,867;27418,920;   -0,175;    1,955
707,440;27601,877;   -1,720;   -0,409
708,012;27866,469;    0,462;    0,591
708,584;27807,607;    2,462;    0,227
709,157;28132,291;    1,825;   -0,591
709,729;27744,883;    2,280;    2,045
710,301;28584,749;    0,734;    0,045
710,874;28610,523;   -1,447;   -0,227
711,446;27483,297;    0,371;    0,864
712,018;27383,435;    0,098;    0,500
712,590;27088,755;   -1,993;    1,682
713,162;27615,802;    0,825;    1,318
713,734;27890,031;    1,825;   -2,045
714,306;27811,442;   -1,902;   -0,409
714,878;26503,034;    0,825;    0,864
715,450;27297,536;    0,643;    0,864
716,022;27591,220;    1,552;    1,318
716,593;27737,267;    0,189;    0,591
717,165;27697,677;   -3,175;   -1,227
717,737;27372,724;    0,280;    0,409
718,309;27047,499;    0,280;   -0,045
718,880;27016,273;   -0,539;   -1,409
719,452;27261,775;   -0,175;   -1,591
720,024;26825,458;    0,734;   -0,591
720,595;27378,960;   -2,902;    0,955
721,167;26944,734;    0,370;   -2,045
721,738;26424,872;   -0,812;   -1,045
722,309;26345,829;   -0,993;   -1,227
722,881;26140,239;   -1,357;    0,773
723,452;26794,014;   -2,630;    2,864
724,023;26978,152;   -0,721;    2,682
724,595;26769,290;    0,007;    0,682
725,166;26522,428;    0,007;   -0,409
725,737;26158,657;    1,734;    0,227
726,308;26277,704;   -0,266;    0,318
726,879;26699,296;   -1,630;    1,227
727,450;26538,162;    0,552;   -0,045
728,021;26535,481;    3,097;    0,682
728,592;26341,438;    0,734;    0,500
729,163;26639,212;    0,643;   -0,136
729,734;26687,986;    0,188;   -0,227
730,305;26985,761;    1,734;    0,136
730,876;27304,899;    0,188;    2,955
731,447;26975,764;    2,188;    2,682
732,017;27159,538;    1,097;    1,864
732,588;26649,313;    0,734;    1,227
733,159;26821,814;    0,643;   -1,045
733,729;26648,134;    0,006;    0,409
734,300;25921,272;    0,915;    0,864
734,870;26357,138;    3,461;    0,591
735,441;26925,548;    0,370;   -0,591
736,011;26695,777;    0,643;   -1,591
736,582;26642,279;   -0,812;    0,045
737,152;26123,599;   -1,721;   -2,045
737,722;26543,646;   -0,267;   -0,682
738,293;26304,329;   -1,358;    1,318
738,863;26176,013;    2,461;    2,318
739,433;25950,333;    5,279;    0,318
740,003;26605,471;   -0,994;   -0,682
740,573;26009,881;    2,097;   -1,591
741,143;25978,474;   -1,085;    0,318
741,713;26726,885;    1,188;   -0,500
742,283;26437,750;    0,915;    1,591
742,853;26221,252;    1,915;    1,591
743,423;25753,208;    1,733;    0,045
743,993;25824,800;   -0,358;    1,500
744,563;25216,302;    0,097;   -0,864
745,133;25185,622;   -0,812;   -0,864
745,702;25862,123;   -0,267;    1,773
746,272;25086,716;   -0,176;    0,591
746,842;24840,309;   -1,358;   -0,591
747,411;25273,901;   -0,267;   -0,318
747,981;25491,403;    0,097;    0,500
748,551;25525,632;    2,278;   -1,045
749,120;25373,497;    0,642;   -0,227
749,690;25762,089;   -0,631;    2,409
750,259;26072,864;    1,369;    2,955
750,828;25976,184;    1,551;   -1,955
751,398;26240,413;    1,278;   -0,045
751,967;25712,460;    2,187;    0,409
752,536;25934,507;   -0,813;   -0,227
753,105;26401,827;    0,096;    0,227
753,675;26161,328;    0,096;    1,773
754,244;26059,648;   -0,904;    3,591
754,813;26157,968;    0,551;    1,227
755,382;25743,197;    0,460;    0,955
755,951;26248,698;    1,551;    3,682
756,520;25787,473;   -0,085;    1,864
757,089;26349,065;    0,278;    0,500
757,658;26438,385;    1,733;    1,227
758,227;26477,523;    1,096;    0,318
758,795;26790,025;    1,187;    1,136
759,364;27038,163;   -0,086;   -0,591
759,933;26048,483;   -1,176;   -0,045
760,501;25604,257;    0,733;   -1,318
761,070;26101,395;   -2,813;   -1,409
761,639;26772,351;   -1,904;    1,318
762,207;26087,671;    1,551;   -0,955
762,776;26014,991;    0,369;    0,864
763,344;25997,038;   -0,995;    0,591
763,913;25134,631;   -0,722;    1,409
764,481;25830,496;    1,005;   -0,136
765,049;25616,907;   -1,358;    1,409
765,618;25529,772;   -0,086;    0,318
766,186;25614,001;    0,278;    0,136
766,754;25816,593;    0,005;    1,864
767,322;24847,641;   -1,995;    0,409
767,890;24842,688;   -0,722;   -1,773
768,459;25254,553;   -2,177;   -0,318
769,027;25406,327;    1,641;    3,409
769,595;24451,011;    3,278;    2,591
770,163;24834,240;    3,823;    2,955
770,730;24597,287;    0,732;   -0,136
771,298;24442,698;    0,187;   -1,409
771,866;24546,926;   -1,541;    4,955
772,434;24891,883;   -0,631;   -1,864
773,002;25058,566;    0,005;    0,682
773,569;24729,340;    0,914;    1,682
774,137;24571,842;   -0,268;   -0,045
774,705;25311,889;    0,278;   -0,136
775,272;24806,300;    0,641;    0,682
775,840;24622,711;   -0,177;    2,682
776,407;24161,303;    0,277;    1,955
776,975;23737,532;   -0,632;    0,318
777,542;24757,943;   -1,086;   -0,045
778,110;24563,445;   -1,268;   -0,045
778,677;24277,764;   -2,359;   -0,864
779,244;24024,630;    2,186;    1,045
779,812;24122,950;    1,823;    0,864
780,379;24023,088;    0,005;    1,136
780,946;24205,498;    1,005;   -0,773
781,513;24562,273;   -1,450;    0,318
782,080;23935,592;   -0,086;    2,864
782,647;24673,367;   -0,268;    3,045
783,214;24208,778;   -0,177;    3,864
783,781;23854,916;   -0,723;   -0,682
784,348;23729,326;   -0,632;    1,500
784,915;24223,101;   -3,177;    0,318
785,482;23992,966;    1,368;    2,591
786,049;24423,104;    0,186;   -0,591
786,615;24553,787;    0,277;   -0,955
787,182;24300,289;    0,186;   -0,682
787,749;23965,700;   -2,814;    1,409
788,315;23290,111;   -1,632;   -0,409
788,882;23610,249;    1,550;   -1,227
789,448;24263,478;    1,732;   -0,955
790,015;24314,343;    1,095;    3,227
790,581;23850,844;    1,459;    0,227
791,148;23777,710;    0,641;    1,045
791,714;24047,030;   -0,541;    3,136
792,280;23706,168;    0,186;    1,591
792,847;23258,760;    0,550;    2,500
793,413;23789,444;   -0,269;   -0,318
793,979;23284,582;    3,459;   -1,318
794,545;23409,083;    4,459;    2,682
795,111;22831,858;    2,186;    1,318
795,678;23015,541;    0,731;   -1,682
796,244;22664,315;    3,368;    0,136
796,810;23186,453;    1,731;    0,773
797,375;22901,228;    0,549;   -2,136
797,941;22930,457;   -0,541;    0,591
798,507;23098,504;   -0,451;   -0,955
799,073;22622,006;   -0,360;    0,591
799,639;22710,053;   -2,632;    3,136
800,205;22775,463;    0,095;    2,682
800,770;22328,783;    0,640;    1,773
801,336;22383,376;    1,368;   -0,955
801,901;22092,241;    4,549;    3,136
802,467;22689,288;   -0,542;    2,045
803,033;22014,062;   -0,087;    0,864
803,598;22231,291;    1,913;   -1,045
804,163;22276,429;    1,095;   -0,318
804,729;22224,204;   -0,178;    1,136
805,294;22619,978;    0,822;    2,227
805,859;22431,571;    0,731;   -0,409
806,425;21850,527;    1,186;    2,682
806,990;21492,574;    2,186;    4,318
807,555;22028,076;   -1,451;    2,591
808,120;21903,305;    0,822;   -0,409
808,685;21986,624;    0,185;   -2,500
809,250;21535,490;    0,004;   -0,500
809,815;21853,355;    1,913;    0,682
810,380;22366,493;   -0,269;    1,591
810,945;22848,267;   -1,087;    2,045
811,510;22021,769;    2,094;    1,591
812,075;21778,362;   -0,633;   -1,409
812,640;21792,681;    2,003;    1,409
813,204;21874,456;    0,822;   -0,227
813,769;22336,685;    2,094;   -0,045
814,334;21750,095;    0,458;    0,864
814,898;21843,688;    0,367;    0,591
815,463;21647,553;    1,276;   -0,773
816,027;21608,691;   -0,724;   -2,318
816,592;21740,193;    0,640;   -2,045
817,156;21274,786;    2,094;    1,136
817,721;21109,014;    4,276;    2,318
818,285;21035,607;    2,912;    1,500
818,849;21677,745;   -1,451;    1,682
819,414;21634,792;   -0,269;    2,955
819,978;21223,385;   -1,269;    1,773
820,542;21780,159;    2,003;    0,500
821,106;21503,206;   -0,815;    0,682
821,670;21612,071;   -0,815;    2,591
822,234;21331,028;   -0,270;    1,409
822,798;20729,347;    0,003;    0,500
823,362;20689,849;   -0,633;    4,227
823,926;20000,260;    0,094;    1,136
824,490;20216,307;   -0,997;   -0,682
825,054;20617,899;   -0,088;   -1,136
825,618;20257,947;   -1,542;   -1,500
826,181;20200,266;    0,458;   -1,318
826,745;20106,404;    1,367;   -1,045
827,309;20424,088;    1,185;    1,318
827,872;19878,590;    1,367;    0,955
828,436;20873,273;    1,185;   -0,773
828,999;20913,411;   -0,997;    1,227
829,563;19744,004;   -0,179;    1,136
830,126;19546,414;   -0,179;   -0,591
830,690;19563,098;   -1,997;    2,864
831,253;19093,236;   -0,543;    2,227
831,816;19197,283;   -1,906;    0,500
832,380;19154,694;    0,185;    0,864
832,943;19377,195;   -1,361;   -0,500
833,506;18856,424;    2,639;   -1,227
834,069;19658,744;    3,912;   -0,955
834,632;19687,973;    1,730;    1,318
835,195;19576,929;    1,003;    0,955
835,758;18820,340;   -0,997;    1,955
836,321;18701,387;    0,730;   -1,045
836,884;18776,980;   -0,725;   -0,955
837,447;18814,845;   -2,816;    1,773
838,010;19104,256;    0,366;    3,227
838,573;19350,848;   -1,179;    0,773
839,135;19321,895;   -1,361;   -0,955
839,698;18783,397;    1,275;    0,409
840,261;18319,717;    1,003;   -0,227
840,823;18139,127;   -0,543;    0,864
841,386;18454,175;   -0,452;   -2,409
841,948;18330,040;   -1,361;    1,773
842,511;18100,723;    0,912;    1,682
843,073;18186,589;    1,912;    0,227
843,636;17993,636;   -0,361;   -0,227
844,198;17968,137;    0,911;    0,591
844,760;18070,912;    1,093;    1,955
845,322;17724,141;    0,548;    1,136
845,885;18125,915;    0,730;    0,591
846,447;18591,871;   -1,998;    0,227
847,009;18163,373;    1,911;   -0,682
847,571;18476,147;    0,820;   -2,045
848,133;18601,194;   -1,089;   -1,864
848,695;18415,696;   -0,543;    1,409
849,257;17973,107;   -1,089;   -1,682
849,819;18105,608;   -0,998;   -0,409
850,381;18162,383;   -0,725;   -0,864
850,942;18548,066;    1,093;   -0,591
851,504;18486,386;    1,184;    0,227
852,066;18522,979;    1,275;   -1,591
852,628;18075,935;   -0,180;    1,955
853,189;17635,618;    1,638;    2,682
853,751;17793,120;   -0,907;    1,409
854,312;17573,076;   -0,453;   -1,682
854,874;18055,214;   -2,089;   -0,773
855,435;18602,443;   -0,907;   -1,682
855,997;18721,763;   -1,816;   -0,136
856,558;18022,174;    0,366;    1,773
857,119;18128,948;    0,820;    2,864
857,681;17811,359;    0,002;    0,318
858,242;17840,315;    1,911;   -2,136
858,803;18307,635;    0,456;   -0,773
859,364;18883,136;    0,184;   -4,773
859,925;18205,274;   -2,453;   -0,955
860,486;18114,049;   -0,453;   -0,955
861,047;17805,096;   -0,544;   -1,227
861,608;17595,325;   -1,089;   -0,773
862,169;17775,645;    0,638;   -0,045
862,730;17532,510;    0,456;    1,409
863,291;17748,375;   -0,635;   -0,500
863,852;18141,695;   -0,635;    1,955
864,412;17658,288;   -0,271;   -0,864
864,973;16225,153;   -0,089;    0,500
865,534;16087,200;   -1,726;    0,227
866,094;17564,883;    1,820;    0,227
866,655;17228,476;    1,274;    3,318
867,215;17490,068;    0,274;    0,136
867,776;17352,297;    0,547;   -0,136
868,336;17471,344;   -1,453;    0,136
868,897;16929,392;    2,638;    1,682
869,457;16696,530;    1,365;    0,318
870,017;16955,486;    0,547;   -1,227
870,578;17469,533;   -0,817;    0,773
871,138;17145,671;   -2,089;   -0,955
871,698;16688,900;   -0,817;   -1,318
872,258;16554,947;   -0,453;   -2,864
872,818;16932,903;    2,729;    0,045
873,378;16871,223;    0,638;    1,045
873,938;16442,543;    0,547;    0,500
874,498;16768,044;    0,274;   -1,955
875,058;16665,910;    2,183;    1,773
875,618;16493,957;    1,910;   -2,682
876,177;16413,368;    1,274;    0,136
876,737;16055,687;   -0,090;    1,955
877,297;16066,916;    0,183;    1,955
877,856;16068,509;   -0,362;    0,318
878,416;16014,374;    1,183;   -0,136
878,976;16234,876;   -1,817;    0,409
879,535;16407,559;    0,092;    3,136
880,095;16156,243;   -0,544;    0,045
880,654;16252,381;   -1,090;    1,318
881,213;16313,791;    2,456;    1,500
881,773;15973,929;    2,637;    2,682
882,332;16330,704;    3,365;    5,136
882,891;16188,387;    3,092;    2,136
883,451;16636,980;   -1,272;    1,682
884,010;16117,209;   -2,908;   -0,409
884,569;16209,438;   -0,999;   -0,045
885,128;16361,121;    2,819;   -1,864
885,687;16374,350;    4,455;    0,682
886,246;16075,943;    1,455;    2,136
886,805;15881,262;    2,455;    2,045
887,364;16143,037;   -0,999;   -0,500
887,922;16522,357;   -1,181;    0,045
888,481;16038,586;   -1,545;    0,591
889,040;16319,360;    1,183;    2,136
889,599;17029,953;    2,455;    1,409
890,157;17102,181;    1,455;    2,409
890,716;16736,501;   -0,090;    0,227
891,274;16540,821;    0,092;   -1,136
891,833;16995,323;    1,546;    0,864
892,391;16851,097;   -0,454;    0,500
892,950;16931,235;    1,819;   -0,773
893,508;17285,828;    0,455;   -0,409
894,067;16666,966;    0,637;    0,136
894,625;16572,195;   -0,636;   -1,500
895,183;16803,878;   -0,363;   -0,682
895,741;16694,198;    1,728;   -1,773
896,299;16517,154;   -0,545;   -2,409
896,858;16718,383;    0,819;   -1,591
897,416;16818,430;    2,728;   -1,318
897,974;16531,114;    1,819;    0,318
898,532;16657,979;    6,091;    2,682
899,089;16641,026;    2,091;   -0,682
899,647;16684,437;   -1,454;    1,318
900,205;16372,120;    1,182;    1,045
900,763;16599,440;   -0,454;    0,227
901,321;16631,578;    2,364;   -1,409
901,878;16081,807;   -1,000;   -0,773
902,436;15934,309;   -1,363;    1,318
902,994;16309,265;    4,728;    3,682
903,551;15724,312;    0,728;    0,409
904,109;16123,086;    0,182;   -1,409
904,666;15741,861;    2,455;    1,045
905,224;15572,726;    0,182;   -0,409
905,781;15303,319;    0,727;   -0,318
906,338;15381,184;   -1,363;    1,045
906,895;15347,776;    0,637;    2,045
907,453;15266,187;    1,727;    1,136
908,010;15315,871;   -0,909;    0,409
908,567;14980,554;    1,273;    0,591
909,124;14501,874;    0,364;   -1,500
909,681;14572,285;   -2,909;    0,682
910,238;14714,241;    0,636;   -1,318
910,795;15023,652;   -0,273;   -1,136
911,352;14650,106;   -2,909;   -2,682
911,909;14091,652;   -1,364;   -0,864
912,466;14553,924;   -3,182;    1,500
913,022;14114,742;   -1,636;    0,500
913,579;14480,288;   -0,909;    2,045
914,136;14218,197;    1,636;    0,955
914,692;14507,833;    0,091;   -1,227
915,249;14124,106;    1,455;    0,409
915,806;14374,015;    0,182;    1,955
916,362;14112,106;    1,909;    1,864
916,918;13638,924;    2,000;    1,045
917,475;13630,379;   -1,182;    0,955
918,031;13700,288;    3,364;   -0,045
918,587;13168,379;   -0,909;   -0,318
919,144;13429,288;   -2,273;    0,227
919,700;13709,470;    1,727;    0,773
920,256;13296,015;    0,727;    0,045
920,812;12918,470;   -0,727;   -1,045
921,368;12929,197;   -1,727;   -1,045
921,924;12574,197;    0,182;   -0,136
922,480;12155,924;   -0,545;    1,227
923,036;12746,197;    1,273;    1,955
923,592;12719,379;    0,455;    0,318
924,148;12622,561;    0,455;   -0,955
924,704;11932,470;   -1,364;   -0,409
925,259;12212,561;   -0,273;    0,591
925,815;11976,652;    1,455;    0,500
926,371;11511,015;    2,909;    1,409
926,926;11403,379;    2,091;    0,591
927,482;11038,015;   -1,364;    0,773
928,037;10888,106;    0,909;    2,045
928,593;11164,742;    1,636;    1,045
929,148;11045,742;   -1,818;   -1,500
929,704;10548,288;   -1,455;   -0,500
930,259;10768,288;    0,091;   -0,136
930,814; 9830,924;   -0,818;    1,955
931,369; 9523,561;    1,091;   -0,773
931,925; 9412,106;   -0,091;    0,136
932,480; 9318,742;   -2,818;   -2,591
933,035; 9243,015;    0,545;   -0,318
933,590; 8993,742;    0,364;   -1,773
934,145; 8652,652;   -1,364;   -0,318
934,700; 9015,924;    0,455;   -0,591
935,255; 8801,561;   -0,091;    0,045
935,809; 8075,652;    3,182;    0,864
936,364; 7246,015;   -0,455;   -0,136
936,919; 7218,742;    0,455;   -1,773
937,474; 7106,379;    1,455;    0,136
938,028; 6867,288;   -1,636;    1,136
938,583; 6328,924;    1,818;    4,682
939,138; 6632,197;    2,091;    2,136
939,692; 6097,924;    1,636;   -1,136
940,247; 5805,561;   -0,727;   -1,045
940,801; 5383,197;   -0,636;    0,227
941,355; 5288,379;   -0,364;    2,591
941,910; 4948,652;   -0,273;   -2,136
942,464; 5050,015;   -0,818;   -0,318
943,018; 4833,197;    1,000;   -0,227
943,572; 4776,288;    2,545;   -0,682
944,126; 4201,470;    0,091;   -0,409
944,681; 4101,924;    3,091;    0,227
945,235; 4084,742;    1,000;   -0,591
945,789; 4030,197;    0,364;   -1,864
946,342; 4133,379;    0,455;   -0,591
946,896; 3944,561;   -2,273;    0,955
947,450; 3699,652;    1,545;   -0,227
948,004; 3883,833;    1,727;   -0,045
948,558; 3882,379;    0,273;   -0,864
949,111; 3812,197;   -0,273;   -0,318
949,665; 3853,561;    1,636;   -0,682
950,219; 3729,652;   -0,091;   -1,045
950,772; 3790,561;   -1,909;    1,864
951,326; 3695,924;    0,545;   -0,955
951,879; 3819,379;    0,727;   -2,318
952,433; 3843,652;    0,000;    2,227
952,986; 3681,652;    2,909;    0,682
953,539; 3622,561;   -0,273;    0,591
954,093; 3565,015;    0,545;   -1,318
954,646; 3669,288;    0,909;    1,318
955,199; 3493,561;    0,000;   -0,500
955,752; 3400,015;   -0,455;    1,773
956,305; 3369,197;   -0,091;    2,955
956,858; 3527,015;    0,818;   -0,318
957,411; 3682,197;   -0,545;    2,136
957,964; 3515,924;    1,364;    2,136
958,517; 3526,197;   -1,545;    3,136
959,070; 3359,288;   -0,455;    1,955
959,623; 3440,106;    1,091;    1,500
960,176; 3209,742;    1,727;    2,045
960,728; 3181,924;   -2,727;    0,773
961,281; 3243,924;    0,545;    0,500
961,834; 3294,742;   -0,909;    0,864
962,386; 3209,379;    1,727;    1,045
962,939; 3115,742;    0,364;   -0,318
963,491; 3280,015;    0,455;    1,136
964,043; 3145,470;    1,182;    2,409
964,596; 3248,652;   -1,000;    2,227
965,148; 3109,379;   -1,000;    1,773
965,700; 3038,470;    1,091;   -0,227
966,253; 3183,652;   -0,636;    0,318
966,805; 3011,470;   -2,273;    0,773
967,357; 3086,197;    1,091;   -1,500
967,909; 3024,924;    0,455;   -1,227
968,461; 3119,015;    0,545;    3,136
969,013; 3049,106;   -0,182;   -0,864
969,565; 3125,379;   -0,455;   -1,136
970,117; 3194,742;   -0,364;    1,045
970,669; 3056,561;    0,182;   -0,136
971,220; 2913,561;   -0,455;   -1,500
971,772; 2822,742;   -0,636;   -0,318
972,324; 2956,288;    0,091;   -0,500
972,876; 2922,470;    0,818;   -0,045
973,427; 3033,106;    1,909;   -1,045
973,979; 3001,288;   -0,727;   -2,500
974,530; 3038,833;    1,818;    1,318
975,082; 3048,288;   -0,545;    1,682
975,633; 2933,924;    1,091;    1,682
976,184; 3094,652;    0,909;    0,773
976,736; 2882,742;    0,091;    0,227
977,287; 2698,833;   -0,909;   -0,500
977,838; 2867,379;    0,909;   -0,318
978,389; 2927,924;   -1,000;   -0,500
978,940; 2800,288;    0,545;   -0,409
979,491; 2817,561;    0,091;   -0,500
980,042; 2805,106;    0,182;    3,045
980,593; 2848,652;   -2,545;    0,227
981,144; 2886,197;    2,545;   -0,500
981,695; 2843,197;    1,455;    1,500
982,246; 2824,924;   -0,273;    1,045
982,797; 2967,379;   -1,727;    0,682
983,347; 3075,288;    0,364;    0,591
983,898; 3245,924;    3,091;    0,409
984,449; 3072,197;    2,182;    0,773
984,999; 2984,470;    1,455;   -1,136
985,550; 2770,742;    0,182;   -0,318
986,100; 2805,833;   -0,455;   -0,318
986,651; 2843,015;   -0,818;    0,045
987,201; 2829,197;   -1,000;   -0,591
987,751; 2901,652;    0,818;    2,864
988,302; 2878,924;    2,636;    1,500
988,852; 2920,742;    0,455;   -1,136
989,402; 2968,742;    0,091;    0,682
989,952; 2857,379;   -2,182;    0,864
990,502; 2972,652;   -0,091;    0,682
991,052; 2935,379;   -0,727;    0,045
991,602; 2798,288;   -2,909;    1,318
992,152; 2797,288;    0,455;    0,682
992,702; 2780,833;    1,364;   -0,045
993,252; 2703,742;   -3,000;   -0,500
993,802; 2795,470;   -0,273;    1,318
994,352; 3029,015;   -1,545;    1,136
994,901; 3102,561;   -0,182;    3,227
995,451; 3029,742;   -0,182;    0,318
996,000; 3103,288;    1,636;    0,318
996,550; 2823,106;    2,273;    0,227
997,100; 2830,833;    1,273;   -0,045
997,649; 3113,470;    2,182;    0,955
998,198; 2751,015;    1,727;   -1,500
998,748; 2940,015;    1,091;   -2,318
999,297; 2857,197;   -0,818;   -0,409
999,846; 2912,288;    1,000;   -0,773
1000,395; 2958,197;   -0,818;    0,500
1000,945; 2912,470;    1,818;   -0,773
1001,494; 3000,561;    2,364;    0,682
1002,043; 2996,288;    4,636;    0,864
1002,592; 2837,015;   -1,091;    1,955
1003,141; 2972,288;   -0,455;   -0,682
1003,690; 2839,652;    1,727;    0,500
1004,238; 2929,742;    1,455;   -0,045
1004,787; 2558,288;    1,364;    1,227
1005,336; 2798,652;    0,364;    0,682
1005,885; 2957,470;    1,364;   -2,773
1006,433; 3084,652;    0,545;    0,955
1006,982; 3121,470;    0,455;    1,682
1007,531; 3052,833;   -1,818;   -0,227
1008,079; 2988,652;   -2,273;    0,500
1008,627; 3124,379;   -1,455;    0,409
1009,176; 2884,652;    0,000;   -1,955
1009,724; 2927,288;    1,091;    0,864
1010,273; 2956,561;    1,273;    0,500
1010,821; 3084,742;    0,091;    1,409
1011,369; 2836,015;   -1,364;    1,318
1011,917; 2817,652;   -1,364;   -0,591
1012,465; 3101,470;    1,273;   -1,591
1013,013; 3203,833;    2,091;   -1,682
1013,561; 3080,652;    0,455;   -0,773
1014,109; 3131,015;   -1,909;    1,682
1014,657; 3007,742;    0,364;    0,591
1015,205; 3127,379;    1,636;   -0,955
1015,753; 3170,470;   -0,545;   -1,409
1016,301; 3203,652;   -2,636;    3,045
1016,848; 3202,561;   -1,273;    0,409
1017,396; 3246,833;    2,545;    0,045
1017,944; 3365,015;    1,182;    1,864
1018,491; 3148,379;    0,273;    1,409
1019,039; 3281,833;    0,455;    0,591
1019,586; 3193,106;   -1,364;    1,682
1020,134; 3293,379;    0,455;    1,500
1020,681; 3316,470;    0,182;   -1,136
1021,228; 3324,106;    2,909;   -2,227
1021,776; 3164,106;    1,182;   -1,136
1022,323; 3374,561;    0,455;    0,773
1022,870; 3319,106;   -1,000;   -0,045
1023,417; 3212,379;    2,636;    1,864
1023,964; 3352,924;    2,636;    1,227
1024,511; 3202,652;    1,000;    0,773
1025,058; 2999,470;    3,182;   -0,045
1025,605; 3052,833;   -2,273;    3,136
1026,152; 3250,288;    1,727;   -0,591
1026,699; 2994,561;    1,818;    1,318
1027,245; 3169,833;   -0,091;    0,318
1027,792; 3377,470;   -1,000;    1,409
1028,339; 3263,288;    2,364;   -0,045
1028,885; 3115,742;    1,000;   -0,227
1029,432; 3045,015;   -0,091;    0,227
1029,978; 3115,470;   -1,000;   -1,591
1030,525; 3004,288;    1,000;    0,409
1031,071; 3258,288;   -1,364;    1,136
1031,618; 3345,742;    0,364;    1,682
1032,164; 3162,924;   -0,091;    3,045
1032,710; 3201,288;    1,636;   -1,500
1033,256; 3116,379;   -0,636;   -0,136
1033,803; 3108,288;   -0,545;    1,500
1034,349; 2842,379;   -1,364;    0,136
1034,895; 2989,470;    0,000;   -0,318
1035,441; 2960,924;   -0,818;    0,318
1035,987; 2954,652;   -2,364;   -0,682
1036,533; 2974,833;   -1,455;   -0,955
1037,078; 3170,015;    1,455;    1,682
1037,624; 2996,470;    2,455;   -0,955
1038,170; 3009,924;    0,455;   -0,318
1038,716; 2930,742;    1,636;   -0,409
1039,261; 2835,470;   -2,273;   -0,773
1039,807; 2777,742;   -0,091;    3,409
1040,352; 2849,288;   -1,909;   -0,318
1040,898; 2897,470;   -1,545;   -0,682
1041,443; 2796,470;   -1,455;   -2,591
1041,989; 2819,197;    1,091;    1,591
1042,534; 2710,015;   -0,364;    2,591
1043,079; 2824,652;    2,909;    0,955
1043,625; 2607,379;    1,818;    0,500
1044,170; 2670,833;   -1,364;    1,045
1044,715; 2900,742;    2,455;    0,955
1045,260; 2726,652;    2,182;   -0,955
1045,805; 2777,288;    1,182;   -0,591
1046,350; 2724,470;    1,364;   -0,409
1046,895; 2676,470;    2,909;    1,591
1047,440; 2623,288;    5,364;    0,409
1047,985; 2533,379;    2,818;   -0,955
1048,530; 2456,288;    1,545;    1,227
1049,074; 2494,561;    0,000;    0,318
1049,619; 2487,379;   -1,364;    1,955
1050,164; 2297,470;    0,455;    0,227
1050,708; 2340,379;   -0,455;    0,045
1051,253; 2698,742;    1,273;   -2,227
1051,797; 2407,288;    0,818;   -1,318
1052,342; 2420,833;   -1,182;    1,045
1052,886; 2414,833;    0,364;   -1,409
1053,430; 2306,379;   -1,364;    0,136
1053,975; 2319,379;   -0,818;   -0,318
1054,519; 2310,470;   -0,727;    3,227
1055,063; 2309,742;    0,909;    1,318
1055,607; 2191,742;   -0,182;    0,227
1056,151; 2210,197;    2,909;    1,682
1056,695; 2146,015;    2,273;   -1,136
1057,239; 2206,106;   -1,727;   -0,682
1057,783; 2217,742;    0,818;   -1,500
1058,327; 2146,288;    0,000;    1,409
1058,871; 2369,833;   -0,545;    1,318
1059,415; 2104,561;   -0,818;   -0,045
1059,958; 2359,652;    1,455;    2,591
1060,502; 2080,197;   -1,000;   -0,773
1061,046; 1979,924;    0,364;   -0,955
1061,589; 1969,197;   -3,000;   -1,136
1062,133; 1849,470;   -1,273;    1,864
1062,676; 1799,379;    1,182;    0,864
1063,220; 1791,106;    1,091;    0,500
1063,763; 1815,470;    0,909;    1,136
1064,306; 1888,742;   -0,909;    1,864
1064,849; 1779,288;   -0,909;    0,591
1065,393; 1786,015;    2,000;   -1,500
1065,936; 1913,288;    0,182;   -0,409
1066,479; 1794,379;   -1,455;    1,318
1067,022; 1797,924;   -0,273;   -0,227
1067,565; 1701,924;   -0,091;   -1,318
1068,108; 1746,015;    0,727;   -0,591
1068,651; 1720,561;   -0,636;    1,409
1069,194; 1645,379;   -0,455;   -1,682
1069,736; 1641,015;   -1,273;    0,955
1070,279; 1618,288;   -1,364;   -0,500
1070,822; 1670,561;   -2,000;   -0,318
1071,364; 1746,197;   -0,364;    1,318
1071,907; 1583,106;   -0,727;    3,227
1072,450; 1489,197;    0,000;   -0,045
1072,992; 1474,470;   -0,273;    3,136
1073,535; 1619,833;    2,091;    2,136
1074,077; 1414,924;   -0,727;    2,045
1074,619; 1369,742;   -1,364;    0,591
1075,161; 1407,470;   -1,091;    1,500
1075,704; 1586,015;    1,545;    1,227
1076,246; 1394,015;   -0,182;    0,682
1076,788; 1330,288;   -0,364;    1,773
1077,330; 1400,742;    1,273;    2,136
1077,872; 1352,197;    0,909;    0,955
1078,414; 1565,652;    2,727;    0,773
1078,956; 1303,652;    1,273;   -0,227
1079,498; 1566,470;    1,636;    0,318
1080,040; 1279,197;    1,909;   -1,318
1080,581; 1223,924;    1,636;   -0,318
1081,123; 1165,015;    0,091;   -0,773
1081,665; 1203,379;   -1,182;   -0,955
1082,206; 1486,833;    1,364;   -0,500
1082,748; 1357,561;    0,727;    2,045
1083,289; 1233,833;   -2,000;    1,318
1083,831; 1140,924;   -0,545;    0,227
1084,372; 1172,924;    0,000;    0,591
1084,913; 1160,106;    1,091;    0,864
1085,455; 1145,288;   -1,909;   -2,045
1085,996; 1121,561;   -2,273;    0,136
1086,537; 1131,833;   -0,091;    0,864
1087,078; 1167,833;   -0,909;   -2,136
1087,619; 1208,561;   -1,273;    0,227
1088,160; 1118,288;    0,000;    1,318
1088,701; 1114,561;   -1,091;    0,682
1089,242; 1057,833;    1,364;   -2,227
1089,783; 1148,470;   -0,273;    1,409
1090,324; 1113,106;    0,455;    0,682
1090,865;  988,652;    2,727;   -0,409
1091,405;  960,197;    0,727;    2,227
1091,946;  985,924;    0,182;   -0,955
1092,487;  908,742;    0,818;   -1,409
1093,027; 1079,924;   -1,364;   -1,500
1093,568;  932,106;   -0,364;    1,227
1094,108; 1031,288;    0,273;    1,773
1094,649;  983,015;   -1,182;    0,136
1095,189;  918,924;   -0,636;   -0,682
1095,729;  876,015;   -0,091;    0,955
1096,269;  871,924;    0,727;   -0,955
1096,810; 1175,197;   -1,364;    0,500
1097,350; 1004,742;    1,364;   -0,773
1097,890;  901,833;    0,364;    1,227
1098,430; 1154,106;    2,364;    2,864
1098,970; 1037,015;    2,182;    1,682
1099,510;  903,106;    0,545;   -2,318
1100,050;  823,742;    1,000;   -1,591
1100,589;  785,015;   -0,727;   -0,318
1101,129;  903,197;    0,818;   -0,955
1101,669; 1046,288;    1,727;    2,136
1102,209;  883,652;   -0,091;    2,227
1102,748;  837,742;    0,000;    0,955
1103,288;  831,106;    1,273;   -1,227
1103,827;  851,924;    3,091;   -2,227
1104,367;  739,106;   -0,091;   -2,409
1104,906;  702,924;    1,364;   -1,136
1105,445;  770,652;    0,636;   -1,136
1105,985;  712,288;   -0,727;    1,500
1106,524;  753,379;   -1,727;   -0,682
1107,063;  727,015;   -2,727;    1,409
1107,602;  709,924;   -1,909;   -1,500
1108,141;  640,470;   -1,909;    1,500
1108,680;  736,106;   -3,455;   -0,591
1109,219;  664,288;   -0,909;   -0,500
1109,758;  674,015;    0,455;    0,682
1110,297;  649,197;    1,000;   -0,682
1110,836;  593,924;   -0,727;    0,955
1111,375;  752,652;   -2,545;    0,409
1111,913;  769,106;   -1,000;    0,773
1112,452;  716,106;   -0,273;    0,136
1112,991;  594,833;    1,091;    1,955
1113,529;  543,470;   -0,818;   -0,045
1114,068;  614,197;   -0,273;    2,955
1114,606;  521,561;   -0,364;   -0,955
1115,144;  672,470;   -1,273;    1,045
1115,683;  613,652;   -0,727;    0,318
1116,221;  657,015;   -0,455;   -0,864
1116,759;  572,833;    0,636;   -0,864
1117,297;  766,742;    0,000;    1,864
1117,836;  581,015;   -2,182;   -1,227
1118,374;  591,379;    0,182;   -0,682
1118,912;  525,470;    0,909;    2,682
1119,450;  527,015;    1,000;    0,864
1119,988;  575,833;    1,545;    2,136
1120,525; 1012,015;    5,091;    3,318
1121,063;  711,288;    1,182;    1,864
1121,601;  522,197;   -0,909;   -1,227
1122,139;  492,197;   -0,727;   -2,045
1122,676;  676,379;   -0,727;    2,773
1123,214;  608,197;   -1,182;    4,409
1123,751;  423,652;    1,727;    2,227
1124,289;  558,197;   -0,091;   -0,409
1124,826;  430,652;    1,727;    0,227
1125,364;  353,924;    1,727;   -0,955
1125,901;  538,470;    1,182;    1,227
1126,438;  653,015;    0,818;    0,955
1126,975;  383,288;   -0,727;   -0,773
1127,513;  434,288;    0,273;    2,136
1128,050;  341,561;    1,636;   -0,682
1128,587;  450,833;    2,000;   -0,227
1129,124;  495,197;    0,091;    1,318
1129,661;  361,197;    0,273;    0,227
1130,198;  528,652;    1,636;    0,773
1130,734;  466,015;    0,182;    1,409
1131,271;  329,197;   -0,909;    0,864
1131,808;  497,015;    2,909;    3,045
1132,345;  370,652;    1,545;    0,318
1132,881;  242,833;   -1,545;   -1,864
1133,418;  384,742;    0,727;   -1,136
1133,954;  321,652;    2,455;   -2,682
1134,491;  400,652;    1,364;   -0,773
1135,027;  295,379;    2,364;    0,864
1135,564;  383,833;    0,273;    2,955
1136,100;  368,833;    0,364;    2,136
1136,636;  266,833;   -1,273;   -1,045
1137,172;  346,470;    0,000;   -1,045
1137,708;  275,015;   -1,364;   -1,045
1138,245;  286,652;    1,273;   -1,227
1138,781;  227,561;    1,091;   -3,318
1139,317;  301,106;    1,273;   -1,409
1139,852;  288,924;    3,091;    0,136
1140,388;  399,833;   -1,182;   -0,409
1140,924;  289,742;   -1,091;   -2,227
1141,460;  227,833;   -1,636;    0,136
1141,996;  171,561;   -1,364;    2,682
1142,531;  203,652;    1,364;    3,318
1143,067;  417,742;    1,182;    1,045
1143,602;  478,288;   -0,091;   -0,318
1144,138;  322,106;   -2,636;    1,045
1144,673;  185,561;   -1,455;    1,409
1145,209;  260,015;   -1,909;   -0,318
1145,744;  182,197;   -0,727;    0,864
1146,279;  308,106;    1,818;   -0,136
1146,815;  227,924;    1,545;   -2,682
1147,350;  271,742;   -1,364;    0,045
1147,885;  183,561;   -0,818;   -1,318
1148,420;  182,652;   -2,273;    0,773
1148,955;  168,742;   -1,727;    1,864
1149,490;  191,015;   -0,909;   -1,591
1150,025;  170,561;    0,455;   -1,773
1150,560;  284,742;    1,091;   -0,955
1151,094;  253,742;    1,455;   -0,591
1151,629;  251,470;    1,636;    0,864
1152,164;  187,379;    1,364;    1,318
1152,698;  147,015;   -0,182;   -0,136
1153,233;  107,833;    0,091;   -0,682
1153,767;  149,015;   -3,000;   -2,318
1154,302;  192,106;   -1,455;    1,773
1154,836;  191,470;   -0,455;   -2,136
1155,371;  253,106;   -1,364;    3,682
1155,905;  199,470;   -0,636;    1,682
1156,439;  169,379;   -0,636;   -0,500
1156,973;  205,470;    0,364;    0,318
1157,507;  137,742;   -0,364;    0,682
1158,042;  163,561;   -0,727;    1,045
1158,576;  209,924;    0,182;    1,773
1159,110;  198,197;   -0,818;    2,409
1159,643;  166,924;    0,636;   -0,045
1160,177;  115,197;   -1,545;    1,500

