
Integration time [ms]:   0,040
Averaging Nr. [scans]: 11
Smoothing Nr. [pixels]: 0
Data measured with spectrometer [name]: 7318044SP
Wave   ;Sample   ;Dark     ;Reference
[nm]   ;[counts] ;[counts] ;[counts] 

186,757;    2,379;   31,551;    1,318
187,357;   28,639;   22,551;    0,955
187,958;   13,251;   15,460;   -1,591
188,558;   41,830;    8,915;   -1,227
189,159;   16,916;    6,733;   -4,500
189,759;  -14,116;    7,278;   -3,591
190,360;  -14,852;    2,824;   -2,136
190,960;    8,712;    2,915;   -4,136
191,560;   24,313;    3,189;   -6,591
192,161;  217,289;    4,372;   -3,500
192,761;   81,435;    4,010;   -3,227
193,361;   33,163;    1,556;   -3,773
193,962;   71,097;    2,010;   -2,682
194,562;   10,176;    1,189;   -3,955
195,162;    7,107;   -2,448;   -2,227
195,762;  120,505;   -3,176;   -0,045
196,362;   86,615;    1,370;   -2,500
196,963;    3,764;    2,006;   -0,864
197,563;   33,104;    1,551;   -0,955
198,163;    0,282;    0,096;   -0,682
198,763;   11,468;    1,733;   -0,500
199,363;   51,805;    3,096;   -0,500
199,963;   29,220;    0,369;    0,409
200,563;   12,272;    2,823;   -1,409
201,163;   -4,581;    3,277;   -0,227
201,763;   28,139;    3,732;    0,318
202,363;    4,304;    1,459;    1,500
202,963;   37,573;    1,459;    1,045
203,563;   72,041;    0,277;    0,500
204,162;    4,320;    2,096;   -1,864
204,762;    6,389;    0,550;    0,591
205,362;  -10,214;    3,004;    1,955
205,962;    8,236;    3,096;    1,955
206,562;   15,075;    1,823;    2,318
207,161;   -8,170;   -0,087;    0,318
207,761;   68,015;    1,277;    2,409
208,361;    8,051;   -0,268;    1,409
208,960;   21,946;    0,459;    1,500
209,560;   23,667;    1,277;    1,591
210,160;   33,644;    0,550;    1,864
210,759;    6,841;    4,186;    1,227
211,359;   -8,946;    1,459;    1,045
211,958;   82,104;    1,277;    2,045
212,558;   96,730;    1,732;    1,864
213,157;   35,933;    1,822;    1,500
213,757;  163,337;    3,822;   -0,227
214,356;   55,615;    1,277;   -0,409
214,956;  144,992;    3,095;    0,409
215,555;   36,163;    2,095;    2,136
216,154;    8,376;   -2,723;   -0,591
216,754;    6,372;    0,277;    0,773
217,353;   21,126;   -0,268;   -1,045
217,952;  -20,198;   -0,178;    0,318
218,552;   38,167;    1,368;   -0,773
219,151;    6,763;    0,277;    0,955
219,750;    4,401;    0,004;   -0,227
220,349;   -9,310;   -0,451;    1,045
220,948;   46,622;   -1,360;    1,136
221,548;    5,703;    0,913;    1,227
222,147;   15,635;   -0,087;   -0,409
222,746;   78,435;   -0,451;   -0,955
223,345;   22,716;    0,731;    0,500
223,944;   32,745;   -0,451;    0,773
224,543;   37,270;    1,004;   -1,409
225,142;   22,990;    0,094;    0,136
225,741;   27,453;   -0,814;    1,045
226,340;   22,674;   -0,451;   -0,955
226,939;   66,450;   -0,996;   -0,136
227,538;   13,024;   -0,360;   -0,773
228,137;   73,043;   -0,814;    0,864
228,735;   47,587;   -0,541;    1,227
229,334;   -7,780;   -0,905;   -0,227
229,933;   74,648;    0,459;    0,591
230,532;   65,447;    1,186;   -0,409
231,131;  109,102;    1,732;    0,318
231,729;   48,095;   -2,450;   -2,318
232,328;   11,968;   -0,723;   -1,500
232,927;   23,788;    1,004;   -0,500
233,525;   17,341;    3,640;    0,045
234,124;   26,689;    2,368;   -1,591
234,723;    4,793;    0,913;   -1,045
235,321;   -6,212;    2,277;    0,136
235,920;    3,915;    1,186;   -1,227
236,518;   73,546;    3,459;    0,318
237,117;    7,129;    0,004;   -0,227
237,715;   14,554;    0,640;   -0,500
238,314;   30,907;   -0,087;   -2,318
238,912;   77,574;   -0,723;   -1,409
239,510;   38,567;    0,459;   -1,227
240,109;   84,897;    0,004;    3,773
240,707;   70,420;   -0,996;    1,227
241,305;   -2,811;    0,550;    0,136
241,904;   33,826;   -0,178;   -2,045
242,502;   96,376;   -0,632;   -0,227
243,100;   39,187;   -0,087;   -0,955
243,698;    5,613;    0,732;    1,682
244,297;   30,676;   -0,632;    0,682
244,895;   18,875;   -0,269;   -2,318
245,493;   84,042;    2,186;   -0,591
246,091;   88,005;    1,368;   -1,318
246,689;   46,185;    1,004;    0,591
247,287;   35,153;    0,822;   -1,136
247,885;   16,458;   -1,451;    1,227
248,483;   -1,698;    1,822;   -0,500
249,081;   39,912;    0,185;    1,591
249,679;   50,209;   -0,178;    1,682
250,277;   -0,099;   -1,723;    0,864
250,875;   45,825;   -1,087;   -1,045
251,473;   14,979;   -1,178;    0,500
252,071;   51,120;    1,459;    1,045
252,669;   17,927;   -1,814;    0,318
253,267;   -1,018;   -0,087;    0,773
253,864;   13,335;   -0,360;    0,682
254,462;   57,817;    1,640;    1,591
255,060;    1,081;   -0,269;    1,318
255,658;   -2,437;    0,822;   -0,136
256,255;   19,879;    0,186;   -2,045
256,853;   41,094;   -0,269;    1,409
257,451;   11,948;    0,822;    1,864
258,048;  171,213;    1,822;    1,864
258,646;   69,270;    1,731;   -1,045
259,243;  101,185;   -0,087;    2,227
259,841;   46,534;   -0,814;    0,318
260,438;    2,974;   -0,087;    0,864
261,036;   42,436;   -1,905;    1,409
261,633;    2,203;   -0,087;    2,227
262,231;  -13,774;    2,731;   -0,045
262,828;  -15,030;   -0,905;    1,136
263,425;    1,301;    0,913;   -0,591
264,023;   -5,737;    0,186;    0,045
264,620;   44,721;   -0,360;   -0,318
265,217;   88,747;   -2,087;    3,136
265,815;   17,454;   -1,905;    2,136
266,412;   39,932;    0,731;    0,136
267,009;   30,947;   -1,451;    0,773
267,606;   63,906;    0,822;   -0,955
268,203;   16,382;   -0,269;   -0,591
268,801;   12,411;    1,731;    0,591
269,398;  -10,961;   -0,360;    2,500
269,995;   27,424;    0,277;    1,591
270,592;   17,705;   -0,632;   -0,500
271,189;   -6,930;    0,186;    0,409
271,786;  -20,485;   -0,632;    1,227
272,383;   45,439;   -1,087;    0,227
272,980;   11,374;    0,277;    0,318
273,577;    0,595;    0,004;    1,227
274,174;   -4,731;    0,822;    2,591
274,771;   36,200;   -0,814;   -0,773
275,367;  182,593;    2,277;    1,409
275,964;   88,492;    0,731;   -0,500
276,561;   21,568;    1,549;   -1,045
277,158;   -2,245;    0,095;   -1,773
277,755;   75,185;    2,185;    0,409
278,351;   34,722;   -0,451;   -1,500
278,948;   51,516;   -0,815;    0,045
279,545;   39,073;   -1,360;    2,318
280,141;   75,033;   -1,723;   -2,045
280,738;   77,560;   -0,451;   -0,136
281,334;   11,948;   -1,633;    0,591
281,931;    3,061;   -0,087;   -1,318
282,528;   54,175;    0,822;   -0,500
283,124;   71,180;   -1,087;   -0,500
283,721;   66,145;   -0,451;    1,409
284,317;   30,124;    0,185;    2,500
284,913;   72,572;   -1,360;    0,591
285,510;  131,300;    0,640;   -0,318
286,106;   78,066;   -2,269;   -0,955
286,703;   40,571;   -0,360;    1,955
287,299;   13,625;   -1,451;   -0,591
287,895;   13,297;    0,822;   -1,045
288,491;    1,130;    0,186;    2,136
289,088;   25,204;   -2,360;    2,409
289,684;   27,018;   -1,723;    1,500
290,280;   94,573;    0,368;    0,682
290,876;   74,325;    1,822;    5,500
291,472;   52,876;    1,276;    2,227
292,068;   59,888;    1,367;    0,227
292,665;   26,898;    2,095;    0,773
293,261;    3,346;    0,276;    2,136
293,857;   54,752;    2,913;    2,136
294,453;   29,556;    3,550;    0,955
295,049;   92,075;   -0,268;    1,955
295,644;   39,271;    0,095;    0,136
296,240;    2,031;   -0,905;   -0,136
296,836;   29,177;   -0,995;    0,318
297,432;   62,270;    1,096;   -0,500
298,028;   67,695;    0,732;    0,773
298,624;   30,455;    1,459;    1,864
299,220;   20,773;    2,368;    0,591
299,815;   20,854;    1,005;   -0,409
300,411;   49,802;    0,914;    1,773
301,007;   77,781;    1,368;    0,227
301,602;   23,240;   -0,541;   -2,318
302,198;   75,583;    0,732;   -0,773
302,794;   30,283;    1,187;   -0,500
303,389;   -5,349;   -1,177;    1,045
303,985;    5,989;    0,550;    1,409
304,580;   63,463;    1,459;    1,591
305,176;   21,226;   -3,086;    0,136
305,771;  -20,820;   -1,268;   -1,227
306,367;  138,342;    4,095;    0,136
306,962;   51,149;    0,641;    1,500
307,558;   74,633;   -0,450;    0,136
308,153;   58,227;    1,095;   -1,136
308,748;    4,005;   -0,814;    1,682
309,344;  133,918;   -0,632;   -1,318
309,939;  120,389;   -1,905;   -1,318
310,534;   29,790;   -0,086;   -1,682
311,130;   20,795;    0,459;   -2,500
311,725;    5,808;    1,004;   -0,500
312,320;   16,031;    2,459;    0,045
312,915;   55,337;    1,459;   -1,045
313,510;  134,204;    1,550;   -0,500
314,105;   31,970;    1,096;    1,409
314,700;   -3,018;   -3,086;   -1,045
315,295;   14,099;   -0,904;    0,045
315,890;    5,874;    1,277;    0,864
316,485;   45,084;   -0,359;   -0,318
317,080;    2,789;   -3,086;    1,591
317,675;  119,851;    2,005;   -0,682
318,270;  215,955;    5,550;    3,318
318,865;  146,954;    3,278;    3,045
319,460;   81,937;   -0,904;    0,591
320,055;   17,272;   -0,541;   -1,227
320,650;   19,779;   -1,995;   -0,591
321,244;   27,462;   -0,177;   -1,409
321,839;   15,078;   -1,541;   -0,227
322,434;   43,395;   -1,086;   -1,591
323,029;   19,812;    1,732;    1,591
323,623;    6,459;    1,550;    0,773
324,218;   88,710;    2,368;    1,409
324,812;   58,557;    1,096;    1,591
325,407;   41,391;   -0,814;    2,045
326,002;  107,909;    0,277;   -0,409
326,596;   69,069;    0,914;    1,318
327,191;   15,901;    0,823;   -1,045
327,785;   19,341;   -0,813;   -0,227
328,379;    9,750;    1,368;    0,136
328,974;   23,872;    0,914;   -3,955
329,568;   42,317;    0,186;   -2,409
330,163;   75,028;    2,096;    1,045
330,757;   18,876;    2,459;    1,591
331,351;   -3,383;    0,459;    0,682
331,945;   -1,082;    0,914;    1,409
332,540;   38,164;   -1,723;   -0,591
333,134;   36,849;   -1,086;    0,773
333,728;   42,769;    0,005;    0,318
334,322;    5,323;   -1,177;   -0,864
334,916;    1,836;    0,277;    0,955
335,510;   62,463;   -0,450;   -0,136
336,105;   51,083;   -1,086;    1,591
336,699;   14,805;   -1,086;    0,591
337,293;   33,256;   -1,723;    0,318
337,887;   14,971;   -2,723;    1,955
338,481;   64,557;    0,459;    0,591
339,074;  109,834;   -0,359;    2,682
339,668;   98,432;   -1,632;    1,227
340,262;  390,063;    1,732;    3,227
340,856;  176,548;    1,822;   -0,682
341,450;   47,168;    1,004;    1,864
342,044;   81,438;    1,459;    0,136
342,637;  138,625;    0,913;   -2,136
343,231;   97,646;   -2,360;    0,682
343,825;   77,531;   -1,086;   -0,591
344,419;   83,382;   -1,995;    0,500
345,012;  416,216;    2,459;    4,045
345,606;  289,267;    4,641;    1,591
346,199;  113,913;   -1,813;   -0,227
346,793;  202,238;    1,914;    2,045
347,386;   89,797;   -0,813;   -1,136
347,980;   40,613;   -0,268;   -0,045
348,573;  115,647;    2,278;    0,409
349,167;  339,679;    5,278;    4,773
349,760;  232,804;    2,914;    2,682
350,354;  213,304;   -0,813;    1,136
350,947;  254,551;    1,096;    1,682
351,540;  177,578;   -0,358;   -1,409
352,134;   93,834;    1,096;    1,136
352,727;  109,151;   -0,086;    1,136
353,320;  133,964;    0,005;    0,591
353,913;   89,550;   -1,995;    1,864
354,507;  236,285;    0,823;   -1,227
355,100;  148,730;    0,460;    0,864
355,693;  481,671;    2,005;    2,409
356,286;  293,924;    0,823;    2,773
356,879;  177,716;   -0,722;    1,227
357,472;  185,115;   -0,904;    1,500
358,065;  207,786;   -0,722;    2,500
358,658;   99,078;   -0,540;    2,318
359,251;   84,899;   -1,631;   -0,591
359,844;  217,508;   -1,904;   -1,136
360,437;  264,248;   -2,995;    0,045
361,030;  135,778;    1,369;   -0,682
361,623;  146,674;    2,824;    0,318
362,215;  326,721;   -0,086;    2,045
362,808;  183,367;   -2,358;   -1,682
363,401;  124,449;   -2,449;    0,136
363,994;  297,131;   -0,631;   -1,500
364,586;  142,660;    0,824;   -1,500
365,179;  105,753;   -0,449;   -1,136
365,772;   10,104;   -1,995;    2,045
366,364;  109,164;    1,915;   -3,227
366,957;  134,908;    2,279;   -0,045
367,549;  101,829;    2,188;   -0,864
368,142;  115,061;    1,825;   -1,500
368,734;   82,285;    0,734;   -2,136
369,327;   34,254;    1,643;   -0,500
369,919;   66,898;   -1,538;    0,409
370,512;   87,124;   -1,083;   -0,500
371,104;  295,137;   -0,901;    1,591
371,696;  293,732;    1,191;   -0,955
372,289;  184,781;    0,373;    1,136
372,881;  144,206;   -2,080;    1,318
373,473;   57,602;   -2,170;    1,136
374,066;  130,322;   -0,169;    0,500
374,658;   90,956;    0,378;    1,136
375,250;   41,335;    0,653;   -1,409
375,842;   78,941;    0,473;   -0,045
376,434;   30,780;   -0,435;   -0,409
377,026;   12,626;    0,204;   -2,500
377,618;   53,793;   -0,158;   -0,682
378,210;  -10,175;   -0,338;   -1,955
378,802;  -17,461;    0,754;   -0,591
379,394;  353,723;    1,846;    0,682
379,986;  109,353;    1,393;   -0,955
380,578;   23,459;   -0,153;    0,773
381,170;  268,100;   -0,972;    0,045
381,762;  173,580;    0,755;    1,409
382,354;  144,508;   -0,065;   -1,318
382,945;   54,563;   -2,976;    0,318
383,537;   17,620;   -2,705;   -1,955
384,129;    7,243;   -2,160;   -1,136
384,721;  135,758;   -0,252;    0,955
385,312;   67,034;   -0,161;   -0,955
385,904;  145,500;   -2,706;    1,591
386,496;   71,718;   -0,979;    1,045
387,087;  193,529;    1,022;    2,500
387,679;  141,028;   -1,160;    0,045
388,270;  115,810;    2,840;    2,045
388,862;   72,866;    1,295;   -0,318
389,453;   65,032;   -0,887;    1,045
390,045;   65,183;   -0,705;   -2,682
390,636;  -35,346;    0,204;   -0,591
391,227;   29,436;   -0,523;   -0,045
391,819;    4,645;    0,204;    0,773
392,410;  251,471;    1,022;    0,045
393,001;   77,525;   -0,979;   -1,591
393,593;  128,489;    1,930;   -0,045
394,184;  168,528;    1,385;   -0,409
394,775;   57,651;    1,839;    2,136
395,366;  -18,619;    1,385;    0,773
395,957;  152,596;    0,113;    0,136
396,548;   45,274;   -0,342;    2,682
397,139;  147,937;   -2,433;    0,591
397,730;   65,438;   -1,888;    0,955
398,321;   76,113;   -1,252;    0,955
398,912;   18,247;   -0,615;    0,136
399,503;   20,002;   -3,524;   -1,409
400,094;   65,695;    0,294;    1,682
400,685;   57,319;   -0,433;    0,045
401,276;   13,488;    0,930;   -0,955
401,867;   -9,300;   -0,888;    0,773
402,458;  -50,728;   -2,251;   -2,318
403,048;   85,257;    1,112;    0,591
403,639;   31,662;    0,840;    0,864
404,230;  125,655;    2,476;    0,318
404,821;  189,548;   -0,615;    0,045
405,411;  105,426;    1,203;   -2,591
406,002;   28,746;   -1,252;   -1,136
406,592;  222,786;    2,294;    0,045
407,183;   94,870;    0,566;   -1,500
407,774;   82,909;    3,475;   -0,136
408,364;   29,318;    0,930;    0,409
408,954;  144,032;    0,384;    1,227
409,545;  134,755;    1,021;    1,045
410,135;   95,436;    1,293;    0,500
410,726;   46,456;    1,838;    0,318
411,316;  221,095;    0,111;    0,773
411,906;   69,706;   -0,253;   -0,409
412,497;   72,769;   -1,070;   -0,045
413,087;   22,015;   -1,980;   -0,227
413,677;  -37,422;   -0,707;    3,864
414,267;  -48,005;    0,656;    1,409
414,857;  -61,995;   -2,980;    4,227
415,448;  -63,855;    0,839;    0,500
416,038;  -31,907;    0,020;   -0,591
416,628;   14,118;   -0,889;    0,409
417,218;   64,110;    0,565;    3,318
417,808;  191,938;    0,202;   -0,409
418,398;   78,425;    0,020;    2,682
418,988;  -27,143;    2,020;    0,591
419,578;   62,920;   -0,707;    1,409
420,168;   -7,745;   -1,343;   -0,955
420,757;  126,812;   -1,343;   -1,500
421,347;   36,710;    0,111;   -0,227
421,937;    3,463;    2,292;    1,409
422,527;  119,939;    0,838;   -0,773
423,116;  255,000;   -0,253;   -0,045
423,706;    7,808;   -1,889;    0,318
424,296;  -36,832;    1,384;    0,682
424,885;   68,532;   -0,071;   -3,045
425,475;   46,647;    1,474;   -2,864
426,065;  -42,689;   -0,980;   -0,318
426,654;  -55,016;   -0,435;   -0,318
427,244;  170,684;    0,020;    1,409
427,833;  139,036;    1,383;   -0,500
428,423;   23,299;   -0,526;    1,136
429,012;   26,888;   -0,344;   -1,136
429,601;  144,032;   -1,344;    0,136
430,191;   38,748;    1,292;    4,318
430,780;  -40,183;   -0,344;   -0,409
431,369;  123,215;    0,746;   -0,045
431,959;   29,072;   -1,254;    0,500
432,548;  -29,892;   -1,163;   -0,045
433,137;  -78,782;   -1,254;   -1,318
433,726;  -17,342;    0,292;    0,500
434,315;    8,006;   -0,526;    2,409
434,905;   97,737;   -1,254;    1,409
435,494;   90,008;    0,746;    0,955
436,083;  -12,728;   -0,981;   -0,955
436,672;   67,291;    0,110;    0,500
437,261;   17,477;    0,292;   -1,955
437,850;  226,612;    1,383;    0,682
438,439;  272,459;    3,291;    1,955
439,027;  368,745;    3,655;    1,773
439,616;  296,989;    2,927;    1,227
440,205;   91,292;    0,200;   -2,136
440,794;   45,816;    2,109;   -0,045
441,383;  -15,812;   -1,346;   -0,591
441,971;  -42,636;   -2,436;    0,591
442,560;  -27,385;    0,563;   -1,773
443,149; -112,083;    0,379;   -1,318
443,737;  -69,959;   -0,074;   -2,318
444,326;  -47,289;    0,018;    0,318
444,915;   -1,175;   -1,982;    0,864
445,503;    7,352;   -2,891;   -0,318
446,092;  248,729;    0,382;    2,136
446,680;  183,753;    0,382;    0,318
447,269;   86,282;   -0,346;   -0,318
447,857;   72,769;    0,018;   -1,773
448,445;   26,992;    0,563;    1,318
449,034;  -16,532;   -1,528;   -1,136
449,622;   -3,894;   -1,073;    3,500
450,210;  245,266;    2,017;    2,227
450,799;  163,641;    0,290;   -0,591
451,387;  127,594;    1,381;   -0,591
451,975;  111,576;    2,654;    0,864
452,563;  182,516;    3,472;    2,318
453,151;   27,927;   -0,528;   -1,227
453,739;   66,871;   -1,347;    0,136
454,328;  163,728;    2,381;   -2,136
454,916;  102,148;    2,562;   -0,136
455,504;  124,428;    1,017;    1,227
456,092;   19,074;    0,017;   -1,591
456,679;  -20,952;    1,472;    0,682
457,267;  365,171;    4,017;    1,045
457,855;   70,432;    1,017;    1,409
458,443;  -55,529;   -0,165;    1,682
459,031;   87,174;    0,108;    2,409
459,619;   47,668;   -1,801;    2,864
460,206;  -34,105;    0,835;    2,045
460,794;  -38,597;   -2,983;   -0,227
461,382;    4,936;   -0,529;   -0,864
461,970;    8,602;    1,198;    1,864
462,557;  -50,825;   -0,711;   -0,682
463,145;   48,308;   -3,165;   -1,682
463,732;  281,723;    2,016;   -1,045
464,320;   65,792;   -0,075;   -3,045
464,907;  193,020;    2,743;   -0,773
465,495;  117,339;    0,743;   -1,227
466,082;   37,546;   -1,984;   -0,045
466,670;   63,007;   -2,529;    1,227
467,257;  -29,250;   -1,711;    2,045
467,844;   62,523;   -0,075;    0,045
468,432;   37,651;    0,834;    3,500
469,019;   -6,790;    0,925;   -1,773
469,606;   80,245;    0,470;    3,682
470,193;  113,181;   -1,439;    0,227
470,780;   68,467;   -2,075;    0,864
471,368;   -1,110;   -1,257;   -0,773
471,955;   98,512;    1,379;   -0,682
472,542;   59,039;    0,652;   -1,136
473,129;  -42,054;   -0,166;    0,136
473,716;  -32,824;    1,470;    0,591
474,303;    5,634;    0,652;   -0,864
474,890;    4,649;   -1,439;   -0,500
475,477;   97,367;   -1,621;    0,409
476,064;   11,050;    1,106;   -1,591
476,650;  126,462;    0,288;    0,318
477,237;   33,644;   -0,258;    0,955
477,824;   14,503;   -1,076;    0,864
478,411;  -52,504;   -1,894;   -0,318
478,997;  -66,830;    0,560;   -0,773
479,584; -109,267;    1,196;   -0,409
480,171;   53,168;   -0,440;   -0,773
480,757;  113,151;    2,651;    0,773
481,344;   10,413;    0,469;    0,409
481,931;  -72,761;    1,105;    1,045
482,517;   41,821;   -1,258;    0,318
483,104;  122,702;    1,106;    2,864
483,690;   -9,475;   -1,804;    0,045
484,276;  -32,409;   -0,895;    0,227
484,863;  171,661;    2,469;    1,136
485,449;   43,165;   -0,077;    0,318
486,035;  -10,707;   -1,986;   -0,136
486,622;   71,805;   -0,895;    0,045
487,208;   -4,385;    1,378;    1,500
487,794;  -69,142;    0,741;    0,318
488,380;  -70,856;    0,105;   -1,409
488,967;  -72,066;   -1,168;   -0,409
489,553;  -52,425;   -1,895;   -1,409
490,139;   24,729;    1,559;    0,773
490,725;  -41,354;    0,741;   -0,227
491,311;   -7,211;    3,287;    3,045
491,897;  -20,388;   -0,986;    1,500
492,483;  -17,435;    0,105;    1,227
493,069;  391,497;    3,923;    0,864
493,655;  133,649;    1,650;    0,682
494,241;    8,974;    1,377;   -0,955
494,826;   15,483;    0,287;   -1,045
495,412;   70,968;    2,559;   -0,682
495,998;  -12,132;   -0,805;   -0,318
496,584;   42,242;    0,377;    1,045
497,169;   61,956;    1,014;   -0,682
497,755;    3,528;    0,650;    1,227
498,341;  119,863;    0,559;    0,318
498,926;  238,676;    1,832;    1,955
499,512;   -8,166;    1,286;    2,955
500,097;   -9,675;    0,195;   -0,318
500,683;   18,214;   -0,350;    2,136
501,268;  -32,842;   -0,169;   -0,955
501,854;   -5,854;   -0,169;    1,227
502,439;   -8,536;   -0,624;   -1,773
503,024;    0,310;    0,195;    0,500
503,610;   21,700;   -0,078;   -0,682
504,195;  -19,706;    0,558;    1,955
504,780;   68,891;    2,922;    1,227
505,366;  140,064;    3,013;    2,864
505,951;   81,746;    0,740;    1,045
506,536;    3,403;   -3,260;   -3,682
507,121;   56,324;    0,285;   -0,318
507,706;   12,056;    2,376;    1,045
508,291;  -33,798;    2,649;    1,136
508,876;  -27,315;   -0,988;    2,591
509,461;    7,924;   -0,169;   -0,773
510,046;   43,312;    0,194;    0,318
510,631;   46,648;   -0,351;   -0,773
511,216;  -20,724;    2,467;   -0,500
511,801;   22,650;   -0,442;    2,591
512,386;   47,266;    0,740;    0,500
512,971;   59,857;   -2,988;    0,955
513,555;   94,250;   -0,897;   -1,500
514,140;   53,110;   -0,442;   -3,136
514,725;  162,040;   -0,715;   -1,136
515,309;   77,485;   -0,533;    0,318
515,894;    7,907;   -0,624;   -2,227
516,479;   36,832;   -0,624;   -0,955
517,063;   49,545;    0,376;    1,227
517,648;   14,824;    1,012;   -1,136
518,232;   -2,521;   -0,261;   -1,409
518,817;   89,815;   -0,079;    1,682
519,401;  230,593;    2,194;    0,591
519,985;  234,944;    1,103;    1,136
520,570;  130,912;    0,830;   -1,955
521,154;  294,540;    2,102;    0,591
521,738;  548,222;   -2,352;    2,409
522,323;  436,622;   -0,170;    1,682
522,907;  502,186;    0,466;   -0,136
523,491;  479,191;    0,557;    0,955
524,075;  536,981;    2,284;    0,591
524,659;  905,076;    1,466;    0,591
525,243;  920,931;    1,739;    0,409
525,827; 1016,316;    0,648;   -0,045
526,411; 1295,076;   -1,989;   -0,136
526,995; 1735,061;   -0,352;    1,409
527,579; 1957,030;   -0,443;   -1,045
528,163; 2231,177;    0,375;   -1,500
528,747; 2672,533;    2,466;   -0,773
529,331; 3060,919;   -0,080;   -1,409
529,915; 3356,393;    1,738;    0,955
530,499; 3787,817;   -0,807;    1,227
531,082; 4113,935;   -0,534;    1,591
531,666; 4273,613;    1,374;    0,773
532,250; 4982,959;    1,284;    2,682
532,833; 5601,574;    0,920;    2,773
533,417; 5934,063;   -1,807;    0,864
534,001; 6272,579;    1,647;   -0,318
534,584; 7169,189;    0,374;    0,500
535,168; 7439,822;    0,465;    1,409
535,751; 7874,100;    0,647;    0,045
536,334; 7806,660;   -0,898;   -0,409
536,918; 8676,504;    0,011;    1,591
537,501; 9060,709;   -0,899;    1,318
538,085; 9421,174;   -0,444;    1,045
538,668; 9827,056;    0,829;    2,409
539,251;10426,483;    1,829;    3,773
539,834;10776,204;    0,101;    0,773
540,418;10973,279;   -1,990;    4,318
541,001;11313,963;   -0,990;    1,773
541,584;11523,644;    2,101;    2,227
542,167;11435,226;    1,374;    2,955
542,750;11787,544;    1,919;   -0,773
543,333;11576,839;    0,555;    2,136
543,916;12482,198;    0,192;    2,500
544,499;13161,001;   -1,354;    0,227
545,082;13345,611;    1,374;    3,591
545,665;13617,720;    1,919;    1,500
546,248;14069,929;    1,010;   -0,318
546,830;13853,982;   -0,445;    1,955
547,413;14342,169;    1,010;   -0,773
547,996;14965,796;    0,555;    0,500
548,579;14816,610;    0,919;    0,955
549,161;14777,130;    1,828;    2,682
549,744;14676,308;   -0,809;    0,409
550,326;15245,493;   -0,809;   -1,136
550,909;15132,758;    2,737;    0,591
551,492;15595,574;   -0,263;    0,227
552,074;15442,801;   -0,173;   -1,318
552,657;16004,863;    2,373;    0,045
553,239;15897,325;   -0,173;   -0,773
553,821;15883,566;   -1,082;    1,045
554,404;15427,558;    1,282;    1,136
554,986;15840,122;    0,464;    1,045
555,568;16455,494;    1,191;   -0,955
556,151;15778,739;    1,191;   -0,227
556,733;16011,114;   -0,264;   -0,864
557,315;16488,529;    0,100;    0,500
557,897;16323,856;    0,554;   -0,500
558,479;16511,617;   -1,991;    1,318
559,061;16675,938;   -0,719;   -0,864
559,643;17023,976;   -0,264;    0,045
560,225;17375,377;    1,645;    2,864
560,807;17463,066;    0,918;    0,318
561,389;16988,227;    0,554;    2,318
561,971;17666,834;    0,463;    2,136
562,553;17523,607;   -1,628;    1,591
563,135;17684,906;   -0,537;    1,136
563,717;17342,055;    3,372;    1,136
564,298;18036,375;    3,645;   -0,045
564,880;17809,049;    0,645;   -1,409
565,462;17962,413;    0,645;    1,318
566,043;19065,663;   -0,446;    2,318
566,625;18625,207;    1,918;    1,227
567,207;18447,327;    1,099;    1,682
567,788;19560,699;   -1,264;    1,500
568,370;20403,799;    1,917;   -0,500
568,951;20212,043;    0,190;    0,227
569,533;21100,549;   -0,628;   -0,500
570,114;21549,618;   -0,446;    0,682
570,695;21974,771;   -0,174;   -1,318
571,277;22474,790;   -0,265;   -1,682
571,858;23188,442;    2,008;   -1,136
572,439;24064,390;    1,554;   -1,045
573,021;24246,688;    2,099;   -2,773
573,602;24698,121;   -1,265;    0,318
574,183;25554,748;   -2,083;    2,227
574,764;25735,167;   -1,629;    0,409
575,345;26225,821;    0,917;   -0,136
575,926;26827,871;   -0,356;    0,136
576,507;26884,574;    1,099;   -0,227
577,088;27923,634;    3,099;    1,682
577,669;27934,089;    0,735;    1,955
578,250;28632,293;    0,644;   -1,045
578,831;29327,953;   -1,356;   -2,227
579,412;29495,606;   -0,810;    0,955
579,993;30480,671;    1,008;    0,227
580,573;30846,886;   -0,629;   -0,955
581,154;29829,212;    0,735;   -0,591
581,735;30688,056;    0,644;    0,773
582,315;30223,602;   -0,629;    2,136
582,896;30560,803;   -0,174;    1,227
583,477;30046,932;    0,189;    1,227
584,057;30224,550;    0,553;    0,955
584,638;30535,762;    2,553;    2,318
585,218;30501,728;   -0,538;    2,682
585,799;30688,382;    0,281;   -0,227
586,379;30703,543;    0,372;    1,591
586,959;29578,991;    0,735;    0,318
587,540;28998,129;   -0,629;    2,227
588,120;28578,204;    1,007;   -0,045
588,700;27565,380;    2,553;    2,136
589,281;27853,187;    0,462;   -0,955
589,861;27755,864;    0,099;   -1,682
590,441;27638,918;    2,371;   -2,682
591,021;26632,942;   -0,265;   -2,591
591,601;26871,836;   -0,537;    0,500
592,181;26905,315;   -0,719;   -0,773
592,761;26214,482;    0,007;    1,409
593,341;26216,686;   -0,901;    0,045
593,921;26187,967;   -0,265;    1,591
594,501;26127,113;   -0,538;    1,318
595,081;25977,995;    0,917;   -0,318
595,661;26286,800;   -1,447;    0,955
596,240;26833,412;   -0,537;    0,136
596,820;26436,503;    0,372;    1,955
597,400;26607,462;    2,008;    0,773
597,980;26843,248;    2,008;    1,045
598,559;26885,457;    2,735;   -0,227
599,139;26604,831;   -0,174;   -1,227
599,718;26579,285;   -0,174;   -0,409
600,298;26808,761;    0,735;    0,682
600,877;26972,889;    2,917;    1,409
601,457;27276,981;    2,281;    1,136
602,036;27222,289;    0,190;    2,045
602,616;27425,519;    0,644;    1,682
603,195;27775,524;   -0,355;    3,500
603,774;27299,685;   -0,901;    2,045
604,354;27201,294;    0,826;   -0,500
604,933;26715,922;    0,463;    1,864
605,512;26827,359;    3,554;    0,591
606,091;26849,119;   -0,537;    3,773
606,671;27691,042;    0,281;    0,773
607,250;26837,136;    1,644;    3,136
607,829;27090,281;    2,372;    3,227
608,408;27008,176;    1,190;    2,591
608,987;25989,490;    1,281;    3,409
609,566;26275,165;   -1,265;   -2,500
610,145;26397,283;   -1,082;    0,682
610,723;26808,866;    4,372;    6,864
611,302;26072,839;   -0,446;    1,682
611,881;25606,397;    5,008;   11,227
612,460;26482,553;    1,645;    3,955
613,039;26867,824;   -0,082;    2,045
613,617;25651,319;    1,736;    4,773
614,196;25842,584;    1,099;    1,227
614,775;26157,972;    1,009;    2,409
615,353;26114,560;    0,736;    0,864
615,932;25836,170;    0,100;    2,409
616,510;26475,061;    0,554;    0,591
617,089;25978,417;    7,100;   17,591
617,667;25762,263;    2,372;    6,136
618,246;25650,729;   -1,537;    1,318
618,824;25817,432;   -3,355;   -0,955
619,402;25379,252;   -2,900;   -1,773
619,981;25884,322;   -0,173;   -1,045
620,559;25790,913;    0,009;    1,682
621,137;25298,619;   -0,718;    1,864
621,715;25285,292;   -1,173;   -0,682
622,293;25224,586;   -0,537;   -0,773
622,871;25682,529;   -0,718;    0,500
623,450;25308,220;    0,373;   -0,864
624,028;25222,306;    0,191;   -0,955
624,606;24820,773;   -1,718;    1,682
625,183;25236,356;   -1,536;   -1,136
625,761;24837,082;    1,009;    1,136
626,339;25076,660;    1,373;    2,591
626,917;25530,503;   -0,172;   -0,045
627,495;25578,811;   -0,354;    1,318
628,073;25006,909;   -0,263;    2,864
628,650;24711,644;    0,100;    2,136
629,228;25150,699;    0,373;    4,409
629,806;24561,738;    2,282;    1,136
630,383;24864,316;    1,464;   -0,318
630,961;24659,496;    2,555;   -0,955
631,539;24414,373;    2,464;    0,227
632,116;23701,860;   11,373;   15,409
632,694;24311,319;    2,555;    6,500
633,271;24608,299;    0,828;    2,682
633,848;24508,867;    1,828;    2,045
634,426;24604,888;   -1,081;    1,773
635,003;23732,891;    1,101;   -0,409
635,580;23993,248;    1,192;    3,682
636,158;24583,626;    3,737;    1,227
636,735;24609,784;    0,555;   -0,500
637,312;24724,117;   -0,809;   -0,682
637,889;24795,759;   -4,354;   -0,682
638,466;24306,602;   -3,990;   -0,409
639,043;24336,404;    2,101;   -1,136
639,620;24667,099;   -2,262;   -0,955
640,197;24976,773;    1,100;    1,682
640,774;25127,913;   -0,172;    1,136
641,351;25495,053;    0,737;    1,136
641,928;24934,920;   -0,627;    1,409
642,505;24563,970;    0,828;   -0,500
643,082;24718,292;   -1,718;    1,227
643,658;23754,886;   -0,718;    1,500
644,235;24482,663;    1,191;    2,500
644,812;24780,985;    1,918;    0,773
645,388;24525,489;   -0,991;    1,409
645,965;24611,265;   -0,809;    1,682
646,542;24694,314;   -1,445;   -0,227
647,118;24670,091;    1,009;   -0,955
647,695;24949,958;   -0,263;    1,136
648,271;24882,462;   -0,536;    0,500
648,848;25211,420;    0,736;    2,227
649,424;25050,379;    0,827;    1,318
650,000;24800,701;   -0,354;   -1,045
650,577;24582,023;   -0,627;   -0,955
651,153;25072,072;   -1,809;    0,955
651,729;26052,939;    1,191;    0,864
652,305;26180,898;    0,645;    2,773
652,881;30176,310;   -0,082;    1,136
653,458;36790,360;    1,100;    0,227
654,034;40583,954;    0,282;    1,591
654,610;42156,185;    0,554;    0,773
655,186;43530,144;    0,645;    3,045
655,762;43227,193;   -0,991;    0,409
656,338;43235,788;    0,100;    0,136
656,913;44175,837;   -0,082;    0,409
657,489;43470,704;    0,827;   -0,318
658,065;43487,844;   -0,173;   -1,591
658,641;44153,803;   -0,900;   -0,864
659,217;43471,488;   -0,991;    0,409
659,792;42863,083;    0,645;   -0,409
660,368;43088,314;   -2,173;   -0,682
660,944;42862,727;   -2,082;    1,227
661,519;38674,504;   -0,628;    0,409
662,095;32983,825;   -1,719;    0,591
662,670;28355,238;    1,281;   -0,136
663,246;27133,015;    1,009;   -0,409
663,821;26373,610;    0,281;    1,682
664,396;25850,022;    0,009;    1,864
664,972;26114,253;    0,009;   -0,500
665,547;26447,666;    1,372;    0,136
666,122;26467,443;   -1,082;    0,318
666,698;26729,219;   -0,173;    0,318
667,273;26102,269;   -0,173;    0,136
667,848;26894,227;    2,372;    1,500
668,423;26695,367;    2,190;    2,318
668,998;27241,325;    2,827;   -0,682
669,573;27736,375;   -3,264;   -1,500
670,148;27587,242;   -1,446;   -0,682
670,723;27381,564;   -1,810;    0,318
671,298;27818,522;    2,372;    1,045
671,873;27963,026;   -0,082;   -0,136
672,448;27901,712;    0,645;    0,136
673,023;28258,215;   -1,992;   -0,227
673,597;28536,901;    0,827;    2,318
674,172;28308,678;   -0,355;    0,318
674,747;27807,909;    0,372;   -1,045
675,321;27693,322;   -0,628;    3,318
675,896;27282,371;    0,645;    1,045
676,471;28234,602;    2,645;    1,591
677,045;28052,924;   -1,264;    0,682
677,620;28060,246;    0,190;    1,136
678,194;28338,295;   -2,628;    1,136
678,769;27953,071;   -1,083;   -0,318
679,343;28152,757;   -0,628;    1,773
679,917;28063,534;   -1,446;    1,955
680,492;28129,128;    0,826;    3,227
681,066;28283,905;    3,372;    0,409
681,640;28307,499;    1,463;   -0,318
682,214;29155,912;    0,735;    0,500
682,788;28695,052;   -1,356;   -0,773
683,363;28604,920;   -1,810;    1,682
683,937;28301,515;   -1,719;   -0,318
684,511;29046,018;    0,463;   -0,591
685,085;28773,431;   -1,356;    0,318
685,659;28494,753;   -2,538;    0,864
686,232;28750,439;   -0,356;   -0,318
686,806;28474,488;   -0,901;    0,409
687,380;29172,628;   -0,174;    0,591
687,954;29340,405;   -1,174;    1,136
688,528;29057,999;   -0,719;    1,955
689,101;29827,958;   -3,992;    1,045
689,675;29457,007;   -0,356;   -0,136
690,249;28790,238;   -0,719;    0,409
690,822;29110,287;    0,280;    0,318
691,396;29214,064;   -0,265;    1,227
691,969;28655,386;    1,280;    0,136
692,543;29197,071;   -0,447;   -1,955
693,116;28840,030;   -0,265;   -1,409
693,690;28679,352;    0,099;    0,500
694,263;29203,492;   -1,083;    2,955
694,836;29243,086;    1,371;    3,591
695,410;27893,136;   -0,265;    1,773
695,983;28377,367;    0,189;    0,591
696,556;28378,598;   -0,447;   -1,045
697,129;28781,011;   -0,356;    1,409
697,703;28345,333;   -1,629;    1,955
698,276;28341,655;    1,462;   -0,773
698,849;28156,431;    1,280;    1,409
699,422;28565,208;   -1,083;    0,591
699,995;28238,348;    0,007;    0,136
700,568;28724,670;   -0,629;    3,045
701,140;28749,446;   -2,811;    1,682
701,713;28451,404;   -0,174;    2,409
702,286;28217,908;   -0,538;    0,864
702,859;28141,412;   -0,902;   -0,591
703,432;27266,189;    0,825;    0,682
704,004;27794,965;    0,462;    0,318
704,577;27661,378;   -0,629;    0,136
705,150;28253,064;    0,189;    2,500
705,722;28074,113;   -0,356;   -3,227
706,295;27838,707;   -0,175;   -0,591
706,867;27639,484;   -0,175;    1,955
707,440;27893,533;   -1,720;   -0,409
708,012;28123,582;    0,462;    0,591
708,584;28019,632;    2,462;    0,227
709,157;28342,681;    1,825;   -0,591
709,729;28007,366;    2,280;    2,045
710,301;28856,688;    0,734;    0,045
710,874;28856,465;   -1,447;   -0,227
711,446;27716,332;    0,371;    0,864
712,018;27590,473;    0,098;    0,500
712,590;27338,249;   -1,993;    1,682
713,162;27875,480;    0,825;    1,318
713,734;28154,257;    1,825;   -2,045
714,306;28048,215;   -1,902;   -0,409
714,878;26743,355;    0,825;    0,864
715,450;27590,950;    0,643;    0,864
716,022;27904,454;    1,552;    1,318
716,593;27991,957;    0,189;    0,591
717,165;27884,916;   -3,175;   -1,227
717,737;27626,238;    0,280;    0,409
718,309;27279,469;    0,280;   -0,045
718,880;27288,336;   -0,539;   -1,409
719,452;27487,113;   -0,175;   -1,591
720,024;27084,344;    0,734;   -0,591
720,595;27679,756;   -2,902;    0,955
721,167;27165,442;    0,370;   -2,045
721,738;26679,219;   -0,812;   -1,045
722,309;26648,722;   -0,993;   -1,227
722,881;26451,135;   -1,357;    0,773
723,452;27084,003;   -2,630;    2,864
724,023;27271,052;   -0,721;    2,682
724,595;27038,828;    0,007;    0,682
725,166;26807,878;    0,007;   -0,409
725,737;26504,654;    1,734;    0,227
726,308;26540,976;   -0,266;    0,318
726,879;26954,934;   -1,630;    1,227
727,450;26796,347;    0,552;   -0,045
728,021;26744,487;    3,097;    0,682
728,592;26586,537;    0,734;    0,500
729,163;26917,313;    0,643;   -0,136
729,734;26917,090;    0,188;   -0,227
730,305;27256,503;    1,734;    0,136
730,876;27614,097;    0,188;    2,955
731,447;27263,146;    2,188;    2,682
732,017;27410,559;    1,097;    1,864
732,588;26948,518;    0,734;    1,227
733,159;27091,476;    0,643;   -1,045
733,729;26906,071;    0,006;    0,409
734,300;26233,302;    0,915;    0,864
734,870;26641,987;    3,461;    0,591
735,441;27200,491;    0,370;   -0,591
736,011;26931,813;    0,643;   -1,591
736,582;26855,317;   -0,812;    0,045
737,152;26375,184;   -1,721;   -2,045
737,722;26808,324;   -0,267;   -0,682
738,293;26575,101;   -1,358;    1,318
738,863;26453,423;    2,461;    2,318
739,433;26239,927;    5,279;    0,318
740,003;26873,158;   -0,994;   -0,682
740,573;26288,389;    2,097;   -1,591
741,143;26208,074;   -1,085;    0,318
741,713;26996,942;    1,188;   -0,500
742,283;26653,900;    0,915;    1,591
742,853;26482,768;    1,915;    1,591
743,423;25945,726;    1,733;    0,045
743,993;26093,957;   -0,358;    1,500
744,563;25459,188;    0,097;   -0,864
745,133;25387,601;   -0,812;   -0,864
745,702;26109,650;   -0,267;    1,773
746,272;25304,063;   -0,176;    0,591
746,842;25075,203;   -1,358;   -0,591
747,411;25523,889;   -0,267;   -0,318
747,981;25742,302;    0,097;    0,500
748,551;25755,351;    2,278;   -1,045
749,120;25635,673;    0,642;   -0,227
749,690;25971,904;   -0,631;    2,409
750,259;26290,498;    1,369;    2,955
750,828;26208,457;    1,551;   -1,955
751,398;26483,233;    1,278;   -0,045
751,967;25976,192;    2,187;    0,409
752,536;26235,695;   -0,813;   -0,227
753,105;26646,745;    0,096;    0,227
753,675;26398,430;    0,096;    1,773
754,244;26329,389;   -0,904;    3,591
754,813;26416,529;    0,551;    1,227
755,382;26009,033;    0,460;    0,955
755,951;26517,900;    1,551;    3,682
756,520;26021,767;   -0,085;    1,864
757,089;26555,998;    0,278;    0,500
757,658;26733,957;    1,733;    1,227
758,227;26783,915;    1,096;    0,318
758,795;27112,964;    1,187;    1,136
759,364;27301,832;   -0,086;   -0,591
759,933;26308,608;   -1,176;   -0,045
760,501;25871,657;    0,733;   -1,318
761,070;26311,161;   -2,813;   -1,409
761,639;26984,665;   -1,904;    1,318
762,207;26297,442;    1,551;   -0,955
762,776;26285,036;    0,369;    0,864
763,344;26256,358;   -0,995;    0,591
763,913;25402,771;   -0,722;    1,409
764,481;26147,548;    1,005;   -0,136
765,049;25921,415;   -1,358;    1,409
765,618;25823,646;   -0,086;    0,318
766,186;25864,332;    0,278;    0,136
766,754;26072,472;    0,005;    1,864
767,322;25049,066;   -1,995;    0,409
767,890;25088,752;   -0,722;   -1,773
768,459;25482,983;   -2,177;   -0,318
769,027;25625,578;    1,641;    3,409
769,595;24631,900;    3,278;    2,591
770,163;25065,494;    3,823;    2,955
770,730;24844,271;    0,732;   -0,136
771,298;24702,775;    0,187;   -1,409
771,866;24800,824;   -1,541;    4,955
772,434;25209,510;   -0,631;   -1,864
773,002;25250,195;    0,005;    0,682
773,569;24897,608;    0,914;    1,682
774,137;24780,748;   -0,268;   -0,045
774,705;25572,070;    0,278;   -0,136
775,272;25034,938;    0,641;    0,682
775,840;24785,896;   -0,177;    2,682
776,407;24348,218;    0,277;    1,955
776,975;23939,176;   -0,632;    0,318
777,542;24992,953;   -1,086;   -0,045
778,110;24814,729;   -1,268;   -0,045
778,677;24527,233;   -2,359;   -0,864
779,244;24243,282;    2,186;    1,045
779,812;24370,604;    1,823;    0,864
780,379;24209,108;    0,005;    1,136
780,946;24413,430;    1,005;   -0,773
781,513;24771,661;   -1,450;    0,318
782,080;24153,983;   -0,086;    2,864
782,647;24861,487;   -0,268;    3,045
783,214;24482,990;   -0,177;    3,864
783,781;24091,222;   -0,723;   -0,682
784,348;23954,725;   -0,632;    1,500
784,915;24439,775;   -3,177;    0,318
785,482;24250,824;    1,368;    2,591
786,049;24676,418;    0,186;   -0,591
786,615;24735,377;    0,277;   -0,955
787,182;24489,062;    0,186;   -0,682
787,749;24192,748;   -2,814;    1,409
788,315;23540,070;   -1,632;   -0,409
788,882;23805,028;    1,550;   -1,227
789,448;24458,168;    1,732;   -0,955
790,015;24515,309;    1,095;    3,227
790,581;24109,176;    1,459;    0,227
791,148;23983,316;    0,641;    1,045
791,714;24227,093;   -0,541;    3,136
792,280;23902,778;    0,186;    1,591
792,847;23494,737;    0,550;    2,500
793,413;24048,149;   -0,269;   -0,318
793,979;23553,290;    3,459;   -1,318
794,545;23640,702;    4,459;    2,682
795,111;23052,297;    2,186;    1,318
795,678;23253,892;    0,731;   -1,682
796,244;22908,214;    3,368;    0,136
796,810;23442,354;    1,731;    0,773
797,375;23177,403;    0,549;   -2,136
797,941;23217,634;   -0,541;    0,591
798,507;23316,774;   -0,451;   -0,955
799,073;22868,278;   -0,360;    0,591
799,639;22910,146;   -2,632;    3,136
800,205;22974,467;    0,095;    2,682
800,770;22572,971;    0,640;    1,773
801,336;22614,111;    1,368;   -0,955
801,901;22353,615;    4,549;    3,136
802,467;22902,664;   -0,542;    2,045
803,033;22217,805;   -0,087;    0,864
803,598;22441,217;    1,913;   -1,045
804,163;22495,903;    1,095;   -0,318
804,729;22464,043;   -0,178;    1,136
805,294;22850,365;    0,822;    2,227
805,859;22576,869;    0,731;   -0,409
806,425;22079,645;    1,186;    2,682
806,990;21766,604;    2,186;    4,318
807,555;22279,380;   -1,451;    2,591
808,120;22136,339;    0,822;   -0,409
808,685;22233,297;    0,185;   -2,500
809,250;21723,710;    0,004;   -0,500
809,815;22040,850;    1,913;    0,682
810,380;22533,899;   -0,269;    1,591
810,945;23058,312;   -1,087;    2,045
811,510;22262,179;    2,094;    1,591
812,075;21966,411;   -0,633;   -1,409
812,640;21998,823;    2,003;    1,409
813,204;22103,873;    0,822;   -0,227
813,769;22554,013;    2,094;   -0,045
814,334;21923,335;    0,458;    0,864
814,898;22015,475;    0,367;    0,591
815,463;21919,160;    1,276;   -0,773
816,027;21890,482;   -0,724;   -2,318
816,592;21931,895;    0,640;   -2,045
817,156;21458,308;    2,094;    1,136
817,721;21244,630;    4,276;    2,318
818,285;21211,588;    2,912;    1,500
818,849;21909,274;   -1,451;    1,682
819,414;21854,687;   -0,269;    2,955
819,978;21418,645;   -1,269;    1,773
820,542;21979,876;    2,003;    0,500
821,106;21703,926;   -0,815;    0,682
821,670;21820,793;   -0,815;    2,591
822,234;21532,297;   -0,270;    1,409
822,798;20886,619;    0,003;    0,500
823,362;20835,577;   -0,633;    4,227
823,926;20179,263;    0,094;    1,136
824,490;20394,221;   -0,997;   -0,682
825,054;20841,907;   -0,088;   -1,136
825,618;20473,865;   -1,542;   -1,500
826,181;20449,369;    0,458;   -1,318
826,745;20341,327;    1,367;   -1,045
827,309;20701,376;    1,185;    1,318
827,872;20047,516;    1,367;    0,955
828,436;21061,293;    1,185;   -0,773
828,999;21159,706;   -0,997;    1,227
829,563;19914,573;   -0,179;    1,136
830,126;19767,713;   -0,179;   -0,591
830,690;19772,763;   -1,997;    2,864
831,253;19302,448;   -0,543;    2,227
831,816;19378,952;   -1,906;    0,500
832,380;19298,637;    0,185;    0,864
832,943;19529,232;   -1,361;   -0,500
833,506;19058,100;    2,639;   -1,227
834,069;19867,785;    3,912;   -0,955
834,632;19922,744;    1,730;    1,318
835,195;19797,884;    1,003;    0,955
835,758;19008,933;   -0,997;    1,955
836,321;18845,255;    0,730;   -1,045
836,884;18964,577;   -0,725;   -0,955
837,447;19006,535;   -2,816;    1,773
838,010;19263,948;    0,366;    3,227
838,573;19506,906;   -1,179;    0,773
839,135;19528,683;   -1,361;   -0,955
839,698;18973,278;    1,275;    0,409
840,261;18482,872;    1,003;   -0,227
840,823;18362,376;   -0,543;    0,864
841,386;18638,334;   -0,452;   -2,409
841,948;18479,020;   -1,361;    1,773
842,511;18215,887;    0,912;    1,682
843,073;18383,846;    1,912;    0,227
843,636;18177,440;   -0,361;   -0,227
844,198;18086,308;    0,911;    0,591
844,760;18187,721;    1,093;    1,955
845,322;17878,043;    0,548;    1,136
845,885;18305,546;    0,730;    0,591
846,447;18788,505;   -1,998;    0,227
847,009;18305,099;    1,911;   -0,682
847,571;18648,785;    0,820;   -2,045
848,133;18753,652;   -1,089;   -1,864
848,695;18564,611;   -0,543;    1,409
849,257;18122,660;   -1,089;   -1,682
849,819;18306,618;   -0,998;   -0,409
850,381;18356,940;   -0,725;   -0,864
850,942;18705,626;    1,093;   -0,591
851,504;18650,493;    1,184;    0,227
852,066;18659,724;    1,275;   -1,591
852,628;18218,501;   -0,180;    1,955
853,189;17778,459;    1,638;    2,682
853,751;17903,417;   -0,907;    1,409
854,312;17722,830;   -0,453;   -1,682
854,874;18229,607;   -2,089;   -0,773
855,435;18756,383;   -0,907;   -1,682
855,997;18934,705;   -1,816;   -0,136
856,558;18203,573;    0,366;    1,773
857,119;18324,531;    0,820;    2,864
857,681;18024,944;    0,002;    0,318
858,242;18018,993;    1,911;   -2,136
858,803;18475,133;    0,456;   -0,773
859,364;19061,001;    0,184;   -4,773
859,925;18344,141;   -2,453;   -0,955
860,486;18256,463;   -0,453;   -0,955
861,047;17962,694;   -0,544;   -1,227
861,608;17791,289;   -1,089;   -0,773
862,169;17978,792;    0,638;   -0,045
862,730;17717,296;    0,456;    1,409
863,291;17977,527;   -0,635;   -0,500
863,852;18322,395;   -0,635;    1,955
864,412;17784,898;   -0,271;   -0,864
864,973;16343,220;   -0,089;    0,500
865,534;16239,906;   -1,726;    0,227
866,094;17753,955;    1,820;    0,227
866,655;17410,004;    1,274;    3,318
867,215;17680,235;    0,274;    0,136
867,776;17516,739;    0,547;   -0,136
868,336;17645,152;   -1,453;    0,136
868,897;17095,020;    2,638;    1,682
869,457;16851,887;    1,365;    0,318
870,017;17089,573;    0,547;   -1,227
870,578;17600,713;   -0,817;    0,773
871,138;17279,398;   -2,089;   -0,955
871,698;16807,357;   -0,817;   -1,318
872,258;16682,951;   -0,453;   -2,864
872,818;17076,182;    2,729;    0,045
873,378;17058,323;    0,638;    1,045
873,938;16577,099;    0,547;    0,500
874,498;16881,148;    0,274;   -1,955
875,058;16805,197;    2,183;    1,773
875,618;16661,065;    1,910;   -2,682
876,177;16567,660;    1,274;    0,136
876,737;16189,163;   -0,090;    1,955
877,297;16211,485;    0,183;    1,955
877,856;16204,535;   -0,362;    0,318
878,416;16184,947;    1,183;   -0,136
878,976;16409,451;   -1,817;    0,409
879,535;16547,319;    0,092;    3,136
880,095;16297,550;   -0,544;    0,045
880,654;16435,417;   -1,090;    1,318
881,213;16487,830;    2,456;    1,500
881,773;16172,606;    2,637;    2,682
882,332;16532,292;    3,365;    5,136
882,891;16319,887;    3,092;    2,136
883,451;16778,300;   -1,272;    1,682
884,010;16251,713;   -2,908;   -0,409
884,569;16337,489;   -0,999;   -0,045
885,128;16466,356;    2,819;   -1,864
885,687;16555,497;    4,455;    0,682
886,246;16232,909;    1,455;    2,136
886,805;16047,959;    2,455;    2,045
887,364;16311,917;   -0,999;   -0,500
887,922;16674,239;   -1,181;    0,045
888,481;16200,834;   -1,545;    0,591
889,040;16490,337;    1,183;    2,136
889,599;17188,841;    2,455;    1,409
890,157;17291,436;    1,455;    2,409
890,716;16910,940;   -0,090;    0,227
891,274;16727,625;    0,092;   -1,136
891,833;17136,038;    1,546;    0,864
892,391;17028,633;   -0,454;    0,500
892,950;17119,864;    1,819;   -0,773
893,508;17496,640;    0,455;   -0,409
894,067;16811,599;    0,637;    0,136
894,625;16711,739;   -0,636;   -1,500
895,183;16980,152;   -0,363;   -0,682
895,741;16821,928;    1,728;   -1,773
896,299;16705,705;   -0,545;   -2,409
896,858;16869,390;    0,819;   -1,591
897,416;16971,530;    2,728;   -1,318
897,974;16753,125;    1,819;    0,318
898,532;16882,174;    6,091;    2,682
899,089;16763,042;    2,091;   -0,682
899,647;16817,909;   -1,454;    1,318
900,205;16532,686;    1,182;    1,045
900,763;16775,462;   -0,454;    0,227
901,321;16797,966;    2,364;   -1,409
901,878;16211,652;   -1,000;   -0,773
902,436;16071,792;   -1,363;    1,318
902,994;16442,659;    4,728;    3,682
903,551;15911,527;    0,728;    0,409
904,109;16316,939;    0,182;   -1,409
904,666;15881,352;    2,455;    1,045
905,224;15766,765;    0,182;   -0,409
905,781;15478,178;    0,727;   -0,318
906,338;15572,955;   -1,363;    1,045
906,895;15507,277;    0,637;    2,045
907,453;15439,417;    1,727;    1,136
908,010;15495,375;   -0,909;    0,409
908,567;15103,061;    1,273;    0,591
909,124;14632,655;    0,364;   -1,500
909,681;14714,159;   -2,909;    0,682
910,238;14823,390;    0,636;   -1,318
910,795;15160,258;   -0,273;   -1,136
911,352;14775,712;   -2,909;   -2,682
911,909;14186,803;   -1,364;   -0,864
912,466;14711,894;   -3,182;    1,500
913,022;14284,985;   -1,636;    0,500
913,579;14634,894;   -0,909;    2,045
914,136;14343,894;    1,636;    0,955
914,692;14663,348;    0,091;   -1,227
915,249;14260,076;    1,455;    0,409
915,806;14485,985;    0,182;    1,955
916,362;14226,439;    1,909;    1,864
916,918;13800,258;    2,000;    1,045
917,475;13768,894;   -1,182;    0,955
918,031;13850,985;    3,364;   -0,045
918,587;13309,894;   -0,909;   -0,318
919,144;13494,167;   -2,273;    0,227
919,700;13826,712;    1,727;    0,773
920,256;13418,258;    0,727;    0,045
920,812;13034,621;   -0,727;   -1,045
921,368;13038,439;   -1,727;   -1,045
921,924;12677,894;    0,182;   -0,136
922,480;12247,167;   -0,545;    1,227
923,036;12878,439;    1,273;    1,955
923,592;12792,530;    0,455;    0,318
924,148;12720,348;    0,455;   -0,955
924,704;12050,530;   -1,364;   -0,409
925,259;12337,439;   -0,273;    0,591
925,815;12103,076;    1,455;    0,500
926,371;11615,258;    2,909;    1,409
926,926;11503,803;    2,091;    0,591
927,482;11118,803;   -1,364;    0,773
928,037;11010,894;    0,909;    2,045
928,593;11296,258;    1,636;    1,045
929,148;11169,803;   -1,818;   -1,500
929,704;10655,621;   -1,455;   -0,500
930,259;10820,530;    0,091;   -0,136
930,814; 9927,439;   -0,818;    1,955
931,369; 9619,167;    1,091;   -0,773
931,925; 9478,167;   -0,091;    0,136
932,480; 9407,439;   -2,818;   -2,591
933,035; 9286,076;    0,545;   -0,318
933,590; 9075,348;    0,364;   -1,773
934,145; 8706,712;   -1,364;   -0,318
934,700; 9065,167;    0,455;   -0,591
935,255; 8855,985;   -0,091;    0,045
935,809; 8168,439;    3,182;    0,864
936,364; 7297,348;   -0,455;   -0,136
936,919; 7281,076;    0,455;   -1,773
937,474; 7181,439;    1,455;    0,136
938,028; 6957,439;   -1,636;    1,136
938,583; 6399,076;    1,818;    4,682
939,138; 6703,258;    2,091;    2,136
939,692; 6144,894;    1,636;   -1,136
940,247; 5853,076;   -0,727;   -1,045
940,801; 5421,530;   -0,636;    0,227
941,355; 5318,621;   -0,364;    2,591
941,910; 4983,712;   -0,273;   -2,136
942,464; 5077,985;   -0,818;   -0,318
943,018; 4864,348;    1,000;   -0,227
943,572; 4833,439;    2,545;   -0,682
944,126; 4247,258;    0,091;   -0,409
944,681; 4145,530;    3,091;    0,227
945,235; 4129,258;    1,000;   -0,591
945,789; 4075,894;    0,364;   -1,864
946,342; 4165,985;    0,455;   -0,591
946,896; 3969,621;   -2,273;    0,955
947,450; 3736,985;    1,545;   -0,227
948,004; 3909,439;    1,727;   -0,045
948,558; 3946,530;    0,273;   -0,864
949,111; 3855,530;   -0,273;   -0,318
949,665; 3894,167;    1,636;   -0,682
950,219; 3768,803;   -0,091;   -1,045
950,772; 3846,076;   -1,909;    1,864
951,326; 3743,439;    0,545;   -0,955
951,879; 3861,803;    0,727;   -2,318
952,433; 3862,167;    0,000;    2,227
952,986; 3698,621;    2,909;    0,682
953,539; 3652,439;   -0,273;    0,591
954,093; 3598,439;    0,545;   -1,318
954,646; 3725,803;    0,909;    1,318
955,199; 3535,985;    0,000;   -0,500
955,752; 3404,439;   -0,455;    1,773
956,305; 3362,894;   -0,091;    2,955
956,858; 3542,803;    0,818;   -0,318
957,411; 3716,348;   -0,545;    2,136
957,964; 3540,348;    1,364;    2,136
958,517; 3555,530;   -1,545;    3,136
959,070; 3391,076;   -0,455;    1,955
959,623; 3446,985;    1,091;    1,500
960,176; 3234,076;    1,727;    2,045
960,728; 3194,258;   -2,727;    0,773
961,281; 3283,530;    0,545;    0,500
961,834; 3302,348;   -0,909;    0,864
962,386; 3232,985;    1,727;    1,045
962,939; 3150,621;    0,364;   -0,318
963,491; 3301,803;    0,455;    1,136
964,043; 3161,894;    1,182;    2,409
964,596; 3289,894;   -1,000;    2,227
965,148; 3132,621;   -1,000;    1,773
965,700; 3050,985;    1,091;   -0,227
966,253; 3212,621;   -0,636;    0,318
966,805; 3043,530;   -2,273;    0,773
967,357; 3081,894;    1,091;   -1,500
967,909; 3039,894;    0,455;   -1,227
968,461; 3159,803;    0,545;    3,136
969,013; 3102,167;   -0,182;   -0,864
969,565; 3165,076;   -0,455;   -1,136
970,117; 3223,439;   -0,364;    1,045
970,669; 3056,348;    0,182;   -0,136
971,220; 2918,621;   -0,455;   -1,500
971,772; 2862,076;   -0,636;   -0,318
972,324; 2987,621;    0,091;   -0,500
972,876; 2913,439;    0,818;   -0,045
973,427; 3058,167;    1,909;   -1,045
973,979; 3037,439;   -0,727;   -2,500
974,530; 3075,076;    1,818;    1,318
975,082; 3074,894;   -0,545;    1,682
975,633; 2966,894;    1,091;    1,682
976,184; 3101,712;    0,909;    0,773
976,736; 2925,439;    0,091;    0,227
977,287; 2721,348;   -0,909;   -0,500
977,838; 2881,712;    0,909;   -0,318
978,389; 2953,621;   -1,000;   -0,500
978,940; 2824,076;    0,545;   -0,409
979,491; 2858,985;    0,091;   -0,500
980,042; 2827,439;    0,182;    3,045
980,593; 2862,076;   -2,545;    0,227
981,144; 2906,985;    2,545;   -0,500
981,695; 2867,439;    1,455;    1,500
982,246; 2841,621;   -0,273;    1,045
982,797; 2999,439;   -1,727;    0,682
983,347; 3102,803;    0,364;    0,591
983,898; 3252,894;    3,091;    0,409
984,449; 3098,621;    2,182;    0,773
984,999; 3013,258;    1,455;   -1,136
985,550; 2801,530;    0,182;   -0,318
986,100; 2838,894;   -0,455;   -0,318
986,651; 2853,985;   -0,818;    0,045
987,201; 2836,076;   -1,000;   -0,591
987,751; 2915,348;    0,818;    2,864
988,302; 2904,530;    2,636;    1,500
988,852; 2937,167;    0,455;   -1,136
989,402; 2994,076;    0,091;    0,682
989,952; 2892,258;   -2,182;    0,864
990,502; 2978,167;   -0,091;    0,682
991,052; 2930,439;   -0,727;    0,045
991,602; 2826,894;   -2,909;    1,318
992,152; 2816,985;    0,455;    0,682
992,702; 2803,985;    1,364;   -0,045
993,252; 2714,258;   -3,000;   -0,500
993,802; 2816,439;   -0,273;    1,318
994,352; 3038,439;   -1,545;    1,136
994,901; 3131,985;   -0,182;    3,227
995,451; 3063,894;   -0,182;    0,318
996,000; 3128,621;    1,636;    0,318
996,550; 2851,076;    2,273;    0,227
997,100; 2837,167;    1,273;   -0,045
997,649; 3119,076;    2,182;    0,955
998,198; 2774,348;    1,727;   -1,500
998,748; 2962,167;    1,091;   -2,318
999,297; 2874,985;   -0,818;   -0,409
999,846; 2921,167;    1,000;   -0,773
1000,395; 2980,803;   -0,818;    0,500
1000,945; 2929,076;    1,818;   -0,773
1001,494; 3018,167;    2,364;    0,682
1002,043; 3016,076;    4,636;    0,864
1002,592; 2851,803;   -1,091;    1,955
1003,141; 3010,712;   -0,455;   -0,682
1003,690; 2870,258;    1,727;    0,500
1004,238; 2953,348;    1,455;   -0,045
1004,787; 2609,258;    1,364;    1,227
1005,336; 2837,439;    0,364;    0,682
1005,885; 2967,076;    1,364;   -2,773
1006,433; 3086,076;    0,545;    0,955
1006,982; 3141,167;    0,455;    1,682
1007,531; 3062,167;   -1,818;   -0,227
1008,079; 3014,167;   -2,273;    0,500
1008,627; 3148,076;   -1,455;    0,409
1009,176; 2897,167;    0,000;   -1,955
1009,724; 2931,712;    1,091;    0,864
1010,273; 3000,439;    1,273;    0,500
1010,821; 3125,530;    0,091;    1,409
1011,369; 2865,258;   -1,364;    1,318
1011,917; 2834,985;   -1,364;   -0,591
1012,465; 3098,348;    1,273;   -1,591
1013,013; 3212,348;    2,091;   -1,682
1013,561; 3094,985;    0,455;   -0,773
1014,109; 3155,348;   -1,909;    1,682
1014,657; 3036,076;    0,364;    0,591
1015,205; 3154,621;    1,636;   -0,955
1015,753; 3200,258;   -0,545;   -1,409
1016,301; 3239,621;   -2,636;    3,045
1016,848; 3229,530;   -1,273;    0,409
1017,396; 3251,985;    2,545;    0,045
1017,944; 3372,348;    1,182;    1,864
1018,491; 3158,348;    0,273;    1,409
1019,039; 3288,985;    0,455;    0,591
1019,586; 3228,530;   -1,364;    1,682
1020,134; 3310,258;    0,455;    1,500
1020,681; 3332,348;    0,182;   -1,136
1021,228; 3347,076;    2,909;   -2,227
1021,776; 3181,167;    1,182;   -1,136
1022,323; 3395,439;    0,455;    0,773
1022,870; 3340,348;   -1,000;   -0,045
1023,417; 3222,530;    2,636;    1,864
1023,964; 3376,712;    2,636;    1,227
1024,511; 3227,439;    1,000;    0,773
1025,058; 3020,985;    3,182;   -0,045
1025,605; 3080,167;   -2,273;    3,136
1026,152; 3305,167;    1,727;   -0,591
1026,699; 3026,894;    1,818;    1,318
1027,245; 3180,712;   -0,091;    0,318
1027,792; 3378,985;   -1,000;    1,409
1028,339; 3273,167;    2,364;   -0,045
1028,885; 3138,712;    1,000;   -0,227
1029,432; 3082,439;   -0,091;    0,227
1029,978; 3129,076;   -1,000;   -1,591
1030,525; 3043,439;    1,000;    0,409
1031,071; 3287,348;   -1,364;    1,136
1031,618; 3401,530;    0,364;    1,682
1032,164; 3181,076;   -0,091;    3,045
1032,710; 3212,894;    1,636;   -1,500
1033,256; 3158,712;   -0,636;   -0,136
1033,803; 3140,894;   -0,545;    1,500
1034,349; 2857,167;   -1,364;    0,136
1034,895; 3010,621;    0,000;   -0,318
1035,441; 2992,803;   -0,818;    0,318
1035,987; 2979,985;   -2,364;   -0,682
1036,533; 2978,348;   -1,455;   -0,955
1037,078; 3190,712;    1,455;    1,682
1037,624; 3009,076;    2,455;   -0,955
1038,170; 3053,894;    0,455;   -0,318
1038,716; 2951,258;    1,636;   -0,409
1039,261; 2846,348;   -2,273;   -0,773
1039,807; 2794,258;   -0,091;    3,409
1040,352; 2851,167;   -1,909;   -0,318
1040,898; 2904,530;   -1,545;   -0,682
1041,443; 2827,803;   -1,455;   -2,591
1041,989; 2841,530;    1,091;    1,591
1042,534; 2722,258;   -0,364;    2,591
1043,079; 2843,712;    2,909;    0,955
1043,625; 2635,985;    1,818;    0,500
1044,170; 2673,258;   -1,364;    1,045
1044,715; 2930,530;    2,455;    0,955
1045,260; 2748,712;    2,182;   -0,955
1045,805; 2812,439;    1,182;   -0,591
1046,350; 2744,803;    1,364;   -0,409
1046,895; 2698,076;    2,909;    1,591
1047,440; 2649,985;    5,364;    0,409
1047,985; 2550,076;    2,818;   -0,955
1048,530; 2483,712;    1,545;    1,227
1049,074; 2529,803;    0,000;    0,318
1049,619; 2504,439;   -1,364;    1,955
1050,164; 2321,258;    0,455;    0,227
1050,708; 2374,985;   -0,455;    0,045
1051,253; 2717,167;    1,273;   -2,227
1051,797; 2426,803;    0,818;   -1,318
1052,342; 2435,348;   -1,182;    1,045
1052,886; 2439,167;    0,364;   -1,409
1053,430; 2332,985;   -1,364;    0,136
1053,975; 2336,439;   -0,818;   -0,318
1054,519; 2303,985;   -0,727;    3,227
1055,063; 2320,803;    0,909;    1,318
1055,607; 2211,985;   -0,182;    0,227
1056,151; 2235,439;    2,909;    1,682
1056,695; 2148,076;    2,273;   -1,136
1057,239; 2226,530;   -1,727;   -0,682
1057,783; 2238,712;    0,818;   -1,500
1058,327; 2185,258;    0,000;    1,409
1058,871; 2407,348;   -0,545;    1,318
1059,415; 2110,348;   -0,818;   -0,045
1059,958; 2367,167;    1,455;    2,591
1060,502; 2091,076;   -1,000;   -0,773
1061,046; 2002,530;    0,364;   -0,955
1061,589; 1988,348;   -3,000;   -1,136
1062,133; 1868,712;   -1,273;    1,864
1062,676; 1806,439;    1,182;    0,864
1063,220; 1802,076;    1,091;    0,500
1063,763; 1824,348;    0,909;    1,136
1064,306; 1922,167;   -0,909;    1,864
1064,849; 1801,439;   -0,909;    0,591
1065,393; 1802,258;    2,000;   -1,500
1065,936; 1912,621;    0,182;   -0,409
1066,479; 1793,348;   -1,455;    1,318
1067,022; 1817,076;   -0,273;   -0,227
1067,565; 1716,348;   -0,091;   -1,318
1068,108; 1753,712;    0,727;   -0,591
1068,651; 1719,258;   -0,636;    1,409
1069,194; 1643,530;   -0,455;   -1,682
1069,736; 1648,439;   -1,273;    0,955
1070,279; 1637,348;   -1,364;   -0,500
1070,822; 1679,348;   -2,000;   -0,318
1071,364; 1772,258;   -0,364;    1,318
1071,907; 1596,258;   -0,727;    3,227
1072,450; 1500,985;    0,000;   -0,045
1072,992; 1481,348;   -0,273;    3,136
1073,535; 1625,803;    2,091;    2,136
1074,077; 1424,985;   -0,727;    2,045
1074,619; 1389,712;   -1,364;    0,591
1075,161; 1420,530;   -1,091;    1,500
1075,704; 1588,803;    1,545;    1,227
1076,246; 1387,258;   -0,182;    0,682
1076,788; 1328,530;   -0,364;    1,773
1077,330; 1403,167;    1,273;    2,136
1077,872; 1362,530;    0,909;    0,955
1078,414; 1583,530;    2,727;    0,773
1078,956; 1323,258;    1,273;   -0,227
1079,498; 1575,803;    1,636;    0,318
1080,040; 1280,076;    1,909;   -1,318
1080,581; 1230,258;    1,636;   -0,318
1081,123; 1160,803;    0,091;   -0,773
1081,665; 1204,439;   -1,182;   -0,955
1082,206; 1488,621;    1,364;   -0,500
1082,748; 1358,803;    0,727;    2,045
1083,289; 1244,712;   -2,000;    1,318
1083,831; 1139,712;   -0,545;    0,227
1084,372; 1178,621;    0,000;    0,591
1084,913; 1184,530;    1,091;    0,864
1085,455; 1159,076;   -1,909;   -2,045
1085,996; 1118,985;   -2,273;    0,136
1086,537; 1133,348;   -0,091;    0,864
1087,078; 1173,076;   -0,909;   -2,136
1087,619; 1212,348;   -1,273;    0,227
1088,160; 1125,439;    0,000;    1,318
1088,701; 1112,803;   -1,091;    0,682
1089,242; 1063,348;    1,364;   -2,227
1089,783; 1153,076;   -0,273;    1,409
1090,324; 1125,894;    0,455;    0,682
1090,865;  989,348;    2,727;   -0,409
1091,405;  977,348;    0,727;    2,227
1091,946;  992,348;    0,182;   -0,955
1092,487;  919,167;    0,818;   -1,409
1093,027; 1078,076;   -1,364;   -1,500
1093,568;  943,258;   -0,364;    1,227
1094,108; 1030,894;    0,273;    1,773
1094,649;  981,439;   -1,182;    0,136
1095,189;  917,076;   -0,636;   -0,682
1095,729;  865,530;   -0,091;    0,955
1096,269;  869,621;    0,727;   -0,955
1096,810; 1175,803;   -1,364;    0,500
1097,350; 1001,894;    1,364;   -0,773
1097,890;  912,894;    0,364;    1,227
1098,430; 1156,530;    2,364;    2,864
1098,970; 1032,712;    2,182;    1,682
1099,510;  903,530;    0,545;   -2,318
1100,050;  824,439;    1,000;   -1,591
1100,589;  790,894;   -0,727;   -0,318
1101,129;  918,076;    0,818;   -0,955
1101,669; 1060,621;    1,727;    2,136
1102,209;  888,712;   -0,091;    2,227
1102,748;  842,167;    0,000;    0,955
1103,288;  837,439;    1,273;   -1,227
1103,827;  862,076;    3,091;   -2,227
1104,367;  736,258;   -0,091;   -2,409
1104,906;  719,530;    1,364;   -1,136
1105,445;  772,621;    0,636;   -1,136
1105,985;  715,803;   -0,727;    1,500
1106,524;  766,076;   -1,727;   -0,682
1107,063;  748,439;   -2,727;    1,409
1107,602;  709,167;   -1,909;   -1,500
1108,141;  641,348;   -1,909;    1,500
1108,680;  742,439;   -3,455;   -0,591
1109,219;  674,439;   -0,909;   -0,500
1109,758;  671,530;    0,455;    0,682
1110,297;  654,712;    1,000;   -0,682
1110,836;  604,167;   -0,727;    0,955
1111,375;  753,348;   -2,545;    0,409
1111,913;  764,167;   -1,000;    0,773
1112,452;  704,167;   -0,273;    0,136
1112,991;  594,258;    1,091;    1,955
1113,529;  550,621;   -0,818;   -0,045
1114,068;  622,530;   -0,273;    2,955
1114,606;  521,530;   -0,364;   -0,955
1115,144;  685,348;   -1,273;    1,045
1115,683;  617,348;   -0,727;    0,318
1116,221;  665,803;   -0,455;   -0,864
1116,759;  566,985;    0,636;   -0,864
1117,297;  761,985;    0,000;    1,864
1117,836;  583,439;   -2,182;   -1,227
1118,374;  584,985;    0,182;   -0,682
1118,912;  529,439;    0,909;    2,682
1119,450;  514,076;    1,000;    0,864
1119,988;  561,439;    1,545;    2,136
1120,525; 1015,348;    5,091;    3,318
1121,063;  710,803;    1,182;    1,864
1121,601;  523,258;   -0,909;   -1,227
1122,139;  492,348;   -0,727;   -2,045
1122,676;  689,167;   -0,727;    2,773
1123,214;  618,258;   -1,182;    4,409
1123,751;  433,167;    1,727;    2,227
1124,289;  559,530;   -0,091;   -0,409
1124,826;  425,985;    1,727;    0,227
1125,364;  356,712;    1,727;   -0,955
1125,901;  528,985;    1,182;    1,227
1126,438;  649,712;    0,818;    0,955
1126,975;  376,712;   -0,727;   -0,773
1127,513;  440,258;    0,273;    2,136
1128,050;  351,167;    1,636;   -0,682
1128,587;  454,258;    2,000;   -0,227
1129,124;  500,985;    0,091;    1,318
1129,661;  373,258;    0,273;    0,227
1130,198;  533,348;    1,636;    0,773
1130,734;  478,439;    0,182;    1,409
1131,271;  323,439;   -0,909;    0,864
1131,808;  496,894;    2,909;    3,045
1132,345;  373,530;    1,545;    0,318
1132,881;  252,167;   -1,545;   -1,864
1133,418;  388,985;    0,727;   -1,136
1133,954;  327,894;    2,455;   -2,682
1134,491;  395,985;    1,364;   -0,773
1135,027;  296,621;    2,364;    0,864
1135,564;  384,621;    0,273;    2,955
1136,100;  368,439;    0,364;    2,136
1136,636;  271,803;   -1,273;   -1,045
1137,172;  358,167;    0,000;   -1,045
1137,708;  274,894;   -1,364;   -1,045
1138,245;  283,712;    1,273;   -1,227
1138,781;  239,439;    1,091;   -3,318
1139,317;  303,076;    1,273;   -1,409
1139,852;  283,076;    3,091;    0,136
1140,388;  405,167;   -1,182;   -0,409
1140,924;  284,985;   -1,091;   -2,227
1141,460;  224,167;   -1,636;    0,136
1141,996;  165,621;   -1,364;    2,682
1142,531;  206,894;    1,364;    3,318
1143,067;  416,439;    1,182;    1,045
1143,602;  471,348;   -0,091;   -0,318
1144,138;  323,439;   -2,636;    1,045
1144,673;  195,985;   -1,455;    1,409
1145,209;  258,076;   -1,909;   -0,318
1145,744;  182,258;   -0,727;    0,864
1146,279;  312,985;    1,818;   -0,136
1146,815;  233,258;    1,545;   -2,682
1147,350;  275,803;   -1,364;    0,045
1147,885;  187,894;   -0,818;   -1,318
1148,420;  182,712;   -2,273;    0,773
1148,955;  167,258;   -1,727;    1,864
1149,490;  194,803;   -0,909;   -1,591
1150,025;  175,167;    0,455;   -1,773
1150,560;  281,803;    1,091;   -0,955
1151,094;  255,621;    1,455;   -0,591
1151,629;  251,985;    1,636;    0,864
1152,164;  186,439;    1,364;    1,318
1152,698;  142,076;   -0,182;   -0,136
1153,233;  100,621;    0,091;   -0,682
1153,767;  153,258;   -3,000;   -2,318
1154,302;  189,348;   -1,455;    1,773
1154,836;  194,803;   -0,455;   -2,136
1155,371;  243,712;   -1,364;    3,682
1155,905;  200,985;   -0,636;    1,682
1156,439;  168,439;   -0,636;   -0,500
1156,973;  200,348;    0,364;    0,318
1157,507;  135,439;   -0,364;    0,682
1158,042;  164,894;   -0,727;    1,045
1158,576;  211,894;    0,182;    1,773
1159,110;  198,258;   -0,818;    2,409
1159,643;  176,167;    0,636;   -0,045
1160,177;  111,803;   -1,545;    1,500

