
Integration time [ms]:   0,040
Averaging Nr. [scans]: 11
Smoothing Nr. [pixels]: 0
Data measured with spectrometer [name]: 7318044SP
Wave   ;Sample   ;Dark     ;Reference
[nm]   ;[counts] ;[counts] ;[counts] 

186,757;   26,142;   31,551;    1,318
187,357;   62,824;   22,551;    0,955
187,958;   43,726;   15,460;   -1,591
188,558;   84,311;    8,915;   -1,227
189,159;   50,116;    6,733;   -4,500
189,759;   15,713;    7,278;   -3,591
190,360;   15,959;    2,824;   -2,136
190,960;   57,406;    2,915;   -4,136
191,560;   68,374;    3,189;   -6,591
192,161;  313,590;    4,372;   -3,500
192,761;  156,304;    4,010;   -3,227
193,361;  105,764;    1,556;   -3,773
193,962;  157,572;    2,010;   -2,682
194,562;   83,289;    1,189;   -3,955
195,162;  112,716;   -2,448;   -2,227
195,762;  263,934;   -3,176;   -0,045
196,362;  214,372;    1,370;   -2,500
196,963;   73,510;    2,006;   -0,864
197,563;  152,863;    1,551;   -0,955
198,163;  109,022;    0,096;   -0,682
198,763;  131,494;    1,733;   -0,500
199,363;  223,662;    3,096;   -0,500
199,963;  185,589;    0,369;    0,409
200,563;  159,611;    2,823;   -1,409
201,163;  132,107;    3,277;   -0,227
201,763;  237,530;    3,732;    0,318
202,363;  173,008;    1,459;    1,500
202,963;  274,900;    1,459;    1,045
203,563;  392,500;    0,277;    0,500
204,162;  243,889;    2,096;   -1,864
204,762;  224,611;    0,550;    0,591
205,362;  195,655;    3,004;    1,955
205,962;  306,191;    3,096;    1,955
206,562;  299,722;    1,823;    2,318
207,161;  268,920;   -0,087;    0,318
207,761;  420,573;    1,277;    2,409
208,361;  309,992;   -0,268;    1,409
208,960;  401,483;    0,459;    1,500
209,560;  466,357;    1,277;    1,591
210,160;  448,452;    0,550;    1,864
210,759;  426,513;    4,186;    1,227
211,359;  434,087;    1,459;    1,045
211,958;  698,470;    1,277;    2,045
212,558;  783,797;    1,732;    1,864
213,157;  615,696;    1,822;    1,500
213,757; 1073,124;    3,822;   -0,227
214,356;  778,511;    1,277;   -0,409
214,956; 1108,844;    3,095;    0,409
215,555;  728,973;    2,095;    2,136
216,154;  671,551;   -2,723;   -0,591
216,754;  682,630;    0,277;    0,773
217,353;  818,739;   -0,268;   -1,045
217,952;  670,435;   -0,178;    0,318
218,552;  914,078;    1,368;   -0,773
219,151;  818,731;    0,277;    0,955
219,750;  818,186;    0,004;   -0,227
220,349;  955,350;   -0,451;    1,045
220,948; 1006,618;   -1,360;    1,136
221,548; 1036,586;    0,913;    1,227
222,147; 1157,496;   -0,087;   -0,409
222,746; 1434,691;   -0,451;   -0,955
223,345; 1321,449;    0,731;    0,500
223,944; 1338,389;   -0,451;    0,773
224,543; 1509,127;    1,004;   -1,409
225,142; 1633,723;    0,094;    0,136
225,741; 1541,764;   -0,814;    1,045
226,340; 1558,010;   -0,451;   -0,955
226,939; 2014,484;   -0,996;   -0,136
227,538; 1991,414;   -0,360;   -0,773
228,137; 2141,402;   -0,814;    0,864
228,735; 2291,305;   -0,541;    1,227
229,334; 2058,656;   -0,905;   -0,227
229,933; 2412,733;    0,459;    0,591
230,532; 2526,749;    1,186;   -0,409
231,131; 2574,914;    1,732;    0,318
231,729; 2720,247;   -2,450;   -2,318
232,328; 2879,651;   -0,723;   -1,500
232,927; 2969,208;    1,004;   -0,500
233,525; 3094,865;    3,640;    0,045
234,124; 3289,899;    2,368;   -1,591
234,723; 3315,585;    0,913;   -1,045
235,321; 3478,198;    2,277;    0,136
235,920; 3713,435;    1,186;   -1,227
236,518; 3981,321;    3,459;    0,318
237,117; 4187,378;    0,004;   -0,227
237,715; 4336,993;    0,640;   -0,500
238,314; 4376,495;   -0,087;   -2,318
238,912; 4463,255;   -0,723;   -1,409
239,510; 4515,230;    0,459;   -1,227
240,109; 4695,827;    0,004;    3,773
240,707; 4742,098;   -0,996;    1,227
241,305; 5141,629;    0,550;    0,136
241,904; 5338,265;   -0,178;   -2,045
242,502; 5281,738;   -0,632;   -0,227
243,100; 5256,163;   -0,087;   -0,955
243,698; 5503,778;    0,732;    1,682
244,297; 5692,298;   -0,632;    0,682
244,895; 5538,276;   -0,269;   -2,318
245,493; 5872,215;    2,186;   -0,591
246,091; 5893,703;    1,368;   -1,318
246,689; 5897,606;    1,004;    0,591
247,287; 6075,567;    0,822;   -1,136
247,885; 6381,601;   -1,451;    1,227
248,483; 6477,165;    1,822;   -0,500
249,081; 6590,596;    0,185;    1,591
249,679; 6754,967;   -0,178;    1,682
250,277; 7043,739;   -1,723;    0,864
250,875; 7028,078;   -1,087;   -1,045
251,473; 7063,689;   -1,178;    0,500
252,071; 7222,074;    1,459;    1,045
252,669; 7391,935;   -1,814;    0,318
253,267; 7664,146;   -0,087;    0,773
253,864; 7640,931;   -0,360;    0,682
254,462; 7497,764;    1,640;    1,591
255,060; 7466,824;   -0,269;    1,318
255,658; 7798,571;    0,822;   -0,136
256,255; 8236,379;    0,186;   -2,045
256,853; 8091,601;   -0,269;    1,409
257,451; 8087,112;    0,822;    1,864
258,048; 8341,081;    1,822;    1,864
258,646; 8127,394;    1,731;   -1,045
259,243; 8311,874;   -0,087;    2,227
259,841; 8360,818;   -0,814;    0,318
260,438; 8271,848;   -0,087;    0,864
261,036; 8993,519;   -1,905;    1,409
261,633; 8936,856;   -0,087;    2,227
262,231; 8666,312;    2,731;   -0,045
262,828; 8747,021;   -0,905;    1,136
263,425; 8780,523;    0,913;   -0,591
264,023; 9055,824;    0,186;    0,045
264,620; 8606,746;   -0,360;   -0,318
265,217; 8929,032;   -2,087;    3,136
265,815; 9054,129;   -1,905;    2,136
266,412; 8836,226;    0,731;    0,136
267,009; 8921,378;   -1,451;    0,773
267,606; 8772,394;    0,822;   -0,955
268,203; 8807,667;   -0,269;   -0,591
268,801; 9086,597;    1,731;    0,591
269,398; 9395,470;   -0,360;    2,500
269,995; 9362,657;    0,277;    1,591
270,592; 9127,961;   -0,632;   -0,500
271,189; 9316,957;    0,186;    0,409
271,786; 9434,107;   -0,632;    1,227
272,383; 9291,895;   -1,087;    0,227
272,980; 9485,176;    0,277;    0,318
273,577; 9963,886;    0,004;    1,227
274,174; 9535,762;    0,822;    2,591
274,771; 9530,480;   -0,814;   -0,773
275,367; 9674,426;    2,277;    1,409
275,964; 9614,020;    0,731;   -0,500
276,561; 9717,499;    1,549;   -1,045
277,158; 9946,149;    0,095;   -1,773
277,755;10075,869;    2,185;    0,409
278,351; 9461,388;   -0,451;   -1,500
278,948; 9753,921;   -0,815;    0,045
279,545; 9799,151;   -1,360;    2,318
280,141;10423,269;   -1,723;   -2,045
280,738;10248,286;   -0,451;   -0,136
281,334;10552,016;   -1,633;    0,591
281,931; 9943,734;   -0,087;   -1,318
282,528;10022,736;    0,822;   -0,500
283,124;10740,764;   -1,087;   -0,500
283,721;10615,618;   -0,451;    1,409
284,317;10469,805;    0,185;    2,500
284,913;10994,508;   -1,360;    0,591
285,510;11166,417;    0,640;   -0,318
286,106;11219,940;   -2,269;   -0,955
286,703;10839,143;   -0,360;    1,955
287,299;11039,727;   -1,451;   -0,591
287,895;11243,505;    0,822;   -1,045
288,491;11809,925;    0,186;    2,136
289,088;11571,585;   -2,360;    2,409
289,684;11631,844;   -1,723;    1,500
290,280;11633,795;    0,368;    0,682
290,876;11709,343;    1,822;    5,500
291,472;11605,545;    1,276;    2,227
292,068;11679,861;    1,367;    0,227
292,665;11409,818;    2,095;    0,773
293,261;11032,879;    0,276;    2,136
293,857;11397,601;    2,913;    2,136
294,453;11339,636;    3,550;    0,955
295,049;11212,995;   -0,268;    1,955
295,644;11255,773;    0,095;    0,136
296,240;11149,180;   -0,905;   -0,136
296,836;11182,043;   -0,995;    0,318
297,432;11449,236;    1,096;   -0,500
298,028;11499,119;    0,732;    0,773
298,624;11941,971;    1,459;    1,864
299,220;12226,883;    2,368;    0,591
299,815;11877,931;    1,005;   -0,409
300,411;11671,904;    0,914;    1,773
301,007;11713,555;    1,368;    0,227
301,602;11756,660;   -0,541;   -2,318
302,198;11863,311;    0,732;   -0,773
302,794;12260,741;    1,187;   -0,500
303,389;12391,032;   -1,177;    1,045
303,985;12466,109;    0,550;    1,409
304,580;12393,462;    1,459;    1,591
305,176;12398,599;   -3,086;    0,136
305,771;12345,142;   -1,268;   -1,227
306,367;12144,607;    4,095;    0,136
306,962;12487,932;    0,641;    1,500
307,558;12217,777;   -0,450;    0,136
308,153;12156,787;    1,095;   -1,136
308,748;12418,081;   -0,814;    1,682
309,344;12368,731;   -0,632;   -1,318
309,939;12437,707;   -1,905;   -1,318
310,534;12744,492;   -0,086;   -1,682
311,130;12722,061;    0,459;   -2,500
311,725;12460,565;    1,004;   -0,500
312,320;12781,640;    2,459;    0,045
312,915;12578,952;    1,459;   -1,045
313,510;12664,149;    1,550;   -0,500
314,105;13204,035;    1,096;    1,409
314,700;12585,812;   -3,086;   -1,045
315,295;12232,007;   -0,904;    0,045
315,890;11792,647;    1,277;    0,864
316,485;12174,668;   -0,359;   -0,318
317,080;12290,854;   -3,086;    1,591
317,675;12844,191;    2,005;   -0,682
318,270;12180,888;    5,550;    3,318
318,865;12231,154;    3,278;    3,045
319,460;12071,445;   -0,904;    0,591
320,055;12341,520;   -0,541;   -1,227
320,650;11983,820;   -1,995;   -0,591
321,244;12047,642;   -0,177;   -1,409
321,839;13009,467;   -1,541;   -0,227
322,434;12877,094;   -1,086;   -1,591
323,029;12479,042;    1,732;    1,591
323,623;12284,990;    1,550;    0,773
324,218;12076,271;    2,368;    1,409
324,812;11967,474;    1,096;    1,591
325,407;11753,718;   -0,814;    2,045
326,002;11654,153;    0,277;   -0,409
326,596;11959,793;    0,914;    1,318
327,191;12197,849;    0,823;   -1,045
327,785;11769,884;   -0,813;   -0,227
328,379;11971,245;    1,368;    0,136
328,974;11801,096;    0,914;   -3,955
329,568;12017,967;    0,186;   -2,409
330,163;11842,541;    2,096;    1,045
330,757;12213,837;    2,459;    1,591
331,351;11531,800;    0,459;    0,682
331,945;11821,007;    0,914;    1,409
332,540;11410,807;   -1,723;   -0,591
333,134;11562,907;   -1,086;    0,773
333,728;11838,411;    0,005;    0,318
334,322;12183,538;   -1,177;   -0,864
334,916;11445,398;    0,277;    0,955
335,510;11758,275;   -0,450;   -0,136
336,105;12030,758;   -1,086;    1,591
336,699;11723,007;   -1,086;    0,591
337,293;11668,899;   -1,723;    0,318
337,887;11798,763;   -2,723;    1,955
338,481;11887,015;    0,459;    0,591
339,074;12046,483;   -0,359;    2,682
339,668;11853,238;   -1,632;    1,227
340,262;12098,219;    1,732;    3,227
340,856;11642,428;    1,822;   -0,682
341,450;11037,179;    1,004;    1,864
342,044;11911,808;    1,459;    0,136
342,637;11662,372;    0,913;   -2,136
343,231;11534,813;   -2,360;    0,682
343,825;11491,819;   -1,086;   -0,591
344,419;11448,226;   -1,995;    0,500
345,012;11229,930;    2,459;    4,045
345,606;11233,224;    4,641;    1,591
346,199;11085,266;   -1,813;   -0,227
346,793;10638,475;    1,914;    2,045
347,386;10833,436;   -0,813;   -1,136
347,980;10847,251;   -0,268;   -0,045
348,573;10541,210;    2,278;    0,409
349,167;10231,793;    5,278;    4,773
349,760;10617,474;    2,914;    2,682
350,354;10575,578;   -0,813;    1,136
350,947;10317,013;    1,096;    1,682
351,540;10015,488;   -0,358;   -1,409
352,134; 9929,143;    1,096;    1,136
352,727;10006,675;   -0,086;    1,136
353,320; 9797,025;    0,005;    0,591
353,913; 9673,094;   -1,995;    1,864
354,507; 9851,126;    0,823;   -1,227
355,100; 9880,179;    0,460;    0,864
355,693; 9047,949;    2,005;    2,409
356,286; 9093,682;    0,823;    2,773
356,879; 9505,941;   -0,722;    1,227
357,472; 9103,720;   -0,904;    1,500
358,065; 9269,951;   -0,722;    2,500
358,658; 9226,844;   -0,540;    2,318
359,251; 8861,584;   -1,631;   -0,591
359,844; 8313,751;   -1,904;   -1,136
360,437; 8487,159;   -2,995;    0,045
361,030; 8786,006;    1,369;   -0,682
361,623; 8367,507;    2,824;    0,318
362,215; 8372,874;   -0,086;    2,045
362,808; 8232,275;   -2,358;   -1,682
363,401; 8443,243;   -2,449;    0,136
363,994; 8172,609;   -0,631;   -1,500
364,586; 8109,461;    0,824;   -1,500
365,179; 8318,290;   -0,449;   -1,136
365,772; 7810,772;   -1,995;    2,045
366,364; 8098,839;    1,915;   -3,227
366,957; 8290,098;    2,279;   -0,045
367,549; 8312,510;    2,188;   -0,864
368,142; 7922,809;    1,825;   -1,500
368,734; 8147,167;    0,734;   -2,136
369,327; 8131,049;    1,643;   -0,500
369,919; 8028,902;   -1,538;    0,409
370,512; 7847,999;   -1,083;   -0,500
371,104; 7584,886;   -0,901;    1,591
371,696; 7758,374;    1,191;   -0,955
372,289; 7829,767;    0,373;    1,136
372,881; 7958,304;   -2,080;    1,318
373,473; 7893,271;   -2,170;    1,136
374,066; 7711,642;   -0,169;    0,500
374,658; 7567,950;    0,378;    1,136
375,250; 7925,872;    0,653;   -1,409
375,842; 7760,704;    0,473;   -0,045
376,434; 7649,827;   -0,435;   -0,409
377,026; 8222,535;    0,204;   -2,500
377,618; 8149,980;   -0,158;   -0,682
378,210; 7956,332;   -0,338;   -1,955
378,802; 7832,946;    0,754;   -0,591
379,394; 7787,890;    1,846;    0,682
379,986; 8383,703;    1,393;   -0,955
380,578; 8462,950;   -0,153;    0,773
381,170; 7789,405;   -0,972;    0,045
381,762; 7764,753;    0,755;    1,409
382,354; 7975,250;   -0,065;   -1,318
382,945; 8050,071;   -2,976;    0,318
383,537; 8212,983;   -2,705;   -1,955
384,129; 8241,901;   -2,160;   -1,136
384,721; 8413,405;   -0,252;    0,955
385,312; 8364,862;   -0,161;   -0,955
385,904; 8457,188;   -2,706;    1,591
386,496; 7820,431;   -0,979;    1,045
387,087; 7985,779;    1,022;    2,500
387,679; 8013,326;   -1,160;    0,045
388,270; 8133,001;    2,840;    2,045
388,862; 8254,496;    1,295;   -0,318
389,453; 8158,616;   -0,887;    1,045
390,045; 8407,947;   -0,705;   -2,682
390,636; 8367,383;    0,204;   -0,591
391,227; 8211,776;   -0,523;   -0,045
391,819; 8320,882;    0,204;    0,773
392,410; 8399,363;    1,022;    0,045
393,001; 8326,928;   -0,979;   -1,591
393,593; 8601,054;    1,930;   -0,045
394,184; 8444,668;    1,385;   -0,409
394,775; 8393,707;    1,839;    2,136
395,366; 8590,450;    1,385;    0,773
395,957; 8584,408;    0,113;    0,136
396,548; 8902,479;   -0,342;    2,682
397,139; 9203,593;   -2,433;    0,591
397,730; 8942,133;   -1,888;    0,955
398,321; 9015,009;   -1,252;    0,955
398,912; 9049,728;   -0,615;    0,136
399,503; 9144,202;   -3,524;   -1,409
400,094; 8532,061;    0,294;    1,682
400,685; 8396,108;   -0,433;    0,045
401,276; 8508,603;    0,930;   -0,955
401,867; 8851,540;   -0,888;    0,773
402,458; 8949,922;   -2,251;   -2,318
403,048; 8927,220;    1,112;    0,591
403,639; 8510,754;    0,840;    0,864
404,230; 8748,264;    2,476;    0,318
404,821; 8664,202;   -0,615;    0,045
405,411; 8792,347;    1,203;   -2,591
406,002; 8377,901;   -1,252;   -1,136
406,592; 8224,693;    2,294;    0,045
407,183; 8554,749;    0,566;   -1,500
407,774; 8465,454;    3,475;   -0,136
408,364; 8828,002;    0,930;    0,409
408,954; 8434,492;    0,384;    1,227
409,545; 8468,201;    1,021;    1,045
410,135; 7977,375;    1,293;    0,500
410,726; 8149,537;    1,838;    0,318
411,316; 8554,371;    0,111;    0,773
411,906; 8184,723;   -0,253;   -0,409
412,497; 7670,706;   -1,070;   -0,045
413,087; 8316,329;   -1,980;   -0,227
413,677; 8709,660;   -0,707;    3,864
414,267; 8552,330;    0,656;    1,409
414,857; 8561,822;   -2,980;    4,227
415,448; 8827,665;    0,839;    0,500
416,038; 8526,274;    0,020;   -0,591
416,628; 8500,914;   -0,889;    0,409
417,218; 7959,151;    0,565;    3,318
417,808; 8204,552;    0,202;   -0,409
418,398; 8725,682;    0,020;    2,682
418,988; 8739,771;    2,020;    0,591
419,578; 9021,211;   -0,707;    1,409
420,168; 9334,826;   -1,343;   -0,955
420,757; 8909,880;   -1,343;   -1,500
421,347; 8573,635;    0,111;   -0,227
421,937; 8749,922;    2,292;    1,409
422,527; 8689,094;    0,838;   -0,773
423,116; 8523,708;   -0,253;   -0,045
423,706; 8895,302;   -1,889;    0,318
424,296; 8864,289;    1,384;    0,682
424,885; 9257,289;   -0,071;   -3,045
425,475; 9566,474;    1,474;   -2,864
426,065; 9504,039;   -0,980;   -0,318
426,654; 9140,813;   -0,435;   -0,318
427,244; 9246,258;    0,020;    1,409
427,833; 8688,760;    1,383;   -0,500
428,423; 9176,713;   -0,526;    1,136
429,012; 9933,517;   -0,344;   -1,136
429,601; 9399,818;   -1,344;    0,136
430,191; 9650,143;    1,292;    4,318
430,780; 9298,511;   -0,344;   -0,409
431,369; 9188,916;    0,746;   -0,045
431,959; 9864,343;   -1,254;    0,500
432,548; 9682,757;   -1,163;   -0,045
433,137; 9790,378;   -1,254;   -1,318
433,726;10319,503;    0,292;    0,500
434,315; 9661,709;   -0,526;    2,409
434,905; 9772,081;   -1,254;    1,409
435,494; 9651,534;    0,746;    0,955
436,083;10158,138;   -0,981;   -0,955
436,672;10034,850;    0,110;    0,500
437,261; 9588,772;    0,292;   -1,955
437,850; 9691,314;    1,383;    0,682
438,439; 9634,057;    3,291;    1,955
439,027; 9491,107;    3,655;    1,773
439,616; 9847,991;    2,927;    1,227
440,205; 9760,023;    0,200;   -2,136
440,794; 9828,841;    2,109;   -0,045
441,383;10092,237;   -1,346;   -0,591
441,971; 9990,303;   -2,436;    0,591
442,560; 9823,939;    0,563;   -1,773
443,149; 9578,363;    0,379;   -1,318
443,737; 9731,808;   -0,074;   -2,318
444,326;10009,321;    0,018;    0,318
444,915;10066,323;   -1,982;    0,864
445,503;10468,618;   -2,891;   -0,318
446,092; 9700,486;    0,382;    2,136
446,680;10253,579;    0,382;    0,318
447,269;10460,239;   -0,346;   -0,318
447,857;10229,091;    0,018;   -1,773
448,445;10342,167;    0,563;    1,318
449,034;10584,616;   -1,528;   -1,136
449,622;10728,077;   -1,073;    3,500
450,210; 9892,254;    2,017;    2,227
450,799;10454,025;    0,290;   -0,591
451,387;10410,653;    1,381;   -0,591
451,975;10073,220;    2,654;    0,864
452,563;10134,076;    3,472;    2,318
453,151;10183,711;   -0,528;   -1,227
453,739;10120,116;   -1,347;    0,136
454,328; 9920,275;    2,381;   -2,136
454,916; 9640,225;    2,562;   -0,136
455,504; 9870,982;    1,017;    1,227
456,092;10069,570;    0,017;   -1,591
456,679;10070,648;    1,472;    0,682
457,267; 9905,317;    4,017;    1,045
457,855;10082,451;    1,017;    1,409
458,443; 9878,509;   -0,165;    1,682
459,031;10000,780;    0,108;    2,409
459,619;10464,848;   -1,801;    2,864
460,206;10609,209;    0,835;    2,045
460,794;10707,056;   -2,983;   -0,227
461,382;10964,730;   -0,529;   -0,864
461,970;10530,574;    1,198;    1,864
462,557;10558,230;   -0,711;   -0,682
463,145;10769,493;   -3,165;   -1,682
463,732;10910,510;    2,016;   -1,045
464,320;10846,783;   -0,075;   -3,045
464,907;10514,240;    2,743;   -0,773
465,495;10383,143;    0,743;   -1,227
466,082;10552,342;   -1,984;   -0,045
466,670;10466,640;   -2,529;    1,227
467,257;10914,066;   -1,711;    2,045
467,844;11075,336;   -0,075;    0,045
468,432;11076,666;    0,834;    3,500
469,019;10573,808;    0,925;   -1,773
469,606;11050,767;    0,470;    3,682
470,193;10853,595;   -1,439;    0,227
470,780;10402,382;   -2,075;    0,864
471,368;10793,617;   -1,257;   -0,773
471,955;10576,471;    1,379;   -0,682
472,542;10209,483;    0,652;   -1,136
473,129;10468,203;   -0,166;    0,136
473,716;10198,400;    1,470;    0,591
474,303;10412,867;    0,652;   -0,864
474,890;10739,192;   -1,439;   -0,500
475,477;10695,786;   -1,621;    0,409
476,064;10592,602;    1,106;   -1,591
476,650;10530,986;    0,288;    0,318
477,237;10376,350;   -0,258;    0,955
477,824;10535,783;   -1,076;    0,864
478,411;10589,394;   -1,894;   -0,318
478,997;10786,992;    0,560;   -0,773
479,584;10858,965;    1,196;   -0,409
480,171;11544,708;   -0,440;   -0,773
480,757;11200,636;    2,651;    0,773
481,344;11553,052;    0,469;    0,409
481,931;11053,888;    1,105;    1,045
482,517;12063,039;   -1,258;    0,318
483,104;12630,660;    1,106;    2,864
483,690;12964,678;   -1,804;    0,045
484,276;13376,302;   -0,895;    0,227
484,863;13112,949;    2,469;    1,136
485,449;13741,051;   -0,077;    0,318
486,035;13785,835;   -1,986;   -0,136
486,622;14201,341;   -0,895;    0,045
487,208;14143,305;    1,378;    1,500
487,794;13984,637;    0,741;    0,318
488,380;14108,232;    0,105;   -1,409
488,967;14177,748;   -1,168;   -0,409
489,553;14214,863;   -1,895;   -1,409
490,139;14419,570;    1,559;    0,773
490,725;13854,965;    0,741;   -0,227
491,311;13414,901;    3,287;    3,045
491,897;12718,011;   -0,986;    1,500
492,483;12505,820;    0,105;    1,227
493,069;12198,276;    3,923;    0,864
493,655;12213,427;    1,650;    0,682
494,241;12102,363;    1,377;   -0,955
494,826;12501,765;    0,287;   -1,045
495,412;11964,889;    2,559;   -0,682
495,998;12176,661;   -0,805;   -0,318
496,584;12284,976;    0,377;    1,045
497,169;12299,830;    1,014;   -0,682
497,755;12252,931;    0,650;    1,227
498,341;12806,915;    0,559;    0,318
498,926;12366,437;    1,832;    1,955
499,512;12552,234;    1,286;    2,955
500,097;12700,931;    0,195;   -0,318
500,683;12624,402;   -0,350;    2,136
501,268;12998,083;   -0,169;   -0,955
501,854;12694,580;   -0,169;    1,227
502,439;12641,209;   -0,624;   -1,773
503,024;12873,143;    0,195;    0,500
503,610;12933,520;   -0,078;   -0,682
504,195;12934,257;    0,558;    1,955
504,780;13075,562;    2,922;    1,227
505,366;12869,070;    3,013;    2,864
505,951;12596,514;    0,740;    1,045
506,536;12601,418;   -3,260;   -3,682
507,121;12591,648;    0,285;   -0,318
507,706;13119,667;    2,376;    1,045
508,291;13520,975;    2,649;    1,136
508,876;13018,713;   -0,988;    2,591
509,461;12449,309;   -0,169;   -0,773
510,046;12878,317;    0,194;    0,318
510,631;13073,938;   -0,351;   -0,773
511,216;12772,357;    2,467;   -0,500
511,801;13103,041;   -0,442;    2,591
512,386;13442,229;    0,740;    0,500
512,971;13372,221;   -2,988;    0,955
513,555;12917,798;   -0,897;   -1,500
514,140;13744,237;   -0,442;   -3,136
514,725;13754,313;   -0,715;   -1,136
515,309;13877,549;   -0,533;    0,318
515,894;13326,419;   -0,624;   -2,227
516,479;13730,299;   -0,624;   -0,955
517,063;13555,153;    0,376;    1,227
517,648;13705,905;    1,012;   -1,136
518,232;13375,788;   -0,261;   -1,409
518,817;13750,495;   -0,079;    1,682
519,401;13939,880;    2,194;    0,591
519,985;13441,012;    1,103;    1,136
520,570;13309,338;    0,830;   -1,955
521,154;13618,029;    2,102;    0,591
521,738;13794,022;   -2,352;    2,409
522,323;14359,810;   -0,170;    1,682
522,907;14102,698;    0,466;   -0,136
523,491;13822,353;    0,557;    0,955
524,075;13826,151;    2,284;    0,591
524,659;13919,078;    1,466;    0,591
525,243;13337,044;    1,739;    0,409
525,827;13599,489;    0,648;   -0,045
526,411;14471,532;   -1,989;   -0,136
526,995;14662,017;   -0,352;    1,409
527,579;14252,247;   -0,443;   -1,045
528,163;14569,288;    0,375;   -1,500
528,747;14508,802;    2,466;   -0,773
529,331;14790,531;   -0,080;   -1,409
529,915;15039,333;    1,738;    0,955
530,499;14956,119;   -0,807;    1,227
531,082;14655,235;   -0,534;    1,591
531,666;14063,028;    1,374;    0,773
532,250;14799,783;    1,284;    2,682
532,833;15165,328;    0,920;    2,773
533,417;15014,100;   -1,807;    0,864
534,001;14987,523;    1,647;   -0,318
534,584;15710,596;    0,374;    0,500
535,168;15549,856;    0,465;    1,409
535,751;15596,339;    0,647;    0,045
536,334;15041,850;   -0,898;   -0,409
536,918;15631,045;    0,011;    1,591
537,501;15739,951;   -0,899;    1,318
538,085;15750,721;   -0,444;    1,045
538,668;15911,702;    0,829;    2,409
539,251;16197,318;    1,829;    3,773
539,834;16211,929;    0,101;    0,773
540,418;16146,591;   -1,990;    4,318
541,001;16271,781;   -0,990;    1,773
541,584;16270,860;    2,101;    2,227
542,167;15976,102;    1,374;    2,955
542,750;16168,009;    1,919;   -0,773
543,333;15744,182;    0,555;    2,136
543,916;16556,987;    0,192;    2,500
544,499;17159,289;   -1,354;    0,227
545,082;17161,730;    1,374;    3,591
545,665;17281,258;    1,919;    1,500
546,248;17658,546;    1,010;   -0,318
546,830;17284,119;   -0,445;    1,955
547,413;17705,229;    1,010;   -0,773
547,996;18275,823;    0,555;    0,500
548,579;18045,806;    0,919;    0,955
549,161;17855,701;    1,828;    2,682
549,744;17657,775;   -0,809;    0,409
550,326;18156,515;   -0,809;   -1,136
550,909;17879,842;    2,737;    0,591
551,492;18345,477;   -0,263;    0,227
552,074;18121,742;   -0,173;   -1,318
552,657;18643,716;    2,373;    0,045
553,239;18400,657;   -0,173;   -0,773
553,821;18352,259;   -1,082;    1,045
554,404;17835,314;    1,282;    1,136
554,986;18191,207;    0,464;    1,045
555,568;18813,784;    1,191;   -0,955
556,151;18020,036;    1,191;   -0,227
556,733;18265,721;   -0,264;   -0,864
557,315;18709,739;    0,100;    0,500
557,897;18540,318;    0,554;   -0,500
558,479;18685,454;   -1,991;    1,318
559,061;18767,004;   -0,719;   -0,864
559,643;19146,157;   -0,264;    0,045
560,225;19530,133;    1,645;    2,864
560,807;19507,066;    0,918;    0,318
561,389;19009,162;    0,554;    2,318
561,971;19791,671;    0,463;    2,136
562,553;19597,588;   -1,628;    1,591
563,135;19721,602;   -0,537;    1,136
563,717;19306,018;    3,372;    1,136
564,298;20020,658;    3,645;   -0,045
564,880;19780,620;    0,645;   -1,409
565,462;19996,075;    0,645;    1,318
566,043;21112,629;   -0,446;    2,318
566,625;20659,623;    1,918;    1,227
567,207;20489,735;    1,099;    1,682
567,788;21655,493;   -1,264;    1,500
568,370;22481,071;    1,917;   -0,500
568,951;22330,686;    0,190;    0,227
569,533;23155,795;   -0,628;   -0,500
570,114;23651,627;   -0,446;    0,682
570,695;24193,415;   -0,174;   -1,318
571,277;24688,035;   -0,265;   -1,682
571,858;25405,641;    2,008;   -1,136
572,439;26386,437;    1,554;   -1,045
573,021;26565,436;    2,099;   -2,773
573,602;27041,264;   -1,265;    0,318
574,183;27994,949;   -2,083;    2,227
574,764;28154,534;   -1,629;    0,409
575,345;28728,966;    0,917;   -0,136
575,926;29419,265;   -0,356;    0,136
576,507;29382,531;    1,099;   -0,227
577,088;30485,316;    3,099;    1,682
577,669;30502,220;    0,735;    1,955
578,250;31256,404;    0,644;   -1,045
578,831;31972,219;   -1,356;   -2,227
579,412;32196,928;   -0,810;    0,955
579,993;33141,914;    1,008;    0,227
580,573;33498,407;   -0,629;   -0,955
581,154;32510,441;    0,735;   -0,591
581,735;33349,909;    0,644;    0,773
582,315;32821,000;   -0,629;    2,136
582,896;33118,898;   -0,174;    1,227
583,477;32634,229;    0,189;    1,227
584,057;32805,518;    0,553;    0,955
584,638;33088,187;    2,553;    2,318
585,218;33084,324;   -0,538;    2,682
585,799;33274,215;    0,281;   -0,227
586,379;33241,771;    0,372;    1,591
586,959;32048,377;    0,735;    0,318
587,540;31379,831;   -0,629;    2,227
588,120;30877,765;    1,007;   -0,045
588,700;29821,745;    2,553;    2,136
589,281;30125,706;    0,462;   -0,955
589,861;30008,685;    0,099;   -1,682
590,441;29835,355;    2,371;   -2,682
591,021;28808,272;   -0,265;   -2,591
591,601;29075,669;   -0,537;    0,500
592,181;29023,404;   -0,719;   -0,773
592,761;28320,061;    0,007;    1,409
593,341;28239,430;   -0,901;    0,045
593,921;28200,193;   -0,265;    1,591
594,501;28117,864;   -0,538;    1,318
595,081;27967,758;    0,917;   -0,318
595,661;28259,704;   -1,447;    0,955
596,240;28770,065;   -0,537;    0,136
596,820;28436,524;    0,372;    1,955
597,400;28632,990;    2,008;    0,773
597,980;28872,866;    2,008;    1,045
598,559;28877,699;    2,735;   -0,227
599,139;28571,372;   -0,174;   -1,227
599,718;28528,100;   -0,174;   -0,409
600,298;28768,367;    0,735;    0,682
600,877;28995,157;    2,917;    1,409
601,457;29269,707;    2,281;    1,136
602,036;29169,754;    0,190;    2,045
602,616;29374,587;    0,644;    1,682
603,195;29701,883;   -0,355;    3,500
603,774;29230,979;   -0,901;    2,045
604,354;29145,868;    0,826;   -0,500
604,933;28644,014;    0,463;    1,864
605,512;28731,491;    3,554;    0,591
606,091;28787,625;   -0,537;    3,773
606,671;29620,772;    0,281;    0,773
607,250;28625,421;    1,644;    3,136
607,829;28896,278;    2,372;    3,227
608,408;28805,035;    1,190;    2,591
608,987;27817,478;    1,281;    3,409
609,566;28149,528;   -1,265;   -2,500
610,145;28194,380;   -1,082;    0,682
610,723;28651,255;    4,372;    6,864
611,302;27911,968;   -0,446;    1,682
611,881;27377,563;    5,008;   11,227
612,460;28203,186;    1,645;    3,955
613,039;28654,275;   -0,082;    2,045
613,617;27368,335;    1,736;    4,773
614,196;27586,400;    1,099;    1,227
614,775;27900,321;    1,009;    2,409
615,353;27857,675;    0,736;    0,864
615,932;27548,207;    0,100;    2,409
616,510;28156,679;    0,554;    0,591
617,089;27609,284;    7,100;   17,591
617,667;27408,486;    2,372;    6,136
618,246;27285,262;   -1,537;    1,318
618,824;27403,436;   -3,355;   -0,955
619,402;26969,533;   -2,900;   -1,773
619,981;27452,270;   -0,173;   -1,045
620,559;27339,364;    0,009;    1,682
621,137;26877,278;   -0,718;    1,864
621,715;26892,062;   -1,173;   -0,682
622,293;26840,876;   -0,537;   -0,773
622,871;27256,830;   -0,718;    0,500
623,450;26851,414;    0,373;   -0,864
624,028;26653,299;    0,191;   -0,955
624,606;26316,808;   -1,718;    1,682
625,183;26799,053;   -1,536;   -1,136
625,761;26388,864;    1,009;    1,136
626,339;26679,716;    1,373;    2,591
626,917;27048,188;   -0,172;   -0,045
627,495;27103,785;   -0,354;    1,318
628,073;26558,997;   -0,263;    2,864
628,650;26209,114;    0,100;    2,136
629,228;26643,239;    0,373;    4,409
629,806;26071,581;    2,282;    1,136
630,383;26345,170;    1,464;   -0,318
630,961;26070,613;    2,555;   -0,955
631,539;25808,125;    2,464;    0,227
632,116;25124,340;   11,373;   15,409
632,694;25714,909;    2,555;    6,500
633,271;26038,742;    0,828;    2,682
633,848;25949,102;    1,828;    2,045
634,426;25995,193;   -1,081;    1,773
635,003;25160,573;    1,101;   -0,409
635,580;25455,003;    1,192;    3,682
636,158;26026,781;    3,737;    1,227
636,735;25985,048;    0,555;   -0,500
637,312;26107,828;   -0,809;   -0,682
637,889;26187,493;   -4,354;   -0,682
638,466;25680,420;   -3,990;   -0,409
639,043;25731,635;    2,101;   -1,136
639,620;26046,597;   -2,262;   -0,955
640,197;26350,985;    1,100;    1,682
640,774;26490,046;   -0,172;    1,136
641,351;26921,107;    0,737;    1,136
641,928;26270,259;   -0,627;    1,409
642,505;25942,865;    0,828;   -0,500
643,082;26052,108;   -1,718;    1,227
643,658;25117,168;   -0,718;    1,500
644,235;25906,411;    1,191;    2,500
644,812;26181,108;    1,918;    0,773
645,388;25929,623;   -0,991;    1,409
645,965;25966,775;   -0,809;    1,682
646,542;25970,199;   -1,445;   -0,227
647,118;25975,351;    1,009;   -0,955
647,695;26322,957;   -0,263;    1,136
648,271;26214,564;   -0,536;    0,500
648,848;26574,079;    0,736;    2,227
649,424;26378,503;    0,827;    1,318
650,000;26166,291;   -0,354;   -1,045
650,577;25957,079;   -0,627;   -0,955
651,153;26411,504;   -1,809;    0,955
651,729;27471,110;    1,191;    0,864
652,305;27617,716;    0,645;    2,773
652,881;32011,959;   -0,082;    1,136
653,458;39051,565;    1,100;    0,227
654,034;43254,171;    0,282;    1,591
654,610;44850,050;    0,554;    0,773
655,186;46238,657;    0,645;    3,045
655,762;45947,263;   -0,991;    0,409
656,338;45982,051;    0,100;    0,136
656,913;46983,475;   -0,082;    0,409
657,489;46297,809;    0,827;   -0,318
658,065;46286,779;   -0,173;   -1,591
658,641;46950,112;   -0,900;   -0,864
659,217;46238,173;   -0,991;    0,409
659,792;45585,052;    0,645;   -0,409
660,368;45871,204;   -2,173;   -0,682
660,944;45520,810;   -2,082;    1,227
661,519;40956,780;   -0,628;    0,409
662,095;34821,659;   -1,719;    0,591
662,670;29925,719;    1,281;   -0,136
663,246;28596,962;    1,009;   -0,409
663,821;27804,568;    0,281;    1,682
664,396;27251,265;    0,009;    1,864
664,972;27464,872;    0,009;   -0,500
665,547;27770,387;    1,372;    0,136
666,122;27818,448;   -1,082;    0,318
666,698;28065,327;   -0,173;    0,318
667,273;27417,024;   -0,173;    0,136
667,848;28276,084;    2,372;    1,500
668,423;28031,873;    2,190;    2,318
668,998;28643,570;    2,827;   -0,682
669,573;29193,630;   -3,264;   -1,500
670,148;29006,782;   -1,446;   -0,682
670,723;28775,207;   -1,810;    0,318
671,298;29184,995;    2,372;    1,045
671,873;29370,783;   -0,082;   -0,136
672,448;29334,298;    0,645;    0,136
673,023;29680,722;   -1,992;   -0,227
673,597;29991,329;    0,827;    2,318
674,172;29762,298;   -0,355;    0,318
674,747;29277,359;    0,372;   -1,045
675,321;29164,693;   -0,628;    3,318
675,896;28693,208;    0,645;    1,045
676,471;29682,632;    2,645;    1,591
677,045;29461,148;   -1,264;    0,682
677,620;29499,481;    0,190;    1,136
678,194;29795,997;   -2,628;    1,136
678,769;29365,876;   -1,083;   -0,318
679,343;29621,573;   -0,628;    1,773
679,917;29470,724;   -1,446;    1,955
680,492;29553,240;    0,826;    3,227
681,066;29745,846;    3,372;    0,409
681,640;29769,998;    1,463;   -0,318
682,214;30611,877;    0,735;    0,500
682,788;30166,301;   -1,356;   -0,773
683,363;30059,180;   -1,810;    1,682
683,937;29747,332;   -1,719;   -0,318
684,511;30552,211;    0,463;   -0,591
685,085;30244,362;   -1,356;    0,318
685,659;30028,787;   -2,538;    0,864
686,232;30185,847;   -0,356;   -0,318
686,806;29964,363;   -0,901;    0,409
687,380;30619,696;   -0,174;    0,591
687,954;30845,212;   -1,174;    1,136
688,528;30512,091;   -0,719;    1,955
689,101;31341,060;   -3,992;    1,045
689,675;30899,939;   -0,356;   -0,136
690,249;30285,091;   -0,719;    0,409
690,822;30642,334;    0,280;    0,318
691,396;30677,031;   -0,265;    1,227
691,969;30162,910;    1,280;    0,136
692,543;30606,970;   -0,447;   -1,955
693,116;30280,940;   -0,265;   -1,409
693,690;30108,728;    0,099;    0,500
694,263;30640,335;   -1,083;    2,955
694,836;30693,759;    1,371;    3,591
695,410;29343,365;   -0,265;    1,773
695,983;29817,971;    0,189;    0,591
696,556;29787,032;   -0,447;   -1,045
697,129;30209,366;   -0,356;    1,409
697,703;29803,517;   -1,629;    1,955
698,276;29807,851;    1,462;   -0,773
698,849;29616,366;    1,280;    1,409
699,422;29931,336;   -1,083;    0,591
699,995;29632,215;    0,007;    0,136
700,568;30198,094;   -0,629;    3,045
701,140;30230,700;   -2,811;    1,682
701,713;29889,307;   -0,174;    2,409
702,286;29632,640;   -0,538;    0,864
702,859;29570,519;   -0,902;   -0,591
703,432;28676,125;    0,825;    0,682
704,004;29144,550;    0,462;    0,318
704,577;29056,974;   -0,629;    0,136
705,150;29644,126;    0,189;    2,500
705,722;29400,732;   -0,356;   -3,227
706,295;29228,975;   -0,175;   -0,591
706,867;29083,399;   -0,175;    1,955
707,440;29315,278;   -1,720;   -0,409
708,012;29535,066;    0,462;    0,591
708,584;29438,672;    2,462;    0,227
709,157;29802,733;    1,825;   -0,591
709,729;29420,703;    2,280;    2,045
710,301;30268,945;    0,734;    0,045
710,874;30300,006;   -1,447;   -0,227
711,446;29265,158;    0,371;    0,864
712,018;29047,037;    0,098;    0,500
712,590;28791,916;   -1,993;    1,682
713,162;29300,340;    0,825;    1,318
713,734;29568,855;    1,825;   -2,045
714,306;29486,462;   -1,902;   -0,409
714,878;28169,886;    0,825;    0,864
715,450;28970,765;    0,643;    0,864
716,022;29242,008;    1,552;    1,318
716,593;29357,159;    0,189;    0,591
717,165;29371,038;   -3,175;   -1,227
717,737;29001,099;    0,280;    0,409
718,309;28693,160;    0,280;   -0,045
718,880;28640,402;   -0,539;   -1,409
719,452;28846,827;   -0,175;   -1,591
720,024;28405,342;    0,734;   -0,591
720,595;28998,676;   -2,902;    0,955
721,167;28519,646;    0,370;   -2,045
721,738;28032,615;   -0,812;   -1,045
722,309;28001,403;   -0,993;   -1,227
722,881;27843,373;   -1,357;    0,773
723,452;28481,070;   -2,630;    2,864
724,023;28602,313;   -0,721;    2,682
724,595;28347,737;    0,007;    0,682
725,166;28103,980;    0,007;   -0,409
725,737;27731,586;    1,734;    0,227
726,308;27871,556;   -0,266;    0,318
726,879;28276,708;   -1,630;    1,227
727,450;28124,132;    0,552;   -0,045
728,021;28100,011;    3,097;    0,682
728,592;27923,981;    0,734;    0,500
729,163;28254,769;    0,643;   -0,136
729,734;28307,375;    0,188;   -0,227
730,305;28668,345;    1,734;    0,136
730,876;29008,861;    0,188;    2,955
731,447;28659,830;    2,188;    2,682
732,017;28755,891;    1,097;    1,864
732,588;28305,043;    0,734;    1,227
733,159;28473,376;    0,643;   -1,045
733,729;28252,346;    0,006;    0,409
734,300;27573,952;    0,915;    0,864
734,870;27996,741;    3,461;    0,591
735,441;28566,165;    0,370;   -0,591
736,011;28321,226;    0,643;   -1,591
736,582;28276,105;   -0,812;    0,045
737,152;27736,256;   -1,721;   -2,045
737,722;28186,953;   -0,267;   -0,682
738,293;27897,014;   -1,358;    1,318
738,863;27770,348;    2,461;    2,318
739,433;27539,863;    5,279;    0,318
740,003;28210,015;   -0,994;   -0,682
740,573;27628,439;    2,097;   -1,591
741,143;27540,773;   -1,085;    0,318
741,713;28304,743;    1,188;   -0,500
742,283;28007,894;    0,915;    1,591
742,853;27810,500;    1,915;    1,591
743,423;27227,743;    1,733;    0,045
743,993;27382,531;   -0,358;    1,500
744,563;26711,774;    0,097;   -0,864
745,133;26647,925;   -0,812;   -0,864
745,702;27405,532;   -0,267;    1,773
746,272;26597,138;   -0,176;    0,591
746,842;26330,199;   -1,358;   -0,591
747,411;26778,623;   -0,267;   -0,318
747,981;27014,502;    0,097;    0,500
748,551;27019,654;    2,278;   -1,045
749,120;26862,805;    0,642;   -0,227
749,690;27262,957;   -0,631;    2,409
750,259;27542,654;    1,369;    2,955
750,828;27481,897;    1,551;   -1,955
751,398;27752,867;    1,278;   -0,045
751,967;27260,655;    2,187;    0,409
752,536;27542,806;   -0,813;   -0,227
753,105;27957,685;    0,096;    0,227
753,675;27740,019;    0,096;    1,773
754,244;27649,080;   -0,904;    3,591
754,813;27756,959;    0,551;    1,227
755,382;27348,656;    0,460;    0,955
755,951;27899,262;    1,551;    3,682
756,520;27345,504;   -0,085;    1,864
757,089;27926,293;    0,278;    0,500
757,658;28102,626;    1,733;    1,227
758,227;28095,323;    1,096;    0,318
758,795;28402,657;    1,187;    1,136
759,364;28630,172;   -0,086;   -0,591
759,933;27652,960;   -1,176;   -0,045
760,501;27204,021;    0,733;   -1,318
761,070;27658,263;   -2,813;   -1,409
761,639;28381,506;   -1,904;    1,318
762,207;27720,203;    1,551;   -0,955
762,776;27587,628;    0,369;    0,864
763,344;27579,688;   -0,995;    0,591
763,913;26721,295;   -0,722;    1,409
764,481;27452,719;    1,005;   -0,136
765,049;27268,507;   -1,358;    1,409
765,618;27104,477;   -0,086;    0,318
766,186;27184,265;    0,278;    0,136
766,754;27399,144;    0,005;    1,864
767,322;26393,023;   -1,995;    0,409
767,890;26390,084;   -0,722;   -1,773
768,459;26797,326;   -2,177;   -0,318
769,027;26988,296;    1,641;    3,409
769,595;25974,175;    3,278;    2,591
770,163;26413,508;    3,823;    2,955
770,730;26142,751;    0,732;   -0,136
771,298;26019,266;    0,187;   -1,409
771,866;26072,145;   -1,541;    4,955
772,434;26392,024;   -0,631;   -1,864
773,002;26576,812;    0,005;    0,682
773,569;26233,782;    0,914;    1,682
774,137;26035,752;   -0,268;   -0,045
774,705;26876,177;    0,278;   -0,136
775,272;26341,419;    0,641;    0,682
775,840;26065,389;   -0,177;    2,682
776,407;25593,722;    0,277;    1,955
776,975;25171,056;   -0,632;    0,318
777,542;26221,844;   -1,086;   -0,045
778,110;26060,359;   -1,268;   -0,045
778,677;25785,238;   -2,359;   -0,864
779,244;25509,208;    2,186;    1,045
779,812;25581,633;    1,823;    0,864
780,379;25422,148;    0,005;    1,136
780,946;25680,209;    1,005;   -0,773
781,513;25971,451;   -1,450;    0,318
782,080;25352,421;   -0,086;    2,864
782,647;26122,209;   -0,268;    3,045
783,214;25668,088;   -0,177;    3,864
783,781;25331,149;   -0,723;   -0,682
784,348;25179,573;   -0,632;    1,500
784,915;25690,180;   -3,177;    0,318
785,482;25419,968;    1,368;    2,591
786,049;25857,119;    0,186;   -0,591
786,615;25975,816;    0,277;   -0,955
787,182;25708,150;    0,186;   -0,682
787,749;25395,938;   -2,814;    1,409
788,315;24775,090;   -1,632;   -0,409
788,882;25079,878;    1,550;   -1,227
789,448;25722,666;    1,732;   -0,955
790,015;25738,363;    1,095;    3,227
790,581;25304,060;    1,459;    0,227
791,148;25193,666;    0,641;    1,045
791,714;25425,091;   -0,541;    3,136
792,280;25061,788;    0,186;    1,591
792,847;24641,030;    0,550;    2,500
793,413;25201,909;   -0,269;   -0,318
793,979;24734,788;    3,459;   -1,318
794,545;24826,576;    4,459;    2,682
795,111;24251,092;    2,186;    1,318
795,678;24427,789;    0,731;   -1,682
796,244;24074,850;    3,368;    0,136
796,810;24586,547;    1,731;    0,773
797,375;24291,607;    0,549;   -2,136
797,941;24326,759;   -0,541;    0,591
798,507;24473,184;   -0,451;   -0,955
799,073;23997,699;   -0,360;    0,591
799,639;24078,487;   -2,632;    3,136
800,205;24127,366;    0,095;    2,682
800,770;23678,699;    0,640;    1,773
801,336;23797,851;    1,368;   -0,955
801,901;23453,275;    4,549;    3,136
802,467;24005,154;   -0,542;    2,045
803,033;23322,761;   -0,087;    0,864
803,598;23526,003;    1,913;   -1,045
804,163;23594,973;    1,095;   -0,318
804,729;23538,034;   -0,178;    1,136
805,294;23953,276;    0,822;    2,227
805,859;23750,610;    0,731;   -0,409
806,425;23178,398;    1,186;    2,682
806,990;22840,732;    2,186;    4,318
807,555;23405,610;   -1,451;    2,591
808,120;23247,308;    0,822;   -0,409
808,685;23327,459;    0,185;   -2,500
809,250;22798,247;    0,004;   -0,500
809,815;23135,945;    1,913;    0,682
810,380;23682,642;   -0,269;    1,591
810,945;24220,430;   -1,087;    2,045
811,510;23385,036;    2,094;    1,591
812,075;23051,824;   -0,633;   -1,409
812,640;23070,430;    2,003;    1,409
813,204;23120,946;    0,822;   -0,227
813,769;23627,370;    2,094;   -0,045
814,334;23060,613;    0,458;    0,864
814,898;23175,037;    0,367;    0,591
815,463;22980,734;    1,276;   -0,773
816,027;22957,886;   -0,724;   -2,318
816,592;23030,674;    0,640;   -2,045
817,156;22512,462;    2,094;    1,136
817,721;22362,977;    4,276;    2,318
818,285;22317,947;    2,912;    1,500
818,849;23006,644;   -1,451;    1,682
819,414;22880,250;   -0,269;    2,955
819,978;22482,948;   -1,269;    1,773
820,542;23046,463;    2,003;    0,500
821,106;22775,887;   -0,815;    0,682
821,670;22860,130;   -0,815;    2,591
822,234;22596,736;   -0,270;    1,409
822,798;21935,433;    0,003;    0,500
823,362;21872,403;   -0,633;    4,227
823,926;21169,464;    0,094;    1,136
824,490;21432,434;   -0,997;   -0,682
825,054;21884,767;   -0,088;   -1,136
825,618;21495,010;   -1,542;   -1,500
826,181;21477,707;    0,458;   -1,318
826,745;21332,495;    1,367;   -1,045
827,309;21657,556;    1,185;    1,318
827,872;21078,889;    1,367;    0,955
828,436;22062,132;    1,185;   -0,773
828,999;22147,829;   -0,997;    1,227
829,563;20967,890;   -0,179;    1,136
830,126;20743,678;   -0,179;   -0,591
830,690;20740,648;   -1,997;    2,864
831,253;20239,799;   -0,543;    2,227
831,816;20353,951;   -1,906;    0,500
832,380;20297,285;    0,185;    0,864
832,943;20547,073;   -1,361;   -0,500
833,506;20009,588;    2,639;   -1,227
834,069;20825,649;    3,912;   -0,955
834,632;20880,073;    1,730;    1,318
835,195;20799,134;    1,003;    0,955
835,758;19967,013;   -0,997;    1,955
836,321;19843,801;    0,730;   -1,045
836,884;19933,862;   -0,725;   -0,955
837,447;19974,013;   -2,816;    1,773
838,010;20254,620;    0,366;    3,227
838,573;20503,771;   -1,179;    0,773
839,135;20442,741;   -1,361;   -0,955
839,698;19918,347;    1,275;    0,409
840,261;19451,499;    1,003;   -0,227
840,823;19295,105;   -0,543;    0,864
841,386;19528,621;   -0,452;   -2,409
841,948;19422,772;   -1,361;    1,773
842,511;19175,924;    0,912;    1,682
843,073;19312,167;    1,912;    0,227
843,636;19103,409;   -0,361;   -0,227
844,198;19038,561;    0,911;    0,591
844,760;19105,167;    1,093;    1,955
845,322;18771,773;    0,548;    1,136
845,885;19208,379;    0,730;    0,591
846,447;19674,713;   -1,998;    0,227
847,009;19230,501;    1,911;   -0,682
847,571;19566,198;    0,820;   -2,045
848,133;19675,168;   -1,089;   -1,864
848,695;19529,411;   -0,543;    1,409
849,257;19042,199;   -1,089;   -1,682
849,819;19180,532;   -0,998;   -0,409
850,381;19238,320;   -0,725;   -0,864
850,942;19658,563;    1,093;   -0,591
851,504;19604,896;    1,184;    0,227
852,066;19650,230;    1,275;   -1,591
852,628;19161,563;   -0,180;    1,955
853,189;18691,806;    1,638;    2,682
853,751;18833,685;   -0,907;    1,409
854,312;18613,746;   -0,453;   -1,682
854,874;19105,625;   -2,089;   -0,773
855,435;19685,958;   -0,907;   -1,682
855,997;19840,564;   -1,816;   -0,136
856,558;19124,261;    0,366;    1,773
857,119;19227,140;    0,820;    2,864
857,681;18925,383;    0,002;    0,318
858,242;18949,535;    1,911;   -2,136
858,803;19364,414;    0,456;   -0,773
859,364;19985,293;    0,184;   -4,773
859,925;19272,899;   -2,453;   -0,955
860,486;19142,141;   -0,453;   -0,955
861,047;18885,929;   -0,544;   -1,227
861,608;18698,172;   -1,089;   -0,773
862,169;18852,869;    0,638;   -0,045
862,730;18605,203;    0,456;    1,409
863,291;18876,991;   -0,635;   -0,500
863,852;19231,142;   -0,635;    1,955
864,412;18676,112;   -0,271;   -0,864
864,973;17236,719;   -0,089;    0,500
865,534;17072,325;   -1,726;    0,227
866,094;18545,295;    1,820;    0,227
866,655;18239,083;    1,274;    3,318
867,215;18557,325;    0,274;    0,136
867,776;18431,113;    0,547;   -0,136
868,336;18501,992;   -1,453;    0,136
868,897;17955,235;    2,638;    1,682
869,457;17671,387;    1,365;    0,318
870,017;17909,629;    0,547;   -1,227
870,578;18435,144;   -0,817;    0,773
871,138;18143,933;   -2,089;   -0,955
871,698;17698,811;   -0,817;   -1,318
872,258;17572,418;   -0,453;   -2,864
872,818;17940,024;    2,729;    0,045
873,378;17876,357;    0,638;    1,045
873,938;17379,600;    0,547;    0,500
874,498;17779,206;    0,274;   -1,955
875,058;17663,994;    2,183;    1,773
875,618;17504,055;    1,910;   -2,682
876,177;17445,479;    1,274;    0,136
876,737;17029,540;   -0,090;    1,955
877,297;17051,146;    0,183;    1,955
877,856;17040,116;   -0,362;    0,318
878,416;17011,177;    1,183;   -0,136
878,976;17237,147;   -1,817;    0,409
879,535;17365,935;    0,092;    3,136
880,095;17098,541;   -0,544;    0,045
880,654;17270,784;   -1,090;    1,318
881,213;17333,208;    2,456;    1,500
881,773;16980,814;    2,637;    2,682
882,332;17319,966;    3,365;    5,136
882,891;17183,845;    3,092;    2,136
883,451;17657,270;   -1,272;    1,682
884,010;17107,421;   -2,908;   -0,409
884,569;17213,755;   -0,999;   -0,045
885,128;17365,088;    2,819;   -1,864
885,687;17385,785;    4,455;    0,682
886,246;17047,664;    1,455;    2,136
886,805;16867,452;    2,455;    2,045
887,364;17191,695;   -0,999;   -0,500
887,922;17589,119;   -1,181;    0,045
888,481;17023,271;   -1,545;    0,591
889,040;17381,332;    1,183;    2,136
889,599;18056,393;    2,455;    1,409
890,157;18104,272;    1,455;    2,409
890,716;17725,241;   -0,090;    0,227
891,274;17549,757;    0,092;   -1,136
891,833;18029,727;    1,546;    0,864
892,391;17934,151;   -0,454;    0,500
892,950;17977,666;    1,819;   -0,773
893,508;18381,727;    0,455;   -0,409
894,067;17736,152;    0,637;    0,136
894,625;17625,212;   -0,636;   -1,500
895,183;17839,091;   -0,363;   -0,682
895,741;17699,607;    1,728;   -1,773
896,299;17568,667;   -0,545;   -2,409
896,858;17745,183;    0,819;   -1,591
897,416;17887,607;    2,728;   -1,318
897,974;17639,395;    1,819;    0,318
898,532;17744,274;    6,091;    2,682
899,089;17599,153;    2,091;   -0,682
899,647;17680,123;   -1,454;    1,318
900,205;17378,547;    1,182;    1,045
900,763;17579,426;   -0,454;    0,227
901,321;17621,032;    2,364;   -1,409
901,878;17009,093;   -1,000;   -0,773
902,436;16927,699;   -1,363;    1,318
902,994;17268,851;    4,728;    3,682
903,551;16706,639;    0,728;    0,409
904,109;17130,155;    0,182;   -1,409
904,666;16731,943;    2,455;    1,045
905,224;16557,094;    0,182;   -0,409
905,781;16276,428;    0,727;   -0,318
906,338;16362,398;   -1,363;    1,045
906,895;16287,277;    0,637;    2,045
907,453;16171,610;    1,727;    1,136
908,010;16221,035;   -0,909;    0,409
908,567;15907,095;    1,273;    0,591
909,124;15410,702;    0,364;   -1,500
909,681;15465,853;   -2,909;    0,682
910,238;15564,187;    0,636;   -1,318
910,795;15889,793;   -0,273;   -1,136
911,352;15528,702;   -2,909;   -2,682
911,909;14930,611;   -1,364;   -0,864
912,466;15425,157;   -3,182;    1,500
913,022;14987,066;   -1,636;    0,500
913,579;15350,520;   -0,909;    2,045
914,136;15042,520;    1,636;    0,955
914,692;15388,429;    0,091;   -1,227
915,249;14982,338;    1,455;    0,409
915,806;15179,611;    0,182;    1,955
916,362;14940,520;    1,909;    1,864
916,918;14508,157;    2,000;    1,045
917,475;14471,157;   -1,182;    0,955
918,031;14548,611;    3,364;   -0,045
918,587;13986,793;   -0,909;   -0,318
919,144;14216,793;   -2,273;    0,227
919,700;14512,611;    1,727;    0,773
920,256;14103,702;    0,727;    0,045
920,812;13733,611;   -0,727;   -1,045
921,368;13727,247;   -1,727;   -1,045
921,924;13334,884;    0,182;   -0,136
922,480;12877,611;   -0,545;    1,227
923,036;13521,884;    1,273;    1,955
923,592;13455,884;    0,455;    0,318
924,148;13366,247;    0,455;   -0,955
924,704;12658,429;   -1,364;   -0,409
925,259;12944,884;   -0,273;    0,591
925,815;12695,975;    1,455;    0,500
926,371;12237,611;    2,909;    1,409
926,926;12100,975;    2,091;    0,591
927,482;11722,066;   -1,364;    0,773
928,037;11594,066;    0,909;    2,045
928,593;11870,611;    1,636;    1,045
929,148;11697,884;   -1,818;   -1,500
929,704;11175,066;   -1,455;   -0,500
930,259;11386,793;    0,091;   -0,136
930,814;10435,793;   -0,818;    1,955
931,369;10095,611;    1,091;   -0,773
931,925; 9990,611;   -0,091;    0,136
932,480; 9881,702;   -2,818;   -2,591
933,035; 9752,338;    0,545;   -0,318
933,590; 9514,520;    0,364;   -1,773
934,145; 9180,702;   -1,364;   -0,318
934,700; 9544,793;    0,455;   -0,591
935,255; 9326,975;   -0,091;    0,045
935,809; 8570,611;    3,182;    0,864
936,364; 7685,338;   -0,455;   -0,136
936,919; 7644,975;    0,455;   -1,773
937,474; 7552,247;    1,455;    0,136
938,028; 7284,611;   -1,636;    1,136
938,583; 6732,429;    1,818;    4,682
939,138; 7048,611;    2,091;    2,136
939,692; 6500,066;    1,636;   -1,136
940,247; 6169,338;   -0,727;   -1,045
940,801; 5684,884;   -0,636;    0,227
941,355; 5582,884;   -0,364;    2,591
941,910; 5243,247;   -0,273;   -2,136
942,464; 5332,338;   -0,818;   -0,318
943,018; 5112,338;    1,000;   -0,227
943,572; 5061,611;    2,545;   -0,682
944,126; 4446,611;    0,091;   -0,409
944,681; 4351,066;    3,091;    0,227
945,235; 4335,702;    1,000;   -0,591
945,789; 4300,793;    0,364;   -1,864
946,342; 4366,338;    0,455;   -0,591
946,896; 4166,429;   -2,273;    0,955
947,450; 3932,247;    1,545;   -0,227
948,004; 4113,611;    1,727;   -0,045
948,558; 4132,066;    0,273;   -0,864
949,111; 4052,429;   -0,273;   -0,318
949,665; 4064,520;    1,636;   -0,682
950,219; 3945,247;   -0,091;   -1,045
950,772; 4025,247;   -1,909;    1,864
951,326; 3915,975;    0,545;   -0,955
951,879; 4028,247;    0,727;   -2,318
952,433; 4047,884;    0,000;    2,227
952,986; 3884,247;    2,909;    0,682
953,539; 3839,793;   -0,273;    0,591
954,093; 3765,157;    0,545;   -1,318
954,646; 3893,975;    0,909;    1,318
955,199; 3714,157;    0,000;   -0,500
955,752; 3586,247;   -0,455;    1,773
956,305; 3551,520;   -0,091;    2,955
956,858; 3732,793;    0,818;   -0,318
957,411; 3892,611;   -0,545;    2,136
957,964; 3721,429;    1,364;    2,136
958,517; 3703,975;   -1,545;    3,136
959,070; 3531,157;   -0,455;    1,955
959,623; 3592,702;    1,091;    1,500
960,176; 3382,338;    1,727;    2,045
960,728; 3349,247;   -2,727;    0,773
961,281; 3410,429;    0,545;    0,500
961,834; 3471,611;   -0,909;    0,864
962,386; 3380,429;    1,727;    1,045
962,939; 3302,975;    0,364;   -0,318
963,491; 3446,702;    0,455;    1,136
964,043; 3300,884;    1,182;    2,409
964,596; 3427,338;   -1,000;    2,227
965,148; 3287,338;   -1,000;    1,773
965,700; 3206,702;    1,091;   -0,227
966,253; 3343,247;   -0,636;    0,318
966,805; 3193,611;   -2,273;    0,773
967,357; 3231,975;    1,091;   -1,500
967,909; 3199,247;    0,455;   -1,227
968,461; 3311,611;    0,545;    3,136
969,013; 3256,157;   -0,182;   -0,864
969,565; 3309,429;   -0,455;   -1,136
970,117; 3367,066;   -0,364;    1,045
970,669; 3219,247;    0,182;   -0,136
971,220; 3109,702;   -0,455;   -1,500
971,772; 3013,066;   -0,636;   -0,318
972,324; 3111,520;    0,091;   -0,500
972,876; 3067,611;    0,818;   -0,045
973,427; 3209,702;    1,909;   -1,045
973,979; 3176,975;   -0,727;   -2,500
974,530; 3227,702;    1,818;    1,318
975,082; 3220,247;   -0,545;    1,682
975,633; 3105,429;    1,091;    1,682
976,184; 3257,066;    0,909;    0,773
976,736; 3052,884;    0,091;    0,227
977,287; 2825,702;   -0,909;   -0,500
977,838; 3013,702;    0,909;   -0,318
978,389; 3085,975;   -1,000;   -0,500
978,940; 2947,157;    0,545;   -0,409
979,491; 2988,338;    0,091;   -0,500
980,042; 2936,793;    0,182;    3,045
980,593; 3011,884;   -2,545;    0,227
981,144; 3049,429;    2,545;   -0,500
981,695; 3006,702;    1,455;    1,500
982,246; 2999,611;   -0,273;    1,045
982,797; 3158,066;   -1,727;    0,682
983,347; 3239,429;    0,364;    0,591
983,898; 3392,884;    3,091;    0,409
984,449; 3231,520;    2,182;    0,773
984,999; 3149,429;    1,455;   -1,136
985,550; 2913,157;    0,182;   -0,318
986,100; 2962,793;   -0,455;   -0,318
986,651; 3000,066;   -0,818;    0,045
987,201; 2984,429;   -1,000;   -0,591
987,751; 3052,975;    0,818;    2,864
988,302; 3051,247;    2,636;    1,500
988,852; 3062,338;    0,455;   -1,136
989,402; 3100,520;    0,091;    0,682
989,952; 3010,975;   -2,182;    0,864
990,502; 3128,611;   -0,091;    0,682
991,052; 3096,793;   -0,727;    0,045
991,602; 2959,066;   -2,909;    1,318
992,152; 2971,702;    0,455;    0,682
992,702; 2943,429;    1,364;   -0,045
993,252; 2850,157;   -3,000;   -0,500
993,802; 2938,702;   -0,273;    1,318
994,352; 3207,429;   -1,545;    1,136
994,901; 3293,611;   -0,182;    3,227
995,451; 3208,157;   -0,182;    0,318
996,000; 3293,702;    1,636;    0,318
996,550; 2998,429;    2,273;    0,227
997,100; 3003,611;    1,273;   -0,045
997,649; 3267,338;    2,182;    0,955
998,198; 2911,247;    1,727;   -1,500
998,748; 3100,429;    1,091;   -2,318
999,297; 3014,066;   -0,818;   -0,409
999,846; 3072,338;    1,000;   -0,773
1000,395; 3133,066;   -0,818;    0,500
1000,945; 3056,338;    1,818;   -0,773
1001,494; 3144,429;    2,364;    0,682
1002,043; 3148,975;    4,636;    0,864
1002,592; 2992,338;   -1,091;    1,955
1003,141; 3142,520;   -0,455;   -0,682
1003,690; 2989,247;    1,727;    0,500
1004,238; 3077,520;    1,455;   -0,045
1004,787; 2737,793;    1,364;    1,227
1005,336; 2944,611;    0,364;    0,682
1005,885; 3094,793;    1,364;   -2,773
1006,433; 3245,884;    0,545;    0,955
1006,982; 3274,066;    0,455;    1,682
1007,531; 3201,157;   -1,818;   -0,227
1008,079; 3162,066;   -2,273;    0,500
1008,627; 3318,247;   -1,455;    0,409
1009,176; 3065,247;    0,000;   -1,955
1009,724; 3093,157;    1,091;    0,864
1010,273; 3146,520;    1,273;    0,500
1010,821; 3269,247;    0,091;    1,409
1011,369; 2999,429;   -1,364;    1,318
1011,917; 2969,338;   -1,364;   -0,591
1012,465; 3268,247;    1,273;   -1,591
1013,013; 3386,066;    2,091;   -1,682
1013,561; 3256,338;    0,455;   -0,773
1014,109; 3301,429;   -1,909;    1,682
1014,657; 3158,702;    0,364;    0,591
1015,205; 3299,884;    1,636;   -0,955
1015,753; 3330,247;   -0,545;   -1,409
1016,301; 3376,702;   -2,636;    3,045
1016,848; 3379,975;   -1,273;    0,409
1017,396; 3415,793;    2,545;    0,045
1017,944; 3531,429;    1,182;    1,864
1018,491; 3292,157;    0,273;    1,409
1019,039; 3421,520;    0,455;    0,591
1019,586; 3371,793;   -1,364;    1,682
1020,134; 3484,611;    0,455;    1,500
1020,681; 3487,338;    0,182;   -1,136
1021,228; 3508,157;    2,909;   -2,227
1021,776; 3341,247;    1,182;   -1,136
1022,323; 3545,247;    0,455;    0,773
1022,870; 3471,975;   -1,000;   -0,045
1023,417; 3373,975;    2,636;    1,864
1023,964; 3539,157;    2,636;    1,227
1024,511; 3374,247;    1,000;    0,773
1025,058; 3166,429;    3,182;   -0,045
1025,605; 3209,338;   -2,273;    3,136
1026,152; 3425,702;    1,727;   -0,591
1026,699; 3158,702;    1,818;    1,318
1027,245; 3320,793;   -0,091;    0,318
1027,792; 3568,247;   -1,000;    1,409
1028,339; 3443,429;    2,364;   -0,045
1028,885; 3290,520;    1,000;   -0,227
1029,432; 3227,157;   -0,091;    0,227
1029,978; 3270,793;   -1,000;   -1,591
1030,525; 3189,157;    1,000;    0,409
1031,071; 3451,247;   -1,364;    1,136
1031,618; 3529,520;    0,364;    1,682
1032,164; 3332,247;   -0,091;    3,045
1032,710; 3361,247;    1,636;   -1,500
1033,256; 3288,338;   -0,636;   -0,136
1033,803; 3282,975;   -0,545;    1,500
1034,349; 3000,975;   -1,364;    0,136
1034,895; 3147,338;    0,000;   -0,318
1035,441; 3133,793;   -0,818;    0,318
1035,987; 3147,247;   -2,364;   -0,682
1036,533; 3133,611;   -1,455;   -0,955
1037,078; 3318,338;    1,455;    1,682
1037,624; 3160,338;    2,455;   -0,955
1038,170; 3167,520;    0,455;   -0,318
1038,716; 3073,247;    1,636;   -0,409
1039,261; 3008,975;   -2,273;   -0,773
1039,807; 2960,520;   -0,091;    3,409
1040,352; 3001,611;   -1,909;   -0,318
1040,898; 3048,157;   -1,545;   -0,682
1041,443; 2956,247;   -1,455;   -2,591
1041,989; 2941,702;    1,091;    1,591
1042,534; 2832,793;   -0,364;    2,591
1043,079; 2978,157;    2,909;    0,955
1043,625; 2754,520;    1,818;    0,500
1044,170; 2810,702;   -1,364;    1,045
1044,715; 3044,884;    2,455;    0,955
1045,260; 2865,975;    2,182;   -0,955
1045,805; 2941,793;    1,182;   -0,591
1046,350; 2847,611;    1,364;   -0,409
1046,895; 2807,611;    2,909;    1,591
1047,440; 2750,975;    5,364;    0,409
1047,985; 2664,884;    2,818;   -0,955
1048,530; 2593,884;    1,545;    1,227
1049,074; 2643,338;    0,000;    0,318
1049,619; 2623,884;   -1,364;    1,955
1050,164; 2420,429;    0,455;    0,227
1050,708; 2468,702;   -0,455;    0,045
1051,253; 2820,338;    1,273;   -2,227
1051,797; 2542,793;    0,818;   -1,318
1052,342; 2557,975;   -1,182;    1,045
1052,886; 2552,975;    0,364;   -1,409
1053,430; 2436,429;   -1,364;    0,136
1053,975; 2448,157;   -0,818;   -0,318
1054,519; 2426,157;   -0,727;    3,227
1055,063; 2419,247;    0,909;    1,318
1055,607; 2290,793;   -0,182;    0,227
1056,151; 2339,702;    2,909;    1,682
1056,695; 2266,066;    2,273;   -1,136
1057,239; 2318,247;   -1,727;   -0,682
1057,783; 2324,884;    0,818;   -1,500
1058,327; 2247,429;    0,000;    1,409
1058,871; 2483,247;   -0,545;    1,318
1059,415; 2199,338;   -0,818;   -0,045
1059,958; 2455,975;    1,455;    2,591
1060,502; 2189,702;   -1,000;   -0,773
1061,046; 2101,338;    0,364;   -0,955
1061,589; 2080,429;   -3,000;   -1,136
1062,133; 1954,066;   -1,273;    1,864
1062,676; 1892,702;    1,182;    0,864
1063,220; 1893,157;    1,091;    0,500
1063,763; 1906,247;    0,909;    1,136
1064,306; 1988,066;   -0,909;    1,864
1064,849; 1860,702;   -0,909;    0,591
1065,393; 1868,247;    2,000;   -1,500
1065,936; 1992,066;    0,182;   -0,409
1066,479; 1884,520;   -1,455;    1,318
1067,022; 1893,157;   -0,273;   -0,227
1067,565; 1790,066;   -0,091;   -1,318
1068,108; 1816,157;    0,727;   -0,591
1068,651; 1797,247;   -0,636;    1,409
1069,194; 1738,429;   -0,455;   -1,682
1069,736; 1726,157;   -1,273;    0,955
1070,279; 1711,338;   -1,364;   -0,500
1070,822; 1748,611;   -2,000;   -0,318
1071,364; 1826,338;   -0,364;    1,318
1071,907; 1658,429;   -0,727;    3,227
1072,450; 1561,884;    0,000;   -0,045
1072,992; 1553,884;   -0,273;    3,136
1073,535; 1686,247;    2,091;    2,136
1074,077; 1484,247;   -0,727;    2,045
1074,619; 1441,338;   -1,364;    0,591
1075,161; 1468,702;   -1,091;    1,500
1075,704; 1646,066;    1,545;    1,227
1076,246; 1463,338;   -0,182;    0,682
1076,788; 1394,157;   -0,364;    1,773
1077,330; 1475,975;    1,273;    2,136
1077,872; 1430,157;    0,909;    0,955
1078,414; 1626,338;    2,727;    0,773
1078,956; 1375,611;    1,273;   -0,227
1079,498; 1627,338;    1,636;    0,318
1080,040; 1344,247;    1,909;   -1,318
1080,581; 1291,338;    1,636;   -0,318
1081,123; 1212,247;    0,091;   -0,773
1081,665; 1257,884;   -1,182;   -0,955
1082,206; 1542,611;    1,364;   -0,500
1082,748; 1406,884;    0,727;    2,045
1083,289; 1289,429;   -2,000;    1,318
1083,831; 1187,338;   -0,545;    0,227
1084,372; 1222,884;    0,000;    0,591
1084,913; 1238,702;    1,091;    0,864
1085,455; 1204,157;   -1,909;   -2,045
1085,996; 1164,429;   -2,273;    0,136
1086,537; 1180,884;   -0,091;    0,864
1087,078; 1217,157;   -0,909;   -2,136
1087,619; 1264,975;   -1,273;    0,227
1088,160; 1181,247;    0,000;    1,318
1088,701; 1153,520;   -1,091;    0,682
1089,242; 1092,520;    1,364;   -2,227
1089,783; 1197,520;   -0,273;    1,409
1090,324; 1160,520;    0,455;    0,682
1090,865; 1039,066;    2,727;   -0,409
1091,405; 1010,429;    0,727;    2,227
1091,946; 1040,429;    0,182;   -0,955
1092,487;  975,520;    0,818;   -1,409
1093,027; 1128,611;   -1,364;   -1,500
1093,568;  986,793;   -0,364;    1,227
1094,108; 1071,702;    0,273;    1,773
1094,649; 1019,975;   -1,182;    0,136
1095,189;  951,884;   -0,636;   -0,682
1095,729;  893,429;   -0,091;    0,955
1096,269;  899,066;    0,727;   -0,955
1096,810; 1207,611;   -1,364;    0,500
1097,350; 1037,884;    1,364;   -0,773
1097,890;  940,702;    0,364;    1,227
1098,430; 1186,429;    2,364;    2,864
1098,970; 1058,157;    2,182;    1,682
1099,510;  931,066;    0,545;   -2,318
1100,050;  860,520;    1,000;   -1,591
1100,589;  822,247;   -0,727;   -0,318
1101,129;  949,975;    0,818;   -0,955
1101,669; 1092,793;    1,727;    2,136
1102,209;  922,702;   -0,091;    2,227
1102,748;  876,793;    0,000;    0,955
1103,288;  861,884;    1,273;   -1,227
1103,827;  885,157;    3,091;   -2,227
1104,367;  765,702;   -0,091;   -2,409
1104,906;  725,975;    1,364;   -1,136
1105,445;  792,066;    0,636;   -1,136
1105,985;  744,611;   -0,727;    1,500
1106,524;  793,702;   -1,727;   -0,682
1107,063;  765,611;   -2,727;    1,409
1107,602;  743,793;   -1,909;   -1,500
1108,141;  653,702;   -1,909;    1,500
1108,680;  748,520;   -3,455;   -0,591
1109,219;  688,247;   -0,909;   -0,500
1109,758;  695,611;    0,455;    0,682
1110,297;  668,611;    1,000;   -0,682
1110,836;  623,702;   -0,727;    0,955
1111,375;  784,066;   -2,545;    0,409
1111,913;  801,157;   -1,000;    0,773
1112,452;  731,611;   -0,273;    0,136
1112,991;  619,520;    1,091;    1,955
1113,529;  579,611;   -0,818;   -0,045
1114,068;  641,066;   -0,273;    2,955
1114,606;  545,702;   -0,364;   -0,955
1115,144;  696,247;   -1,273;    1,045
1115,683;  634,611;   -0,727;    0,318
1116,221;  675,066;   -0,455;   -0,864
1116,759;  594,702;    0,636;   -0,864
1117,297;  789,157;    0,000;    1,864
1117,836;  597,702;   -2,182;   -1,227
1118,374;  601,429;    0,182;   -0,682
1118,912;  552,247;    0,909;    2,682
1119,450;  540,702;    1,000;    0,864
1119,988;  599,611;    1,545;    2,136
1120,525; 1039,975;    5,091;    3,318
1121,063;  734,975;    1,182;    1,864
1121,601;  540,702;   -0,909;   -1,227
1122,139;  499,702;   -0,727;   -2,045
1122,676;  693,611;   -0,727;    2,773
1123,214;  622,793;   -1,182;    4,409
1123,751;  442,247;    1,727;    2,227
1124,289;  576,975;   -0,091;   -0,409
1124,826;  448,066;    1,727;    0,227
1125,364;  369,975;    1,727;   -0,955
1125,901;  551,429;    1,182;    1,227
1126,438;  671,793;    0,818;    0,955
1126,975;  392,157;   -0,727;   -0,773
1127,513;  461,429;    0,273;    2,136
1128,050;  365,611;    1,636;   -0,682
1128,587;  458,884;    2,000;   -0,227
1129,124;  497,520;    0,091;    1,318
1129,661;  380,793;    0,273;    0,227
1130,198;  544,157;    1,636;    0,773
1130,734;  492,884;    0,182;    1,409
1131,271;  343,793;   -0,909;    0,864
1131,808;  509,793;    2,909;    3,045
1132,345;  381,611;    1,545;    0,318
1132,881;  260,247;   -1,545;   -1,864
1133,418;  396,338;    0,727;   -1,136
1133,954;  337,157;    2,455;   -2,682
1134,491;  418,884;    1,364;   -0,773
1135,027;  308,702;    2,364;    0,864
1135,564;  399,338;    0,273;    2,955
1136,100;  384,611;    0,364;    2,136
1136,636;  263,611;   -1,273;   -1,045
1137,172;  357,793;    0,000;   -1,045
1137,708;  294,066;   -1,364;   -1,045
1138,245;  297,611;    1,273;   -1,227
1138,781;  246,247;    1,091;   -3,318
1139,317;  312,429;    1,273;   -1,409
1139,852;  310,247;    3,091;    0,136
1140,388;  425,975;   -1,182;   -0,409
1140,924;  301,520;   -1,091;   -2,227
1141,460;  237,884;   -1,636;    0,136
1141,996;  175,338;   -1,364;    2,682
1142,531;  215,793;    1,364;    3,318
1143,067;  435,157;    1,182;    1,045
1143,602;  486,884;   -0,091;   -0,318
1144,138;  333,429;   -2,636;    1,045
1144,673;  203,429;   -1,455;    1,409
1145,209;  267,520;   -1,909;   -0,318
1145,744;  189,702;   -0,727;    0,864
1146,279;  320,429;    1,818;   -0,136
1146,815;  232,702;    1,545;   -2,682
1147,350;  280,157;   -1,364;    0,045
1147,885;  186,429;   -0,818;   -1,318
1148,420;  192,066;   -2,273;    0,773
1148,955;  167,247;   -1,727;    1,864
1149,490;  204,884;   -0,909;   -1,591
1150,025;  181,611;    0,455;   -1,773
1150,560;  293,247;    1,091;   -0,955
1151,094;  267,702;    1,455;   -0,591
1151,629;  268,884;    1,636;    0,864
1152,164;  192,702;    1,364;    1,318
1152,698;  150,884;   -0,182;   -0,136
1153,233;  111,066;    0,091;   -0,682
1153,767;  155,247;   -3,000;   -2,318
1154,302;  196,975;   -1,455;    1,773
1154,836;  195,429;   -0,455;   -2,136
1155,371;  255,975;   -1,364;    3,682
1155,905;  210,884;   -0,636;    1,682
1156,439;  171,793;   -0,636;   -0,500
1156,973;  202,157;    0,364;    0,318
1157,507;  145,338;   -0,364;    0,682
1158,042;  170,975;   -0,727;    1,045
1158,576;  220,338;    0,182;    1,773
1159,110;  201,520;   -0,818;    2,409
1159,643;  172,520;    0,636;   -0,045
1160,177;  116,793;   -1,545;    1,500

