
Integration time [ms]:   0,040
Averaging Nr. [scans]: 11
Smoothing Nr. [pixels]: 0
Data measured with spectrometer [name]: 7318044SP
Wave   ;Sample   ;Dark     ;Reference
[nm]   ;[counts] ;[counts] ;[counts] 

186,757;   17,322;   31,551;    1,318
187,357;   34,333;   22,551;    0,955
187,958;   19,396;   15,460;   -1,591
188,558;   54,593;    8,915;   -1,227
189,159;   22,608;    6,733;   -4,500
189,759;   -5,424;    7,278;   -3,591
190,360;  -10,304;    2,824;   -2,136
190,960;   18,117;    2,915;   -4,136
191,560;   31,529;    3,189;   -6,591
192,161;  227,135;    4,372;   -3,500
192,761;   98,811;    4,010;   -3,227
193,361;   47,554;    1,556;   -3,773
193,962;   84,212;    2,010;   -2,682
194,562;   19,342;    1,189;   -3,955
195,162;   27,527;   -2,448;   -2,227
195,762;  147,965;   -3,176;   -0,045
196,362;   91,883;    1,370;   -2,500
196,963;    5,654;    2,006;   -0,864
197,563;   52,776;    1,551;   -0,955
198,163;   12,651;    0,096;   -0,682
198,763;   16,487;    1,733;   -0,500
199,363;   62,368;    3,096;   -0,500
199,963;   36,482;    0,369;    0,409
200,563;   31,704;    2,823;   -1,409
201,163;    5,656;    3,277;   -0,227
201,763;   39,379;    3,732;    0,318
202,363;   18,901;    1,459;    1,500
202,963;   48,792;    1,459;    1,045
203,563;  102,178;    0,277;    0,500
204,162;   34,817;    2,096;   -1,864
204,762;   25,759;    0,550;    0,591
205,362;   -0,466;    3,004;    1,955
205,962;   37,746;    3,096;    1,955
206,562;   37,557;    1,823;    2,318
207,161;    9,373;   -0,087;    0,318
207,761;   98,043;    1,277;    2,409
208,361;   31,092;   -0,268;    1,409
208,960;   55,978;    0,459;    1,500
209,560;   54,579;    1,277;    1,591
210,160;   67,932;    0,550;    1,864
210,759;   42,137;    4,186;    1,227
211,359;   34,226;    1,459;    1,045
211,958;  170,389;    1,277;    2,045
212,558;  173,748;    1,732;    1,864
213,157;   96,576;    1,822;    1,500
213,757;  285,231;    3,822;   -0,227
214,356;  131,977;    1,277;   -0,409
214,956;  280,107;    3,095;    0,409
215,555;  114,507;    2,095;    2,136
216,154;   67,447;   -2,723;   -0,591
216,754;   70,446;    0,277;    0,773
217,353;  100,581;   -0,268;   -1,045
217,952;   27,402;   -0,178;    0,318
218,552;  138,766;    1,368;   -0,773
219,151;   84,624;    0,277;    0,955
219,750;   72,972;    0,004;   -0,227
220,349;   62,194;   -0,451;    1,045
220,948;  158,659;   -1,360;    1,136
221,548;   87,852;    0,913;    1,227
222,147;  114,970;   -0,087;   -0,409
222,746;  243,384;   -0,451;   -0,955
223,345;  149,296;    0,731;    0,500
223,944;  157,797;   -0,451;    0,773
224,543;  166,151;    1,004;   -1,409
225,142;  173,190;    0,094;    0,136
225,741;  155,863;   -0,814;    1,045
226,340;  141,715;   -0,451;   -0,955
226,939;  246,878;   -0,996;   -0,136
227,538;  122,527;   -0,360;   -0,773
228,137;  241,750;   -0,814;    0,864
228,735;  195,022;   -0,541;    1,227
229,334;   82,384;   -0,905;   -0,227
229,933;  252,992;    0,459;    0,591
230,532;  253,074;    1,186;   -0,409
231,131;  330,554;    1,732;    0,318
231,729;  214,080;   -2,450;   -2,318
232,328;  144,865;   -0,723;   -1,500
232,927;  140,700;    1,004;   -0,500
233,525;  125,671;    3,640;    0,045
234,124;  157,680;    2,368;   -1,591
234,723;   94,141;    0,913;   -1,045
235,321;   96,304;    2,277;    0,136
235,920;  127,717;    1,186;   -1,227
236,518;  259,244;    3,459;    0,318
237,117;  135,004;    0,004;   -0,227
237,715;  145,082;    0,640;   -0,500
238,314;  191,168;   -0,087;   -2,318
238,912;  311,471;   -0,723;   -1,409
239,510;  226,195;    0,459;   -1,227
240,109;  326,998;    0,004;    3,773
240,707;  301,425;   -0,996;    1,227
241,305;  170,552;    0,550;    0,136
241,904;  294,643;   -0,178;   -2,045
242,502;  414,918;   -0,632;   -0,227
243,100;  322,171;   -0,087;   -0,955
243,698;  268,794;    0,732;    1,682
244,297;  321,658;   -0,632;    0,682
244,895;  340,757;   -0,269;   -2,318
245,493;  567,643;    2,186;   -0,591
246,091;  581,973;    1,368;   -1,318
246,689;  543,972;    1,004;    0,591
247,287;  522,032;    0,822;   -1,136
247,885;  512,320;   -1,451;    1,227
248,483;  500,182;    1,822;   -0,500
249,081;  640,030;    0,185;    1,591
249,679;  724,513;   -0,178;    1,682
250,277;  593,496;   -1,723;    0,864
250,875;  774,354;   -1,087;   -1,045
251,473;  694,945;   -1,178;    0,500
252,071;  839,092;    1,459;    1,045
252,669;  798,524;   -1,814;    0,318
253,267;  760,368;   -0,087;    0,773
253,864;  805,577;   -0,360;    0,682
254,462; 1044,681;    1,640;    1,591
255,060;  809,677;   -0,269;    1,318
255,658;  822,706;    0,822;   -0,136
256,255; 1011,122;    0,186;   -2,045
256,853; 1055,229;   -0,269;    1,409
257,451; 1049,641;    0,822;    1,864
258,048; 1608,001;    1,822;    1,864
258,646; 1212,498;    1,731;   -1,045
259,243; 1360,138;   -0,087;    2,227
259,841; 1267,404;   -0,814;    0,318
260,438; 1126,381;   -0,087;    0,864
261,036; 1327,144;   -1,905;    1,409
261,633; 1295,799;   -0,087;    2,227
262,231; 1249,007;    2,731;   -0,045
262,828; 1314,411;   -0,905;    1,136
263,425; 1372,727;    0,913;   -0,591
264,023; 1424,586;    0,186;    0,045
264,620; 1527,315;   -0,360;   -0,318
265,217; 1687,980;   -2,087;    3,136
265,815; 1489,029;   -1,905;    2,136
266,412; 1609,799;    0,731;    0,136
267,009; 1664,550;   -1,451;    0,773
267,606; 1798,498;    0,822;   -0,955
268,203; 1577,995;   -0,269;   -0,591
268,801; 1700,100;    1,731;    0,591
269,398; 1680,989;   -0,360;    2,500
269,995; 1795,775;    0,277;    1,591
270,592; 1657,779;   -0,632;   -0,500
271,189; 1676,019;    0,186;    0,409
271,786; 1712,395;   -0,632;    1,227
272,383; 1941,054;   -1,087;    0,227
272,980; 1805,157;    0,277;    0,318
273,577; 1856,133;    0,004;    1,227
274,174; 1672,530;    0,822;    2,591
274,771; 1739,797;   -0,814;   -0,773
275,367; 2198,951;    2,277;    1,409
275,964; 2052,566;    0,731;   -0,500
276,561; 1889,709;    1,549;   -1,045
277,158; 1862,603;    0,095;   -1,773
277,755; 2123,303;    2,185;    0,409
278,351; 1831,589;   -0,451;   -1,500
278,948; 1985,090;   -0,815;    0,045
279,545; 1882,021;   -1,360;    2,318
280,141; 2355,820;   -1,723;   -2,045
280,738; 2165,159;   -0,451;   -0,136
281,334; 2061,352;   -1,633;    0,591
281,931; 1952,346;   -0,087;   -1,318
282,528; 2102,282;    0,822;   -0,500
283,124; 2438,863;   -1,087;   -0,500
283,721; 2387,071;   -0,451;    1,409
284,317; 2253,135;    0,185;    2,500
284,913; 2608,951;   -1,360;    0,591
285,510; 2984,042;    0,640;   -0,318
286,106; 2854,729;   -2,269;   -0,955
286,703; 2463,784;   -0,360;    1,955
287,299; 2593,767;   -1,451;   -0,591
287,895; 2760,255;    0,822;   -1,045
288,491; 3040,898;    0,186;    2,136
289,088; 3063,510;   -2,360;    2,409
289,684; 3116,979;   -1,723;    1,500
290,280; 3286,636;    0,368;    0,682
290,876; 3384,102;    1,822;    5,500
291,472; 3393,361;    1,276;    2,227
292,068; 3513,094;    1,367;    0,227
292,665; 3369,767;    2,095;    0,773
293,261; 3319,839;    0,276;    2,136
293,857; 3585,089;    2,913;    2,136
294,453; 3619,537;    3,550;    0,955
295,049; 3728,466;   -0,268;    1,955
295,644; 3795,729;    0,095;    0,136
296,240; 3788,686;   -0,905;   -0,136
296,836; 3986,034;   -0,995;    0,318
297,432; 4254,051;    1,096;   -0,500
298,028; 4422,839;    0,732;    0,773
298,624; 4643,581;    1,459;    1,864
299,220; 4838,635;    2,368;    0,591
299,815; 4692,250;    1,005;   -0,409
300,411; 4686,466;    0,914;    1,773
301,007; 4762,019;    1,368;    0,227
301,602; 4765,732;   -0,541;   -2,318
302,198; 4951,102;    0,732;   -0,773
302,794; 5241,239;    1,187;   -0,500
303,389; 5352,059;   -1,177;    1,045
303,985; 5428,303;    0,550;    1,409
304,580; 5426,692;    1,459;    1,591
305,176; 5437,163;   -3,086;    0,136
305,771; 5384,473;   -1,268;   -1,227
306,367; 5440,630;    4,095;    0,136
306,962; 5578,459;    0,641;    1,500
307,558; 5337,943;   -0,450;    0,136
308,153; 5280,800;    1,095;   -1,136
308,748; 5401,129;   -0,814;    1,682
309,344; 5443,297;   -0,632;   -1,318
309,939; 5562,048;   -1,905;   -1,318
310,534; 5602,899;   -0,086;   -1,682
311,130; 5491,645;    0,459;   -2,500
311,725; 5229,288;    1,004;   -0,500
312,320; 5445,430;    2,459;    0,045
312,915; 5421,627;    1,459;   -1,045
313,510; 5454,137;    1,550;   -0,500
314,105; 5643,476;    1,096;    1,409
314,700; 5145,482;   -3,086;   -1,045
315,295; 4961,329;   -0,904;    0,045
315,890; 4668,367;    1,277;    0,864
316,485; 4809,562;   -0,359;   -0,318
317,080; 4846,733;   -3,086;    1,591
317,675; 5175,794;    2,005;   -0,682
318,270; 4895,379;    5,550;    3,318
318,865; 4869,196;    3,278;    3,045
319,460; 4650,883;   -0,904;    0,591
320,055; 4761,704;   -0,541;   -1,227
320,650; 4520,397;   -1,995;   -0,591
321,244; 4548,981;   -0,177;   -1,409
321,839; 5086,666;   -1,541;   -0,227
322,434; 4972,975;   -1,086;   -1,591
323,029; 4780,322;    1,732;    1,591
323,623; 4661,947;    1,550;    0,773
324,218; 4606,680;    2,368;    1,409
324,812; 4523,603;    1,096;    1,591
325,407; 4453,338;   -0,814;    2,045
326,002; 4446,581;    0,277;   -0,409
326,596; 4640,116;    0,914;    1,318
327,191; 4725,578;    0,823;   -1,045
327,785; 4540,662;   -0,813;   -0,227
328,379; 4787,154;    1,368;    0,136
328,974; 4621,457;    0,914;   -3,955
329,568; 4936,816;    0,186;   -2,409
330,163; 4906,445;    2,096;    1,045
330,757; 5161,534;    2,459;    1,591
331,351; 4813,283;    0,459;    0,682
331,945; 5103,692;    0,914;    1,409
332,540; 5002,102;   -1,723;   -0,591
333,134; 5143,232;   -1,086;    0,773
333,728; 5334,435;    0,005;    0,318
334,322; 5644,728;   -1,177;   -0,864
334,916; 5224,573;    0,277;    0,955
335,510; 5563,858;   -0,450;   -0,136
336,105; 5871,850;   -1,086;    1,591
336,699; 5691,195;   -1,086;    0,591
337,293; 5747,996;   -1,723;    0,318
337,887; 5906,824;   -2,723;    1,955
338,481; 6100,677;    0,459;    0,591
339,074; 6349,754;   -0,359;    2,682
339,668; 6328,720;   -1,632;    1,227
340,262; 6704,899;    1,732;    3,227
340,856; 6322,914;    1,822;   -0,682
341,450; 5916,890;    1,004;    1,864
342,044; 6662,359;    1,459;    0,136
342,637; 6591,180;    0,913;   -2,136
343,231; 6558,066;   -2,360;    0,682
343,825; 6562,922;   -1,086;   -0,591
344,419; 6674,151;   -1,995;    0,500
345,012; 6708,448;    2,459;    4,045
345,606; 6740,777;    4,641;    1,591
346,199; 6636,070;   -1,813;   -0,227
346,793; 6363,127;    1,914;    2,045
347,386; 6579,663;   -0,813;   -1,136
347,980; 6567,967;   -0,268;   -0,045
348,573; 6489,106;    2,278;    0,409
349,167; 6342,335;    5,278;    4,773
349,760; 6679,640;    2,914;    2,682
350,354; 6646,999;   -0,813;    1,136
350,947; 6461,954;    1,096;    1,682
351,540; 6233,710;   -0,358;   -1,409
352,134; 6187,579;    1,096;    1,136
352,727; 6277,236;   -0,086;    1,136
353,320; 6154,704;    0,005;    0,591
353,913; 6002,921;   -1,995;    1,864
354,507; 6149,198;    0,823;   -1,227
355,100; 6198,193;    0,460;    0,864
355,693; 5693,438;    2,005;    2,409
356,286; 5668,578;    0,823;    2,773
356,879; 5926,186;   -0,722;    1,227
357,472; 5613,947;   -0,904;    1,500
358,065; 5780,268;   -0,722;    2,500
358,658; 5669,458;   -0,540;    2,318
359,251; 5378,096;   -1,631;   -0,591
359,844; 5037,356;   -1,904;   -1,136
360,437; 5225,800;   -2,995;    0,045
361,030; 5387,248;    1,369;   -0,682
361,623; 5062,985;    2,824;    0,318
362,215; 5070,478;   -0,086;    2,045
362,808; 4915,028;   -2,358;   -1,682
363,401; 5038,858;   -2,449;    0,136
363,994; 4909,457;   -0,631;   -1,500
364,586; 4799,830;    0,824;   -1,500
365,179; 4923,301;   -0,449;   -1,136
365,772; 4493,958;   -1,995;    2,045
366,364; 4666,248;    1,915;   -3,227
366,957; 4854,942;    2,279;   -0,045
367,549; 4792,963;    2,188;   -0,864
368,142; 4555,945;    1,825;   -1,500
368,734; 4678,393;    0,734;   -2,136
369,327; 4645,378;    1,643;   -0,500
369,919; 4568,142;   -1,538;    0,409
370,512; 4452,955;   -1,083;   -0,500
371,104; 4276,769;   -0,901;    1,591
371,696; 4423,178;    1,191;   -0,955
372,289; 4423,374;    0,373;    1,136
372,881; 4491,168;   -2,080;    1,318
373,473; 4399,190;   -2,170;    1,136
374,066; 4288,788;   -0,169;    0,500
374,658; 4185,255;    0,378;    1,136
375,250; 4374,548;    0,653;   -1,409
375,842; 4268,729;    0,473;   -0,045
376,434; 4165,554;   -0,435;   -0,409
377,026; 4550,266;    0,204;   -2,500
377,618; 4470,107;   -0,158;   -0,682
378,210; 4343,333;   -0,338;   -1,955
378,802; 4188,548;    0,754;   -0,591
379,394; 4273,572;    1,846;    0,682
379,986; 4596,105;    1,393;   -0,955
380,578; 4652,872;   -0,153;    0,773
381,170; 4227,611;   -0,972;    0,045
381,762; 4159,252;    0,755;    1,409
382,354; 4253,478;   -0,065;   -1,318
382,945; 4299,464;   -2,976;    0,318
383,537; 4398,799;   -2,705;   -1,955
384,129; 4462,737;   -2,160;   -1,136
384,721; 4572,385;   -0,252;    0,955
385,312; 4446,172;   -0,161;   -0,955
385,904; 4566,301;   -2,706;    1,591
386,496; 4068,276;   -0,979;    1,045
387,087; 4202,503;    1,022;    2,500
387,679; 4200,573;   -1,160;    0,045
388,270; 4317,283;    2,840;    2,045
388,862; 4399,234;    1,295;   -0,318
389,453; 4221,954;   -0,887;    1,045
390,045; 4449,924;   -0,705;   -2,682
390,636; 4391,509;    0,204;   -0,591
391,227; 4292,353;   -0,523;   -0,045
391,819; 4395,365;    0,204;    0,773
392,410; 4461,807;    1,022;    0,045
393,001; 4409,436;   -0,979;   -1,591
393,593; 4569,932;    1,930;   -0,045
394,184; 4479,983;    1,385;   -0,409
394,775; 4310,923;    1,839;    2,136
395,366; 4538,503;    1,385;    0,773
395,957; 4477,748;    0,113;    0,136
396,548; 4700,313;   -0,342;    2,682
397,139; 4953,284;   -2,433;    0,591
397,730; 4711,380;   -1,888;    0,955
398,321; 4763,852;   -1,252;    0,955
398,912; 4725,798;   -0,615;    0,136
399,503; 4838,918;   -3,524;   -1,409
400,094; 4434,687;    0,294;    1,682
400,685; 4346,061;   -0,433;    0,045
401,276; 4349,964;    0,930;   -0,955
401,867; 4563,888;   -0,888;    0,773
402,458; 4610,932;   -2,251;   -2,318
403,048; 4632,802;    1,112;    0,591
403,639; 4280,233;    0,840;    0,864
404,230; 4566,016;    2,476;    0,318
404,821; 4496,372;   -0,615;    0,045
405,411; 4513,234;    1,203;   -2,591
406,002; 4202,834;   -1,252;   -1,136
406,592; 4179,853;    2,294;    0,045
407,183; 4275,908;    0,566;   -1,500
407,774; 4178,595;    3,475;   -0,136
408,364; 4349,648;    0,930;    0,409
408,954; 4107,262;    0,384;    1,227
409,545; 4119,624;    1,021;    1,045
410,135; 3710,554;    1,293;    0,500
410,726; 3764,712;    1,838;    0,318
411,316; 4016,382;    0,111;    0,773
411,906; 3730,884;   -0,253;   -0,409
412,497; 3392,160;   -1,070;   -0,045
413,087; 3696,949;   -1,980;   -0,227
413,677; 3878,288;   -0,707;    3,864
414,267; 3723,437;    0,656;    1,409
414,857; 3609,714;   -2,980;    4,227
415,448; 3741,165;    0,839;    0,500
416,038; 3492,836;    0,020;   -0,591
416,628; 3403,832;   -0,889;    0,409
417,218; 3179,721;    0,565;    3,318
417,808; 3268,634;    0,202;   -0,409
418,398; 3326,484;    0,020;    2,682
418,988; 3196,911;    2,020;    0,591
419,578; 3245,171;   -0,707;    1,409
420,168; 3409,976;   -1,343;   -0,955
420,757; 3172,651;   -1,343;   -1,500
421,347; 2849,928;    0,111;   -0,227
421,937; 2858,592;    2,292;    1,409
422,527; 2859,511;    0,838;   -0,773
423,116; 2774,968;   -0,253;   -0,045
423,706; 2738,129;   -1,889;    0,318
424,296; 2571,673;    1,384;    0,682
424,885; 2842,400;   -0,071;   -3,045
425,475; 2857,684;    1,474;   -2,864
426,065; 2660,895;   -0,980;   -0,318
426,654; 2500,532;   -0,435;   -0,318
427,244; 2686,717;    0,020;    1,409
427,833; 2401,530;    1,383;   -0,500
428,423; 2368,220;   -0,526;    1,136
429,012; 2589,877;   -0,344;   -1,136
429,601; 2398,009;   -1,344;    0,136
430,191; 2319,565;    1,292;    4,318
430,780; 2041,646;   -0,344;   -0,409
431,369; 2255,009;    0,746;   -0,045
431,959; 2352,135;   -1,254;    0,500
432,548; 2091,258;   -1,163;   -0,045
433,137; 2007,358;   -1,254;   -1,318
433,726; 2192,988;    0,292;    0,500
434,315; 1958,509;   -0,526;    2,409
434,905; 2027,661;   -1,254;    1,409
435,494; 2047,949;    0,746;    0,955
436,083; 1919,779;   -0,981;   -0,955
436,672; 1825,152;    0,110;    0,500
437,261; 1726,865;    0,292;   -1,955
437,850; 2018,463;    1,383;    0,682
438,439; 1963,733;    3,291;    1,955
439,027; 1991,739;    3,655;    1,773
439,616; 1949,602;    2,927;    1,227
440,205; 1588,285;    0,200;   -2,136
440,794; 1415,061;    2,109;   -0,045
441,383; 1305,230;   -1,346;   -0,591
441,971; 1159,046;   -2,436;    0,591
442,560; 1106,094;    0,563;   -1,773
443,149;  952,971;    0,379;   -1,318
443,737; 1022,181;   -0,074;   -2,318
444,326;  999,005;    0,018;    0,318
444,915; 1032,850;   -1,982;    0,864
445,503; 1026,479;   -2,891;   -0,318
446,092; 1307,485;    0,382;    2,136
446,680; 1217,041;    0,382;    0,318
447,269; 1090,017;   -0,346;   -0,318
447,857;  973,305;    0,018;   -1,773
448,445;  876,704;    0,563;    1,318
449,034;  806,185;   -1,528;   -1,136
449,622;  753,731;   -1,073;    3,500
450,210; 1200,218;    2,017;    2,227
450,799; 1052,041;    0,290;   -0,591
451,387;  898,259;    1,381;   -0,591
451,975;  853,797;    2,654;    0,864
452,563;  983,662;    3,472;    2,318
453,151;  651,047;   -0,528;   -1,227
453,739;  715,865;   -1,347;    0,136
454,328;  903,279;    2,381;   -2,136
454,916;  746,413;    2,562;   -0,136
455,504;  727,159;    1,017;    1,227
456,092;  551,453;    0,017;   -1,591
456,679;  450,061;    1,472;    0,682
457,267; 1083,076;    4,017;    1,045
457,855;  578,691;    1,017;    1,409
458,443;  331,345;   -0,165;    1,682
459,031;  636,788;    0,108;    2,409
459,619;  553,930;   -1,801;    2,864
460,206;  372,876;    0,835;    2,045
460,794;  370,281;   -2,983;   -0,227
461,382;  459,788;   -0,529;   -0,864
461,970;  418,545;    1,198;    1,864
462,557;  288,029;   -0,711;   -0,682
463,145;  495,899;   -3,165;   -1,682
463,732;  828,559;    2,016;   -1,045
464,320;  483,244;   -0,075;   -3,045
464,907;  687,843;    2,743;   -0,773
465,495;  560,667;    0,743;   -1,227
466,082;  418,727;   -1,984;   -0,045
466,670;  433,730;   -2,529;    1,227
467,257;  267,283;   -1,711;    2,045
467,844;  423,593;   -0,075;    0,045
468,432;  391,535;    0,834;    3,500
469,019;  297,617;    0,925;   -1,773
469,606;  393,483;    0,470;    3,682
470,193;  445,116;   -1,439;    0,227
470,780;  392,791;   -2,075;    0,864
471,368;  263,744;   -1,257;   -0,773
471,955;  407,556;    1,379;   -0,682
472,542;  341,515;    0,652;   -1,136
473,129;  159,529;   -0,166;    0,136
473,716;  161,948;    1,470;    0,591
474,303;  205,859;    0,652;   -0,864
474,890;  213,924;   -1,439;   -0,500
475,477;  325,358;   -1,621;    0,409
476,064;  191,198;    1,106;   -1,591
476,650;  340,178;    0,288;    0,318
477,237;  230,633;   -0,258;    0,955
477,824;  177,577;   -1,076;    0,864
478,411;   60,574;   -1,894;   -0,318
478,997;   49,682;    0,560;   -0,773
479,584;  -26,508;    1,196;   -0,409
480,171;  203,756;   -0,440;   -0,773
480,757;  283,352;    2,651;    0,773
481,344;  131,454;    0,469;    0,409
481,931;   12,302;    1,105;    1,045
482,517;  161,640;   -1,258;    0,318
483,104;  257,734;    1,106;    2,864
483,690;  109,555;   -1,804;    0,045
484,276;   76,965;   -0,895;    0,227
484,863;  321,137;    2,469;    1,136
485,449;  132,342;   -0,077;    0,318
486,035;   74,830;   -1,986;   -0,136
486,622;  191,178;   -0,895;    0,045
487,208;   89,613;    1,378;    1,500
487,794;   -3,343;    0,741;    0,318
488,380;   -3,337;    0,105;   -1,409
488,967;    5,601;   -1,168;   -0,409
489,553;   20,075;   -1,895;   -1,409
490,139;  116,500;    1,559;    0,773
490,725;   28,322;    0,741;   -0,227
491,311;   81,288;    3,287;    3,045
491,897;   47,199;   -0,986;    1,500
492,483;   59,963;    0,105;    1,227
493,069;  569,990;    3,923;    0,864
493,655;  245,761;    1,650;    0,682
494,241;  102,909;    1,377;   -0,955
494,826;  131,619;    0,287;   -1,045
495,412;  213,468;    2,559;   -0,682
495,998;  100,324;   -0,805;   -0,318
496,584;  202,072;    0,377;    1,045
497,169;  223,868;    1,014;   -0,682
497,755;  142,410;    0,650;    1,227
498,341;  361,140;    0,559;    0,318
498,926;  538,849;    1,832;    1,955
499,512;  217,665;    1,286;    2,955
500,097;  250,004;    0,195;   -0,318
500,683;  299,904;   -0,350;    2,136
501,268;  251,390;   -0,169;   -0,955
501,854;  324,460;   -0,169;    1,227
502,439;  331,571;   -0,624;   -1,773
503,024;  502,889;    0,195;    0,500
503,610;  615,100;   -0,078;   -0,682
504,195;  511,593;    0,558;    1,955
504,780;  760,393;    2,922;    1,227
505,366; 1025,480;    3,013;    2,864
505,951;  992,287;    0,740;    1,045
506,536; 1008,404;   -3,260;   -3,682
507,121; 1198,152;    0,285;   -0,318
507,706; 1372,246;    2,376;    1,045
508,291; 1511,287;    2,649;    1,136
508,876; 1640,631;   -0,988;    2,591
509,461; 1823,798;   -0,169;   -0,773
510,046; 2225,916;    0,194;    0,318
510,631; 2533,358;   -0,351;   -0,773
511,216; 2708,883;    2,467;   -0,500
511,801; 3265,284;   -0,442;    2,591
512,386; 3660,152;    0,740;    0,500
512,971; 4009,991;   -2,988;    0,955
513,555; 4219,310;   -0,897;   -1,500
514,140; 5015,982;   -0,442;   -3,136
514,725; 5330,248;   -0,715;   -1,136
515,309; 5810,971;   -0,533;    0,318
515,894; 5964,666;   -0,624;   -2,227
516,479; 6670,128;   -0,624;   -0,955
517,063; 6846,940;    0,376;    1,227
517,648; 7384,307;    1,012;   -1,136
518,232; 7359,101;   -0,261;   -1,409
518,817; 8034,617;   -0,079;    1,682
519,401; 8595,946;    2,194;    0,591
519,985; 8446,576;    1,103;    1,136
520,570; 8686,529;    0,830;   -1,955
521,154; 9226,145;    2,102;    0,591
521,738; 9617,257;   -2,352;    2,409
522,323;10414,141;   -0,170;    1,682
522,907;10421,043;    0,466;   -0,136
523,491;10425,863;    0,557;    0,955
524,075;10624,379;    2,284;    0,591
524,659;10898,397;    1,466;    0,591
525,243;10587,613;    1,739;    0,409
525,827;10979,622;    0,648;   -0,045
526,411;11878,761;   -1,989;   -0,136
526,995;12204,829;   -0,352;    1,409
527,579;11969,311;   -0,443;   -1,045
528,163;12395,535;    0,375;   -1,500
528,747;12437,986;    2,466;   -0,773
529,331;12828,922;   -0,080;   -1,409
529,915;13112,567;    1,738;    0,955
530,499;13149,991;   -0,807;    1,227
531,082;12919,491;   -0,534;    1,591
531,666;12460,039;    1,374;    0,773
532,250;13144,411;    1,284;    2,682
532,833;13527,823;    0,920;    2,773
533,417;13447,310;   -1,807;    0,864
534,001;13468,536;    1,647;   -0,318
534,584;14192,674;    0,374;    0,500
535,168;14075,672;    0,465;    1,409
535,751;14158,889;    0,647;    0,045
536,334;13630,350;   -0,898;   -0,409
536,918;14275,288;    0,011;    1,591
537,501;14455,116;   -0,899;    1,318
538,085;14438,212;   -0,444;    1,045
538,668;14626,365;    0,829;    2,409
539,251;14946,518;    1,829;    3,773
539,834;14989,788;    0,101;    0,773
540,418;14940,475;   -1,990;    4,318
541,001;15046,439;   -0,990;    1,773
541,584;15055,625;    2,101;    2,227
542,167;14762,327;    1,374;    2,955
542,750;14950,728;    1,919;   -0,773
543,333;14557,904;    0,555;    2,136
543,916;15303,645;    0,192;    2,500
544,499;15925,804;   -1,354;    0,227
545,082;15935,594;    1,374;    3,591
545,665;16046,346;    1,919;    1,500
546,248;16419,904;    1,010;   -0,318
546,830;16088,779;   -0,445;    1,955
547,413;16526,674;    1,010;   -0,773
547,996;17050,290;    0,555;    0,500
548,579;16835,999;    0,919;    0,955
549,161;16673,243;    1,828;    2,682
549,744;16427,135;   -0,809;    0,409
550,326;16938,136;   -0,809;   -1,136
550,909;16707,570;    2,737;    0,591
551,492;17111,041;   -0,263;    0,227
552,074;16925,425;   -0,173;   -1,318
552,657;17413,123;    2,373;    0,045
553,239;17229,217;   -0,173;   -0,773
553,821;17148,839;   -1,082;    1,045
554,404;16654,273;    1,282;    1,136
554,986;17008,827;    0,464;    1,045
555,568;17624,831;    1,191;   -0,955
556,151;16836,802;    1,191;   -0,227
556,733;17080,642;   -0,264;   -0,864
557,315;17520,484;    0,100;    0,500
557,897;17341,359;    0,554;   -0,500
558,479;17473,573;   -1,991;    1,318
559,061;17598,687;   -0,719;   -0,864
559,643;17937,918;   -0,264;    0,045
560,225;18287,621;    1,645;    2,864
560,807;18338,373;    0,918;    0,318
561,389;17837,710;    0,554;    2,318
561,971;18535,920;    0,463;    2,136
562,553;18361,991;   -1,628;    1,591
563,135;18467,019;   -0,537;    1,136
563,717;18035,988;    3,372;    1,136
564,298;18744,389;    3,645;   -0,045
564,880;18517,027;    0,645;   -1,409
565,462;18660,209;    0,645;    1,318
566,043;19755,124;   -0,446;    2,318
566,625;19308,123;    1,918;    1,227
567,207;19166,591;    1,099;    1,682
567,788;20222,140;   -1,264;    1,500
568,370;21088,492;    1,917;   -0,500
568,951;20859,024;    0,190;    0,227
569,533;21732,593;   -0,628;   -0,500
570,114;22171,070;   -0,446;    0,682
570,695;22619,645;   -0,174;   -1,318
571,277;23090,290;   -0,265;   -1,682
571,858;23790,495;    2,008;   -1,136
572,439;24685,818;    1,554;   -1,045
573,021;24818,706;    2,099;   -2,773
573,602;25309,242;   -1,265;    0,318
574,183;26146,858;   -2,083;    2,227
574,764;26278,279;   -1,629;    0,409
575,345;26813,560;    0,917;   -0,136
575,926;27471,178;   -0,356;    0,136
576,507;27456,060;    1,099;   -0,227
577,088;28489,302;    3,099;    1,682
577,669;28512,376;    0,735;    1,955
578,250;29231,130;    0,644;   -1,045
578,831;29856,762;   -1,356;   -2,227
579,412;30083,984;   -0,810;    0,955
579,993;31013,319;    1,008;    0,227
580,573;31338,623;   -0,629;   -0,955
581,154;30356,499;    0,735;   -0,591
581,735;31203,163;    0,644;    0,773
582,315;30677,800;   -0,629;    2,136
582,896;30951,825;   -0,174;    1,227
583,477;30502,479;    0,189;    1,227
584,057;30684,198;    0,553;    0,955
584,638;30966,046;    2,553;    2,318
585,218;30915,287;   -0,538;    2,682
585,799;31088,130;    0,281;   -0,227
586,379;31138,938;    0,372;    1,591
586,959;29946,010;    0,735;    0,318
587,540;29269,213;   -0,629;    2,227
588,120;28878,083;    1,007;   -0,045
588,700;27882,187;    2,553;    2,136
589,281;28170,926;    0,462;   -0,955
589,861;28072,870;    0,099;   -1,682
590,441;27908,200;    2,371;   -2,682
591,021;26914,773;   -0,265;   -2,591
591,601;27204,054;   -0,537;    0,500
592,181;27208,628;   -0,719;   -0,773
592,761;26503,192;    0,007;    1,409
593,341;26402,706;   -0,901;    0,045
593,921;26401,271;   -0,265;    1,591
594,501;26304,677;   -0,538;    1,318
595,081;26130,300;    0,917;   -0,318
595,661;26509,823;   -1,447;    0,955
596,240;27018,267;   -0,537;    0,136
596,820;26634,556;    0,372;    1,955
597,400;26842,397;    2,008;    0,773
597,980;27077,110;    2,008;    1,045
598,559;27083,395;    2,735;   -0,227
599,139;26789,490;   -0,174;   -1,227
599,718;26691,309;   -0,174;   -0,409
600,298;26960,244;    0,735;    0,682
600,877;27156,839;    2,917;    1,409
601,457;27443,037;    2,281;    1,136
602,036;27327,145;    0,190;    2,045
602,616;27542,018;    0,644;    1,682
603,195;27837,491;   -0,355;    3,500
603,774;27412,647;   -0,901;    2,045
604,354;27289,072;    0,826;   -0,500
604,933;26816,234;    0,463;    1,864
605,512;26956,226;    3,554;    0,591
606,091;27002,092;   -0,537;    3,773
606,671;27850,826;    0,281;    0,773
607,250;26871,191;    1,644;    3,136
607,829;27172,992;    2,372;    3,227
608,408;27022,696;    1,190;    2,591
608,987;26063,946;    1,281;    3,409
609,566;26395,551;   -1,265;   -2,500
610,145;26490,827;   -1,082;    0,682
610,723;26855,406;    4,372;    6,864
611,302;26143,939;   -0,446;    1,682
611,881;25710,036;    5,008;   11,227
612,460;26579,462;    1,645;    3,955
613,039;26972,751;   -0,082;    2,045
613,617;25691,389;    1,736;    4,773
614,196;25889,675;    1,099;    1,227
614,775;26211,809;    1,009;    2,409
615,353;26138,589;    0,736;    0,864
615,932;25888,561;    0,100;    2,409
616,510;26484,718;    0,554;    0,591
617,089;25998,532;    7,100;   17,591
617,667;25732,561;    2,372;    6,136
618,246;25629,947;   -1,537;    1,318
618,824;25760,737;   -3,355;   -0,955
619,402;25344,920;   -2,900;   -1,773
619,981;25810,092;   -0,173;   -1,045
620,559;25735,146;    0,009;    1,682
621,137;25299,665;   -0,718;    1,864
621,715;25278,335;   -1,173;   -0,682
622,293;25228,361;   -0,537;   -0,773
622,871;25651,029;   -0,718;    0,500
623,450;25245,194;    0,373;   -0,864
624,028;25153,357;    0,191;   -0,955
624,606;24770,198;   -1,718;    1,682
625,183;25168,248;   -1,536;   -1,136
625,761;24767,974;    1,009;    1,136
626,339;25096,080;    1,373;    2,591
626,917;25485,413;   -0,172;   -0,045
627,495;25570,901;   -0,354;    1,318
628,073;24981,647;   -0,263;    2,864
628,650;24671,544;    0,100;    2,136
629,228;25094,494;    0,373;    4,409
629,806;24503,636;    2,282;    1,136
630,383;24783,956;    1,464;   -0,318
630,961;24559,848;    2,555;   -0,955
631,539;24321,197;    2,464;    0,227
632,116;23614,667;   11,373;   15,409
632,694;24231,412;    2,555;    6,500
633,271;24522,328;    0,828;    2,682
633,848;24413,066;    1,828;    2,045
634,426;24506,745;   -1,081;    1,773
635,003;23675,869;    1,101;   -0,409
635,580;23912,594;    1,192;    3,682
636,158;24459,766;    3,737;    1,227
636,735;24491,541;    0,555;   -0,500
637,312;24669,039;   -0,809;   -0,682
637,889;24713,983;   -4,354;   -0,682
638,466;24200,044;   -3,990;   -0,409
639,043;24217,780;    2,101;   -1,136
639,620;24504,112;   -2,262;   -0,955
640,197;24840,885;    1,100;    1,682
640,774;25002,842;   -0,172;    1,136
641,351;25377,252;    0,737;    1,136
641,928;24795,481;   -0,627;    1,409
642,505;24408,801;    0,828;   -0,500
643,082;24573,393;   -1,718;    1,227
643,658;23598,168;   -0,718;    1,500
644,235;24381,397;    1,191;    2,500
644,812;24613,898;    1,918;    0,773
645,388;24352,309;   -0,991;    1,409
645,965;24477,447;   -0,809;    1,682
646,542;24554,585;   -1,445;   -0,227
647,118;24565,178;    1,009;   -0,955
647,695;24830,861;   -0,263;    1,136
648,271;24683,635;   -0,536;    0,500
648,848;25041,319;    0,736;    2,227
649,424;24881,093;    0,827;    1,318
650,000;24645,958;   -0,354;   -1,045
650,577;24411,006;   -0,627;   -0,955
651,153;24877,144;   -1,809;    0,955
651,729;25915,009;    1,191;    0,864
652,305;26022,692;    0,645;    2,773
652,881;29979,558;   -0,082;    1,136
653,458;36477,059;    1,100;    0,227
654,034;40309,288;    0,282;    1,591
654,610;41881,426;    0,554;    0,773
655,186;43159,473;    0,645;    3,045
655,762;42850,520;   -0,991;    0,409
656,338;42915,022;    0,100;    0,136
656,913;43922,887;   -0,082;    0,409
657,489;43128,934;    0,827;   -0,318
658,065;43136,072;   -0,173;   -1,591
658,641;43787,392;   -0,900;   -0,864
659,217;43114,894;   -0,991;    0,409
659,792;42461,850;    0,645;   -0,409
660,368;42750,442;   -2,173;   -0,682
660,944;42585,489;   -2,082;    1,227
661,519;38427,355;   -0,628;    0,409
662,095;32795,129;   -1,719;    0,591
662,670;28182,358;    1,281;   -0,136
663,246;26923,587;    1,009;   -0,409
663,821;26213,543;    0,281;    1,682
664,396;25704,136;    0,009;    1,864
664,972;25919,001;    0,009;   -0,500
665,547;26212,139;    1,372;    0,136
666,122;26261,549;   -1,082;    0,318
666,698;26524,324;   -0,173;    0,318
667,273;25890,371;   -0,173;    0,136
667,848;26671,873;    2,372;    1,500
668,423;26458,829;    2,190;    2,318
668,998;27018,694;    2,827;   -0,682
669,573;27573,287;   -3,264;   -1,500
670,148;27395,334;   -1,446;   -0,682
670,723;27197,290;   -1,810;    0,318
671,298;27624,155;    2,372;    1,045
671,873;27787,384;   -0,082;   -0,136
672,448;27712,431;    0,645;    0,136
673,023;27996,387;   -1,992;   -0,227
673,597;28323,707;    0,827;    2,318
674,172;28100,481;   -0,355;    0,318
674,747;27608,892;    0,372;   -1,045
675,321;27465,666;   -0,628;    3,318
675,896;27003,714;    0,645;    1,045
676,471;28032,579;    2,645;    1,591
677,045;27811,990;   -1,264;    0,682
677,620;27817,855;    0,190;    1,136
678,194;28144,175;   -2,628;    1,136
678,769;27692,131;   -1,083;   -0,318
679,343;27939,814;   -0,628;    1,773
679,917;27773,861;   -1,446;    1,955
680,492;27928,636;    0,826;    3,227
681,066;28032,228;    3,372;    0,409
681,640;28086,093;    1,463;   -0,318
682,214;28906,050;    0,735;    0,500
682,788;28397,369;   -1,356;   -0,773
683,363;28341,507;   -1,810;    1,682
683,937;28065,373;   -1,719;   -0,318
684,511;28797,965;    0,463;   -0,591
685,085;28488,740;   -1,356;    0,318
685,659;28251,968;   -2,538;    0,864
686,232;28539,834;   -0,356;   -0,318
686,806;28280,608;   -0,901;    0,409
687,380;28916,292;   -0,174;    0,591
687,954;29134,248;   -1,174;    1,136
688,528;28797,840;   -0,719;    1,955
689,101;29593,615;   -3,992;    1,045
689,675;29179,480;   -0,356;   -0,136
690,249;28543,254;   -0,719;    0,409
690,822;28827,665;    0,280;    0,318
691,396;28969,439;   -0,265;    1,227
691,969;28439,577;    1,280;    0,136
692,543;28899,715;   -0,447;   -1,955
693,116;28564,126;   -0,265;   -1,409
693,690;28424,628;    0,099;    0,500
694,263;28969,038;   -1,083;    2,955
694,836;28994,722;    1,371;    3,591
695,410;27659,405;   -0,265;    1,773
695,983;28105,998;    0,189;    0,591
696,556;28065,863;   -0,447;   -1,045
697,129;28542,274;   -0,356;    1,409
697,703;28138,412;   -1,629;    1,955
698,276;28099,822;    1,462;   -0,773
698,849;27905,960;    1,280;    1,409
699,422;28315,917;   -1,083;    0,591
699,995;27976,782;    0,007;    0,136
700,568;28501,829;   -0,629;    3,045
701,140;28500,149;   -2,811;    1,682
701,713;28242,014;   -0,174;    2,409
702,286;27975,516;   -0,538;    0,864
702,859;27902,472;   -0,902;   -0,591
703,432;27042,610;    0,825;    0,682
704,004;27549,111;    0,462;    0,318
704,577;27428,159;   -0,629;    0,136
705,150;27984,842;    0,189;    2,500
705,722;27763,707;   -0,356;   -3,227
706,295;27534,572;   -0,175;   -0,591
706,867;27417,620;   -0,175;    1,955
707,440;27653,303;   -1,720;   -0,409
708,012;27879,986;    0,462;    0,591
708,584;27752,034;    2,462;    0,227
709,157;28096,353;    1,825;   -0,591
709,729;27752,946;    2,280;    2,045
710,301;28595,357;    0,734;    0,045
710,874;28589,586;   -1,447;   -0,227
711,446;27511,178;    0,371;    0,864
712,018;27380,589;    0,098;    0,500
712,590;27099,999;   -1,993;    1,682
713,162;27624,774;    0,825;    1,318
713,734;27909,185;    1,825;   -2,045
714,306;27827,504;   -1,902;   -0,409
714,878;26538,006;    0,825;    0,864
715,450;27329,053;    0,643;    0,864
716,022;27596,009;    1,552;    1,318
716,593;27723,056;    0,189;    0,591
717,165;27596,649;   -3,175;   -1,227
717,737;27297,332;    0,280;    0,409
718,309;26999,561;    0,280;   -0,045
718,880;26991,336;   -0,539;   -1,409
719,452;27204,564;   -0,175;   -1,591
720,024;26860,430;    0,734;   -0,591
720,595;27406,386;   -2,902;    0,955
721,167;26934,888;    0,370;   -2,045
721,738;26415,753;   -0,812;   -1,045
722,309;26382,436;   -0,993;   -1,227
722,881;26203,847;   -1,357;    0,773
723,452;26822,894;   -2,630;    2,864
724,023;27029,577;   -0,721;    2,682
724,595;26760,715;    0,007;    0,682
725,166;26532,581;    0,007;   -0,409
725,737;26226,264;    1,734;    0,227
726,308;26299,948;   -0,266;    0,318
726,879;26696,449;   -1,630;    1,227
727,450;26535,496;    0,552;   -0,045
728,021;26544,271;    3,097;    0,682
728,592;26330,136;    0,734;    0,500
729,163;26658,456;    0,643;   -0,136
729,734;26665,139;    0,188;   -0,227
730,305;26962,186;    1,734;    0,136
730,876;27324,870;    0,188;    2,955
731,447;27101,280;    2,188;    2,682
732,017;27159,964;    1,097;    1,864
732,588;26657,011;    0,734;    1,227
733,159;26856,513;    0,643;   -1,045
733,729;26678,287;    0,006;    0,409
734,300;25939,607;    0,915;    0,864
734,870;26315,654;    3,461;    0,591
735,441;26889,701;    0,370;   -0,591
736,011;26695,112;    0,643;   -1,591
736,582;26666,159;   -0,812;    0,045
737,152;26112,933;   -1,721;   -2,045
737,722;26569,526;   -0,267;   -0,682
738,293;26257,300;   -1,358;    1,318
738,863;26129,165;    2,461;    2,318
739,433;25938,212;    5,279;    0,318
740,003;26607,714;   -0,994;   -0,682
740,573;26002,125;    2,097;   -1,591
741,143;25936,535;   -1,085;    0,318
741,713;26752,492;    1,188;   -0,500
742,283;26422,084;    0,915;    1,591
742,853;26187,131;    1,915;    1,591
743,423;25692,724;    1,733;    0,045
743,993;25870,953;   -0,358;    1,500
744,563;25224,909;    0,097;   -0,864
745,133;25153,138;   -0,812;   -0,864
745,702;25823,276;   -0,267;    1,773
746,272;25069,505;   -0,176;    0,591
746,842;24856,643;   -1,358;   -0,591
747,411;25220,871;   -0,267;   -0,318
747,981;25477,828;    0,097;    0,500
748,551;25506,875;    2,278;   -1,045
749,120;25354,922;    0,642;   -0,227
749,690;25729,787;   -0,631;    2,409
750,259;26076,834;    1,369;    2,955
750,828;25964,063;    1,551;   -1,955
751,398;26249,474;    1,278;   -0,045
751,967;25684,521;    2,187;    0,409
752,536;25981,932;   -0,813;   -0,227
753,105;26400,342;    0,096;    0,227
753,675;26164,480;    0,096;    1,773
754,244;26114,164;   -0,904;    3,591
754,813;26116,302;    0,551;    1,227
755,382;25755,894;    0,460;    0,955
755,951;26319,032;    1,551;    3,682
756,520;25796,261;   -0,085;    1,864
757,089;26367,490;    0,278;    0,500
757,658;26514,810;    1,733;    1,227
758,227;26487,584;    1,096;    0,318
758,795;26800,631;    1,187;    1,136
759,364;27056,224;   -0,086;   -0,591
759,933;26096,180;   -1,176;   -0,045
760,501;25663,773;    0,733;   -1,318
761,070;26067,547;   -2,813;   -1,409
761,639;26744,412;   -1,904;    1,318
762,207;26074,096;    1,551;   -0,955
762,776;26014,779;    0,369;    0,864
763,344;25989,281;   -0,995;    0,591
763,913;25130,782;   -0,722;    1,409
764,481;25819,829;    1,005;   -0,136
765,049;25641,422;   -1,358;    1,409
765,618;25509,287;   -0,086;    0,318
766,186;25561,607;    0,278;    0,136
766,754;25799,290;    0,005;    1,864
767,322;24828,792;   -1,995;    0,409
767,890;24869,476;   -0,722;   -1,773
768,459;25222,977;   -2,177;   -0,318
769,027;25396,024;    1,641;    3,409
769,595;24415,708;    3,278;    2,591
770,163;24794,664;    3,823;    2,955
770,730;24634,620;    0,732;   -0,136
771,298;24446,303;    0,187;   -1,409
771,866;24587,351;   -1,541;    4,955
772,434;24885,034;   -0,631;   -1,864
773,002;25049,081;    0,005;    0,682
773,569;24708,492;    0,914;    1,682
774,137;24555,357;   -0,268;   -0,045
774,705;25317,404;    0,278;   -0,136
775,272;24752,906;    0,641;    0,682
775,840;24536,044;   -0,177;    2,682
776,407;24106,091;    0,277;    1,955
776,975;23744,774;   -0,632;    0,318
777,542;24772,094;   -1,086;   -0,045
778,110;24594,141;   -1,268;   -0,045
778,677;24270,552;   -2,359;   -0,864
779,244;23979,690;    2,186;    1,045
779,812;24115,464;    1,823;    0,864
780,379;23992,511;    0,005;    1,136
780,946;24224,377;    1,005;   -0,773
781,513;24539,696;   -1,450;    0,318
782,080;23872,016;   -0,086;    2,864
782,647;24681,336;   -0,268;    3,045
783,214;24246,019;   -0,177;    3,864
783,781;23861,339;   -0,723;   -0,682
784,348;23766,205;   -0,632;    1,500
784,915;24251,979;   -3,177;    0,318
785,482;23959,208;    1,368;    2,591
786,049;24381,164;    0,186;   -0,591
786,615;24526,029;    0,277;   -0,955
787,182;24281,258;    0,186;   -0,682
787,749;23951,214;   -2,814;    1,409
788,315;23310,080;   -1,632;   -0,409
788,882;23628,036;    1,550;   -1,227
789,448;24246,083;    1,732;   -0,955
790,015;24317,766;    1,095;    3,227
790,581;23894,177;    1,459;    0,227
791,148;23723,770;    0,641;    1,045
791,714;23994,271;   -0,541;    3,136
792,280;23678,591;    0,186;    1,591
792,847;23215,183;    0,550;    2,500
793,413;23817,140;   -0,269;   -0,318
793,979;23353,187;    3,459;   -1,318
794,545;23428,870;    4,459;    2,682
795,111;22771,190;    2,186;    1,318
795,678;22988,419;    0,731;   -1,682
796,244;22610,830;    3,368;    0,136
796,810;23203,968;    1,731;    0,773
797,375;22928,106;    0,549;   -2,136
797,941;22950,880;   -0,541;    0,591
798,507;23073,563;   -0,451;   -0,955
799,073;22669,974;   -0,360;    0,591
799,639;22731,112;   -2,632;    3,136
800,205;22783,886;    0,095;    2,682
800,770;22341,934;    0,640;    1,773
801,336;22403,526;    1,368;   -0,955
801,901;22086,755;    4,549;    3,136
802,467;22711,529;   -0,542;    2,045
803,033;22013,758;   -0,087;    0,864
803,598;22220,169;    1,913;   -1,045
804,163;22284,125;    1,095;   -0,318
804,729;22262,627;   -0,178;    1,136
805,294;22623,765;    0,822;    2,227
805,859;22426,357;    0,731;   -0,409
806,425;21865,404;    1,186;    2,682
806,990;21537,633;    2,186;    4,318
807,555;22062,953;   -1,451;    2,591
808,120;21891,909;    0,822;   -0,409
808,685;21949,593;    0,185;   -2,500
809,250;21479,913;    0,004;   -0,500
809,815;21778,869;    1,913;    0,682
810,380;22289,643;   -0,269;    1,591
810,945;22841,690;   -1,087;    2,045
811,510;22042,374;    2,094;    1,591
812,075;21737,330;   -0,633;   -1,409
812,640;21751,286;    2,003;    1,409
813,204;21816,878;    0,822;   -0,227
813,769;22341,380;    2,094;   -0,045
814,334;21787,791;    0,458;    0,864
814,898;21823,292;    0,367;    0,591
815,463;21628,976;    1,276;   -0,773
816,027;21631,023;   -0,724;   -2,318
816,592;21709,343;    0,640;   -2,045
817,156;21276,844;    2,094;    1,136
817,721;21089,437;    4,276;    2,318
818,285;21025,484;    2,912;    1,500
818,849;21692,440;   -1,451;    1,682
819,414;21622,396;   -0,269;    2,955
819,978;21229,625;   -1,269;    1,773
820,542;21803,309;    2,003;    0,500
821,106;21452,265;   -0,815;    0,682
821,670;21563,403;   -0,815;    2,591
822,234;21285,904;   -0,270;    1,409
822,798;20699,406;    0,003;    0,500
823,362;20660,544;   -0,633;    4,227
823,926;19974,046;    0,094;    1,136
824,490;20195,729;   -0,997;   -0,682
825,054;20679,685;   -0,088;   -1,136
825,618;20268,551;   -1,542;   -1,500
826,181;20201,234;    0,458;   -1,318
826,745;20110,554;    1,367;   -1,045
827,309;20486,965;    1,185;    1,318
827,872;19909,648;    1,367;    0,955
828,436;20866,604;    1,185;   -0,773
828,999;20921,651;   -0,997;    1,227
829,563;19733,153;   -0,179;    1,136
830,126;19545,291;   -0,179;   -0,591
830,690;19556,702;   -1,997;    2,864
831,253;19040,385;   -0,543;    2,227
831,816;19213,978;   -1,906;    0,500
832,380;19144,025;    0,185;    0,864
832,943;19351,799;   -1,361;   -0,500
833,506;18871,210;    2,639;   -1,227
834,069;19634,257;    3,912;   -0,955
834,632;19709,395;    1,730;    1,318
835,195;19650,987;    1,003;    0,955
835,758;18827,580;   -0,997;    1,955
836,321;18682,082;    0,730;   -1,045
836,884;18792,583;   -0,725;   -0,955
837,447;18822,903;   -2,816;    1,773
838,010;19096,768;    0,366;    3,227
838,573;19354,543;   -1,179;    0,773
839,135;19338,771;   -1,361;   -0,955
839,698;18760,728;    1,275;    0,409
840,261;18312,047;    1,003;   -0,227
840,823;18175,549;   -0,543;    0,864
841,386;18488,596;   -0,452;   -2,409
841,948;18313,643;   -1,361;    1,773
842,511;18041,872;    0,912;    1,682
843,073;18178,556;    1,912;    0,227
843,636;18043,057;   -0,361;   -0,227
844,198;17932,741;    0,911;    0,591
844,760;18070,970;    1,093;    1,955
845,322;17750,471;    0,548;    1,136
845,885;18165,882;    0,730;    0,591
846,447;18583,293;   -1,998;    0,227
847,009;18099,794;    1,911;   -0,682
847,571;18449,478;    0,820;   -2,045
848,133;18569,707;   -1,089;   -1,864
848,695;18431,936;   -0,543;    1,409
849,257;17993,164;   -1,089;   -1,682
849,819;18139,848;   -0,998;   -0,409
850,381;18185,895;   -0,725;   -0,864
850,942;18559,578;    1,093;   -0,591
851,504;18487,625;    1,184;    0,227
852,066;18509,854;    1,275;   -1,591
852,628;18049,083;   -0,180;    1,955
853,189;17603,676;    1,638;    2,682
853,751;17733,723;   -0,907;    1,409
854,312;17561,043;   -0,453;   -1,682
854,874;18028,090;   -2,089;   -0,773
855,435;18564,319;   -0,907;   -1,682
855,997;18757,548;   -1,816;   -0,136
856,558;18004,322;    0,366;    1,773
857,119;18126,278;    0,820;    2,864
857,681;17820,052;    0,002;    0,318
858,242;17863,918;    1,911;   -2,136
858,803;18276,056;    0,456;   -0,773
859,364;18858,103;    0,184;   -4,773
859,925;18172,514;   -2,453;   -0,955
860,486;18093,197;   -0,453;   -0,955
861,047;17822,335;   -0,544;   -1,227
861,608;17641,655;   -1,089;   -0,773
862,169;17770,065;    0,638;   -0,045
862,730;17555,567;    0,456;    1,409
863,291;17771,705;   -0,635;   -0,500
863,852;18163,934;   -0,635;    1,955
864,412;17630,254;   -0,271;   -0,864
864,973;16230,483;   -0,089;    0,500
865,534;16088,621;   -1,726;    0,227
866,094;17593,850;    1,820;    0,227
866,655;17239,351;    1,274;    3,318
867,215;17511,398;    0,274;    0,136
867,776;17335,809;    0,547;   -0,136
868,336;17450,220;   -1,453;    0,136
868,897;16938,721;    2,638;    1,682
869,457;16680,950;    1,365;    0,318
870,017;16906,997;    0,547;   -1,227
870,578;17466,863;   -0,817;    0,773
871,138;17126,182;   -2,089;   -0,955
871,698;16642,957;   -0,817;   -1,318
872,258;16549,004;   -0,453;   -2,864
872,818;16908,324;    2,729;    0,045
873,378;16852,007;    0,638;    1,045
873,938;16421,963;    0,547;    0,500
874,498;16784,283;    0,274;   -1,955
875,058;16662,148;    2,183;    1,773
875,618;16517,832;    1,910;   -2,682
876,177;16462,970;    1,274;    0,136
876,737;16097,017;   -0,090;    1,955
877,297;16107,428;    0,183;    1,955
877,856;16088,747;   -0,362;    0,318
878,416;16037,522;    1,183;   -0,136
878,976;16220,478;   -1,817;    0,409
879,535;16380,980;    0,092;    3,136
880,095;16146,027;   -0,544;    0,045
880,654;16261,892;   -1,090;    1,318
881,213;16346,030;    2,456;    1,500
881,773;15970,350;    2,637;    2,682
882,332;16345,033;    3,365;    5,136
882,891;16199,444;    3,092;    2,136
883,451;16670,946;   -1,272;    1,682
884,010;16108,538;   -2,908;   -0,409
884,569;16201,221;   -0,999;   -0,045
885,128;16291,905;    2,819;   -1,864
885,687;16392,043;    4,455;    0,682
886,246;16078,635;    1,455;    2,136
886,805;15855,864;    2,455;    2,045
887,364;16128,184;   -0,999;   -0,500
887,922;16531,413;   -1,181;    0,045
888,481;16028,551;   -1,545;    0,591
889,040;16327,235;    1,183;    2,136
889,599;17024,554;    2,455;    1,409
890,157;17110,510;    1,455;    2,409
890,716;16733,376;   -0,090;    0,227
891,274;16518,332;    0,092;   -1,136
891,833;16966,106;    1,546;    0,864
892,391;16853,881;   -0,454;    0,500
892,950;16876,746;    1,819;   -0,773
893,508;17288,793;    0,455;   -0,409
894,067;16681,567;    0,637;    0,136
894,625;16560,160;   -0,636;   -1,500
895,183;16822,571;   -0,363;   -0,682
895,741;16700,163;    1,728;   -1,773
896,299;16540,574;   -0,545;   -2,409
896,858;16719,530;    0,819;   -1,591
897,416;16817,123;    2,728;   -1,318
897,974;16560,715;    1,819;    0,318
898,532;16737,126;    6,091;    2,682
899,089;16651,173;    2,091;   -0,682
899,647;16694,311;   -1,454;    1,318
900,205;16383,994;    1,182;    1,045
900,763;16600,951;   -0,454;    0,227
901,321;16632,452;    2,364;   -1,409
901,878;16089,499;   -1,000;   -0,773
902,436;15952,455;   -1,363;    1,318
902,994;16344,957;    4,728;    3,682
903,551;15780,095;    0,728;    0,409
904,109;16169,778;    0,182;   -1,409
904,666;15747,098;    2,455;    1,045
905,224;15582,873;    0,182;   -0,409
905,781;15331,829;    0,727;   -0,318
906,338;15422,876;   -1,363;    1,045
906,895;15359,832;    0,637;    2,045
907,453;15286,061;    1,727;    1,136
908,010;15315,381;   -0,909;    0,409
908,567;14965,610;    1,273;    0,591
909,124;14490,202;    0,364;   -1,500
909,681;14561,886;   -2,909;    0,682
910,238;14733,205;    0,636;   -1,318
910,795;15036,162;   -0,273;   -1,136
911,352;14658,889;   -2,909;   -2,682
911,909;14079,071;   -1,364;   -0,864
912,466;14571,889;   -3,182;    1,500
913,022;14138,889;   -1,636;    0,500
913,579;14509,071;   -0,909;    2,045
914,136;14208,980;    1,636;    0,955
914,692;14539,343;    0,091;   -1,227
915,249;14135,525;    1,455;    0,409
915,806;14368,071;    0,182;    1,955
916,362;14111,525;    1,909;    1,864
916,918;13668,889;    2,000;    1,045
917,475;13645,525;   -1,182;    0,955
918,031;13747,071;    3,364;   -0,045
918,587;13195,707;   -0,909;   -0,318
919,144;13409,434;   -2,273;    0,227
919,700;13736,525;    1,727;    0,773
920,256;13282,525;    0,727;    0,045
920,812;12962,616;   -0,727;   -1,045
921,368;12932,525;   -1,727;   -1,045
921,924;12584,889;    0,182;   -0,136
922,480;12158,071;   -0,545;    1,227
923,036;12756,980;    1,273;    1,955
923,592;12716,980;    0,455;    0,318
924,148;12628,071;    0,455;   -0,955
924,704;11956,343;   -1,364;   -0,409
925,259;12232,162;   -0,273;    0,591
925,815;11984,343;    1,455;    0,500
926,371;11496,889;    2,909;    1,409
926,926;11403,525;    2,091;    0,591
927,482;11045,162;   -1,364;    0,773
928,037;10897,616;    0,909;    2,045
928,593;11163,525;    1,636;    1,045
929,148;11004,253;   -1,818;   -1,500
929,704;10554,253;   -1,455;   -0,500
930,259;10755,434;    0,091;   -0,136
930,814; 9852,434;   -0,818;    1,955
931,369; 9570,616;    1,091;   -0,773
931,925; 9453,616;   -0,091;    0,136
932,480; 9331,707;   -2,818;   -2,591
933,035; 9214,343;    0,545;   -0,318
933,590; 8982,616;    0,364;   -1,773
934,145; 8641,616;   -1,364;   -0,318
934,700; 8988,434;    0,455;   -0,591
935,255; 8793,434;   -0,091;    0,045
935,809; 8075,525;    3,182;    0,864
936,364; 7231,616;   -0,455;   -0,136
936,919; 7217,162;    0,455;   -1,773
937,474; 7119,707;    1,455;    0,136
938,028; 6882,162;   -1,636;    1,136
938,583; 6366,162;    1,818;    4,682
939,138; 6656,071;    2,091;    2,136
939,692; 6104,616;    1,636;   -1,136
940,247; 5818,253;   -0,727;   -1,045
940,801; 5378,071;   -0,636;    0,227
941,355; 5287,071;   -0,364;    2,591
941,910; 4953,707;   -0,273;   -2,136
942,464; 5042,889;   -0,818;   -0,318
943,018; 4821,434;    1,000;   -0,227
943,572; 4793,616;    2,545;   -0,682
944,126; 4221,434;    0,091;   -0,409
944,681; 4107,343;    3,091;    0,227
945,235; 4080,343;    1,000;   -0,591
945,789; 4020,980;    0,364;   -1,864
946,342; 4122,798;    0,455;   -0,591
946,896; 3895,434;   -2,273;    0,955
947,450; 3692,434;    1,545;   -0,227
948,004; 3886,162;    1,727;   -0,045
948,558; 3924,162;    0,273;   -0,864
949,111; 3815,707;   -0,273;   -0,318
949,665; 3843,253;    1,636;   -0,682
950,219; 3738,889;   -0,091;   -1,045
950,772; 3817,343;   -1,909;    1,864
951,326; 3728,434;    0,545;   -0,955
951,879; 3826,071;    0,727;   -2,318
952,433; 3836,434;    0,000;    2,227
952,986; 3669,798;    2,909;    0,682
953,539; 3629,980;   -0,273;    0,591
954,093; 3565,253;    0,545;   -1,318
954,646; 3687,616;    0,909;    1,318
955,199; 3520,071;    0,000;   -0,500
955,752; 3395,434;   -0,455;    1,773
956,305; 3352,162;   -0,091;    2,955
956,858; 3503,889;    0,818;   -0,318
957,411; 3664,343;   -0,545;    2,136
957,964; 3528,343;    1,364;    2,136
958,517; 3501,434;   -1,545;    3,136
959,070; 3343,889;   -0,455;    1,955
959,623; 3422,071;    1,091;    1,500
960,176; 3209,525;    1,727;    2,045
960,728; 3185,071;   -2,727;    0,773
961,281; 3242,162;    0,545;    0,500
961,834; 3263,343;   -0,909;    0,864
962,386; 3193,707;    1,727;    1,045
962,939; 3121,071;    0,364;   -0,318
963,491; 3263,889;    0,455;    1,136
964,043; 3147,616;    1,182;    2,409
964,596; 3259,889;   -1,000;    2,227
965,148; 3120,253;   -1,000;    1,773
965,700; 3028,162;    1,091;   -0,227
966,253; 3186,525;   -0,636;    0,318
966,805; 3017,253;   -2,273;    0,773
967,357; 3069,889;    1,091;   -1,500
967,909; 3024,071;    0,455;   -1,227
968,461; 3148,525;    0,545;    3,136
969,013; 3071,434;   -0,182;   -0,864
969,565; 3121,980;   -0,455;   -1,136
970,117; 3189,343;   -0,364;    1,045
970,669; 3037,253;    0,182;   -0,136
971,220; 2909,616;   -0,455;   -1,500
971,772; 2831,980;   -0,636;   -0,318
972,324; 2955,343;    0,091;   -0,500
972,876; 2911,434;    0,818;   -0,045
973,427; 3028,525;    1,909;   -1,045
973,979; 3001,525;   -0,727;   -2,500
974,530; 3039,434;    1,818;    1,318
975,082; 3041,798;   -0,545;    1,682
975,633; 2956,980;    1,091;    1,682
976,184; 3085,343;    0,909;    0,773
976,736; 2878,253;    0,091;    0,227
977,287; 2702,253;   -0,909;   -0,500
977,838; 2867,707;    0,909;   -0,318
978,389; 2929,071;   -1,000;   -0,500
978,940; 2774,707;    0,545;   -0,409
979,491; 2817,162;    0,091;   -0,500
980,042; 2781,889;    0,182;    3,045
980,593; 2838,343;   -2,545;    0,227
981,144; 2888,616;    2,545;   -0,500
981,695; 2853,162;    1,455;    1,500
982,246; 2828,798;   -0,273;    1,045
982,797; 2950,071;   -1,727;    0,682
983,347; 3076,798;    0,364;    0,591
983,898; 3254,525;    3,091;    0,409
984,449; 3074,798;    2,182;    0,773
984,999; 2969,707;    1,455;   -1,136
985,550; 2761,616;    0,182;   -0,318
986,100; 2799,889;   -0,455;   -0,318
986,651; 2818,980;   -0,818;    0,045
987,201; 2811,253;   -1,000;   -0,591
987,751; 2886,889;    0,818;    2,864
988,302; 2851,162;    2,636;    1,500
988,852; 2882,343;    0,455;   -1,136
989,402; 2944,798;    0,091;    0,682
989,952; 2849,253;   -2,182;    0,864
990,502; 2969,343;   -0,091;    0,682
991,052; 2923,162;   -0,727;    0,045
991,602; 2792,798;   -2,909;    1,318
992,152; 2796,434;    0,455;    0,682
992,702; 2763,980;    1,364;   -0,045
993,252; 2695,253;   -3,000;   -0,500
993,802; 2790,798;   -0,273;    1,318
994,352; 3018,525;   -1,545;    1,136
994,901; 3108,253;   -0,182;    3,227
995,451; 3002,343;   -0,182;    0,318
996,000; 3108,434;    1,636;    0,318
996,550; 2829,707;    2,273;    0,227
997,100; 2848,071;    1,273;   -0,045
997,649; 3114,798;    2,182;    0,955
998,198; 2763,343;    1,727;   -1,500
998,748; 2950,707;    1,091;   -2,318
999,297; 2869,798;   -0,818;   -0,409
999,846; 2925,162;    1,000;   -0,773
1000,395; 2963,707;   -0,818;    0,500
1000,945; 2906,162;    1,818;   -0,773
1001,494; 2995,616;    2,364;    0,682
1002,043; 2990,525;    4,636;    0,864
1002,592; 2826,434;   -1,091;    1,955
1003,141; 2985,253;   -0,455;   -0,682
1003,690; 2836,525;    1,727;    0,500
1004,238; 2911,980;    1,455;   -0,045
1004,787; 2570,162;    1,364;    1,227
1005,336; 2798,343;    0,364;    0,682
1005,885; 2931,071;    1,364;   -2,773
1006,433; 3061,253;    0,545;    0,955
1006,982; 3127,071;    0,455;    1,682
1007,531; 3036,707;   -1,818;   -0,227
1008,079; 2994,798;   -2,273;    0,500
1008,627; 3147,525;   -1,455;    0,409
1009,176; 2893,525;    0,000;   -1,955
1009,724; 2923,434;    1,091;    0,864
1010,273; 2973,525;    1,273;    0,500
1010,821; 3098,071;    0,091;    1,409
1011,369; 2834,434;   -1,364;    1,318
1011,917; 2780,889;   -1,364;   -0,591
1012,465; 3082,798;    1,273;   -1,591
1013,013; 3203,980;    2,091;   -1,682
1013,561; 3075,162;    0,455;   -0,773
1014,109; 3116,253;   -1,909;    1,682
1014,657; 2978,343;    0,364;    0,591
1015,205; 3117,162;    1,636;   -0,955
1015,753; 3164,253;   -0,545;   -1,409
1016,301; 3191,434;   -2,636;    3,045
1016,848; 3190,616;   -1,273;    0,409
1017,396; 3243,162;    2,545;    0,045
1017,944; 3367,434;    1,182;    1,864
1018,491; 3120,889;    0,273;    1,409
1019,039; 3279,616;    0,455;    0,591
1019,586; 3202,253;   -1,364;    1,682
1020,134; 3301,707;    0,455;    1,500
1020,681; 3331,253;    0,182;   -1,136
1021,228; 3330,434;    2,909;   -2,227
1021,776; 3155,798;    1,182;   -1,136
1022,323; 3372,253;    0,455;    0,773
1022,870; 3314,343;   -1,000;   -0,045
1023,417; 3195,525;    2,636;    1,864
1023,964; 3331,343;    2,636;    1,227
1024,511; 3189,343;    1,000;    0,773
1025,058; 3005,434;    3,182;   -0,045
1025,605; 3055,980;   -2,273;    3,136
1026,152; 3260,616;    1,727;   -0,591
1026,699; 3005,889;    1,818;    1,318
1027,245; 3151,434;   -0,091;    0,318
1027,792; 3386,525;   -1,000;    1,409
1028,339; 3274,889;    2,364;   -0,045
1028,885; 3112,162;    1,000;   -0,227
1029,432; 3065,162;   -0,091;    0,227
1029,978; 3111,434;   -1,000;   -1,591
1030,525; 3029,525;    1,000;    0,409
1031,071; 3268,616;   -1,364;    1,136
1031,618; 3367,071;    0,364;    1,682
1032,164; 3149,434;   -0,091;    3,045
1032,710; 3179,162;    1,636;   -1,500
1033,256; 3103,162;   -0,636;   -0,136
1033,803; 3112,343;   -0,545;    1,500
1034,349; 2847,525;   -1,364;    0,136
1034,895; 2991,980;    0,000;   -0,318
1035,441; 2967,162;   -0,818;    0,318
1035,987; 2965,707;   -2,364;   -0,682
1036,533; 2971,525;   -1,455;   -0,955
1037,078; 3154,616;    1,455;    1,682
1037,624; 2976,889;    2,455;   -0,955
1038,170; 3009,253;    0,455;   -0,318
1038,716; 2909,162;    1,636;   -0,409
1039,261; 2827,071;   -2,273;   -0,773
1039,807; 2785,253;   -0,091;    3,409
1040,352; 2848,889;   -1,909;   -0,318
1040,898; 2889,616;   -1,545;   -0,682
1041,443; 2808,343;   -1,455;   -2,591
1041,989; 2820,071;    1,091;    1,591
1042,534; 2703,162;   -0,364;    2,591
1043,079; 2820,798;    2,909;    0,955
1043,625; 2611,980;    1,818;    0,500
1044,170; 2660,343;   -1,364;    1,045
1044,715; 2916,707;    2,455;    0,955
1045,260; 2728,616;    2,182;   -0,955
1045,805; 2780,525;    1,182;   -0,591
1046,350; 2715,980;    1,364;   -0,409
1046,895; 2678,162;    2,909;    1,591
1047,440; 2627,253;    5,364;    0,409
1047,985; 2534,434;    2,818;   -0,955
1048,530; 2445,162;    1,545;    1,227
1049,074; 2500,434;    0,000;    0,318
1049,619; 2479,798;   -1,364;    1,955
1050,164; 2290,253;    0,455;    0,227
1050,708; 2329,798;   -0,455;    0,045
1051,253; 2695,980;    1,273;   -2,227
1051,797; 2408,071;    0,818;   -1,318
1052,342; 2423,525;   -1,182;    1,045
1052,886; 2430,889;    0,364;   -1,409
1053,430; 2296,525;   -1,364;    0,136
1053,975; 2309,162;   -0,818;   -0,318
1054,519; 2307,162;   -0,727;    3,227
1055,063; 2307,616;    0,909;    1,318
1055,607; 2208,889;   -0,182;    0,227
1056,151; 2229,889;    2,909;    1,682
1056,695; 2141,343;    2,273;   -1,136
1057,239; 2223,525;   -1,727;   -0,682
1057,783; 2216,162;    0,818;   -1,500
1058,327; 2162,071;    0,000;    1,409
1058,871; 2393,434;   -0,545;    1,318
1059,415; 2100,707;   -0,818;   -0,045
1059,958; 2355,616;    1,455;    2,591
1060,502; 2070,616;   -1,000;   -0,773
1061,046; 1968,253;    0,364;   -0,955
1061,589; 1959,707;   -3,000;   -1,136
1062,133; 1863,434;   -1,273;    1,864
1062,676; 1799,162;    1,182;    0,864
1063,220; 1797,525;    1,091;    0,500
1063,763; 1814,525;    0,909;    1,136
1064,306; 1898,525;   -0,909;    1,864
1064,849; 1781,798;   -0,909;    0,591
1065,393; 1776,707;    2,000;   -1,500
1065,936; 1908,162;    0,182;   -0,409
1066,479; 1791,525;   -1,455;    1,318
1067,022; 1806,980;   -0,273;   -0,227
1067,565; 1703,889;   -0,091;   -1,318
1068,108; 1729,707;    0,727;   -0,591
1068,651; 1693,071;   -0,636;    1,409
1069,194; 1636,889;   -0,455;   -1,682
1069,736; 1639,525;   -1,273;    0,955
1070,279; 1624,525;   -1,364;   -0,500
1070,822; 1679,071;   -2,000;   -0,318
1071,364; 1747,889;   -0,364;    1,318
1071,907; 1572,616;   -0,727;    3,227
1072,450; 1486,071;    0,000;   -0,045
1072,992; 1483,343;   -0,273;    3,136
1073,535; 1611,253;    2,091;    2,136
1074,077; 1419,253;   -0,727;    2,045
1074,619; 1388,616;   -1,364;    0,591
1075,161; 1419,889;   -1,091;    1,500
1075,704; 1591,071;    1,545;    1,227
1076,246; 1399,162;   -0,182;    0,682
1076,788; 1322,525;   -0,364;    1,773
1077,330; 1403,707;    1,273;    2,136
1077,872; 1356,798;    0,909;    0,955
1078,414; 1572,162;    2,727;    0,773
1078,956; 1309,343;    1,273;   -0,227
1079,498; 1564,616;    1,636;    0,318
1080,040; 1295,071;    1,909;   -1,318
1080,581; 1229,980;    1,636;   -0,318
1081,123; 1150,343;    0,091;   -0,773
1081,665; 1194,162;   -1,182;   -0,955
1082,206; 1486,980;    1,364;   -0,500
1082,748; 1354,798;    0,727;    2,045
1083,289; 1215,616;   -2,000;    1,318
1083,831; 1134,889;   -0,545;    0,227
1084,372; 1166,162;    0,000;    0,591
1084,913; 1169,343;    1,091;    0,864
1085,455; 1151,162;   -1,909;   -2,045
1085,996; 1111,434;   -2,273;    0,136
1086,537; 1128,434;   -0,091;    0,864
1087,078; 1154,980;   -0,909;   -2,136
1087,619; 1202,798;   -1,273;    0,227
1088,160; 1125,980;    0,000;    1,318
1088,701; 1111,343;   -1,091;    0,682
1089,242; 1055,616;    1,364;   -2,227
1089,783; 1152,798;   -0,273;    1,409
1090,324; 1119,980;    0,455;    0,682
1090,865;  995,071;    2,727;   -0,409
1091,405;  960,071;    0,727;    2,227
1091,946;  993,798;    0,182;   -0,955
1092,487;  924,980;    0,818;   -1,409
1093,027; 1085,434;   -1,364;   -1,500
1093,568;  934,253;   -0,364;    1,227
1094,108; 1032,889;    0,273;    1,773
1094,649;  968,525;   -1,182;    0,136
1095,189;  911,616;   -0,636;   -0,682
1095,729;  859,798;   -0,091;    0,955
1096,269;  864,071;    0,727;   -0,955
1096,810; 1160,434;   -1,364;    0,500
1097,350;  993,343;    1,364;   -0,773
1097,890;  915,525;    0,364;    1,227
1098,430; 1148,889;    2,364;    2,864
1098,970; 1022,980;    2,182;    1,682
1099,510;  891,253;    0,545;   -2,318
1100,050;  816,071;    1,000;   -1,591
1100,589;  784,798;   -0,727;   -0,318
1101,129;  909,343;    0,818;   -0,955
1101,669; 1049,798;    1,727;    2,136
1102,209;  878,343;   -0,091;    2,227
1102,748;  831,525;    0,000;    0,955
1103,288;  836,798;    1,273;   -1,227
1103,827;  858,616;    3,091;   -2,227
1104,367;  740,343;   -0,091;   -2,409
1104,906;  706,162;    1,364;   -1,136
1105,445;  774,525;    0,636;   -1,136
1105,985;  716,253;   -0,727;    1,500
1106,524;  754,889;   -1,727;   -0,682
1107,063;  726,253;   -2,727;    1,409
1107,602;  707,434;   -1,909;   -1,500
1108,141;  631,798;   -1,909;    1,500
1108,680;  737,707;   -3,455;   -0,591
1109,219;  669,343;   -0,909;   -0,500
1109,758;  663,798;    0,455;    0,682
1110,297;  652,889;    1,000;   -0,682
1110,836;  599,434;   -0,727;    0,955
1111,375;  753,343;   -2,545;    0,409
1111,913;  760,343;   -1,000;    0,773
1112,452;  704,253;   -0,273;    0,136
1112,991;  589,980;    1,091;    1,955
1113,529;  549,525;   -0,818;   -0,045
1114,068;  619,616;   -0,273;    2,955
1114,606;  524,071;   -0,364;   -0,955
1115,144;  683,434;   -1,273;    1,045
1115,683;  613,616;   -0,727;    0,318
1116,221;  660,980;   -0,455;   -0,864
1116,759;  572,162;    0,636;   -0,864
1117,297;  772,616;    0,000;    1,864
1117,836;  574,434;   -2,182;   -1,227
1118,374;  580,616;    0,182;   -0,682
1118,912;  526,707;    0,909;    2,682
1119,450;  509,707;    1,000;    0,864
1119,988;  568,616;    1,545;    2,136
1120,525; 1014,980;    5,091;    3,318
1121,063;  711,616;    1,182;    1,864
1121,601;  529,525;   -0,909;   -1,227
1122,139;  484,889;   -0,727;   -2,045
1122,676;  668,162;   -0,727;    2,773
1123,214;  611,616;   -1,182;    4,409
1123,751;  438,343;    1,727;    2,227
1124,289;  558,616;   -0,091;   -0,409
1124,826;  427,162;    1,727;    0,227
1125,364;  347,253;    1,727;   -0,955
1125,901;  535,798;    1,182;    1,227
1126,438;  648,798;    0,818;    0,955
1126,975;  376,707;   -0,727;   -0,773
1127,513;  442,343;    0,273;    2,136
1128,050;  350,162;    1,636;   -0,682
1128,587;  448,889;    2,000;   -0,227
1129,124;  493,980;    0,091;    1,318
1129,661;  361,980;    0,273;    0,227
1130,198;  530,343;    1,636;    0,773
1130,734;  476,162;    0,182;    1,409
1131,271;  327,798;   -0,909;    0,864
1131,808;  501,889;    2,909;    3,045
1132,345;  366,434;    1,545;    0,318
1132,881;  250,616;   -1,545;   -1,864
1133,418;  392,980;    0,727;   -1,136
1133,954;  323,253;    2,455;   -2,682
1134,491;  390,525;    1,364;   -0,773
1135,027;  304,525;    2,364;    0,864
1135,564;  389,253;    0,273;    2,955
1136,100;  365,616;    0,364;    2,136
1136,636;  256,071;   -1,273;   -1,045
1137,172;  347,343;    0,000;   -1,045
1137,708;  277,162;   -1,364;   -1,045
1138,245;  285,980;    1,273;   -1,227
1138,781;  236,434;    1,091;   -3,318
1139,317;  305,889;    1,273;   -1,409
1139,852;  290,434;    3,091;    0,136
1140,388;  403,162;   -1,182;   -0,409
1140,924;  290,343;   -1,091;   -2,227
1141,460;  226,343;   -1,636;    0,136
1141,996;  168,162;   -1,364;    2,682
1142,531;  209,889;    1,364;    3,318
1143,067;  422,889;    1,182;    1,045
1143,602;  475,707;   -0,091;   -0,318
1144,138;  322,525;   -2,636;    1,045
1144,673;  192,980;   -1,455;    1,409
1145,209;  258,525;   -1,909;   -0,318
1145,744;  176,434;   -0,727;    0,864
1146,279;  312,980;    1,818;   -0,136
1146,815;  234,616;    1,545;   -2,682
1147,350;  271,071;   -1,364;    0,045
1147,885;  181,707;   -0,818;   -1,318
1148,420;  177,707;   -2,273;    0,773
1148,955;  165,889;   -1,727;    1,864
1149,490;  194,162;   -0,909;   -1,591
1150,025;  175,434;    0,455;   -1,773
1150,560;  287,525;    1,091;   -0,955
1151,094;  248,434;    1,455;   -0,591
1151,629;  256,525;    1,636;    0,864
1152,164;  181,162;    1,364;    1,318
1152,698;  139,616;   -0,182;   -0,136
1153,233;  104,798;    0,091;   -0,682
1153,767;  153,253;   -3,000;   -2,318
1154,302;  199,980;   -1,455;    1,773
1154,836;  198,707;   -0,455;   -2,136
1155,371;  255,889;   -1,364;    3,682
1155,905;  207,343;   -0,636;    1,682
1156,439;  166,162;   -0,636;   -0,500
1156,973;  194,707;    0,364;    0,318
1157,507;  144,889;   -0,364;    0,682
1158,042;  171,253;   -0,727;    1,045
1158,576;  217,616;    0,182;    1,773
1159,110;  195,343;   -0,818;    2,409
1159,643;  170,343;    0,636;   -0,045
1160,177;  112,980;   -1,545;    1,500

