
Integration time [ms]:   0,040
Averaging Nr. [scans]: 11
Smoothing Nr. [pixels]: 0
Data measured with spectrometer [name]: 7318044SP
Wave   ;Sample   ;Dark     ;Reference
[nm]   ;[counts] ;[counts] ;[counts] 

186,757;   26,545;   31,551;    1,318
187,357;   60,372;   22,551;    0,955
187,958;   33,435;   15,460;   -1,591
188,558;   73,362;    8,915;   -1,227
189,159;   40,829;    6,733;   -4,500
189,759;   11,252;    7,278;   -3,591
190,360;   10,640;    2,824;   -2,136
190,960;   52,330;    2,915;   -4,136
191,560;   64,643;    3,189;   -6,591
192,161;  300,504;    4,372;   -3,500
192,761;  149,162;    4,010;   -3,227
193,361;   98,995;    1,556;   -3,773
193,962;  147,572;    2,010;   -2,682
194,562;   80,361;    1,189;   -3,955
195,162;  103,648;   -2,448;   -2,227
195,762;  257,637;   -3,176;   -0,045
196,362;  206,556;    1,370;   -2,500
196,963;   79,782;    2,006;   -0,864
197,563;  147,817;    1,551;   -0,955
198,163;   99,877;    0,096;   -0,682
198,763;  121,166;    1,733;   -0,500
199,363;  222,320;    3,096;   -0,500
199,963;  185,619;    0,369;    0,409
200,563;  153,479;    2,823;   -1,409
201,163;  135,341;    3,277;   -0,227
201,763;  234,155;    3,732;    0,318
202,363;  160,132;    1,459;    1,500
202,963;  270,297;    1,459;    1,045
203,563;  383,591;    0,277;    0,500
204,162;  230,231;    2,096;   -1,864
204,762;  217,449;    0,550;    0,591
205,362;  190,222;    3,004;    1,955
205,962;  292,431;    3,096;    1,955
206,562;  285,972;    1,823;    2,318
207,161;  254,609;   -0,087;    0,318
207,761;  399,639;    1,277;    2,409
208,361;  283,414;   -0,268;    1,409
208,960;  391,393;    0,459;    1,500
209,560;  460,724;    1,277;    1,591
210,160;  447,621;    0,550;    1,864
210,759;  401,734;    4,186;    1,227
211,359;  402,554;    1,459;    1,045
211,958;  672,169;    1,277;    2,045
212,558;  743,437;    1,732;    1,864
213,157;  585,448;    1,822;    1,500
213,757; 1022,559;    3,822;   -0,227
214,356;  717,031;    1,277;   -0,409
214,956; 1053,522;    3,095;    0,409
215,555;  693,654;    2,095;    2,136
216,154;  628,776;   -2,723;   -0,591
216,754;  640,502;    0,277;    0,773
217,353;  769,544;   -0,268;   -1,045
217,952;  636,369;   -0,178;    0,318
218,552;  864,369;    1,368;   -0,773
219,151;  759,592;    0,277;    0,955
219,750;  762,487;    0,004;   -0,227
220,349;  872,070;   -0,451;    1,045
220,948;  946,809;   -1,360;    1,136
221,548;  954,001;    0,913;    1,227
222,147; 1076,027;   -0,087;   -0,409
222,746; 1344,352;   -0,451;   -0,955
223,345; 1230,174;    0,731;    0,500
223,944; 1240,583;   -0,451;    0,773
224,543; 1402,208;    1,004;   -1,409
225,142; 1512,524;    0,094;    0,136
225,741; 1408,740;   -0,814;    1,045
226,340; 1429,411;   -0,451;   -0,955
226,939; 1873,207;   -0,996;   -0,136
227,538; 1801,313;   -0,360;   -0,773
228,137; 1950,625;   -0,814;    0,864
228,735; 2082,533;   -0,541;    1,227
229,334; 1840,531;   -0,905;   -0,227
229,933; 2217,230;    0,459;    0,591
230,532; 2309,584;    1,186;   -0,409
231,131; 2346,608;    1,732;    0,318
231,729; 2461,772;   -2,450;   -2,318
232,328; 2572,830;   -0,723;   -1,500
232,927; 2652,572;    1,004;   -0,500
233,525; 2766,638;    3,640;    0,045
234,124; 2950,735;    2,368;   -1,591
234,723; 2987,924;    0,913;   -1,045
235,321; 3080,907;    2,277;    0,136
235,920; 3303,318;    1,186;   -1,227
236,518; 3567,755;    3,459;    0,318
237,117; 3725,335;    0,004;   -0,227
237,715; 3891,320;    0,640;   -0,500
238,314; 3915,587;   -0,087;   -2,318
238,912; 4011,254;   -0,723;   -1,409
239,510; 4046,068;    0,459;   -1,227
240,109; 4231,506;    0,004;    3,773
240,707; 4271,661;   -0,996;    1,227
241,305; 4597,243;    0,550;    0,136
241,904; 4808,334;   -0,178;   -2,045
242,502; 4806,791;   -0,632;   -0,227
243,100; 4760,954;   -0,087;   -0,955
243,698; 4993,485;    0,732;    1,682
244,297; 5171,259;   -0,632;    0,682
244,895; 5012,541;   -0,269;   -2,318
245,493; 5344,701;    2,186;   -0,591
246,091; 5383,667;    1,368;   -1,318
246,689; 5373,484;    1,004;    0,591
247,287; 5521,998;    0,822;   -1,136
247,885; 5781,651;   -1,451;    1,227
248,483; 5900,149;    1,822;   -0,500
249,081; 6034,000;    0,185;    1,591
249,679; 6187,391;   -0,178;    1,682
250,277; 6453,918;   -1,723;    0,864
250,875; 6433,410;   -1,087;   -1,045
251,473; 6439,821;   -1,178;    0,500
252,071; 6633,694;    1,459;    1,045
252,669; 6777,128;   -1,814;    0,318
253,267; 7057,429;   -0,087;    0,773
253,864; 6995,907;   -0,360;    0,682
254,462; 6898,194;    1,640;    1,591
255,060; 6853,463;   -0,269;    1,318
255,658; 7178,310;    0,822;   -0,136
256,255; 7586,634;    0,186;   -2,045
256,853; 7446,469;   -0,269;    1,409
257,451; 7450,608;    0,822;    1,864
258,048; 7745,968;    1,822;    1,864
258,646; 7479,375;    1,731;   -1,045
259,243; 7656,288;   -0,087;    2,227
259,841; 7727,462;   -0,814;    0,318
260,438; 7609,531;   -0,087;    0,864
261,036; 8329,927;   -1,905;    1,409
261,633; 8247,039;   -0,087;    2,227
262,231; 7977,520;    2,731;   -0,045
262,828; 8029,467;   -0,905;    1,136
263,425; 8101,693;    0,913;   -0,591
264,023; 8385,372;    0,186;    0,045
264,620; 7935,919;   -0,360;   -0,318
265,217; 8242,493;   -2,087;    3,136
265,815; 8372,817;   -1,905;    2,136
266,412; 8143,858;    0,731;    0,136
267,009; 8214,244;   -1,451;    0,773
267,606; 8112,557;    0,822;   -0,955
268,203; 8091,143;   -0,269;   -0,591
268,801; 8379,067;    1,731;    0,591
269,398; 8681,321;   -0,360;    2,500
269,995; 8649,012;    0,277;    1,591
270,592; 8421,925;   -0,632;   -0,500
271,189; 8620,442;    0,186;    0,409
271,786; 8719,088;   -0,632;    1,227
272,383; 8561,383;   -1,087;    0,227
272,980; 8760,033;    0,277;    0,318
273,577; 9238,734;    0,004;    1,227
274,174; 8804,586;    0,822;    2,591
274,771; 8775,401;   -0,814;   -0,773
275,367; 8892,278;    2,277;    1,409
275,964; 8843,531;    0,731;   -0,500
276,561; 8965,221;    1,549;   -1,045
277,158; 9173,936;    0,095;   -1,773
277,755; 9328,182;    2,185;    0,409
278,351; 8730,465;   -0,451;   -1,500
278,948; 9032,514;   -0,815;    0,045
279,545; 9061,989;   -1,360;    2,318
280,141; 9626,605;   -1,723;   -2,045
280,738; 9520,399;   -0,451;   -0,136
281,334; 9746,412;   -1,633;    0,591
281,931; 9148,045;   -0,087;   -1,318
282,528; 9265,889;    0,822;   -0,500
283,124; 9952,285;   -1,087;   -0,500
283,721; 9862,405;   -0,451;    1,409
284,317; 9699,834;    0,185;    2,500
284,913;10234,194;   -1,360;    0,591
285,510;10387,831;    0,640;   -0,318
286,106;10411,062;   -2,269;   -0,955
286,703;10071,390;   -0,360;    1,955
287,299;10244,189;   -1,451;   -0,591
287,895;10469,950;    0,822;   -1,045
288,491;11039,957;    0,186;    2,136
289,088;10772,025;   -2,360;    2,409
289,684;10801,128;   -1,723;    1,500
290,280;10813,602;    0,368;    0,682
290,876;10924,979;    1,822;    5,500
291,472;10844,149;    1,276;    2,227
292,068;10931,973;    1,367;    0,227
292,665;10617,371;    2,095;    0,773
293,261;10269,444;    0,276;    2,136
293,857;10656,510;    2,913;    2,136
294,453;10622,866;    3,550;    0,955
295,049;10478,791;   -0,268;    1,955
295,644;10495,965;    0,095;    0,136
296,240;10393,011;   -0,905;   -0,136
296,836;10483,266;   -0,995;    0,318
297,432;10729,645;    1,096;   -0,500
298,028;10785,706;    0,732;    0,773
298,624;11194,541;    1,459;    1,864
299,220;11448,048;    2,368;    0,591
299,815;11106,210;    1,005;   -0,409
300,411;10897,336;    0,914;    1,773
301,007;10916,613;    1,368;    0,227
301,602;10983,055;   -0,541;   -2,318
302,198;11150,241;    0,732;   -0,773
302,794;11500,924;    1,187;   -0,500
303,389;11589,836;   -1,177;    1,045
303,985;11665,444;    0,550;    1,409
304,580;11609,196;    1,459;    1,591
305,176;11625,396;   -3,086;    0,136
305,771;11498,707;   -1,268;   -1,227
306,367;11330,773;    4,095;    0,136
306,962;11726,782;    0,641;    1,500
307,558;11462,085;   -0,450;    0,136
308,153;11387,034;    1,095;   -1,136
308,748;11609,543;   -0,814;    1,682
309,344;11580,167;   -0,632;   -1,318
309,939;11643,827;   -1,905;   -1,318
310,534;11931,406;   -0,086;   -1,682
311,130;11833,424;    0,459;   -2,500
311,725;11547,521;    1,004;   -0,500
312,320;11904,844;    2,459;    0,045
312,915;11746,498;    1,459;   -1,045
313,510;11813,553;    1,550;   -0,500
314,105;12320,343;    1,096;    1,409
314,700;11729,805;   -3,086;   -1,045
315,295;11344,742;   -0,904;    0,045
315,890;10920,871;    1,277;    0,864
316,485;11285,432;   -0,359;   -0,318
317,080;11412,966;   -3,086;    1,591
317,675;11940,391;    2,005;   -0,682
318,270;11335,427;    5,550;    3,318
318,865;11373,790;    3,278;    3,045
319,460;11245,024;   -0,904;    0,591
320,055;11471,297;   -0,541;   -1,227
320,650;11140,626;   -1,995;   -0,591
321,244;11186,210;   -0,177;   -1,409
321,839;12118,171;   -1,541;   -0,227
322,434;11983,117;   -1,086;   -1,591
323,029;11607,461;    1,732;    1,591
323,623;11442,907;    1,550;    0,773
324,218;11191,728;    2,368;    1,409
324,812;11083,652;    1,096;    1,591
325,407;10897,388;   -0,814;    2,045
326,002;10814,995;    0,277;   -0,409
326,596;11131,802;    0,914;    1,318
327,191;11322,082;    0,823;   -1,045
327,785;10921,620;   -0,813;   -0,227
328,379;11129,931;    1,368;    0,136
328,974;10931,052;    0,914;   -3,955
329,568;11157,775;    0,186;   -2,409
330,163;10960,766;    2,096;    1,045
330,757;11334,040;    2,459;    1,591
331,351;10687,062;    0,459;    0,682
331,945;10971,196;    0,914;    1,409
332,540;10602,517;   -1,723;   -0,591
333,134;10739,011;   -1,086;    0,773
333,728;10986,577;    0,005;    0,318
334,322;11302,505;   -1,177;   -0,864
334,916;10591,717;    0,277;    0,955
335,510;10927,272;   -0,450;   -0,136
336,105;11143,173;   -1,086;    1,591
336,699;10887,883;   -1,086;    0,591
337,293;10841,685;   -1,723;    0,318
337,887;10978,511;   -2,723;    1,955
338,481;11082,365;    0,459;    0,591
339,074;11244,898;   -0,359;    2,682
339,668;11065,136;   -1,632;    1,227
340,262;11292,134;    1,732;    3,227
340,856;10819,604;    1,822;   -0,682
341,450;10240,035;    1,004;    1,864
342,044;11106,776;    1,459;    0,136
342,637;10887,778;    0,913;   -2,136
343,231;10707,124;   -2,360;    0,682
343,825;10697,155;   -1,086;   -0,591
344,419;10690,838;   -1,995;    0,500
345,012;10496,224;    2,459;    4,045
345,606;10481,007;    4,641;    1,591
346,199;10329,118;   -1,813;   -0,227
346,793; 9887,992;    1,914;    2,045
347,386;10060,530;   -0,813;   -1,136
347,980;10020,922;   -0,268;   -0,045
348,573; 9872,332;    2,278;    0,409
349,167; 9540,560;    5,278;    4,773
349,760; 9865,592;    2,914;    2,682
350,354; 9846,947;   -0,813;    1,136
350,947; 9606,995;    1,096;    1,682
351,540; 9299,206;   -0,358;   -1,409
352,134; 9250,713;    1,096;    1,136
352,727; 9325,372;   -0,086;    1,136
353,320; 9133,657;    0,005;    0,591
353,913; 8965,420;   -1,995;    1,864
354,507; 9178,333;    0,823;   -1,227
355,100; 9169,055;    0,460;    0,864
355,693; 8412,752;    2,005;    2,409
356,286; 8469,894;    0,823;    2,773
356,879; 8810,230;   -0,722;    1,227
357,472; 8422,990;   -0,904;    1,500
358,065; 8604,310;   -0,722;    2,500
358,658; 8568,774;   -0,540;    2,318
359,251; 8207,322;   -1,631;   -0,591
359,844; 7691,580;   -1,904;   -1,136
360,437; 7875,663;   -2,995;    0,045
361,030; 8158,200;    1,369;   -0,682
361,623; 7745,117;    2,824;    0,318
362,215; 7778,156;   -0,086;    2,045
362,808; 7611,888;   -2,358;   -1,682
363,401; 7831,171;   -2,449;    0,136
363,994; 7587,315;   -0,631;   -1,500
364,586; 7490,685;    0,824;   -1,500
365,179; 7678,700;   -0,449;   -1,136
365,772; 7187,090;   -1,995;    2,045
366,364; 7479,648;    1,915;   -3,227
366,957; 7682,701;    2,279;   -0,045
367,549; 7687,267;    2,188;   -0,864
368,142; 7335,155;    1,825;   -1,500
368,734; 7539,690;    0,734;   -2,136
369,327; 7505,220;    1,643;   -0,500
369,919; 7410,071;   -1,538;    0,409
370,512; 7232,607;   -1,083;   -0,500
371,104; 6960,232;   -0,901;    1,591
371,696; 7146,905;    1,191;   -0,955
372,289; 7239,549;    0,373;    1,136
372,881; 7348,152;   -2,080;    1,318
373,473; 7272,530;   -2,170;    1,136
374,066; 7097,021;   -0,169;    0,500
374,658; 6990,468;    0,378;    1,136
375,250; 7312,106;    0,653;   -1,409
375,842; 7166,720;    0,473;   -0,045
376,434; 7042,346;   -0,435;   -0,409
377,026; 7583,398;    0,204;   -2,500
377,618; 7482,126;   -0,158;   -0,682
378,210; 7344,605;   -0,338;   -1,955
378,802; 7196,169;    0,754;   -0,591
379,394; 7161,273;    1,846;    0,682
379,986; 7759,343;    1,393;   -0,955
380,578; 7843,652;   -0,153;    0,773
381,170; 7179,218;   -0,972;    0,045
381,762; 7140,053;    0,755;    1,409
382,354; 7332,477;   -0,065;   -1,318
382,945; 7444,206;   -2,976;    0,318
383,537; 7580,740;   -2,705;   -1,955
384,129; 7579,420;   -2,160;   -1,136
384,721; 7756,437;   -0,252;    0,955
385,312; 7719,409;   -0,161;   -0,955
385,904; 7808,990;   -2,706;    1,591
386,496; 7172,689;   -0,979;    1,045
387,087; 7353,548;    1,022;    2,500
387,679; 7370,160;   -1,160;    0,045
388,270; 7494,959;    2,840;    2,045
388,862; 7596,003;    1,295;   -0,318
389,453; 7466,085;   -0,887;    1,045
390,045; 7739,873;   -0,705;   -2,682
390,636; 7682,093;    0,204;   -0,591
391,227; 7537,030;   -0,523;   -0,045
391,819; 7641,226;    0,204;    0,773
392,410; 7700,761;    1,022;    0,045
393,001; 7642,305;   -0,979;   -1,591
393,593; 7911,803;    1,930;   -0,045
394,184; 7770,307;    1,385;   -0,409
394,775; 7670,611;    1,839;    2,136
395,366; 7912,641;    1,385;    0,773
395,957; 7915,248;    0,113;    0,136
396,548; 8193,178;   -0,342;    2,682
397,139; 8495,872;   -2,433;    0,591
397,730; 8223,063;   -1,888;    0,955
398,321; 8287,538;   -1,252;    0,955
398,912; 8289,939;   -0,615;    0,136
399,503; 8394,059;   -3,524;   -1,409
400,094; 7839,102;    0,294;    1,682
400,685; 7663,656;   -0,433;    0,045
401,276; 7755,286;    0,930;   -0,955
401,867; 8084,120;   -0,888;    0,773
402,458; 8205,526;   -2,251;   -2,318
403,048; 8158,944;    1,112;    0,591
403,639; 7777,009;    0,840;    0,864
404,230; 8039,885;    2,476;    0,318
404,821; 7963,240;   -0,615;    0,045
405,411; 8076,831;    1,203;   -2,591
406,002; 7679,067;   -1,252;   -1,136
406,592; 7546,451;    2,294;    0,045
407,183; 7841,691;    0,566;   -1,500
407,774; 7780,468;    3,475;   -0,136
408,364; 8071,339;    0,930;    0,409
408,954; 7654,318;    0,384;    1,227
409,545; 7715,770;    1,021;    1,045
410,135; 7299,884;    1,293;    0,500
410,726; 7462,592;    1,838;    0,318
411,316; 7802,532;    0,111;    0,773
411,906; 7502,672;   -0,253;   -0,409
412,497; 7006,217;   -1,070;   -0,045
413,087; 7579,643;   -1,980;   -0,227
413,677; 7963,077;   -0,707;    3,864
414,267; 7798,589;    0,656;    1,409
414,857; 7814,594;   -2,980;    4,227
415,448; 8070,314;    0,839;    0,500
416,038; 7758,985;    0,020;   -0,591
416,628; 7730,893;   -0,889;    0,409
417,218; 7219,874;    0,565;    3,318
417,808; 7464,243;    0,202;   -0,409
418,398; 7901,729;    0,020;    2,682
418,988; 7933,066;    2,020;    0,591
419,578; 8145,870;   -0,707;    1,409
420,168; 8461,946;   -1,343;   -0,955
420,757; 8064,345;   -1,343;   -1,500
421,347; 7756,993;    0,111;   -0,227
421,937; 7903,930;    2,292;    1,409
422,527; 7882,487;    0,838;   -0,773
423,116; 7700,668;   -0,253;   -0,045
423,706; 8012,466;   -1,889;    0,318
424,296; 7996,464;    1,384;    0,682
424,885; 8379,101;   -0,071;   -3,045
425,475; 8666,931;    1,474;   -2,864
426,065; 8560,778;   -0,980;   -0,318
426,654; 8227,965;   -0,435;   -0,318
427,244; 8305,238;    0,020;    1,409
427,833; 7797,687;    1,383;   -0,500
428,423; 8260,016;   -0,526;    1,136
429,012; 8965,765;   -0,344;   -1,136
429,601; 8470,444;   -1,344;    0,136
430,191; 8702,998;    1,292;    4,318
430,780; 8334,078;   -0,344;   -0,409
431,369; 8280,536;    0,746;   -0,045
431,959; 8897,025;   -1,254;    0,500
432,548; 8656,967;   -1,163;   -0,045
433,137; 8783,341;   -1,254;   -1,318
433,726; 9300,515;    0,292;    0,500
434,315; 8668,310;   -0,526;    2,409
434,905; 8722,010;   -1,254;    1,409
435,494; 8657,115;    0,746;    0,955
436,083; 9107,852;   -0,981;   -0,955
436,672; 8973,226;    0,110;    0,500
437,261; 8553,668;    0,292;   -1,955
437,850; 8639,357;    1,383;    0,682
438,439; 8629,084;    3,291;    1,955
439,027; 8482,727;    3,655;    1,773
439,616; 8803,411;    2,927;    1,227
440,205; 8658,273;    0,200;   -2,136
440,794; 8707,142;    2,109;   -0,045
441,383; 8914,132;   -1,346;   -0,591
441,971; 8825,765;   -2,436;    0,591
442,560; 8677,998;    0,563;   -1,773
443,149; 8395,808;    0,379;   -1,318
443,737; 8549,455;   -0,074;   -2,318
444,326; 8812,000;    0,018;    0,318
444,915; 8849,117;   -1,982;    0,864
445,503; 9206,836;   -2,891;   -0,318
446,092; 8482,115;    0,382;    2,136
446,680; 8995,582;    0,382;    0,318
447,269; 9203,832;   -0,346;   -0,318
447,857; 8939,848;    0,018;   -1,773
448,445; 9036,885;    0,563;    1,318
449,034; 9239,819;   -1,528;   -1,136
449,622; 9373,184;   -1,073;    3,500
450,210; 8608,492;    2,017;    2,227
450,799; 9143,953;    0,290;   -0,591
451,387; 9106,808;    1,381;   -0,591
451,975; 8736,526;    2,654;    0,864
452,563; 8832,572;    3,472;    2,318
453,151; 8867,959;   -0,528;   -1,227
453,739; 8795,781;   -1,347;    0,136
454,328; 8612,285;    2,381;   -2,136
454,916; 8368,329;    2,562;   -0,136
455,504; 8563,711;    1,017;    1,227
456,092; 8728,821;    0,017;   -1,591
456,679; 8683,248;    1,472;    0,682
457,267; 8597,719;    4,017;    1,045
457,855; 8755,062;    1,017;    1,409
458,443; 8526,355;   -0,165;    1,682
459,031; 8628,251;    0,108;    2,409
459,619; 9060,210;   -1,801;    2,864
460,206; 9189,793;    0,835;    2,045
460,794; 9280,563;   -2,983;   -0,227
461,382; 9488,618;   -0,529;   -0,864
461,970; 9106,557;    1,198;    1,864
462,557; 9117,586;   -0,711;   -0,682
463,145; 9292,728;   -3,165;   -1,682
463,732; 9439,937;    2,016;   -1,045
464,320; 9341,896;   -0,075;   -3,045
464,907; 9027,767;    2,743;   -0,773
465,495; 8923,322;    0,743;   -1,227
466,082; 9087,470;   -1,984;   -0,045
466,670; 9005,928;   -2,529;    1,227
467,257; 9407,300;   -1,711;    2,045
467,844; 9539,338;   -0,075;    0,045
468,432; 9538,372;    0,834;    3,500
469,019; 9080,637;    0,925;   -1,773
469,606; 9519,957;    0,470;    3,682
470,193; 9343,774;   -1,439;    0,227
470,780; 8917,901;   -2,075;    0,864
471,368; 9275,583;   -1,257;   -0,773
471,955; 9065,303;    1,379;   -0,682
472,542; 8722,992;    0,652;   -1,136
473,129; 8921,096;   -0,166;    0,136
473,716; 8630,787;    1,470;    0,591
474,303; 8809,697;    0,652;   -0,864
474,890; 9113,767;   -1,439;   -0,500
475,477; 9120,202;   -1,621;    0,409
476,064; 9004,771;    1,106;   -1,591
476,650; 8916,750;    0,288;    0,318
477,237; 8753,659;   -0,258;    0,955
477,824; 8922,603;   -1,076;    0,864
478,411; 8953,691;   -1,894;   -0,318
478,997; 9105,256;    0,560;   -0,773
479,584; 9135,341;    1,196;   -0,409
480,171; 9782,695;   -0,440;   -0,773
480,757; 9473,566;    2,651;    0,773
481,344; 9744,484;    0,469;    0,409
481,931; 9268,430;    1,105;    1,045
482,517;10135,856;   -1,258;    0,318
483,104;10579,856;    1,106;    2,864
483,690;10832,404;   -1,804;    0,045
484,276;11159,271;   -0,895;    0,227
484,863;10923,169;    2,469;    1,136
485,449;11487,468;   -0,077;    0,318
486,035;11484,320;   -1,986;   -0,136
486,622;11900,484;   -0,895;    0,045
487,208;11815,192;    1,378;    1,500
487,794;11695,602;    0,741;    0,318
488,380;11767,700;    0,105;   -1,409
488,967;11848,278;   -1,168;   -0,409
489,553;11910,568;   -1,895;   -1,409
490,139;12109,721;    1,559;    0,773
490,725;11628,361;    0,741;   -0,227
491,311;11283,326;    3,287;    3,045
491,897;10638,238;   -0,986;    1,500
492,483;10514,093;    0,105;    1,227
493,069;10333,302;    3,923;    0,864
493,655;10330,530;    1,650;    0,682
494,241;10234,859;    1,377;   -0,955
494,826;10638,749;    0,287;   -1,045
495,412;10145,416;    2,559;   -0,682
495,998;10340,640;   -0,805;   -0,318
496,584;10463,660;    0,377;    1,045
497,169;10464,275;    1,014;   -0,682
497,755;10485,274;    0,650;    1,227
498,341;11034,456;    0,559;    0,318
498,926;10631,256;    1,832;    1,955
499,512;10861,444;    1,286;    2,955
500,097;11059,597;    0,195;   -0,318
500,683;11001,042;   -0,350;    2,136
501,268;11375,438;   -0,169;   -0,955
501,854;11158,599;   -0,169;    1,227
502,439;11098,440;   -0,624;   -1,773
503,024;11318,575;    0,195;    0,500
503,610;11438,058;   -0,078;   -0,682
504,195;11490,461;    0,558;    1,955
504,780;11612,986;    2,922;    1,227
505,366;11498,345;    3,013;    2,864
505,951;11255,067;    0,740;    1,045
506,536;11308,456;   -3,260;   -3,682
507,121;11324,295;    0,285;   -0,318
507,706;11874,025;    2,376;    1,045
508,291;12299,886;    2,649;    1,136
508,876;11804,144;   -0,988;    2,591
509,461;11271,308;   -0,169;   -0,773
510,046;11724,063;    0,194;    0,318
510,631;11985,231;   -0,351;   -0,773
511,216;11665,575;    2,467;   -0,500
511,801;12078,246;   -0,442;    2,591
512,386;12380,116;    0,740;    0,500
512,971;12341,957;   -2,988;    0,955
513,555;11920,184;   -0,897;   -1,500
514,140;12737,311;   -0,442;   -3,136
514,725;12744,398;   -0,715;   -1,136
515,309;12856,575;   -0,533;    0,318
515,894;12308,907;   -0,624;   -2,227
516,479;12796,824;   -0,624;   -0,955
517,063;12646,726;    0,376;    1,227
517,648;12804,820;    1,012;   -1,136
518,232;12462,164;   -0,261;   -1,409
518,817;12804,044;   -0,079;    1,682
519,401;12997,554;    2,194;    0,591
519,985;12552,729;    1,103;    1,136
520,570;12453,593;    0,830;   -1,955
521,154;12747,392;    2,102;    0,591
521,738;12912,325;   -2,352;    2,409
522,323;13491,933;   -0,170;    1,682
522,907;13184,837;    0,466;   -0,136
523,491;12933,930;    0,557;    0,955
524,075;12917,992;    2,284;    0,591
524,659;13004,463;    1,466;    0,591
525,243;12455,315;    1,739;    0,409
525,827;12742,326;    0,648;   -0,045
526,411;13577,100;   -1,989;   -0,136
526,995;13788,805;   -0,352;    1,409
527,579;13354,836;   -0,443;   -1,045
528,163;13677,879;    0,375;   -1,500
528,747;13606,148;    2,466;   -0,773
529,331;13941,265;   -0,080;   -1,409
529,915;14146,457;    1,738;    0,955
530,499;14075,517;   -0,807;    1,227
531,082;13760,834;   -0,534;    1,591
531,666;13239,841;    1,374;    0,773
532,250;13915,210;    1,284;    2,682
532,833;14239,897;    0,920;    2,773
533,417;14097,111;   -1,807;    0,864
534,001;14062,157;    1,647;   -0,318
534,584;14738,387;    0,374;    0,500
535,168;14614,204;    0,465;    1,409
535,751;14652,872;    0,647;    0,045
536,334;14064,243;   -0,898;   -0,409
536,918;14716,271;    0,011;    1,591
537,501;14786,374;   -0,899;    1,318
538,085;14785,380;   -0,444;    1,045
538,668;14970,078;    0,829;    2,409
539,251;15263,958;    1,829;    3,773
539,834;15289,955;    0,101;    0,773
540,418;15229,645;   -1,990;    4,318
541,001;15311,244;   -0,990;    1,773
541,584;15296,525;    2,101;    2,227
542,167;14988,315;    1,374;    2,955
542,750;15177,808;    1,919;   -0,773
543,333;14757,078;    0,555;    2,136
543,916;15516,635;    0,192;    2,500
544,499;16121,704;   -1,354;    0,227
545,082;16127,494;    1,374;    3,591
545,665;16281,063;    1,919;    1,500
546,248;16616,987;    1,010;   -0,318
546,830;16291,497;   -0,445;    1,955
547,413;16689,395;    1,010;   -0,773
547,996;17187,193;    0,555;    0,500
548,579;16962,904;    0,919;    0,955
549,161;16772,694;    1,828;    2,682
549,744;16562,678;   -0,809;    0,409
550,326;17078,407;   -0,809;   -1,136
550,909;16865,570;    2,737;    0,591
551,492;17269,402;   -0,263;    0,227
552,074;17062,607;   -0,173;   -1,318
552,657;17599,668;    2,373;    0,045
553,239;17346,581;   -0,173;   -0,773
553,821;17278,292;   -1,082;    1,045
554,404;16791,273;    1,282;    1,136
554,986;17192,828;    0,464;    1,045
555,568;17703,105;    1,191;   -0,955
556,151;16965,440;    1,191;   -0,227
556,733;17171,279;   -0,264;   -0,864
557,315;17663,124;    0,100;    0,500
557,897;17471,635;    0,554;   -0,500
558,479;17595,758;   -1,991;    1,318
559,061;17699,147;   -0,719;   -0,864
559,643;17997,650;   -0,264;    0,045
560,225;18332,168;    1,645;    2,864
560,807;18348,650;    0,918;    0,318
561,389;17909,624;    0,554;    2,318
561,971;18631,474;    0,463;    2,136
562,553;18397,906;   -1,628;    1,591
563,135;18499,297;   -0,537;    1,136
563,717;18123,539;    3,372;    1,136
564,298;18807,032;    3,645;   -0,045
564,880;18610,310;    0,645;   -1,409
565,462;18755,310;    0,645;    1,318
566,043;19888,131;   -0,446;    2,318
566,625;19407,039;    1,918;    1,227
567,207;19241,782;    1,099;    1,682
567,788;20332,968;   -1,264;    1,500
568,370;21115,867;    1,917;   -0,500
568,951;20949,579;    0,190;    0,227
569,533;21776,242;   -0,628;   -0,500
570,114;22224,533;   -0,446;    0,682
570,695;22690,474;   -0,174;   -1,318
571,277;23132,303;   -0,265;   -1,682
571,858;23860,598;    2,008;   -1,136
572,439;24784,011;    1,554;   -1,045
573,021;24887,722;    2,099;   -2,773
573,602;25350,529;   -1,265;    0,318
574,183;26282,327;   -2,083;    2,227
574,764;26396,294;   -1,629;    0,409
575,345;26921,304;    0,917;   -0,136
575,926;27523,374;   -0,356;    0,136
576,507;27494,619;    1,099;   -0,227
577,088;28584,679;    3,099;    1,682
577,669;28580,392;    0,735;    1,955
578,250;29239,600;    0,644;   -1,045
578,831;29877,416;   -1,356;   -2,227
579,412;30081,636;   -0,810;    0,955
579,993;31063,880;    1,008;    0,227
580,573;31414,639;   -0,629;   -0,955
581,154;30399,514;    0,735;   -0,591
581,735;31181,633;    0,644;    0,773
582,315;30647,542;   -0,629;    2,136
582,896;31071,840;   -0,174;    1,227
583,477;30463,496;    0,189;    1,227
584,057;30680,941;    0,553;    0,955
584,638;31077,426;    2,553;    2,318
585,218;30959,939;   -0,538;    2,682
585,799;31150,872;    0,281;   -0,227
586,379;31179,952;    0,372;    1,591
586,959;29996,934;    0,735;    0,318
587,540;29363,595;   -0,629;    2,227
588,120;28952,558;    1,007;   -0,045
588,700;27941,842;    2,553;    2,136
589,281;28206,942;    0,462;   -0,955
589,861;28122,068;    0,099;   -1,682
590,441;27967,216;    2,371;   -2,682
591,021;26979,425;   -0,265;   -2,591
591,601;27169,613;   -0,537;    0,500
592,181;27194,095;   -0,719;   -0,773
592,761;26530,302;    0,007;    1,409
593,341;26462,812;   -0,901;    0,045
593,921;26485,831;   -0,265;    1,591
594,501;26347,237;   -0,538;    1,318
595,081;26214,496;    0,917;   -0,318
595,661;26562,565;   -1,447;    0,955
596,240;27054,826;   -0,537;    0,136
596,820;26683,295;    0,372;    1,955
597,400;26870,230;    2,008;    0,773
597,980;27074,850;    2,008;    1,045
598,559;27105,137;    2,735;   -0,227
599,139;26855,778;   -0,174;   -1,227
599,718;26753,869;   -0,174;   -0,409
600,298;26984,894;    0,735;    0,682
600,877;27211,034;    2,917;    1,409
601,457;27517,140;    2,281;    1,136
602,036;27384,613;    0,190;    2,045
602,616;27577,212;    0,644;    1,682
603,195;27897,321;   -0,355;    3,500
603,774;27438,204;   -0,901;    2,045
604,354;27338,721;    0,826;   -0,500
604,933;26852,793;    0,463;    1,864
605,512;26976,511;    3,554;    0,591
606,091;27048,921;   -0,537;    3,773
606,671;27865,928;    0,281;    0,773
607,250;26929,657;    1,644;    3,136
607,829;27184,729;    2,372;    3,227
608,408;27086,525;    1,190;    2,591
608,987;26060,044;    1,281;    3,409
609,566;26372,203;   -1,265;   -2,500
610,145;26513,108;   -1,082;    0,682
610,723;26949,233;    4,372;    6,864
611,302;26213,764;   -0,446;    1,682
611,881;25726,771;    5,008;   11,227
612,460;26558,561;    1,645;    3,955
613,039;26976,666;   -0,082;    2,045
613,617;25723,672;    1,736;    4,773
614,196;25917,955;    1,099;    1,227
614,775;26268,361;    1,009;    2,409
615,353;26204,230;    0,736;    0,864
615,932;25923,566;    0,100;    2,409
616,510;26507,451;    0,554;    0,591
617,089;25999,901;    7,100;   17,591
617,667;25774,476;    2,372;    6,136
618,246;25646,860;   -1,537;    1,318
618,824;25866,378;   -3,355;   -0,955
619,402;25409,379;   -2,900;   -1,773
619,981;25895,641;   -0,173;   -1,045
620,559;25789,694;    0,009;    1,682
621,137;25299,305;   -0,718;    1,864
621,715;25294,611;   -1,173;   -0,682
622,293;25232,273;   -0,537;   -0,773
622,871;25696,124;   -0,718;    0,500
623,450;25343,923;    0,373;   -0,864
624,028;25186,633;    0,191;   -0,955
624,606;24820,927;   -1,718;    1,682
625,183;25233,975;   -1,536;   -1,136
625,761;24819,611;    1,009;    1,136
626,339;25118,991;    1,373;    2,591
626,917;25534,321;   -0,172;   -0,045
627,495;25547,990;   -0,354;    1,318
628,073;24959,099;   -0,263;    2,864
628,650;24742,907;    0,100;    2,136
629,228;25152,950;    0,373;    4,409
629,806;24541,545;    2,282;    1,136
630,383;24860,682;    1,464;   -0,318
630,961;24603,485;    2,555;   -0,955
631,539;24374,377;    2,464;    0,227
632,116;23672,303;   11,373;   15,409
632,694;24280,047;    2,555;    6,500
633,271;24556,779;    0,828;    2,682
633,848;24455,245;    1,828;    2,045
634,426;24568,649;   -1,081;    1,773
635,003;23664,406;    1,101;   -0,409
635,580;23995,858;    1,192;    3,682
636,158;24541,759;    3,737;    1,227
636,735;24467,991;    0,555;   -0,500
637,312;24673,491;   -0,809;   -0,682
637,889;24751,887;   -4,354;   -0,682
638,466;24252,034;   -3,990;   -0,409
639,043;24243,405;    2,101;   -1,136
639,620;24530,282;   -2,262;   -0,955
640,197;24858,700;    1,100;    1,682
640,774;25003,384;   -0,172;    1,136
641,351;25405,613;    0,737;    1,136
641,928;24785,660;   -0,627;    1,409
642,505;24451,071;    0,828;   -0,500
643,082;24595,027;   -1,718;    1,227
643,658;23657,984;   -0,718;    1,500
644,235;24359,486;    1,191;    2,500
644,812;24669,715;    1,918;    0,773
645,388;24392,035;   -0,991;    1,409
645,965;24506,537;   -0,809;    1,682
646,542;24598,038;   -1,445;   -0,227
647,118;24517,904;    1,009;   -0,955
647,695;24846,951;   -0,263;    1,136
648,271;24776,726;   -0,536;    0,500
648,848;25074,319;    0,736;    2,227
649,424;24900,184;    0,827;    1,318
650,000;24660,140;   -0,354;   -1,045
650,577;24504,006;   -0,627;   -0,955
651,153;24950,871;   -1,809;    0,955
651,729;25929,828;    1,191;    0,864
652,305;26035,511;    0,645;    2,773
652,881;29970,013;   -0,082;    1,136
653,458;36451,333;    1,100;    0,227
654,034;40313,108;    0,282;    1,591
654,610;41886,155;    0,554;    0,773
655,186;43200,203;    0,645;    3,045
655,762;42901,795;   -0,991;    0,409
656,338;42936,115;    0,100;    0,136
656,913;43874,617;   -0,082;    0,409
657,489;43116,119;    0,827;   -0,318
658,065;43149,803;   -0,173;   -1,591
658,641;43861,668;   -0,900;   -0,864
659,217;43189,534;   -0,991;    0,409
659,792;42591,399;    0,645;   -0,409
660,368;42809,719;   -2,173;   -0,682
660,944;42619,130;   -2,082;    1,227
661,519;38459,086;   -0,628;    0,409
662,095;32811,497;   -1,719;    0,591
662,670;28203,363;    1,281;   -0,136
663,246;27016,956;    1,009;   -0,409
663,821;26229,912;    0,281;    1,682
664,396;25721,232;    0,009;    1,864
664,972;25940,461;    0,009;   -0,500
665,547;26264,054;    1,372;    0,136
666,122;26312,374;   -1,082;    0,318
666,698;26548,876;   -0,173;    0,318
667,273;25905,832;   -0,173;    0,136
667,848;26732,061;    2,372;    1,500
668,423;26483,200;    2,190;    2,318
668,998;27063,520;    2,827;   -0,682
669,573;27588,749;   -3,264;   -1,500
670,148;27389,069;   -1,446;   -0,682
670,723;27269,480;   -1,810;    0,318
671,298;27618,618;    2,372;    1,045
671,873;27746,211;   -0,082;   -0,136
672,448;27651,440;    0,645;    0,136
673,023;27984,305;   -1,992;   -0,227
673,597;28340,716;    0,827;    2,318
674,172;28134,036;   -0,355;    0,318
674,747;27592,902;    0,372;   -1,045
675,321;27485,949;   -0,628;    3,318
675,896;27093,269;    0,645;    1,045
676,471;28056,498;    2,645;    1,591
677,045;27807,364;   -1,264;    0,682
677,620;27901,865;    0,190;    1,136
678,194;28197,367;   -2,628;    1,136
678,769;27759,687;   -1,083;   -0,318
679,343;28001,462;   -0,628;    1,773
679,917;27857,509;   -1,446;    1,955
680,492;27956,647;    0,826;    3,227
681,066;28066,058;    3,372;    0,409
681,640;28137,197;    1,463;   -0,318
682,214;28893,153;    0,735;    0,500
682,788;28405,837;   -1,356;   -0,773
683,363;28341,884;   -1,810;    1,682
683,937;28081,386;   -1,719;   -0,318
684,511;28862,797;    0,463;   -0,591
685,085;28507,389;   -1,356;    0,318
685,659;28316,800;   -2,538;    0,864
686,232;28619,575;   -0,356;   -0,318
686,806;28303,440;   -0,901;    0,409
687,380;28907,670;   -0,174;    0,591
687,954;29138,535;   -1,174;    1,136
688,528;28844,310;   -0,719;    1,955
689,101;29561,539;   -3,992;    1,045
689,675;29203,495;   -0,356;   -0,136
690,249;28539,542;   -0,719;    0,409
690,822;28877,408;    0,280;    0,318
691,396;29006,728;   -0,265;    1,227
691,969;28420,866;    1,280;    0,136
692,543;28881,095;   -0,447;   -1,955
693,116;28562,415;   -0,265;   -1,409
693,690;28473,281;    0,099;    0,500
694,263;29013,328;   -1,083;    2,955
694,836;29047,284;    1,371;    3,591
695,410;27698,514;   -0,265;    1,773
695,983;28131,561;    0,189;    0,591
696,556;28088,608;   -0,447;   -1,045
697,129;28507,292;   -0,356;    1,409
697,703;28158,885;   -1,629;    1,955
698,276;28155,023;    1,462;   -0,773
698,849;27996,797;    1,280;    1,409
699,422;28342,027;   -1,083;    0,591
699,995;27982,528;    0,007;    0,136
700,568;28511,303;   -0,629;    3,045
701,140;28587,896;   -2,811;    1,682
701,713;28275,398;   -0,174;    2,409
702,286;28046,899;   -0,538;    0,864
702,859;27915,583;   -0,902;   -0,591
703,432;27085,085;    0,825;    0,682
704,004;27602,496;    0,462;    0,318
704,577;27427,543;   -0,629;    0,136
705,150;28020,045;    0,189;    2,500
705,722;27806,820;   -0,356;   -3,227
706,295;27550,958;   -0,175;   -0,591
706,867;27377,096;   -0,175;    1,955
707,440;27599,052;   -1,720;   -0,409
708,012;27885,372;    0,462;    0,591
708,584;27833,238;    2,462;    0,227
709,157;28137,467;    1,825;   -0,591
709,729;27791,514;    2,280;    2,045
710,301;28633,107;    0,734;    0,045
710,874;28612,609;   -1,447;   -0,227
711,446;27491,202;    0,371;    0,864
712,018;27399,704;    0,098;    0,500
712,590;27103,387;   -1,993;    1,682
713,162;27587,889;    0,825;    1,318
713,734;27840,300;    1,825;   -2,045
714,306;27833,438;   -1,902;   -0,409
714,878;26528,849;    0,825;    0,864
715,450;27375,260;    0,643;    0,864
716,022;27642,489;    1,552;    1,318
716,593;27779,264;    0,189;    0,591
717,165;27731,584;   -3,175;   -1,227
717,737;27374,722;    0,280;    0,409
718,309;27042,042;    0,280;   -0,045
718,880;27018,817;   -0,539;   -1,409
719,452;27218,228;   -0,175;   -1,591
720,024;26794,911;    0,734;   -0,591
720,595;27353,686;   -2,902;    0,955
721,167;26901,006;    0,370;   -2,045
721,738;26450,417;   -0,812;   -1,045
722,309;26444,282;   -0,993;   -1,227
722,881;26199,602;   -1,357;    0,773
723,452;26859,831;   -2,630;    2,864
724,023;27030,788;   -0,721;    2,682
724,595;26765,199;    0,007;    0,682
725,166;26540,791;    0,007;   -0,409
725,737;26171,111;    1,734;    0,227
726,308;26294,886;   -0,266;    0,318
726,879;26713,661;   -1,630;    1,227
727,450;26589,890;    0,552;   -0,045
728,021;26556,664;    3,097;    0,682
728,592;26401,348;    0,734;    0,500
729,163;26675,850;    0,643;   -0,136
729,734;26662,988;    0,188;   -0,227
730,305;26973,308;    1,734;    0,136
730,876;27316,901;    0,188;    2,955
731,447;27026,948;    2,188;    2,682
732,017;27131,723;    1,097;    1,864
732,588;26698,406;    0,734;    1,227
733,159;26896,908;    0,643;   -1,045
733,729;26702,501;    0,006;    0,409
734,300;25962,821;    0,915;    0,864
734,870;26402,141;    3,461;    0,591
735,441;26950,734;    0,370;   -0,591
736,011;26709,054;    0,643;   -1,591
736,582;26659,647;   -0,812;    0,045
737,152;26121,603;   -1,721;   -2,045
737,722;26560,287;   -0,267;   -0,682
738,293;26294,698;   -1,358;    1,318
738,863;26197,563;    2,461;    2,318
739,433;26008,792;    5,279;    0,318
740,003;26622,385;   -0,994;   -0,682
740,573;26025,887;    2,097;   -1,591
741,143;25985,480;   -1,085;    0,318
741,713;26763,981;    1,188;   -0,500
742,283;26471,665;    0,915;    1,591
742,853;26204,985;    1,915;    1,591
743,423;25681,760;    1,733;    0,045
743,993;25853,171;   -0,358;    1,500
744,563;25234,491;    0,097;   -0,864
745,133;25207,902;   -0,812;   -0,864
745,702;25919,767;   -0,267;    1,773
746,272;25079,451;   -0,176;    0,591
746,842;24866,043;   -1,358;   -0,591
747,411;25322,091;   -0,267;   -0,318
747,981;25505,865;    0,097;    0,500
748,551;25539,367;    2,278;   -1,045
749,120;25371,687;    0,642;   -0,227
749,690;25754,189;   -0,631;    2,409
750,259;26054,055;    1,369;    2,955
750,828;25994,193;    1,551;   -1,955
751,398;26257,331;    1,278;   -0,045
751,967;25748,196;    2,187;    0,409
752,536;25984,880;   -0,813;   -0,227
753,105;26372,291;    0,096;    0,227
753,675;26223,611;    0,096;    1,773
754,244;26122,295;   -0,904;    3,591
754,813;26130,706;    0,551;    1,227
755,382;25753,844;    0,460;    0,955
755,951;26305,255;    1,551;    3,682
756,520;25801,029;   -0,085;    1,864
757,089;26350,895;    0,278;    0,500
757,658;26487,397;    1,733;    1,227
758,227;26490,535;    1,096;    0,318
758,795;26829,673;    1,187;    1,136
759,364;27057,357;   -0,086;   -0,591
759,933;26059,859;   -1,176;   -0,045
760,501;25599,179;    0,733;   -1,318
761,070;26046,317;   -2,813;   -1,409
761,639;26757,455;   -1,904;    1,318
762,207;26051,866;    1,551;   -0,955
762,776;26026,004;    0,369;    0,864
763,344;26030,961;   -0,995;    0,591
763,913;25165,917;   -0,722;    1,409
764,481;25892,328;    1,005;   -0,136
765,049;25673,103;   -1,358;    1,409
765,618;25556,786;   -0,086;    0,318
766,186;25651,833;    0,278;    0,136
766,754;25868,699;    0,005;    1,864
767,322;24846,110;   -1,995;    0,409
767,890;24891,703;   -0,722;   -1,773
768,459;25300,114;   -2,177;   -0,318
769,027;25411,615;    1,641;    3,409
769,595;24450,754;    3,278;    2,591
770,163;24882,256;    3,823;    2,955
770,730;24657,666;    0,732;   -0,136
771,298;24508,714;    0,187;   -1,409
771,866;24592,307;   -1,541;    4,955
772,434;24911,627;   -0,631;   -1,864
773,002;25042,310;    0,005;    0,682
773,569;24727,448;    0,914;    1,682
774,137;24559,405;   -0,268;   -0,045
774,705;25349,998;    0,278;   -0,136
775,272;24841,499;    0,641;    0,682
775,840;24600,274;   -0,177;    2,682
776,407;24132,503;    0,277;    1,955
776,975;23734,914;   -0,632;    0,318
777,542;24750,325;   -1,086;   -0,045
778,110;24617,190;   -1,268;   -0,045
778,677;24360,965;   -2,359;   -0,864
779,244;24045,467;    2,186;    1,045
779,812;24115,423;    1,823;    0,864
780,379;23979,289;    0,005;    1,136
780,946;24238,154;    1,005;   -0,773
781,513;24588,383;   -1,450;    0,318
782,080;23965,431;   -0,086;    2,864
782,647;24671,660;   -0,268;    3,045
783,214;24250,253;   -0,177;    3,864
783,781;23889,936;   -0,723;   -0,682
784,348;23787,165;   -0,632;    1,500
784,915;24271,394;   -3,177;    0,318
785,482;23976,260;    1,368;    2,591
786,049;24404,216;    0,186;   -0,591
786,615;24522,082;    0,277;   -0,955
787,182;24277,675;    0,186;   -0,682
787,749;23968,904;   -2,814;    1,409
788,315;23335,496;   -1,632;   -0,409
788,882;23594,907;    1,550;   -1,227
789,448;24296,136;    1,732;   -0,955
790,015;24338,729;    1,095;    3,227
790,581;23866,958;    1,459;    0,227
791,148;23787,187;    0,641;    1,045
791,714;24015,235;   -0,541;    3,136
792,280;23699,009;    0,186;    1,591
792,847;23304,329;    0,550;    2,500
793,413;23880,740;   -0,269;   -0,318
793,979;23402,424;    3,459;   -1,318
794,545;23469,653;    4,459;    2,682
795,111;22816,155;    2,186;    1,318
795,678;22988,930;    0,731;   -1,682
796,244;22657,886;    3,368;    0,136
796,810;23250,751;    1,731;    0,773
797,375;22947,617;    0,549;   -2,136
797,941;22975,210;   -0,541;    0,591
798,507;23094,075;   -0,451;   -0,955
799,073;22629,213;   -0,360;    0,591
799,639;22743,897;   -2,632;    3,136
800,205;22837,581;    0,095;    2,682
800,770;22337,628;    0,640;    1,773
801,336;22428,766;    1,368;   -0,955
801,901;22116,541;    4,549;    3,136
802,467;22690,679;   -0,542;    2,045
803,033;22021,454;   -0,087;    0,864
803,598;22261,864;    1,913;   -1,045
804,163;22252,548;    1,095;   -0,318
804,729;22225,414;   -0,178;    1,136
805,294;22668,643;    0,822;    2,227
805,859;22385,326;    0,731;   -0,409
806,425;21840,465;    1,186;    2,682
806,990;21549,057;    2,186;    4,318
807,555;22027,650;   -1,451;    2,591
808,120;21888,879;    0,822;   -0,409
808,685;21984,199;    0,185;   -2,500
809,250;21497,065;    0,004;   -0,500
809,815;21785,748;    1,913;    0,682
810,380;22346,068;   -0,269;    1,591
810,945;22844,025;   -1,087;    2,045
811,510;22009,436;    2,094;    1,591
812,075;21749,210;   -0,633;   -1,409
812,640;21793,439;    2,003;    1,409
813,204;21828,941;    0,822;   -0,227
813,769;22299,443;    2,094;   -0,045
814,334;21721,127;    0,458;    0,864
814,898;21806,538;    0,367;    0,591
815,463;21666,676;    1,276;   -0,773
816,027;21677,996;   -0,724;   -2,318
816,592;21758,498;    0,640;   -2,045
817,156;21264,091;    2,094;    1,136
817,721;21084,138;    4,276;    2,318
818,285;21086,367;    2,912;    1,500
818,849;21756,687;   -1,451;    1,682
819,414;21636,734;   -0,269;    2,955
819,978;21195,054;   -1,269;    1,773
820,542;21767,738;    2,003;    0,500
821,106;21519,422;   -0,815;    0,682
821,670;21586,560;   -0,815;    2,591
822,234;21290,425;   -0,270;    1,409
822,798;20731,382;    0,003;    0,500
823,362;20702,247;   -0,633;    4,227
823,926;20002,658;    0,094;    1,136
824,490;20209,524;   -0,997;   -0,682
825,054;20636,753;   -0,088;   -1,136
825,618;20264,527;   -1,542;   -1,500
826,181;20184,120;    0,458;   -1,318
826,745;20144,804;    1,367;   -1,045
827,309;20510,033;    1,185;    1,318
827,872;19901,626;    1,367;    0,955
828,436;20907,218;    1,185;   -0,773
828,999;20981,538;   -0,997;    1,227
829,563;19761,222;   -0,179;    1,136
830,126;19580,906;   -0,179;   -0,591
830,690;19578,771;   -1,997;    2,864
831,253;19104,819;   -0,543;    2,227
831,816;19251,684;   -1,906;    0,500
832,380;19150,731;    0,185;    0,864
832,943;19358,960;   -1,361;   -0,500
833,506;18850,644;    2,639;   -1,227
834,069;19642,055;    3,912;   -0,955
834,632;19705,011;    1,730;    1,318
835,195;19628,604;    1,003;    0,955
835,758;18849,015;   -0,997;    1,955
836,321;18704,699;    0,730;   -1,045
836,884;18792,019;   -0,725;   -0,955
837,447;18835,248;   -2,816;    1,773
838,010;19063,568;    0,366;    3,227
838,573;19352,706;   -1,179;    0,773
839,135;19340,026;   -1,361;   -0,955
839,698;18817,074;    1,275;    0,409
840,261;18348,484;    1,003;   -0,227
840,823;18189,986;   -0,543;    0,864
841,386;18462,943;   -0,452;   -2,409
841,948;18325,445;   -1,361;    1,773
842,511;18104,674;    0,912;    1,682
843,073;18215,539;    1,912;    0,227
843,636;18052,586;   -0,361;   -0,227
844,198;17973,179;    0,911;    0,591
844,760;18065,863;    1,093;    1,955
845,322;17711,728;    0,548;    1,136
845,885;18166,594;    0,730;    0,591
846,447;18646,278;   -1,998;    0,227
847,009;18183,779;    1,911;   -0,682
847,571;18509,190;    0,820;   -2,045
848,133;18593,147;   -1,089;   -1,864
848,695;18418,194;   -0,543;    1,409
849,257;17980,514;   -1,089;   -1,682
849,819;18143,743;   -0,998;   -0,409
850,381;18219,154;   -0,725;   -0,864
850,942;18551,020;    1,093;   -0,591
851,504;18475,340;    1,184;    0,227
852,066;18524,023;    1,275;   -1,591
852,628;18078,707;   -0,180;    1,955
853,189;17636,300;    1,638;    2,682
853,751;17764,347;   -0,907;    1,409
854,312;17572,576;   -0,453;   -1,682
854,874;18047,533;   -2,089;   -0,773
855,435;18581,853;   -0,907;   -1,682
855,997;18765,809;   -1,816;   -0,136
856,558;17998,674;    0,366;    1,773
857,119;18123,904;    0,820;    2,864
857,681;17855,314;    0,002;    0,318
858,242;17883,907;    1,911;   -2,136
858,803;18360,409;    0,456;   -0,773
859,364;18946,093;    0,184;   -4,773
859,925;18236,685;   -2,453;   -0,955
860,486;18134,642;   -0,453;   -0,955
861,047;17871,962;   -0,544;   -1,227
861,608;17665,009;   -1,089;   -0,773
862,169;17817,784;    0,638;   -0,045
862,730;17565,649;    0,456;    1,409
863,291;17812,242;   -0,635;   -0,500
863,852;18144,653;   -0,635;    1,955
864,412;17650,064;   -0,271;   -0,864
864,973;16235,384;   -0,089;    0,500
865,534;16120,795;   -1,726;    0,227
866,094;17641,842;    1,820;    0,227
866,655;17271,435;    1,274;    3,318
867,215;17529,755;    0,274;    0,136
867,776;17376,802;    0,547;   -0,136
868,336;17485,031;   -1,453;    0,136
868,897;16953,260;    2,638;    1,682
869,457;16703,126;    1,365;    0,318
870,017;16929,446;    0,547;   -1,227
870,578;17448,402;   -0,817;    0,773
871,138;17162,722;   -2,089;   -0,955
871,698;16711,952;   -0,817;   -1,318
872,258;16589,817;   -0,453;   -2,864
872,818;16967,955;    2,729;    0,045
873,378;16909,275;    0,638;    1,045
873,938;16460,595;    0,547;    0,500
874,498;16780,461;    0,274;   -1,955
875,058;16672,963;    2,183;    1,773
875,618;16530,464;    1,910;   -2,682
876,177;16456,875;    1,274;    0,136
876,737;16050,468;   -0,090;    1,955
877,297;16052,697;    0,183;    1,955
877,856;16079,199;   -0,362;    0,318
878,416;16023,610;    1,183;   -0,136
878,976;16267,203;   -1,817;    0,409
879,535;16427,068;    0,092;    3,136
880,095;16166,843;   -0,544;    0,045
880,654;16320,890;   -1,090;    1,318
881,213;16351,210;    2,456;    1,500
881,773;16003,076;    2,637;    2,682
882,332;16318,214;    3,365;    5,136
882,891;16209,625;    3,092;    2,136
883,451;16655,854;   -1,272;    1,682
884,010;16137,447;   -2,908;   -0,409
884,569;16237,039;   -0,999;   -0,045
885,128;16375,087;    2,819;   -1,864
885,687;16396,770;    4,455;    0,682
886,246;16104,000;    1,455;    2,136
886,805;15894,501;    2,455;    2,045
887,364;16193,367;   -0,999;   -0,500
887,922;16533,414;   -1,181;    0,045
888,481;16066,007;   -1,545;    0,591
889,040;16359,600;    1,183;    2,136
889,599;17060,283;    2,455;    1,409
890,157;17118,603;    1,455;    2,409
890,716;16771,923;   -0,090;    0,227
891,274;16554,062;    0,092;   -1,136
891,833;16986,745;    1,546;    0,864
892,391;16863,429;   -0,454;    0,500
892,950;16936,840;    1,819;   -0,773
893,508;17340,069;    0,455;   -0,409
894,067;16660,571;    0,637;    0,136
894,625;16567,164;   -0,636;   -1,500
895,183;16819,756;   -0,363;   -0,682
895,741;16704,804;    1,728;   -1,773
896,299;16489,033;   -0,545;   -2,409
896,858;16707,171;    0,819;   -1,591
897,416;16796,855;    2,728;   -1,318
897,974;16582,902;    1,819;    0,318
898,532;16715,040;    6,091;    2,682
899,089;16595,269;    2,091;   -0,682
899,647;16701,953;   -1,454;    1,318
900,205;16438,091;    1,182;    1,045
900,763;16630,320;   -0,454;    0,227
901,321;16618,186;    2,364;   -1,409
901,878;16081,779;   -1,000;   -0,773
902,436;15978,371;   -1,363;    1,318
902,994;16316,873;    4,728;    3,682
903,551;15775,193;    0,728;    0,409
904,109;16188,786;    0,182;   -1,409
904,666;15779,742;    2,455;    1,045
905,224;15645,608;    0,182;   -0,409
905,781;15356,201;    0,727;   -0,318
906,338;15442,975;   -1,363;    1,045
906,895;15330,204;    0,637;    2,045
907,453;15289,070;    1,727;    1,136
908,010;15332,753;   -0,909;    0,409
908,567;14963,619;    1,273;    0,591
909,124;14503,575;    0,364;   -1,500
909,681;14592,441;   -2,909;    0,682
910,238;14712,397;    0,636;   -1,318
910,795;15050,263;   -0,273;   -1,136
911,352;14653,990;   -2,909;   -2,682
911,909;14061,535;   -1,364;   -0,864
912,466;14591,444;   -3,182;    1,500
913,022;14161,081;   -1,636;    0,500
913,579;14513,808;   -0,909;    2,045
914,136;14237,717;    1,636;    0,955
914,692;14549,990;    0,091;   -1,227
915,249;14143,717;    1,455;    0,409
915,806;14360,444;    0,182;    1,955
916,362;14114,808;    1,909;    1,864
916,918;13662,444;    2,000;    1,045
917,475;13618,899;   -1,182;    0,955
918,031;13735,444;    3,364;   -0,045
918,587;13225,263;   -0,909;   -0,318
919,144;13412,535;   -2,273;    0,227
919,700;13711,990;    1,727;    0,773
920,256;13284,626;    0,727;    0,045
920,812;12929,263;   -0,727;   -1,045
921,368;12947,354;   -1,727;   -1,045
921,924;12561,990;    0,182;   -0,136
922,480;12179,263;   -0,545;    1,227
923,036;12808,808;    1,273;    1,955
923,592;12720,899;    0,455;    0,318
924,148;12651,444;    0,455;   -0,955
924,704;11942,172;   -1,364;   -0,409
925,259;12241,535;   -0,273;    0,591
925,815;11990,990;    1,455;    0,500
926,371;11496,081;    2,909;    1,409
926,926;11421,444;    2,091;    0,591
927,482;11049,444;   -1,364;    0,773
928,037;10915,172;    0,909;    2,045
928,593;11211,717;    1,636;    1,045
929,148;11038,535;   -1,818;   -1,500
929,704;10541,717;   -1,455;   -0,500
930,259;10759,717;    0,091;   -0,136
930,814; 9837,626;   -0,818;    1,955
931,369; 9529,990;    1,091;   -0,773
931,925; 9416,717;   -0,091;    0,136
932,480; 9325,444;   -2,818;   -2,591
933,035; 9224,535;    0,545;   -0,318
933,590; 8980,899;    0,364;   -1,773
934,145; 8661,444;   -1,364;   -0,318
934,700; 9019,990;    0,455;   -0,591
935,255; 8830,172;   -0,091;    0,045
935,809; 8082,535;    3,182;    0,864
936,364; 7249,354;   -0,455;   -0,136
936,919; 7223,990;    0,455;   -1,773
937,474; 7119,535;    1,455;    0,136
938,028; 6883,444;   -1,636;    1,136
938,583; 6348,808;    1,818;    4,682
939,138; 6681,172;    2,091;    2,136
939,692; 6109,717;    1,636;   -1,136
940,247; 5812,535;   -0,727;   -1,045
940,801; 5369,354;   -0,636;    0,227
941,355; 5290,899;   -0,364;    2,591
941,910; 4952,717;   -0,273;   -2,136
942,464; 5057,990;   -0,818;   -0,318
943,018; 4856,717;    1,000;   -0,227
943,572; 4785,535;    2,545;   -0,682
944,126; 4227,626;    0,091;   -0,409
944,681; 4126,081;    3,091;    0,227
945,235; 4094,081;    1,000;   -0,591
945,789; 4052,626;    0,364;   -1,864
946,342; 4137,899;    0,455;   -0,591
946,896; 3937,263;   -2,273;    0,955
947,450; 3709,172;    1,545;   -0,227
948,004; 3881,899;    1,727;   -0,045
948,558; 3879,808;    0,273;   -0,864
949,111; 3817,444;   -0,273;   -0,318
949,665; 3866,081;    1,636;   -0,682
950,219; 3734,808;   -0,091;   -1,045
950,772; 3802,444;   -1,909;    1,864
951,326; 3731,899;    0,545;   -0,955
951,879; 3827,444;    0,727;   -2,318
952,433; 3838,081;    0,000;    2,227
952,986; 3668,354;    2,909;    0,682
953,539; 3632,263;   -0,273;    0,591
954,093; 3568,808;    0,545;   -1,318
954,646; 3712,263;    0,909;    1,318
955,199; 3511,081;    0,000;   -0,500
955,752; 3405,626;   -0,455;    1,773
956,305; 3370,354;   -0,091;    2,955
956,858; 3524,172;    0,818;   -0,318
957,411; 3688,444;   -0,545;    2,136
957,964; 3525,172;    1,364;    2,136
958,517; 3514,808;   -1,545;    3,136
959,070; 3354,899;   -0,455;    1,955
959,623; 3430,990;    1,091;    1,500
960,176; 3190,263;    1,727;    2,045
960,728; 3166,808;   -2,727;    0,773
961,281; 3242,172;    0,545;    0,500
961,834; 3290,535;   -0,909;    0,864
962,386; 3207,081;    1,727;    1,045
962,939; 3113,899;    0,364;   -0,318
963,491; 3251,808;    0,455;    1,136
964,043; 3133,172;    1,182;    2,409
964,596; 3266,172;   -1,000;    2,227
965,148; 3107,808;   -1,000;    1,773
965,700; 3024,444;    1,091;   -0,227
966,253; 3171,626;   -0,636;    0,318
966,805; 3010,444;   -2,273;    0,773
967,357; 3071,172;    1,091;   -1,500
967,909; 3025,354;    0,455;   -1,227
968,461; 3145,172;    0,545;    3,136
969,013; 3078,081;   -0,182;   -0,864
969,565; 3134,626;   -0,455;   -1,136
970,117; 3209,444;   -0,364;    1,045
970,669; 3048,444;    0,182;   -0,136
971,220; 2910,535;   -0,455;   -1,500
971,772; 2841,172;   -0,636;   -0,318
972,324; 2956,081;    0,091;   -0,500
972,876; 2922,354;    0,818;   -0,045
973,427; 3034,717;    1,909;   -1,045
973,979; 3005,263;   -0,727;   -2,500
974,530; 3041,444;    1,818;    1,318
975,082; 3050,535;   -0,545;    1,682
975,633; 2949,899;    1,091;    1,682
976,184; 3080,354;    0,909;    0,773
976,736; 2897,172;    0,091;    0,227
977,287; 2696,263;   -0,909;   -0,500
977,838; 2869,808;    0,909;   -0,318
978,389; 2919,172;   -1,000;   -0,500
978,940; 2792,899;    0,545;   -0,409
979,491; 2834,081;    0,091;   -0,500
980,042; 2798,081;    0,182;    3,045
980,593; 2860,535;   -2,545;    0,227
981,144; 2891,354;    2,545;   -0,500
981,695; 2854,081;    1,455;    1,500
982,246; 2828,535;   -0,273;    1,045
982,797; 2973,444;   -1,727;    0,682
983,347; 3073,535;    0,364;    0,591
983,898; 3234,354;    3,091;    0,409
984,449; 3069,263;    2,182;    0,773
984,999; 2969,808;    1,455;   -1,136
985,550; 2777,172;    0,182;   -0,318
986,100; 2804,808;   -0,455;   -0,318
986,651; 2851,717;   -0,818;    0,045
987,201; 2827,717;   -1,000;   -0,591
987,751; 2892,172;    0,818;    2,864
988,302; 2872,444;    2,636;    1,500
988,852; 2906,172;    0,455;   -1,136
989,402; 2958,444;    0,091;    0,682
989,952; 2866,808;   -2,182;    0,864
990,502; 2973,263;   -0,091;    0,682
991,052; 2944,808;   -0,727;    0,045
991,602; 2826,081;   -2,909;    1,318
992,152; 2815,808;    0,455;    0,682
992,702; 2780,717;    1,364;   -0,045
993,252; 2696,626;   -3,000;   -0,500
993,802; 2802,808;   -0,273;    1,318
994,352; 3025,354;   -1,545;    1,136
994,901; 3112,444;   -0,182;    3,227
995,451; 3041,081;   -0,182;    0,318
996,000; 3132,808;    1,636;    0,318
996,550; 2839,899;    2,273;    0,227
997,100; 2833,990;    1,273;   -0,045
997,649; 3102,354;    2,182;    0,955
998,198; 2762,172;    1,727;   -1,500
998,748; 2955,354;    1,091;   -2,318
999,297; 2868,899;   -0,818;   -0,409
999,846; 2916,444;    1,000;   -0,773
1000,395; 2977,717;   -0,818;    0,500
1000,945; 2923,172;    1,818;   -0,773
1001,494; 3008,172;    2,364;    0,682
1002,043; 2997,535;    4,636;    0,864
1002,592; 2836,444;   -1,091;    1,955
1003,141; 3006,444;   -0,455;   -0,682
1003,690; 2843,990;    1,727;    0,500
1004,238; 2931,899;    1,455;   -0,045
1004,787; 2583,626;    1,364;    1,227
1005,336; 2806,808;    0,364;    0,682
1005,885; 2940,444;    1,364;   -2,773
1006,433; 3070,899;    0,545;    0,955
1006,982; 3136,263;    0,455;    1,682
1007,531; 3039,263;   -1,818;   -0,227
1008,079; 2993,626;   -2,273;    0,500
1008,627; 3150,172;   -1,455;    0,409
1009,176; 2874,717;    0,000;   -1,955
1009,724; 2916,899;    1,091;    0,864
1010,273; 2980,535;    1,273;    0,500
1010,821; 3099,535;    0,091;    1,409
1011,369; 2829,626;   -1,364;    1,318
1011,917; 2804,263;   -1,364;   -0,591
1012,465; 3096,899;    1,273;   -1,591
1013,013; 3197,626;    2,091;   -1,682
1013,561; 3075,263;    0,455;   -0,773
1014,109; 3141,354;   -1,909;    1,682
1014,657; 3019,990;    0,364;    0,591
1015,205; 3146,444;    1,636;   -0,955
1015,753; 3169,081;   -0,545;   -1,409
1016,301; 3217,081;   -2,636;    3,045
1016,848; 3225,444;   -1,273;    0,409
1017,396; 3247,899;    2,545;    0,045
1017,944; 3354,899;    1,182;    1,864
1018,491; 3121,354;    0,273;    1,409
1019,039; 3266,354;    0,455;    0,591
1019,586; 3206,444;   -1,364;    1,682
1020,134; 3292,626;    0,455;    1,500
1020,681; 3311,990;    0,182;   -1,136
1021,228; 3353,717;    2,909;   -2,227
1021,776; 3171,808;    1,182;   -1,136
1022,323; 3378,899;    0,455;    0,773
1022,870; 3312,626;   -1,000;   -0,045
1023,417; 3226,899;    2,636;    1,864
1023,964; 3364,626;    2,636;    1,227
1024,511; 3202,626;    1,000;    0,773
1025,058; 3015,263;    3,182;   -0,045
1025,605; 3074,717;   -2,273;    3,136
1026,152; 3278,354;    1,727;   -0,591
1026,699; 3006,808;    1,818;    1,318
1027,245; 3185,172;   -0,091;    0,318
1027,792; 3386,444;   -1,000;    1,409
1028,339; 3273,263;    2,364;   -0,045
1028,885; 3112,990;    1,000;   -0,227
1029,432; 3055,263;   -0,091;    0,227
1029,978; 3116,081;   -1,000;   -1,591
1030,525; 3045,990;    1,000;    0,409
1031,071; 3273,444;   -1,364;    1,136
1031,618; 3372,808;    0,364;    1,682
1032,164; 3161,535;   -0,091;    3,045
1032,710; 3203,990;    1,636;   -1,500
1033,256; 3110,354;   -0,636;   -0,136
1033,803; 3098,808;   -0,545;    1,500
1034,349; 2838,354;   -1,364;    0,136
1034,895; 2995,354;    0,000;   -0,318
1035,441; 2965,808;   -0,818;    0,318
1035,987; 2972,354;   -2,364;   -0,682
1036,533; 2967,263;   -1,455;   -0,955
1037,078; 3163,899;    1,455;    1,682
1037,624; 2986,990;    2,455;   -0,955
1038,170; 3011,535;    0,455;   -0,318
1038,716; 2915,172;    1,636;   -0,409
1039,261; 2827,444;   -2,273;   -0,773
1039,807; 2777,808;   -0,091;    3,409
1040,352; 2843,717;   -1,909;   -0,318
1040,898; 2893,535;   -1,545;   -0,682
1041,443; 2785,172;   -1,455;   -2,591
1041,989; 2807,172;    1,091;    1,591
1042,534; 2721,354;   -0,364;    2,591
1043,079; 2820,990;    2,909;    0,955
1043,625; 2617,990;    1,818;    0,500
1044,170; 2678,354;   -1,364;    1,045
1044,715; 2915,808;    2,455;    0,955
1045,260; 2735,535;    2,182;   -0,955
1045,805; 2799,444;    1,182;   -0,591
1046,350; 2720,172;    1,364;   -0,409
1046,895; 2680,535;    2,909;    1,591
1047,440; 2626,263;    5,364;    0,409
1047,985; 2530,717;    2,818;   -0,955
1048,530; 2441,444;    1,545;    1,227
1049,074; 2486,172;    0,000;    0,318
1049,619; 2492,535;   -1,364;    1,955
1050,164; 2288,990;    0,455;    0,227
1050,708; 2340,172;   -0,455;    0,045
1051,253; 2710,444;    1,273;   -2,227
1051,797; 2416,081;    0,818;   -1,318
1052,342; 2433,444;   -1,182;    1,045
1052,886; 2423,808;    0,364;   -1,409
1053,430; 2308,263;   -1,364;    0,136
1053,975; 2324,444;   -0,818;   -0,318
1054,519; 2299,899;   -0,727;    3,227
1055,063; 2316,990;    0,909;    1,318
1055,607; 2188,717;   -0,182;    0,227
1056,151; 2220,081;    2,909;    1,682
1056,695; 2155,808;    2,273;   -1,136
1057,239; 2224,263;   -1,727;   -0,682
1057,783; 2229,172;    0,818;   -1,500
1058,327; 2159,535;    0,000;    1,409
1058,871; 2390,717;   -0,545;    1,318
1059,415; 2111,626;   -0,818;   -0,045
1059,958; 2368,081;    1,455;    2,591
1060,502; 2091,172;   -1,000;   -0,773
1061,046; 2002,808;    0,364;   -0,955
1061,589; 1977,535;   -3,000;   -1,136
1062,133; 1867,172;   -1,273;    1,864
1062,676; 1805,081;    1,182;    0,864
1063,220; 1824,717;    1,091;    0,500
1063,763; 1825,444;    0,909;    1,136
1064,306; 1892,626;   -0,909;    1,864
1064,849; 1790,354;   -0,909;    0,591
1065,393; 1792,263;    2,000;   -1,500
1065,936; 1906,808;    0,182;   -0,409
1066,479; 1788,899;   -1,455;    1,318
1067,022; 1807,899;   -0,273;   -0,227
1067,565; 1710,626;   -0,091;   -1,318
1068,108; 1739,081;    0,727;   -0,591
1068,651; 1717,990;   -0,636;    1,409
1069,194; 1633,626;   -0,455;   -1,682
1069,736; 1642,535;   -1,273;    0,955
1070,279; 1625,808;   -1,364;   -0,500
1070,822; 1659,626;   -2,000;   -0,318
1071,364; 1745,444;   -0,364;    1,318
1071,907; 1586,626;   -0,727;    3,227
1072,450; 1483,717;    0,000;   -0,045
1072,992; 1484,444;   -0,273;    3,136
1073,535; 1612,172;    2,091;    2,136
1074,077; 1410,808;   -0,727;    2,045
1074,619; 1383,808;   -1,364;    0,591
1075,161; 1431,990;   -1,091;    1,500
1075,704; 1599,172;    1,545;    1,227
1076,246; 1394,444;   -0,182;    0,682
1076,788; 1328,626;   -0,364;    1,773
1077,330; 1411,354;    1,273;    2,136
1077,872; 1361,172;    0,909;    0,955
1078,414; 1574,263;    2,727;    0,773
1078,956; 1318,263;    1,273;   -0,227
1079,498; 1582,808;    1,636;    0,318
1080,040; 1284,263;    1,909;   -1,318
1080,581; 1226,081;    1,636;   -0,318
1081,123; 1159,354;    0,091;   -0,773
1081,665; 1212,717;   -1,182;   -0,955
1082,206; 1491,172;    1,364;   -0,500
1082,748; 1345,535;    0,727;    2,045
1083,289; 1233,535;   -2,000;    1,318
1083,831; 1147,899;   -0,545;    0,227
1084,372; 1174,899;    0,000;    0,591
1084,913; 1174,263;    1,091;    0,864
1085,455; 1152,899;   -1,909;   -2,045
1085,996; 1123,626;   -2,273;    0,136
1086,537; 1138,354;   -0,091;    0,864
1087,078; 1163,626;   -0,909;   -2,136
1087,619; 1206,717;   -1,273;    0,227
1088,160; 1129,808;    0,000;    1,318
1088,701; 1116,808;   -1,091;    0,682
1089,242; 1054,081;    1,364;   -2,227
1089,783; 1152,354;   -0,273;    1,409
1090,324; 1116,990;    0,455;    0,682
1090,865; 1003,444;    2,727;   -0,409
1091,405;  973,808;    0,727;    2,227
1091,946; 1000,354;    0,182;   -0,955
1092,487;  925,899;    0,818;   -1,409
1093,027; 1082,081;   -1,364;   -1,500
1093,568;  936,990;   -0,364;    1,227
1094,108; 1038,990;    0,273;    1,773
1094,649;  971,354;   -1,182;    0,136
1095,189;  919,990;   -0,636;   -0,682
1095,729;  858,899;   -0,091;    0,955
1096,269;  855,263;    0,727;   -0,955
1096,810; 1173,263;   -1,364;    0,500
1097,350; 1001,626;    1,364;   -0,773
1097,890;  912,626;    0,364;    1,227
1098,430; 1154,444;    2,364;    2,864
1098,970; 1035,354;    2,182;    1,682
1099,510;  899,535;    0,545;   -2,318
1100,050;  836,717;    1,000;   -1,591
1100,589;  802,990;   -0,727;   -0,318
1101,129;  913,990;    0,818;   -0,955
1101,669; 1059,081;    1,727;    2,136
1102,209;  883,081;   -0,091;    2,227
1102,748;  836,899;    0,000;    0,955
1103,288;  836,263;    1,273;   -1,227
1103,827;  867,535;    3,091;   -2,227
1104,367;  727,535;   -0,091;   -2,409
1104,906;  709,444;    1,364;   -1,136
1105,445;  772,717;    0,636;   -1,136
1105,985;  719,717;   -0,727;    1,500
1106,524;  762,354;   -1,727;   -0,682
1107,063;  738,808;   -2,727;    1,409
1107,602;  714,354;   -1,909;   -1,500
1108,141;  639,899;   -1,909;    1,500
1108,680;  732,535;   -3,455;   -0,591
1109,219;  673,263;   -0,909;   -0,500
1109,758;  669,717;    0,455;    0,682
1110,297;  642,899;    1,000;   -0,682
1110,836;  589,990;   -0,727;    0,955
1111,375;  756,808;   -2,545;    0,409
1111,913;  762,081;   -1,000;    0,773
1112,452;  712,444;   -0,273;    0,136
1112,991;  601,535;    1,091;    1,955
1113,529;  562,535;   -0,818;   -0,045
1114,068;  623,172;   -0,273;    2,955
1114,606;  526,990;   -0,364;   -0,955
1115,144;  671,626;   -1,273;    1,045
1115,683;  611,354;   -0,727;    0,318
1116,221;  662,899;   -0,455;   -0,864
1116,759;  575,354;    0,636;   -0,864
1117,297;  772,263;    0,000;    1,864
1117,836;  581,354;   -2,182;   -1,227
1118,374;  583,717;    0,182;   -0,682
1118,912;  521,990;    0,909;    2,682
1119,450;  514,354;    1,000;    0,864
1119,988;  564,444;    1,545;    2,136
1120,525; 1017,081;    5,091;    3,318
1121,063;  713,990;    1,182;    1,864
1121,601;  529,990;   -0,909;   -1,227
1122,139;  489,081;   -0,727;   -2,045
1122,676;  680,263;   -0,727;    2,773
1123,214;  612,444;   -1,182;    4,409
1123,751;  425,081;    1,727;    2,227
1124,289;  561,626;   -0,091;   -0,409
1124,826;  428,626;    1,727;    0,227
1125,364;  353,081;    1,727;   -0,955
1125,901;  530,899;    1,182;    1,227
1126,438;  638,990;    0,818;    0,955
1126,975;  381,626;   -0,727;   -0,773
1127,513;  450,081;    0,273;    2,136
1128,050;  349,172;    1,636;   -0,682
1128,587;  448,990;    2,000;   -0,227
1129,124;  503,354;    0,091;    1,318
1129,661;  372,717;    0,273;    0,227
1130,198;  534,990;    1,636;    0,773
1130,734;  470,899;    0,182;    1,409
1131,271;  334,990;   -0,909;    0,864
1131,808;  501,081;    2,909;    3,045
1132,345;  377,808;    1,545;    0,318
1132,881;  249,717;   -1,545;   -1,864
1133,418;  387,263;    0,727;   -1,136
1133,954;  326,808;    2,455;   -2,682
1134,491;  396,808;    1,364;   -0,773
1135,027;  300,535;    2,364;    0,864
1135,564;  389,808;    0,273;    2,955
1136,100;  373,990;    0,364;    2,136
1136,636;  263,990;   -1,273;   -1,045
1137,172;  353,535;    0,000;   -1,045
1137,708;  271,444;   -1,364;   -1,045
1138,245;  278,626;    1,273;   -1,227
1138,781;  233,899;    1,091;   -3,318
1139,317;  303,081;    1,273;   -1,409
1139,852;  291,626;    3,091;    0,136
1140,388;  405,172;   -1,182;   -0,409
1140,924;  281,263;   -1,091;   -2,227
1141,460;  222,626;   -1,636;    0,136
1141,996;  165,808;   -1,364;    2,682
1142,531;  209,626;    1,364;    3,318
1143,067;  419,081;    1,182;    1,045
1143,602;  484,808;   -0,091;   -0,318
1144,138;  331,354;   -2,636;    1,045
1144,673;  200,354;   -1,455;    1,409
1145,209;  262,717;   -1,909;   -0,318
1145,744;  185,990;   -0,727;    0,864
1146,279;  318,081;    1,818;   -0,136
1146,815;  235,899;    1,545;   -2,682
1147,350;  268,535;   -1,364;    0,045
1147,885;  188,354;   -0,818;   -1,318
1148,420;  177,263;   -2,273;    0,773
1148,955;  162,263;   -1,727;    1,864
1149,490;  188,081;   -0,909;   -1,591
1150,025;  177,899;    0,455;   -1,773
1150,560;  291,444;    1,091;   -0,955
1151,094;  251,990;    1,455;   -0,591
1151,629;  256,535;    1,636;    0,864
1152,164;  185,444;    1,364;    1,318
1152,698;  149,535;   -0,182;   -0,136
1153,233;   99,081;    0,091;   -0,682
1153,767;  146,626;   -3,000;   -2,318
1154,302;  202,444;   -1,455;    1,773
1154,836;  198,899;   -0,455;   -2,136
1155,371;  247,354;   -1,364;    3,682
1155,905;  203,444;   -0,636;    1,682
1156,439;  180,081;   -0,636;   -0,500
1156,973;  202,626;    0,364;    0,318
1157,507;  138,899;   -0,364;    0,682
1158,042;  170,172;   -0,727;    1,045
1158,576;  214,899;    0,182;    1,773
1159,110;  206,081;   -0,818;    2,409
1159,643;  172,717;    0,636;   -0,045
1160,177;  109,354;   -1,545;    1,500

