
Integration time [ms]:   0,040
Averaging Nr. [scans]: 11
Smoothing Nr. [pixels]: 0
Data measured with spectrometer [name]: 7318044SP
Wave   ;Sample   ;Dark     ;Reference
[nm]   ;[counts] ;[counts] ;[counts] 

186,757;   24,003;   31,551;    1,318
187,357;   57,922;   22,551;    0,955
187,958;   39,349;   15,460;   -1,591
188,558;   77,910;    8,915;   -1,227
189,159;   44,288;    6,733;   -4,500
189,759;   17,347;    7,278;   -3,591
190,360;   15,466;    2,824;   -2,136
190,960;   60,158;    2,915;   -4,136
191,560;   65,659;    3,189;   -6,591
192,161;  292,260;    4,372;   -3,500
192,761;  140,386;    4,010;   -3,227
193,361;   98,311;    1,556;   -3,773
193,962;  151,062;    2,010;   -2,682
194,562;   74,471;    1,189;   -3,955
195,162;  108,205;   -2,448;   -2,227
195,762;  260,190;   -3,176;   -0,045
196,362;  214,290;    1,370;   -2,500
196,963;   80,515;    2,006;   -0,864
197,563;  159,275;    1,551;   -0,955
198,163;  100,332;    0,096;   -0,682
198,763;  117,077;    1,733;   -0,500
199,363;  218,049;    3,096;   -0,500
199,963;  186,164;    0,369;    0,409
200,563;  162,659;    2,823;   -1,409
201,163;  138,884;    3,277;   -0,227
201,763;  228,698;    3,732;    0,318
202,363;  173,129;    1,459;    1,500
202,963;  278,566;    1,459;    1,045
203,563;  384,043;    0,277;    0,500
204,162;  233,319;    2,096;   -1,864
204,762;  219,352;    0,550;    0,591
205,362;  194,854;    3,004;    1,955
205,962;  285,974;    3,096;    1,955
206,562;  288,150;    1,823;    2,318
207,161;  264,784;   -0,087;    0,318
207,761;  416,817;    1,277;    2,409
208,361;  302,411;   -0,268;    1,409
208,960;  395,662;    0,459;    1,500
209,560;  469,172;    1,277;    1,591
210,160;  439,616;    0,550;    1,864
210,759;  414,184;    4,186;    1,227
211,359;  417,638;    1,459;    1,045
211,958;  670,073;    1,277;    2,045
212,558;  766,068;    1,732;    1,864
213,157;  599,351;    1,822;    1,500
213,757; 1049,279;    3,822;   -0,227
214,356;  745,025;    1,277;   -0,409
214,956; 1075,608;    3,095;    0,409
215,555;  703,647;    2,095;    2,136
216,154;  645,859;   -2,723;   -0,591
216,754;  652,312;    0,277;    0,773
217,353;  785,265;   -0,268;   -1,045
217,952;  641,269;   -0,178;    0,318
218,552;  876,997;    1,368;   -0,773
219,151;  769,673;    0,277;    0,955
219,750;  770,112;    0,004;   -0,227
220,349;  895,515;   -0,451;    1,045
220,948;  963,162;   -1,360;    1,136
221,548;  970,083;    0,913;    1,227
222,147; 1091,928;   -0,087;   -0,409
222,746; 1369,615;   -0,451;   -0,955
223,345; 1255,255;    0,731;    0,500
223,944; 1258,392;   -0,451;    0,773
224,543; 1433,109;    1,004;   -1,409
225,142; 1538,876;    0,094;    0,136
225,741; 1442,457;   -0,814;    1,045
226,340; 1458,764;   -0,451;   -0,955
226,939; 1900,744;   -0,996;   -0,136
227,538; 1848,576;   -0,360;   -0,773
228,137; 1995,890;   -0,814;    0,864
228,735; 2125,162;   -0,541;    1,227
229,334; 1905,251;   -0,905;   -0,227
229,933; 2269,404;    0,459;    0,591
230,532; 2362,395;    1,186;   -0,409
231,131; 2420,056;    1,732;    0,318
231,729; 2549,219;   -2,450;   -2,318
232,328; 2663,731;   -0,723;   -1,500
232,927; 2725,839;    1,004;   -0,500
233,525; 2856,356;    3,640;    0,045
234,124; 3046,728;    2,368;   -1,591
234,723; 3061,825;    0,913;   -1,045
235,321; 3199,080;    2,277;    0,136
235,920; 3439,947;    1,186;   -1,227
236,518; 3673,292;    3,459;    0,318
237,117; 3861,053;    0,004;   -0,227
237,715; 4035,403;    0,640;   -0,500
238,314; 4057,398;   -0,087;   -2,318
238,912; 4126,701;   -0,723;   -1,409
239,510; 4177,971;    0,459;   -1,227
240,109; 4355,954;    0,004;    3,773
240,707; 4410,928;   -0,996;    1,227
241,305; 4754,236;    0,550;    0,136
241,904; 4948,418;   -0,178;   -2,045
242,502; 4940,330;   -0,632;   -0,227
243,100; 4892,401;   -0,087;   -0,955
243,698; 5115,115;    0,732;    1,682
244,297; 5297,161;   -0,632;    0,682
244,895; 5148,624;   -0,269;   -2,318
245,493; 5461,601;    2,186;   -0,591
246,091; 5510,113;    1,368;   -1,318
246,689; 5500,021;    1,004;    0,591
247,287; 5651,172;    0,822;   -1,136
247,885; 5931,914;   -1,451;    1,227
248,483; 6064,049;    1,822;   -0,500
249,081; 6179,171;    0,185;    1,591
249,679; 6322,471;   -0,178;    1,682
250,277; 6571,272;   -1,723;    0,864
250,875; 6540,766;   -1,087;   -1,045
251,473; 6598,175;   -1,178;    0,500
252,071; 6792,777;    1,459;    1,045
252,669; 6930,937;   -1,814;    0,318
253,267; 7190,690;   -0,087;    0,773
253,864; 7155,353;   -0,360;    0,682
254,462; 7021,094;    1,640;    1,591
255,060; 6991,817;   -0,269;    1,318
255,658; 7331,301;    0,822;   -0,136
256,255; 7732,262;    0,186;   -2,045
256,853; 7587,096;   -0,269;    1,409
257,451; 7591,145;    0,822;    1,864
258,048; 7852,686;    1,822;    1,864
258,646; 7625,093;    1,731;   -1,045
259,243; 7825,369;   -0,087;    2,227
259,841; 7889,180;   -0,814;    0,318
260,438; 7757,703;   -0,087;    0,864
261,036; 8466,465;   -1,905;    1,409
261,633; 8355,939;   -0,087;    2,227
262,231; 8092,965;    2,731;   -0,045
262,828; 8204,369;   -0,905;    1,136
263,425; 8252,685;    0,913;   -0,591
264,023; 8536,453;    0,186;    0,045
264,620; 8068,819;   -0,360;   -0,318
265,217; 8417,483;   -2,087;    3,136
265,815; 8520,897;   -1,905;    2,136
266,412; 8319,121;    0,731;    0,136
267,009; 8380,871;   -1,451;    0,773
267,606; 8264,184;    0,822;   -0,955
268,203; 8235,317;   -0,269;   -0,591
268,801; 8509,876;    1,731;    0,591
269,398; 8817,402;   -0,360;    2,500
269,995; 8753,459;    0,277;    1,591
270,592; 8583,372;   -0,632;   -0,500
271,189; 8777,705;    0,186;    0,409
271,786; 8884,080;   -0,632;    1,227
272,383; 8711,285;   -1,087;    0,227
272,980; 8902,842;    0,277;    0,318
273,577; 9367,909;    0,004;    1,227
274,174; 8945,579;    0,822;    2,591
274,771; 8908,028;   -0,814;   -0,773
275,367; 9054,544;    2,277;    1,409
275,964; 9018,433;    0,731;   -0,500
276,561; 9143,394;    1,549;   -1,045
277,158; 9310,107;    0,095;   -1,773
277,755; 9437,716;    2,185;    0,409
278,351; 8876,365;   -0,451;   -1,500
278,948; 9147,776;   -0,815;    0,045
279,545; 9178,888;   -1,360;    2,318
280,141; 9755,778;   -1,723;   -2,045
280,738; 9647,572;   -0,451;   -0,136
281,334; 9863,492;   -1,633;    0,591
281,931; 9267,942;   -0,087;   -1,318
282,528; 9381,878;    0,822;   -0,500
283,124;10088,548;   -1,087;   -0,500
283,721;10003,666;   -0,451;    1,409
284,317; 9817,458;    0,185;    2,500
284,913;10354,455;   -1,360;    0,591
285,510;10512,546;    0,640;   -0,318
286,106;10547,142;   -2,269;   -0,955
286,703;10165,652;   -0,360;    1,955
287,299;10361,271;   -1,451;   -0,591
287,895;10596,667;    0,822;   -1,045
288,491;11170,583;    0,186;    2,136
289,088;10917,560;   -2,360;    2,409
289,684;10946,573;   -1,723;    1,500
290,280;10968,412;    0,368;    0,682
290,876;11029,424;    1,822;    5,500
291,472;10961,320;    1,276;    2,227
292,068;11033,052;    1,367;    0,227
292,665;10721,453;    2,095;    0,773
293,261;10392,525;    0,276;    2,136
293,857;10777,683;    2,913;    2,136
294,453;10718,222;    3,550;    0,955
295,049;10561,332;   -0,268;    1,955
295,644;10599,050;    0,095;    0,136
296,240;10493,006;   -0,905;   -0,136
296,836;10560,899;   -0,995;    0,318
297,432;10839,370;    1,096;   -0,500
298,028;10899,613;    0,732;    0,773
298,624;11278,810;    1,459;    1,864
299,220;11528,318;    2,368;    0,591
299,815;11204,479;    1,005;   -0,409
300,411;11015,059;    0,914;    1,773
301,007;11037,701;    1,368;    0,227
301,602;11051,142;   -0,541;   -2,318
302,198;11209,512;    0,732;   -0,773
302,794;11517,194;    1,187;   -0,500
303,389;11665,015;   -1,177;    1,045
303,985;11741,350;    0,550;    1,409
304,580;11683,012;    1,459;    1,591
305,176;11647,574;   -3,086;    0,136
305,771;11617,248;   -1,268;   -1,227
306,367;11461,404;    4,095;    0,136
306,962;11752,597;    0,641;    1,500
307,558;11473,717;   -0,450;    0,136
308,153;11435,211;    1,095;   -1,136
308,748;11702,994;   -0,814;    1,682
309,344;11648,162;   -0,632;   -1,318
309,939;11712,640;   -1,905;   -1,318
310,534;11989,583;   -0,086;   -1,682
311,130;11955,692;    0,459;   -2,500
311,725;11689,880;    1,004;   -0,500
312,320;12004,750;    2,459;    0,045
312,915;11829,402;    1,459;   -1,045
313,510;11900,093;    1,550;   -0,500
314,105;12433,523;    1,096;    1,409
314,700;11800,438;   -3,086;   -1,045
315,295;11442,739;   -0,904;    0,045
315,890;11033,141;    1,277;    0,864
316,485;11372,791;   -0,359;   -0,318
317,080;11476,962;   -3,086;    1,591
317,675;12020,659;    2,005;   -0,682
318,270;11428,425;    5,550;    3,318
318,865;11435,788;    3,278;    3,045
319,460;11299,112;   -0,904;    0,591
320,055;11560,023;   -0,541;   -1,227
320,650;11216,716;   -1,995;   -0,591
321,244;11284,572;   -0,177;   -1,409
321,839;12166,531;   -1,541;   -0,227
322,434;12062,659;   -1,086;   -1,591
323,029;11691,550;    1,732;    1,591
323,623;11491,721;    1,550;    0,773
324,218;11279,817;    2,368;    1,409
324,812;11168,286;    1,096;    1,591
325,407;10969,293;   -0,814;    2,045
326,002;10874,810;    0,277;   -0,409
326,596;11187,890;    0,914;    1,318
327,191;11366,442;    0,823;   -1,045
327,785;10980,617;   -0,813;   -0,227
328,379;11198,655;    1,368;    0,136
328,974;10997,231;    0,914;   -3,955
329,568;11221,499;    0,186;   -2,409
330,163;11071,673;    2,096;    1,045
330,757;11387,944;    2,459;    1,591
331,351;10730,330;    0,459;    0,682
331,945;11059,739;    0,914;    1,409
332,540;10642,149;   -1,723;   -0,591
333,134;10799,643;   -1,086;    0,773
333,728;11066,119;    0,005;    0,318
334,322;11407,047;   -1,177;   -0,864
334,916;10670,075;    0,277;    0,955
335,510;10996,905;   -0,450;   -0,136
336,105;11236,624;   -1,086;    1,591
336,699;10959,333;   -1,086;    0,591
337,293;10929,952;   -1,723;    0,318
337,887;11058,507;   -2,723;    1,955
338,481;11130,997;    0,459;    0,591
339,074;11288,347;   -0,359;    2,682
339,668;11122,585;   -1,632;    1,227
340,262;11395,129;    1,732;    3,227
340,856;10898,598;    1,822;   -0,682
341,450;10269,392;    1,004;    1,864
342,044;11197,588;    1,459;    0,136
342,637;10946,318;    0,913;   -2,136
343,231;10786,297;   -2,360;    0,682
343,825;10749,787;   -1,086;   -0,591
344,419;10732,653;   -1,995;    0,500
345,012;10506,676;    2,459;    4,045
345,606;10502,823;    4,641;    1,591
346,199;10368,298;   -1,813;   -0,227
346,793; 9953,718;    1,914;    2,045
347,386;10119,073;   -0,813;   -1,136
347,980;10099,376;   -0,268;   -0,045
348,573; 9890,606;    2,278;    0,409
349,167; 9595,198;    5,278;    4,773
349,760; 9932,503;    2,914;    2,682
350,354; 9906,770;   -0,813;    1,136
350,947; 9667,453;    1,096;    1,682
351,540; 9360,845;   -0,358;   -1,409
352,134; 9314,624;    1,096;    1,136
352,727; 9371,190;   -0,086;    1,136
353,320; 9178,477;    0,005;    0,591
353,913; 9013,784;   -1,995;    1,864
354,507; 9197,152;    0,823;   -1,227
355,100; 9215,784;    0,460;    0,864
355,693; 8456,028;    2,005;    2,409
356,286; 8489,714;    0,823;    2,773
356,879; 8853,959;   -0,722;    1,227
357,472; 8470,264;   -0,904;    1,500
358,065; 8668,040;   -0,722;    2,500
358,658; 8591,685;   -0,540;    2,318
359,251; 8240,323;   -1,631;   -0,591
359,844; 7746,765;   -1,904;   -1,136
360,437; 7893,027;   -2,995;    0,045
361,030; 8199,929;    1,369;   -0,682
361,623; 7779,393;    2,824;    0,318
362,215; 7797,431;   -0,086;    2,045
362,808; 7657,254;   -2,358;   -1,682
363,401; 7874,811;   -2,449;    0,136
363,994; 7601,046;   -0,631;   -1,500
364,586; 7518,691;    0,824;   -1,500
365,179; 7738,799;   -0,449;   -1,136
365,772; 7220,002;   -1,995;    2,045
366,364; 7534,019;    1,915;   -3,227
366,957; 7715,983;    2,279;   -0,045
367,549; 7741,368;    2,188;   -0,864
368,142; 7395,986;    1,825;   -1,500
368,734; 7580,523;    0,734;   -2,136
369,327; 7530,963;    1,643;   -0,500
369,919; 7450,180;   -1,538;    0,409
370,512; 7272,356;   -1,083;   -0,500
371,104; 7007,895;   -0,901;    1,591
371,696; 7190,211;    1,191;   -0,955
372,289; 7235,951;    0,373;    1,136
372,881; 7386,197;   -2,080;    1,318
373,473; 7311,853;   -2,170;    1,136
374,066; 7139,901;   -0,169;    0,500
374,658; 7006,726;    0,378;    1,136
375,250; 7360,924;    0,653;   -1,409
375,842; 7204,280;    0,473;   -0,045
376,434; 7067,919;   -0,435;   -0,409
377,026; 7671,715;    0,204;   -2,500
377,618; 7527,913;   -0,158;   -0,682
378,210; 7367,589;   -0,338;   -1,955
378,802; 7224,527;    0,754;   -0,591
379,394; 7168,730;    1,846;    0,682
379,986; 7764,806;    1,393;   -0,955
380,578; 7862,572;   -0,153;    0,773
381,170; 7254,041;   -0,972;    0,045
381,762; 7187,867;    0,755;    1,409
382,354; 7367,007;   -0,065;   -1,318
382,945; 7478,816;   -2,976;    0,318
383,537; 7630,155;   -2,705;   -1,955
384,129; 7642,006;   -2,160;   -1,136
384,721; 7831,928;   -0,252;    0,955
385,312; 7744,444;   -0,161;   -0,955
385,904; 7847,572;   -2,706;    1,591
386,496; 7226,909;   -0,979;    1,045
387,087; 7367,135;    1,022;    2,500
387,679; 7408,931;   -1,160;    0,045
388,270; 7575,641;    2,840;    2,045
388,862; 7682,502;    1,295;   -0,318
389,453; 7557,585;   -0,887;    1,045
390,045; 7813,827;   -0,705;   -2,682
390,636; 7728,049;    0,204;   -0,591
391,227; 7583,893;   -0,523;   -0,045
391,819; 7697,270;    0,204;    0,773
392,410; 7742,894;    1,022;    0,045
393,001; 7686,524;   -0,979;   -1,591
393,593; 7960,385;    1,930;   -0,045
394,184; 7793,435;    1,385;   -0,409
394,775; 7752,830;    1,839;    2,136
395,366; 7940,408;    1,385;    0,773
395,957; 7937,108;    0,113;    0,136
396,548; 8230,309;   -0,342;    2,682
397,139; 8515,006;   -2,433;    0,591
397,730; 8257,558;   -1,888;    0,955
398,321; 8337,940;   -1,252;    0,955
398,912; 8333,340;   -0,615;    0,136
399,503; 8432,006;   -3,524;   -1,409
400,094; 7882,594;    0,294;    1,682
400,685; 7777,240;   -0,433;    0,045
401,276; 7850,234;    0,930;   -0,955
401,867; 8176,249;   -0,888;    0,773
402,458; 8235,111;   -2,251;   -2,318
403,048; 8214,618;    1,112;    0,591
403,639; 7850,048;    0,840;    0,864
404,230; 8076,013;    2,476;    0,318
404,821; 8004,551;   -0,615;    0,045
405,411; 8110,050;    1,203;   -2,591
406,002; 7719,286;   -1,252;   -1,136
406,592; 7570,669;    2,294;    0,045
407,183; 7876,997;    0,566;   -1,500
407,774; 7798,321;    3,475;   -0,136
408,364; 8124,192;    0,930;    0,409
408,954; 7742,625;    0,384;    1,227
409,545; 7802,350;    1,021;    1,045
410,135; 7335,189;    1,293;    0,500
410,726; 7501,349;    1,838;    0,318
411,316; 7888,291;    0,111;    0,773
411,906; 7564,793;   -0,253;   -0,409
412,497; 7085,250;   -1,070;   -0,045
413,087; 7655,858;   -1,980;   -0,227
413,677; 8038,016;   -0,707;    3,864
414,267; 7892,891;    0,656;    1,409
414,857; 7894,441;   -2,980;    4,227
415,448; 8160,074;    0,839;    0,500
416,038; 7847,836;    0,020;   -0,591
416,628; 7823,741;   -0,889;    0,409
417,218; 7295,903;    0,565;    3,318
417,808; 7559,726;    0,202;   -0,409
418,398; 8016,666;    0,020;    2,682
418,988; 8021,367;    2,020;    0,591
419,578; 8229,808;   -0,707;    1,409
420,168; 8559,794;   -1,343;   -0,955
420,757; 8155,377;   -1,343;   -1,500
421,347; 7836,202;    0,111;   -0,227
421,937; 8002,594;    2,292;    1,409
422,527; 7938,058;    0,838;   -0,773
423,116; 7748,878;   -0,253;   -0,045
423,706; 8119,130;   -1,889;    0,318
424,296; 8115,674;    1,384;    0,682
424,885; 8492,128;   -0,071;   -3,045
425,475; 8788,140;    1,474;   -2,864
426,065; 8736,351;   -0,980;   -0,318
426,654; 8349,989;   -0,435;   -0,318
427,244; 8428,446;    0,020;    1,409
427,833; 7896,986;    1,383;   -0,500
428,423; 8345,859;   -0,526;    1,136
429,012; 9115,698;   -0,344;   -1,136
429,601; 8615,375;   -1,344;    0,136
430,191; 8845,931;    1,292;    4,318
430,780; 8470,830;   -0,344;   -0,409
431,369; 8420,649;    0,746;   -0,045
431,959; 9034,592;   -1,254;    0,500
432,548; 8798,716;   -1,163;   -0,045
433,137; 8931,453;   -1,254;   -1,318
433,726; 9450,264;    0,292;    0,500
434,315; 8839,786;   -0,526;    2,409
434,905; 8903,574;   -1,254;    1,409
435,494; 8791,862;    0,746;    0,955
436,083; 9266,692;   -0,981;   -0,955
436,672; 9146,428;    0,110;    0,500
437,261; 8722,778;    0,292;   -1,955
437,850; 8825,194;    1,383;    0,682
438,439; 8804,010;    3,291;    1,955
439,027; 8622,653;    3,655;    1,773
439,616; 8950,517;    2,927;    1,227
440,205; 8879,290;    0,200;   -2,136
440,794; 8923,794;    2,109;   -0,045
441,383; 9182,600;   -1,346;   -0,591
441,971; 9029,325;   -2,436;    0,591
442,560; 8853,192;    0,563;   -1,773
443,149; 8614,893;    0,379;   -1,318
443,737; 8761,008;   -0,074;   -2,318
444,326; 9033,194;    0,018;    0,318
444,915; 9070,675;   -1,982;    0,864
445,503; 9440,940;   -2,891;   -0,318
446,092; 8717,309;    0,382;    2,136
446,680; 9244,685;    0,382;    0,318
447,269; 9421,025;   -0,346;   -0,318
447,857; 9203,858;    0,018;   -1,773
448,445; 9314,258;    0,563;    1,318
449,034; 9503,738;   -1,528;   -1,136
449,622; 9660,557;   -1,073;    3,500
450,210; 8853,954;    2,017;    2,227
450,799; 9406,868;    0,290;   -0,591
451,387; 9347,814;    1,381;   -0,591
451,975; 9001,896;    2,654;    0,864
452,563; 9085,670;    3,472;    2,318
453,151; 9150,056;   -0,528;   -1,227
453,739; 9087,966;   -1,347;    0,136
454,328; 8932,926;    2,381;   -2,136
454,916; 8655,605;    2,562;   -0,136
455,504; 8812,078;    1,017;    1,227
456,092; 8993,463;    0,017;   -1,591
456,679; 8957,616;    1,472;    0,682
457,267; 8869,995;    4,017;    1,045
457,855; 9036,610;    1,017;    1,409
458,443; 8802,901;   -0,165;    1,682
459,031; 8952,799;    0,108;    2,409
459,619; 9372,122;   -1,801;    2,864
460,206; 9508,978;    0,835;    2,045
460,794; 9605,201;   -2,983;   -0,227
461,382; 9823,982;   -0,529;   -0,864
461,970; 9391,284;    1,198;    1,864
462,557; 9452,222;   -0,711;   -0,682
463,145; 9646,638;   -3,165;   -1,682
463,732; 9770,208;    2,016;   -1,045
464,320; 9683,348;   -0,075;   -3,045
464,907; 9349,583;    2,743;   -0,773
465,495; 9244,589;    0,743;   -1,227
466,082; 9429,285;   -1,984;   -0,045
466,670; 9316,561;   -2,529;    1,227
467,257; 9706,387;   -1,711;    2,045
467,844; 9877,242;   -0,075;    0,045
468,432; 9894,912;    0,834;    3,500
469,019; 9408,449;    0,925;   -1,773
469,606; 9873,588;    0,470;    3,682
470,193; 9696,130;   -1,439;    0,227
470,780; 9271,714;   -2,075;    0,864
471,368; 9637,849;   -1,257;   -0,773
471,955; 9410,206;    1,379;   -0,682
472,542; 9088,074;    0,652;   -1,136
473,129; 9294,543;   -0,166;    0,136
473,716; 9047,235;    1,470;    0,591
474,303; 9238,509;    0,652;   -0,864
474,890; 9516,030;   -1,439;   -0,500
475,477; 9521,555;   -1,621;    0,409
476,064; 9416,668;    1,106;   -1,591
476,650; 9337,376;    0,288;    0,318
477,237; 9169,376;   -0,258;    0,955
477,824; 9324,593;   -1,076;    0,864
478,411; 9333,498;   -1,894;   -0,318
478,997; 9552,789;    0,560;   -0,773
479,584; 9589,236;    1,196;   -0,409
480,171;10262,227;   -0,440;   -0,773
480,757; 9904,187;    2,651;    0,773
481,344;10202,470;    0,469;    0,409
481,931; 9735,411;    1,105;    1,045
482,517;10635,476;   -1,258;    0,318
483,104;11132,842;    1,106;    2,864
483,690;11398,935;   -1,804;    0,045
484,276;11759,437;   -0,895;    0,227
484,863;11541,881;    2,469;    1,136
485,449;12110,905;   -0,077;    0,318
486,035;12057,212;   -1,986;   -0,136
486,622;12482,468;   -0,895;    0,045
487,208;12459,448;    1,378;    1,500
487,794;12300,130;    0,741;    0,318
488,380;12387,954;    0,105;   -1,409
488,967;12468,075;   -1,168;   -0,409
489,553;12521,002;   -1,895;   -1,409
490,139;12728,428;    1,559;    0,773
490,725;12216,977;    0,741;   -0,227
491,311;11859,852;    3,287;    3,045
491,897;11258,400;   -0,986;    1,500
492,483;11072,255;    0,105;    1,227
493,069;10829,372;    3,923;    0,864
493,655;10838,236;    1,650;    0,682
494,241;10764,565;    1,377;   -0,955
494,826;11159,547;    0,287;   -1,045
495,412;10615,850;    2,559;   -0,682
495,998;10828,980;   -0,805;   -0,318
496,584;10971,910;    0,377;    1,045
497,169;10959,161;    1,014;   -0,682
497,755;10956,158;    0,650;    1,227
498,341;11488,160;    0,559;    0,318
498,926;11074,687;    1,832;    1,955
499,512;11279,596;    1,286;    2,955
500,097;11409,661;    0,195;   -0,318
500,683;11387,652;   -0,350;    2,136
501,268;11770,411;   -0,169;   -0,955
501,854;11502,936;   -0,169;    1,227
502,439;11463,684;   -0,624;   -1,773
503,024;11665,638;    0,195;    0,500
503,610;11753,485;   -0,078;   -0,682
504,195;11797,978;    0,558;    1,955
504,780;11939,324;    2,922;    1,227
505,366;11789,955;    3,013;    2,864
505,951;11487,946;    0,740;    1,045
506,536;11545,699;   -3,260;   -3,682
507,121;11562,266;    0,285;   -0,318
507,706;12083,723;    2,376;    1,045
508,291;12503,310;    2,649;    1,136
508,876;11986,383;   -0,988;    2,591
509,461;11454,003;   -0,169;   -0,773
510,046;11866,576;    0,194;    0,318
510,631;12119,018;   -0,351;   -0,773
511,216;11807,452;    2,467;   -0,500
511,801;12199,216;   -0,442;    2,591
512,386;12514,266;    0,740;    0,500
512,971;12499,287;   -2,988;    0,955
513,555;12045,151;   -0,897;   -1,500
514,140;12805,733;   -0,442;   -3,136
514,725;12773,999;   -0,715;   -1,136
515,309;12913,358;   -0,533;    0,318
515,894;12402,509;   -0,624;   -2,227
516,479;12858,880;   -0,624;   -0,955
517,063;12743,510;    0,376;    1,227
517,648;12869,604;    1,012;   -1,136
518,232;12495,945;   -0,261;   -1,409
518,817;12843,097;   -0,079;    1,682
519,401;13059,880;    2,194;    0,591
519,985;12540,511;    1,103;    1,136
520,570;12431,464;    0,830;   -1,955
521,154;12741,626;    2,102;    0,591
521,738;12919,557;   -2,352;    2,409
522,323;13486,076;   -0,170;    1,682
522,907;13226,615;    0,466;   -0,136
523,491;12945,435;    0,557;    0,955
524,075;12936,406;    2,284;    0,591
524,659;13023,151;    1,466;    0,591
525,243;12537,912;    1,739;    0,409
525,827;12763,649;    0,648;   -0,045
526,411;13594,787;   -1,989;   -0,136
526,995;13781,855;   -0,352;    1,409
527,579;13385,702;   -0,443;   -1,045
528,163;13704,017;    0,375;   -1,500
528,747;13637,104;    2,466;   -0,773
529,331;13951,768;   -0,080;   -1,409
529,915;14130,686;    1,738;    0,955
530,499;14074,110;   -0,807;    1,227
531,082;13800,791;   -0,534;    1,591
531,666;13246,250;    1,374;    0,773
532,250;13892,985;    1,284;    2,682
532,833;14208,124;    0,920;    2,773
533,417;14112,793;   -1,807;    0,864
534,001;14085,020;    1,647;   -0,318
534,584;14781,430;    0,374;    0,500
535,168;14602,065;    0,465;    1,409
535,751;14623,554;    0,647;    0,045
536,334;14097,924;   -0,898;   -0,409
536,918;14711,862;    0,011;    1,591
537,501;14786,782;   -0,899;    1,318
538,085;14792,969;   -0,444;    1,045
538,668;14957,485;    0,829;    2,409
539,251;15294,365;    1,829;    3,773
539,834;15309,180;    0,101;    0,773
540,418;15208,869;   -1,990;    4,318
541,001;15320,650;   -0,990;    1,773
541,584;15307,928;    2,101;    2,227
542,167;15003,084;    1,374;    2,955
542,750;15156,849;    1,919;   -0,773
543,333;14753,662;    0,555;    2,136
543,916;15498,676;    0,192;    2,500
544,499;16112,107;   -1,354;    0,227
545,082;16104,624;    1,374;    3,591
545,665;16234,103;    1,919;    1,500
546,248;16610,298;    1,010;   -0,318
546,830;16259,355;   -0,445;    1,955
547,413;16667,524;    1,010;   -0,773
547,996;17233,685;    0,555;    0,500
548,579;17024,940;    0,919;    0,955
549,161;16793,548;    1,828;    2,682
549,744;16573,622;   -0,809;    0,409
550,326;17066,169;   -0,809;   -1,136
550,909;16797,421;    2,737;    0,591
551,492;17244,891;   -0,263;    0,227
552,074;17020,095;   -0,173;   -1,318
552,657;17559,701;    2,373;    0,045
553,239;17339,432;   -0,173;   -0,773
553,821;17276,235;   -1,082;    1,045
554,404;16786,852;    1,282;    1,136
554,986;17169,224;    0,464;    1,045
555,568;17745,774;    1,191;   -0,955
556,151;16952,108;    1,191;   -0,227
556,733;17147,039;   -0,264;   -0,864
557,315;17589,700;    0,100;    0,500
557,897;17428,666;    0,554;   -0,500
558,479;17556,425;   -1,991;    1,318
559,061;17673,903;   -0,719;   -0,864
559,643;17985,862;   -0,264;    0,045
560,225;18351,655;    1,645;    2,864
560,807;18366,225;    0,918;    0,318
561,389;17891,654;    0,554;    2,318
561,971;18649,683;    0,463;    2,136
562,553;18440,389;   -1,628;    1,591
563,135;18536,417;   -0,537;    1,136
563,717;18129,477;    3,372;    1,136
564,298;18868,697;    3,645;   -0,045
564,880;18578,426;    0,645;   -1,409
565,462;18757,154;    0,645;    1,318
566,043;19896,432;   -0,446;    2,318
566,625;19381,976;    1,918;    1,227
567,207;19197,627;    1,099;    1,682
567,788;20325,721;   -1,264;    1,500
568,370;21135,892;    1,917;   -0,500
568,951;20981,151;    0,190;    0,227
569,533;21802,448;   -0,628;   -0,500
570,114;22216,742;   -0,446;    0,682
570,695;22699,135;   -0,174;   -1,318
571,277;23170,236;   -0,265;   -1,682
571,858;23876,986;    2,008;   -1,136
572,439;24771,854;    1,554;   -1,045
573,021;24900,380;    2,099;   -2,773
573,602;25363,279;   -1,265;    0,318
574,183;26267,077;   -2,083;    2,227
574,764;26332,589;   -1,629;    0,409
575,345;26877,507;    0,917;   -0,136
575,926;27482,488;   -0,356;    0,136
576,507;27452,006;    1,099;   -0,227
577,088;28548,157;    3,099;    1,682
577,669;28517,414;    0,735;    1,955
578,250;29190,804;    0,644;   -1,045
578,831;29865,981;   -1,356;   -2,227
579,412;30129,385;   -0,810;    0,955
579,993;31058,538;    1,008;    0,227
580,573;31379,570;   -0,629;   -0,955
581,154;30313,354;    0,735;   -0,591
581,735;31180,928;    0,644;    0,773
582,315;30664,019;   -0,629;    2,136
582,896;30992,589;   -0,174;    1,227
583,477;30474,062;    0,189;    1,227
584,057;30727,417;    0,553;    0,955
584,638;31011,811;    2,553;    2,318
585,218;30912,324;   -0,538;    2,682
585,799;31131,167;    0,281;   -0,227
586,379;31141,975;    0,372;    1,591
586,959;29975,774;    0,735;    0,318
587,540;29321,796;   -0,629;    2,227
588,120;28897,667;    1,007;   -0,045
588,700;27883,043;    2,553;    2,136
589,281;28174,236;    0,462;   -0,955
589,861;28091,816;    0,099;   -1,682
590,441;27953,055;    2,371;   -2,682
591,021;26968,174;   -0,265;   -2,591
591,601;27223,728;   -0,537;    0,500
592,181;27272,846;   -0,719;   -0,773
592,761;26563,321;    0,007;    1,409
593,341;26453,016;   -0,901;    0,045
593,921;26453,763;   -0,265;    1,591
594,501;26345,987;   -0,538;    1,318
595,081;26183,883;    0,917;   -0,318
595,661;26511,406;   -1,447;    0,955
596,240;27049,758;   -0,537;    0,136
596,820;26705,047;    0,372;    1,955
597,400;26872,707;    2,008;    0,773
597,980;27075,601;    2,008;    1,045
598,559;27085,705;    2,735;   -0,227
599,139;26809,527;   -0,174;   -1,227
599,718;26719,437;   -0,174;   -0,409
600,298;26981,190;    0,735;    0,682
600,877;27168,785;    2,917;    1,409
601,457;27466,074;    2,281;    1,136
602,036;27353,545;    0,190;    2,045
602,616;27570,600;    0,644;    1,682
603,195;27906,982;   -0,355;    3,500
603,774;27441,320;   -0,901;    2,045
604,354;27314,654;    0,826;   -0,500
604,933;26870,634;    0,463;    1,864
605,512;26948,171;    3,554;    0,591
606,091;26983,310;   -0,537;    3,773
606,671;27827,771;    0,281;    0,773
607,250;26938,409;    1,644;    3,136
607,829;27199,209;    2,372;    3,227
608,408;27067,459;    1,190;    2,591
608,987;26114,254;    1,281;    3,409
609,566;26417,316;   -1,265;   -2,500
610,145;26470,590;   -1,082;    0,682
610,723;26901,078;    4,372;    6,864
611,302;26177,610;   -0,446;    1,682
611,881;25682,617;    5,008;   11,227
612,460;26547,407;    1,645;    3,955
613,039;26907,604;   -0,082;    2,045
613,617;25663,789;    1,736;    4,773
614,196;25871,528;    1,099;    1,227
614,775;26207,299;    1,009;    2,409
615,353;26189,532;    0,736;    0,864
615,932;25879,504;    0,100;    2,409
616,510;26455,480;    0,554;    0,591
617,089;25992,021;    7,100;   17,591
617,667;25747,687;    2,372;    6,136
618,246;25642,981;   -1,537;    1,318
618,824;25798,772;   -3,355;   -0,955
619,402;25387,954;   -2,900;   -1,773
619,981;25877,944;   -0,173;   -1,045
620,559;25765,089;    0,009;    1,682
621,137;25305,790;   -0,718;    1,864
621,715;25308,823;   -1,173;   -0,682
622,293;25183,395;   -0,537;   -0,773
622,871;25689,518;   -0,718;    0,500
623,450;25278,227;    0,373;   -0,864
624,028;25138,664;    0,191;   -0,955
624,606;24799,322;   -1,718;    1,682
625,183;25228,826;   -1,536;   -1,136
625,761;24825,280;    1,009;    1,136
626,339;25054,932;    1,373;    2,591
626,917;25498,719;   -0,172;   -0,045
627,495;25566,388;   -0,354;    1,318
628,073;24976,680;   -0,263;    2,864
628,650;24698,213;    0,100;    2,136
629,228;25101,982;    0,373;    4,409
629,806;24506,851;    2,282;    1,136
630,383;24803,898;    1,464;   -0,318
630,961;24604,336;    2,555;   -0,955
631,539;24346,957;    2,464;    0,227
632,116;23668,790;   11,373;   15,409
632,694;24266,172;    2,555;    6,500
633,271;24573,633;    0,828;    2,682
633,848;24501,916;    1,828;    2,045
634,426;24514,049;   -1,081;    1,773
635,003;23665,809;    1,101;   -0,409
635,580;23957,261;    1,192;    3,682
636,158;24539,888;    3,737;    1,227
636,735;24486,209;    0,555;   -0,500
637,312;24663,435;   -0,809;   -0,682
637,889;24798,106;   -4,354;   -0,682
638,466;24201,256;   -3,990;   -0,409
639,043;24210,264;    2,101;   -1,136
639,620;24530,142;   -2,262;   -0,955
640,197;24858,917;    1,100;    1,682
640,774;24955,874;   -0,172;    1,136
641,351;25359,375;    0,737;    1,136
641,928;24796,604;   -0,627;    1,409
642,505;24439,742;    0,828;   -0,500
643,082;24606,244;   -1,718;    1,227
643,658;23604,018;   -0,718;    1,500
644,235;24354,611;    1,191;    2,500
644,812;24675,567;    1,918;    0,773
645,388;24410,069;   -0,991;    1,409
645,965;24495,571;   -0,809;    1,682
646,542;24541,891;   -1,445;   -0,227
647,118;24528,119;    1,009;   -0,955
647,695;24870,894;   -0,263;    1,136
648,271;24755,850;   -0,536;    0,500
648,848;25068,170;    0,736;    2,227
649,424;24921,308;    0,827;    1,318
650,000;24661,810;   -0,354;   -1,045
650,577;24487,311;   -0,627;   -0,955
651,153;24945,904;   -1,809;    0,955
651,729;25943,133;    1,191;    0,864
652,305;25989,544;    0,645;    2,773
652,881;29973,500;   -0,082;    1,136
653,458;36459,456;    1,100;    0,227
654,034;40328,322;    0,282;    1,591
654,610;41888,005;    0,554;    0,773
655,186;43204,416;    0,645;    3,045
655,762;42954,463;   -0,991;    0,409
656,338;42959,328;    0,100;    0,136
656,913;43864,103;   -0,082;    0,409
657,489;43132,332;    0,827;   -0,318
658,065;43130,742;   -0,173;   -1,591
658,641;43782,608;   -0,900;   -0,864
659,217;43148,655;   -0,991;    0,409
659,792;42557,338;    0,645;   -0,409
660,368;42791,749;   -2,173;   -0,682
660,944;42531,433;   -2,082;    1,227
661,519;38402,207;   -0,628;    0,409
662,095;32795,254;   -1,719;    0,591
662,670;28188,483;    1,281;   -0,136
663,246;26917,985;    1,009;   -0,409
663,821;26152,668;    0,281;    1,682
664,396;25673,534;    0,009;    1,864
664,972;25978,581;    0,009;   -0,500
665,547;26260,355;    1,372;    0,136
666,122;26272,675;   -1,082;    0,318
666,698;26521,268;   -0,173;    0,318
667,273;25930,769;   -0,173;    0,136
667,848;26752,635;    2,372;    1,500
668,423;26513,136;    2,190;    2,318
668,998;27035,547;    2,827;   -0,682
669,573;27559,049;   -3,264;   -1,500
670,148;27385,732;   -1,446;   -0,682
670,723;27195,780;   -1,810;    0,318
671,298;27602,736;    2,372;    1,045
671,873;27731,510;   -0,082;   -0,136
672,448;27622,739;    0,645;    0,136
673,023;28003,877;   -1,992;   -0,227
673,597;28370,652;    0,827;    2,318
674,172;28160,062;   -0,355;    0,318
674,747;27625,837;    0,372;   -1,045
675,321;27483,975;   -0,628;    3,318
675,896;27082,931;    0,645;    1,045
676,471;28021,342;    2,645;    1,591
677,045;27778,207;   -1,264;    0,682
677,620;27847,982;    0,190;    1,136
678,194;28159,029;   -2,628;    1,136
678,769;27735,621;   -1,083;   -0,318
679,343;27942,032;   -0,628;    1,773
679,917;27796,807;   -1,446;    1,955
680,492;27923,672;    0,826;    3,227
681,066;28014,719;    3,372;    0,409
681,640;28076,766;    1,463;   -0,318
682,214;28881,541;    0,735;    0,500
682,788;28424,133;   -1,356;   -0,773
683,363;28364,908;   -1,810;    1,682
683,937;28048,318;   -1,719;   -0,318
684,511;28834,911;    0,463;   -0,591
685,085;28512,867;   -1,356;    0,318
685,659;28297,460;   -2,538;    0,864
686,232;28519,598;   -0,356;   -0,318
686,806;28292,736;   -0,901;    0,409
687,380;28961,147;   -0,174;    0,591
687,954;29128,285;   -1,174;    1,136
688,528;28792,059;   -0,719;    1,955
689,101;29574,561;   -3,992;    1,045
689,675;29206,608;   -0,356;   -0,136
690,249;28550,201;   -0,719;    0,409
690,822;28843,793;    0,280;    0,318
691,396;28961,840;   -0,265;    1,227
691,969;28440,706;    1,280;    0,136
692,543;28928,662;   -0,447;   -1,955
693,116;28584,982;   -0,265;   -1,409
693,690;28472,211;    0,099;    0,500
694,263;28980,985;   -1,083;    2,955
694,836;29003,214;    1,371;    3,591
695,410;27689,079;   -0,265;    1,773
695,983;28156,308;    0,189;    0,591
696,556;28128,446;   -0,447;   -1,045
697,129;28533,948;   -0,356;    1,409
697,703;28120,177;   -1,629;    1,955
698,276;28162,315;    1,462;   -0,773
698,849;27961,090;    1,280;    1,409
699,422;28363,682;   -1,083;    0,591
699,995;27997,911;    0,007;    0,136
700,568;28497,867;   -0,629;    3,045
701,140;28562,642;   -2,811;    1,682
701,713;28294,234;   -0,174;    2,409
702,286;28040,009;   -0,538;    0,864
702,859;27925,147;   -0,902;   -0,591
703,432;27042,012;    0,825;    0,682
704,004;27513,150;    0,462;    0,318
704,577;27402,379;   -0,629;    0,136
705,150;28015,154;    0,189;    2,500
705,722;27823,564;   -0,356;   -3,227
706,295;27568,521;   -0,175;   -0,591
706,867;27429,022;   -0,175;    1,955
707,440;27608,524;   -1,720;   -0,409
708,012;27869,935;    0,462;    0,591
708,584;27784,891;    2,462;    0,227
709,157;28095,211;    1,825;   -0,591
709,729;27751,167;    2,280;    2,045
710,301;28575,578;    0,734;    0,045
710,874;28583,261;   -1,447;   -0,227
711,446;27502,763;    0,371;    0,864
712,018;27399,992;    0,098;    0,500
712,590;27107,039;   -1,993;    1,682
713,162;27645,632;    0,825;    1,318
713,734;27907,861;    1,825;   -2,045
714,306;27811,635;   -1,902;   -0,409
714,878;26509,864;    0,825;    0,864
715,450;27333,820;    0,643;    0,864
716,022;27589,322;    1,552;    1,318
716,593;27736,005;    0,189;    0,591
717,165;27668,689;   -3,175;   -1,227
717,737;27353,827;    0,280;    0,409
718,309;27053,329;    0,280;   -0,045
718,880;27006,012;   -0,539;   -1,409
719,452;27263,150;   -0,175;   -1,591
720,024;26835,288;    0,734;   -0,591
720,595;27412,426;   -2,902;    0,955
721,167;26919,837;    0,370;   -2,045
721,738;26470,157;   -0,812;   -1,045
722,309;26429,022;   -0,993;   -1,227
722,881;26194,706;   -1,357;    0,773
723,452;26825,662;   -2,630;    2,864
724,023;27002,436;   -0,721;    2,682
724,595;26815,756;    0,007;    0,682
725,166;26547,076;    0,007;   -0,409
725,737;26168,487;    1,734;    0,227
726,308;26231,898;   -0,266;    0,318
726,879;26710,672;   -1,630;    1,227
727,450;26495,992;    0,552;   -0,045
728,021;26529,585;    3,097;    0,682
728,592;26326,177;    0,734;    0,500
729,163;26602,133;    0,643;   -0,136
729,734;26631,090;    0,188;   -0,227
730,305;26984,955;    1,734;    0,136
730,876;27291,366;    0,188;    2,955
731,447;27012,504;    2,188;    2,682
732,017;27139,369;    1,097;    1,864
732,588;26620,871;    0,734;    1,227
733,159;26819,645;    0,643;   -1,045
733,729;26687,965;    0,006;    0,409
734,300;25942,830;    0,915;    0,864
734,870;26376,332;    3,461;    0,591
735,441;26924,925;    0,370;   -0,591
736,011;26691,063;    0,643;   -1,591
736,582;26688,201;   -0,812;    0,045
737,152;26146,793;   -1,721;   -2,045
737,722;26557,386;   -0,267;   -0,682
738,293;26313,797;   -1,358;    1,318
738,863;26134,571;    2,461;    2,318
739,433;25905,891;    5,279;    0,318
740,003;26564,211;   -0,994;   -0,682
740,573;26023,440;    2,097;   -1,591
741,143;25951,396;   -1,085;    0,318
741,713;26734,716;    1,188;   -0,500
742,283;26416,036;    0,915;    1,591
742,853;26252,901;    1,915;    1,591
743,423;25684,312;    1,733;    0,045
743,993;25886,086;   -0,358;    1,500
744,563;25248,225;    0,097;   -0,864
745,133;25171,817;   -0,812;   -0,864
745,702;25844,046;   -0,267;    1,773
746,272;25059,730;   -0,176;    0,591
746,842;24881,868;   -1,358;   -0,591
747,411;25289,551;   -0,267;   -0,318
747,981;25487,780;    0,097;    0,500
748,551;25537,827;    2,278;   -1,045
749,120;25375,147;    0,642;   -0,227
749,690;25777,012;   -0,631;    2,409
750,259;26066,605;    1,369;    2,955
750,828;25987,652;    1,551;   -1,955
751,398;26276,972;    1,278;   -0,045
751,967;25680,383;    2,187;    0,409
752,536;25940,430;   -0,813;   -0,227
753,105;26382,568;    0,096;    0,227
753,675;26139,979;    0,096;    1,773
754,244;26109,844;   -0,904;    3,591
754,813;26121,073;    0,551;    1,227
755,382;25743,120;    0,460;    0,955
755,951;26293,440;    1,551;    3,682
756,520;25785,760;   -0,085;    1,864
757,089;26316,534;    0,278;    0,500
757,658;26479,945;    1,733;    1,227
758,227;26473,720;    1,096;    0,318
758,795;26806,403;    1,187;    1,136
759,364;26980,905;   -0,086;   -0,591
759,933;26036,861;   -1,176;   -0,045
760,501;25624,363;    0,733;   -1,318
761,070;26106,501;   -2,813;   -1,409
761,639;26762,821;   -1,904;    1,318
762,207;26067,595;    1,551;   -0,955
762,776;26039,642;    0,369;    0,864
763,344;25946,417;   -0,995;    0,591
763,913;25097,464;   -0,722;    1,409
764,481;25823,965;    1,005;   -0,136
765,049;25634,285;   -1,358;    1,409
765,618;25572,514;   -0,086;    0,318
766,186;25652,743;    0,278;    0,136
766,754;25811,336;    0,005;    1,864
767,322;24821,383;   -1,995;    0,409
767,890;24848,794;   -0,722;   -1,773
768,459;25208,750;   -2,177;   -0,318
769,027;25386,161;    1,641;    3,409
769,595;24417,208;    3,278;    2,591
770,163;24871,710;    3,823;    2,955
770,730;24631,211;    0,732;   -0,136
771,298;24463,531;    0,187;   -1,409
771,866;24609,760;   -1,541;    4,955
772,434;24947,807;   -0,631;   -1,864
773,002;25056,218;    0,005;    0,682
773,569;24719,811;    0,914;    1,682
774,137;24559,585;   -0,268;   -0,045
774,705;25333,450;    0,278;   -0,136
775,272;24859,316;    0,641;    0,682
775,840;24557,817;   -0,177;    2,682
776,407;24123,774;    0,277;    1,955
776,975;23745,730;   -0,632;    0,318
777,542;24800,050;   -1,086;   -0,045
778,110;24631,006;   -1,268;   -0,045
778,677;24255,235;   -2,359;   -0,864
779,244;24002,191;    2,186;    1,045
779,812;24101,056;    1,823;    0,864
780,379;24002,194;    0,005;    1,136
780,946;24218,423;    1,005;   -0,773
781,513;24559,016;   -1,450;    0,318
782,080;23939,609;   -0,086;    2,864
782,647;24668,565;   -0,268;    3,045
783,214;24238,430;   -0,177;    3,864
783,781;23900,932;   -0,723;   -0,682
784,348;23759,343;   -0,632;    1,500
784,915;24239,662;   -3,177;    0,318
785,482;23961,255;    1,368;    2,591
786,049;24412,211;    0,186;   -0,591
786,615;24540,258;    0,277;   -0,955
787,182;24302,669;    0,186;   -0,682
787,749;23982,716;   -2,814;    1,409
788,315;23284,491;   -1,632;   -0,409
788,882;23604,265;    1,550;   -1,227
789,448;24244,767;    1,732;   -0,955
790,015;24318,359;    1,095;    3,227
790,581;23863,498;    1,459;    0,227
791,148;23766,908;    0,641;    1,045
791,714;23980,501;   -0,541;    3,136
792,280;23685,639;    0,186;    1,591
792,847;23244,050;    0,550;    2,500
793,413;23807,551;   -0,269;   -0,318
793,979;23318,326;    3,459;   -1,318
794,545;23393,464;    4,459;    2,682
795,111;22845,420;    2,186;    1,318
795,678;23019,013;    0,731;   -1,682
796,244;22659,605;    3,368;    0,136
796,810;23213,652;    1,731;    0,773
797,375;22957,245;    0,549;   -2,136
797,941;22978,656;   -0,541;    0,591
798,507;23096,703;   -0,451;   -0,955
799,073;22662,750;   -0,360;    0,591
799,639;22728,979;   -2,632;    3,136
800,205;22764,117;    0,095;    2,682
800,770;22300,437;    0,640;    1,773
801,336;22364,393;    1,368;   -0,955
801,901;22064,622;    4,549;    3,136
802,467;22680,124;   -0,542;    2,045
803,033;22003,898;   -0,087;    0,864
803,598;22257,309;    1,913;   -1,045
804,163;22264,356;    1,095;   -0,318
804,729;22215,676;   -0,178;    1,136
805,294;22658,360;    0,822;    2,227
805,859;22433,498;    0,731;   -0,409
806,425;21878,363;    1,186;    2,682
806,990;21550,410;    2,186;    4,318
807,555;22068,639;   -1,451;    2,591
808,120;21921,232;    0,822;   -0,409
808,685;21989,279;    0,185;   -2,500
809,250;21512,144;    0,004;   -0,500
809,815;21814,828;    1,913;    0,682
810,380;22324,238;   -0,269;    1,591
810,945;22838,922;   -1,087;    2,045
811,510;22031,242;    2,094;    1,591
812,075;21719,743;   -0,633;   -1,409
812,640;21750,336;    2,003;    1,409
813,204;21875,838;    0,822;   -0,227
813,769;22343,521;    2,094;   -0,045
814,334;21735,659;    0,458;    0,864
814,898;21801,888;    0,367;    0,591
815,463;21657,663;    1,276;   -0,773
816,027;21627,073;   -0,724;   -2,318
816,592;21720,302;    0,640;   -2,045
817,156;21238,531;    2,094;    1,136
817,721;21079,488;    4,276;    2,318
818,285;21043,444;    2,912;    1,500
818,849;21725,764;   -1,451;    1,682
819,414;21573,447;   -0,269;    2,955
819,978;21205,858;   -1,269;    1,773
820,542;21771,360;    2,003;    0,500
821,106;21473,770;   -0,815;    0,682
821,670;21604,363;   -0,815;    2,591
822,234;21322,319;   -0,270;    1,409
822,798;20683,003;    0,003;    0,500
823,362;20662,504;   -0,633;    4,227
823,926;19983,824;    0,094;    1,136
824,490;20232,235;   -0,997;   -0,682
825,054;20668,919;   -0,088;   -1,136
825,618;20252,875;   -1,542;   -1,500
826,181;20197,467;    0,458;   -1,318
826,745;20098,969;    1,367;   -1,045
827,309;20472,107;    1,185;    1,318
827,872;19867,154;    1,367;    0,955
828,436;20846,747;    1,185;   -0,773
828,999;20925,249;   -0,997;    1,227
829,563;19747,387;   -0,179;    1,136
830,126;19572,070;   -0,179;   -0,591
830,690;19523,935;   -1,997;    2,864
831,253;19086,983;   -0,543;    2,227
831,816;19218,666;   -1,906;    0,500
832,380;19127,077;    0,185;    0,864
832,943;19378,488;   -1,361;   -0,500
833,506;18843,717;    2,639;   -1,227
834,069;19605,855;    3,912;   -0,955
834,632;19695,175;    1,730;    1,318
835,195;19604,494;    1,003;    0,955
835,758;18811,723;   -0,997;    1,955
836,321;18709,498;    0,730;   -1,045
836,884;18793,000;   -0,725;   -0,955
837,447;18845,501;   -2,816;    1,773
838,010;19077,367;    0,366;    3,227
838,573;19329,777;   -1,179;    0,773
839,135;19337,006;   -1,361;   -0,955
839,698;18792,417;    1,275;    0,409
840,261;18350,373;    1,003;   -0,227
840,823;18187,875;   -0,543;    0,864
841,386;18515,922;   -0,452;   -2,409
841,948;18343,969;   -1,361;    1,773
842,511;18089,835;    0,912;    1,682
843,073;18242,973;    1,912;    0,227
843,636;18014,838;   -0,361;   -0,227
844,198;17953,885;    0,911;    0,591
844,760;18062,387;    1,093;    1,955
845,322;17680,707;    0,548;    1,136
845,885;18095,481;    0,730;    0,591
846,447;18581,983;   -1,998;    0,227
847,009;18156,030;    1,911;   -0,682
847,571;18488,622;    0,820;   -2,045
848,133;18563,761;   -1,089;   -1,864
848,695;18416,262;   -0,543;    1,409
849,257;17955,946;   -1,089;   -1,682
849,819;18143,811;   -0,998;   -0,409
850,381;18168,495;   -0,725;   -0,864
850,942;18519,905;    1,093;   -0,591
851,504;18497,043;    1,184;    0,227
852,066;18534,545;    1,275;   -1,591
852,628;18060,865;   -0,180;    1,955
853,189;17658,094;    1,638;    2,682
853,751;17785,959;   -0,907;    1,409
854,312;17550,188;   -0,453;   -1,682
854,874;18036,144;   -2,089;   -0,773
855,435;18589,555;   -0,907;   -1,682
855,997;18677,057;   -1,816;   -0,136
856,558;18001,195;    0,366;    1,773
857,119;18100,060;    0,820;    2,864
857,681;17826,107;    0,002;    0,318
858,242;17861,245;    1,911;   -2,136
858,803;18348,747;    0,456;   -0,773
859,364;18860,522;    0,184;   -4,773
859,925;18184,932;   -2,453;   -0,955
860,486;18091,979;   -0,453;   -0,955
861,047;17859,845;   -0,544;   -1,227
861,608;17656,165;   -1,089;   -0,773
862,169;17793,757;    0,638;   -0,045
862,730;17552,804;    0,456;    1,409
863,291;17801,670;   -0,635;   -0,500
863,852;18175,444;   -0,635;    1,955
864,412;17655,309;   -0,271;   -0,864
864,973;16251,448;   -0,089;    0,500
865,534;16126,767;   -1,726;    0,227
866,094;17620,815;    1,820;    0,227
866,655;17251,043;    1,274;    3,318
867,215;17526,091;    0,274;    0,136
867,776;17373,774;    0,547;   -0,136
868,336;17457,458;   -1,453;    0,136
868,897;16950,687;    2,638;    1,682
869,457;16672,370;    1,365;    0,318
870,017;16888,054;    0,547;   -1,227
870,578;17436,555;   -0,817;    0,773
871,138;17119,784;   -2,089;   -0,955
871,698;16684,195;   -0,817;   -1,318
872,258;16547,606;   -0,453;   -2,864
872,818;16916,380;    2,729;    0,045
873,378;16886,064;    0,638;    1,045
873,938;16441,565;    0,547;    0,500
874,498;16759,976;    0,274;   -1,955
875,058;16656,478;    2,183;    1,773
875,618;16509,252;    1,910;   -2,682
876,177;16482,572;    1,274;    0,136
876,737;16060,619;   -0,090;    1,955
877,297;16057,576;    0,183;    1,955
877,856;16048,350;   -0,362;    0,318
878,416;16015,488;    1,183;   -0,136
878,976;16254,626;   -1,817;    0,409
879,535;16395,037;    0,092;    3,136
880,095;16176,266;   -0,544;    0,045
880,654;16248,677;   -1,090;    1,318
881,213;16325,996;    2,456;    1,500
881,773;15994,680;    2,637;    2,682
882,332;16341,363;    3,365;    5,136
882,891;16173,229;    3,092;    2,136
883,451;16649,003;   -1,272;    1,682
884,010;16131,687;   -2,908;   -0,409
884,569;16210,734;   -0,999;   -0,045
885,128;16342,236;    2,819;   -1,864
885,687;16406,919;    4,455;    0,682
886,246;16110,421;    1,455;    2,136
886,805;15867,741;    2,455;    2,045
887,364;16145,606;   -0,999;   -0,500
887,922;16512,926;   -1,181;    0,045
888,481;16047,882;   -1,545;    0,591
889,040;16365,293;    1,183;    2,136
889,599;17051,067;    2,455;    1,409
890,157;17089,478;    1,455;    2,409
890,716;16748,434;   -0,090;    0,227
891,274;16603,118;    0,092;   -1,136
891,833;17015,710;    1,546;    0,864
892,391;16885,485;   -0,454;    0,500
892,950;16926,077;    1,819;   -0,773
893,508;17276,397;    0,455;   -0,409
894,067;16706,081;    0,637;    0,136
894,625;16577,310;   -0,636;   -1,500
895,183;16799,993;   -0,363;   -0,682
895,741;16658,949;    1,728;   -1,773
896,299;16498,724;   -0,545;   -2,409
896,858;16662,589;    0,819;   -1,591
897,416;16835,727;    2,728;   -1,318
897,974;16633,502;    1,819;    0,318
898,532;16719,094;    6,091;    2,682
899,089;16639,596;    2,091;   -0,682
899,647;16700,279;   -1,454;    1,318
900,205;16404,145;    1,182;    1,045
900,763;16617,919;   -0,454;    0,227
901,321;16629,148;    2,364;   -1,409
901,878;16069,104;   -1,000;   -0,773
902,436;15945,061;   -1,363;    1,318
902,994;16333,653;    4,728;    3,682
903,551;15751,609;    0,728;    0,409
904,109;16158,020;    0,182;   -1,409
904,666;15757,976;    2,455;    1,045
905,224;15600,660;    0,182;   -0,409
905,781;15342,343;    0,727;   -0,318
906,338;15363,391;   -1,363;    1,045
906,895;15332,801;    0,637;    2,045
907,453;15266,667;    1,727;    1,136
908,010;15331,805;   -0,909;    0,409
908,567;14961,761;    1,273;    0,591
909,124;14468,717;    0,364;   -1,500
909,681;14556,401;   -2,909;    0,682
910,238;14707,448;    0,636;   -1,318
910,795;15021,677;   -0,273;   -1,136
911,352;14660,859;   -2,909;   -2,682
911,909;14087,131;   -1,364;   -0,864
912,466;14576,131;   -3,182;    1,500
913,022;14143,768;   -1,636;    0,500
913,579;14502,040;   -0,909;    2,045
914,136;14185,313;    1,636;    0,955
914,692;14533,131;    0,091;   -1,227
915,249;14144,495;    1,455;    0,409
915,806;14327,495;    0,182;    1,955
916,362;14086,495;    1,909;    1,864
916,918;13653,040;    2,000;    1,045
917,475;13612,677;   -1,182;    0,955
918,031;13704,313;    3,364;   -0,045
918,587;13200,222;   -0,909;   -0,318
919,144;13410,495;   -2,273;    0,227
919,700;13728,040;    1,727;    0,773
920,256;13300,313;    0,727;    0,045
920,812;12902,949;   -0,727;   -1,045
921,368;12930,222;   -1,727;   -1,045
921,924;12598,222;    0,182;   -0,136
922,480;12126,768;   -0,545;    1,227
923,036;12770,040;    1,273;    1,955
923,592;12713,404;    0,455;    0,318
924,148;12647,404;    0,455;   -0,955
924,704;11924,949;   -1,364;   -0,409
925,259;12233,404;   -0,273;    0,591
925,815;11974,222;    1,455;    0,500
926,371;11505,859;    2,909;    1,409
926,926;11427,222;    2,091;    0,591
927,482;11057,131;   -1,364;    0,773
928,037;10943,859;    0,909;    2,045
928,593;11173,404;    1,636;    1,045
929,148;11020,040;   -1,818;   -1,500
929,704;10561,859;   -1,455;   -0,500
930,259;10770,222;    0,091;   -0,136
930,814; 9838,222;   -0,818;    1,955
931,369; 9540,949;    1,091;   -0,773
931,925; 9430,949;   -0,091;    0,136
932,480; 9333,949;   -2,818;   -2,591
933,035; 9232,859;    0,545;   -0,318
933,590; 9021,040;    0,364;   -1,773
934,145; 8654,949;   -1,364;   -0,318
934,700; 9008,949;    0,455;   -0,591
935,255; 8792,404;   -0,091;    0,045
935,809; 8088,222;    3,182;    0,864
936,364; 7245,495;   -0,455;   -0,136
936,919; 7222,949;    0,455;   -1,773
937,474; 7127,495;    1,455;    0,136
938,028; 6898,404;   -1,636;    1,136
938,583; 6367,040;    1,818;    4,682
939,138; 6663,495;    2,091;    2,136
939,692; 6117,313;    1,636;   -1,136
940,247; 5809,677;   -0,727;   -1,045
940,801; 5363,495;   -0,636;    0,227
941,355; 5255,131;   -0,364;    2,591
941,910; 4922,677;   -0,273;   -2,136
942,464; 5029,495;   -0,818;   -0,318
943,018; 4820,949;    1,000;   -0,227
943,572; 4784,313;    2,545;   -0,682
944,126; 4203,859;    0,091;   -0,409
944,681; 4108,404;    3,091;    0,227
945,235; 4087,949;    1,000;   -0,591
945,789; 4047,131;    0,364;   -1,864
946,342; 4130,586;    0,455;   -0,591
946,896; 3936,586;   -2,273;    0,955
947,450; 3700,222;    1,545;   -0,227
948,004; 3883,677;    1,727;   -0,045
948,558; 3890,768;    0,273;   -0,864
949,111; 3824,404;   -0,273;   -0,318
949,665; 3859,677;    1,636;   -0,682
950,219; 3736,404;   -0,091;   -1,045
950,772; 3815,586;   -1,909;    1,864
951,326; 3714,222;    0,545;   -0,955
951,879; 3811,859;    0,727;   -2,318
952,433; 3824,768;    0,000;    2,227
952,986; 3674,768;    2,909;    0,682
953,539; 3615,677;   -0,273;    0,591
954,093; 3551,131;    0,545;   -1,318
954,646; 3693,768;    0,909;    1,318
955,199; 3506,131;    0,000;   -0,500
955,752; 3403,131;   -0,455;    1,773
956,305; 3369,677;   -0,091;    2,955
956,858; 3507,859;    0,818;   -0,318
957,411; 3670,495;   -0,545;    2,136
957,964; 3527,768;    1,364;    2,136
958,517; 3485,586;   -1,545;    3,136
959,070; 3355,131;   -0,455;    1,955
959,623; 3429,586;    1,091;    1,500
960,176; 3204,313;    1,727;    2,045
960,728; 3191,222;   -2,727;    0,773
961,281; 3240,313;    0,545;    0,500
961,834; 3283,768;   -0,909;    0,864
962,386; 3213,495;    1,727;    1,045
962,939; 3138,404;    0,364;   -0,318
963,491; 3261,222;    0,455;    1,136
964,043; 3137,404;    1,182;    2,409
964,596; 3273,222;   -1,000;    2,227
965,148; 3114,677;   -1,000;    1,773
965,700; 3042,859;    1,091;   -0,227
966,253; 3179,768;   -0,636;    0,318
966,805; 3014,131;   -2,273;    0,773
967,357; 3058,040;    1,091;   -1,500
967,909; 3021,040;    0,455;   -1,227
968,461; 3118,859;    0,545;    3,136
969,013; 3044,586;   -0,182;   -0,864
969,565; 3123,404;   -0,455;   -1,136
970,117; 3198,586;   -0,364;    1,045
970,669; 3042,222;    0,182;   -0,136
971,220; 2925,404;   -0,455;   -1,500
971,772; 2847,859;   -0,636;   -0,318
972,324; 2980,040;    0,091;   -0,500
972,876; 2918,222;    0,818;   -0,045
973,427; 3033,404;    1,909;   -1,045
973,979; 3004,586;   -0,727;   -2,500
974,530; 3039,859;    1,818;    1,318
975,082; 3045,495;   -0,545;    1,682
975,633; 2946,040;    1,091;    1,682
976,184; 3085,131;    0,909;    0,773
976,736; 2890,313;    0,091;    0,227
977,287; 2686,313;   -0,909;   -0,500
977,838; 2866,404;    0,909;   -0,318
978,389; 2904,222;   -1,000;   -0,500
978,940; 2771,859;    0,545;   -0,409
979,491; 2822,768;    0,091;   -0,500
980,042; 2788,768;    0,182;    3,045
980,593; 2861,040;   -2,545;    0,227
981,144; 2887,677;    2,545;   -0,500
981,695; 2858,495;    1,455;    1,500
982,246; 2834,222;   -0,273;    1,045
982,797; 2979,677;   -1,727;    0,682
983,347; 3084,404;    0,364;    0,591
983,898; 3235,949;    3,091;    0,409
984,449; 3078,495;    2,182;    0,773
984,999; 2981,859;    1,455;   -1,136
985,550; 2761,313;    0,182;   -0,318
986,100; 2790,859;   -0,455;   -0,318
986,651; 2824,859;   -0,818;    0,045
987,201; 2816,040;   -1,000;   -0,591
987,751; 2894,949;    0,818;    2,864
988,302; 2878,040;    2,636;    1,500
988,852; 2898,586;    0,455;   -1,136
989,402; 2947,949;    0,091;    0,682
989,952; 2861,859;   -2,182;    0,864
990,502; 2975,313;   -0,091;    0,682
991,052; 2938,040;   -0,727;    0,045
991,602; 2800,222;   -2,909;    1,318
992,152; 2796,949;    0,455;    0,682
992,702; 2792,040;    1,364;   -0,045
993,252; 2716,949;   -3,000;   -0,500
993,802; 2796,859;   -0,273;    1,318
994,352; 3023,586;   -1,545;    1,136
994,901; 3090,859;   -0,182;    3,227
995,451; 3024,404;   -0,182;    0,318
996,000; 3097,404;    1,636;    0,318
996,550; 2839,586;    2,273;    0,227
997,100; 2828,404;    1,273;   -0,045
997,649; 3103,313;    2,182;    0,955
998,198; 2759,949;    1,727;   -1,500
998,748; 2942,859;    1,091;   -2,318
999,297; 2841,859;   -0,818;   -0,409
999,846; 2920,313;    1,000;   -0,773
1000,395; 2969,677;   -0,818;    0,500
1000,945; 2906,768;    1,818;   -0,773
1001,494; 3005,859;    2,364;    0,682
1002,043; 2993,586;    4,636;    0,864
1002,592; 2839,586;   -1,091;    1,955
1003,141; 2984,313;   -0,455;   -0,682
1003,690; 2832,404;    1,727;    0,500
1004,238; 2913,859;    1,455;   -0,045
1004,787; 2561,586;    1,364;    1,227
1005,336; 2799,768;    0,364;    0,682
1005,885; 2929,313;    1,364;   -2,773
1006,433; 3072,677;    0,545;    0,955
1006,982; 3130,768;    0,455;    1,682
1007,531; 3037,768;   -1,818;   -0,227
1008,079; 2987,677;   -2,273;    0,500
1008,627; 3143,131;   -1,455;    0,409
1009,176; 2886,677;    0,000;   -1,955
1009,724; 2932,313;    1,091;    0,864
1010,273; 2973,131;    1,273;    0,500
1010,821; 3082,949;    0,091;    1,409
1011,369; 2841,859;   -1,364;    1,318
1011,917; 2822,949;   -1,364;   -0,591
1012,465; 3095,131;    1,273;   -1,591
1013,013; 3205,222;    2,091;   -1,682
1013,561; 3076,677;    0,455;   -0,773
1014,109; 3127,495;   -1,909;    1,682
1014,657; 2995,040;    0,364;    0,591
1015,205; 3136,586;    1,636;   -0,955
1015,753; 3175,495;   -0,545;   -1,409
1016,301; 3211,677;   -2,636;    3,045
1016,848; 3198,677;   -1,273;    0,409
1017,396; 3237,313;    2,545;    0,045
1017,944; 3374,586;    1,182;    1,864
1018,491; 3125,768;    0,273;    1,409
1019,039; 3267,495;    0,455;    0,591
1019,586; 3196,859;   -1,364;    1,682
1020,134; 3309,131;    0,455;    1,500
1020,681; 3323,404;    0,182;   -1,136
1021,228; 3338,313;    2,909;   -2,227
1021,776; 3162,313;    1,182;   -1,136
1022,323; 3363,586;    0,455;    0,773
1022,870; 3317,859;   -1,000;   -0,045
1023,417; 3213,949;    2,636;    1,864
1023,964; 3360,495;    2,636;    1,227
1024,511; 3206,586;    1,000;    0,773
1025,058; 2993,949;    3,182;   -0,045
1025,605; 3048,586;   -2,273;    3,136
1026,152; 3254,677;    1,727;   -0,591
1026,699; 2999,949;    1,818;    1,318
1027,245; 3164,586;   -0,091;    0,318
1027,792; 3379,949;   -1,000;    1,409
1028,339; 3261,313;    2,364;   -0,045
1028,885; 3105,859;    1,000;   -0,227
1029,432; 3059,859;   -0,091;    0,227
1029,978; 3126,131;   -1,000;   -1,591
1030,525; 3026,495;    1,000;    0,409
1031,071; 3258,131;   -1,364;    1,136
1031,618; 3368,313;    0,364;    1,682
1032,164; 3149,949;   -0,091;    3,045
1032,710; 3207,222;    1,636;   -1,500
1033,256; 3119,040;   -0,636;   -0,136
1033,803; 3112,313;   -0,545;    1,500
1034,349; 2832,040;   -1,364;    0,136
1034,895; 3004,131;    0,000;   -0,318
1035,441; 2975,313;   -0,818;    0,318
1035,987; 2971,222;   -2,364;   -0,682
1036,533; 2965,859;   -1,455;   -0,955
1037,078; 3150,495;    1,455;    1,682
1037,624; 2992,040;    2,455;   -0,955
1038,170; 3007,495;    0,455;   -0,318
1038,716; 2914,222;    1,636;   -0,409
1039,261; 2847,677;   -2,273;   -0,773
1039,807; 2791,768;   -0,091;    3,409
1040,352; 2854,131;   -1,909;   -0,318
1040,898; 2912,222;   -1,545;   -0,682
1041,443; 2817,859;   -1,455;   -2,591
1041,989; 2828,859;    1,091;    1,591
1042,534; 2711,131;   -0,364;    2,591
1043,079; 2812,040;    2,909;    0,955
1043,625; 2630,404;    1,818;    0,500
1044,170; 2654,677;   -1,364;    1,045
1044,715; 2898,404;    2,455;    0,955
1045,260; 2730,586;    2,182;   -0,955
1045,805; 2782,949;    1,182;   -0,591
1046,350; 2720,768;    1,364;   -0,409
1046,895; 2678,404;    2,909;    1,591
1047,440; 2615,404;    5,364;    0,409
1047,985; 2534,404;    2,818;   -0,955
1048,530; 2448,404;    1,545;    1,227
1049,074; 2506,949;    0,000;    0,318
1049,619; 2483,859;   -1,364;    1,955
1050,164; 2293,949;    0,455;    0,227
1050,708; 2341,222;   -0,455;    0,045
1051,253; 2701,040;    1,273;   -2,227
1051,797; 2411,495;    0,818;   -1,318
1052,342; 2421,313;   -1,182;    1,045
1052,886; 2411,677;    0,364;   -1,409
1053,430; 2300,586;   -1,364;    0,136
1053,975; 2314,949;   -0,818;   -0,318
1054,519; 2310,586;   -0,727;    3,227
1055,063; 2312,313;    0,909;    1,318
1055,607; 2194,313;   -0,182;    0,227
1056,151; 2225,768;    2,909;    1,682
1056,695; 2134,859;    2,273;   -1,136
1057,239; 2211,949;   -1,727;   -0,682
1057,783; 2224,859;    0,818;   -1,500
1058,327; 2160,677;    0,000;    1,409
1058,871; 2385,313;   -0,545;    1,318
1059,415; 2098,040;   -0,818;   -0,045
1059,958; 2362,586;    1,455;    2,591
1060,502; 2080,313;   -1,000;   -0,773
1061,046; 1993,131;    0,364;   -0,955
1061,589; 1982,495;   -3,000;   -1,136
1062,133; 1858,949;   -1,273;    1,864
1062,676; 1793,949;    1,182;    0,864
1063,220; 1807,859;    1,091;    0,500
1063,763; 1818,586;    0,909;    1,136
1064,306; 1900,131;   -0,909;    1,864
1064,849; 1789,495;   -0,909;    0,591
1065,393; 1793,495;    2,000;   -1,500
1065,936; 1904,131;    0,182;   -0,409
1066,479; 1792,222;   -1,455;    1,318
1067,022; 1815,949;   -0,273;   -0,227
1067,565; 1706,949;   -0,091;   -1,318
1068,108; 1735,222;    0,727;   -0,591
1068,651; 1720,222;   -0,636;    1,409
1069,194; 1635,222;   -0,455;   -1,682
1069,736; 1642,040;   -1,273;    0,955
1070,279; 1627,313;   -1,364;   -0,500
1070,822; 1668,313;   -2,000;   -0,318
1071,364; 1760,404;   -0,364;    1,318
1071,907; 1581,404;   -0,727;    3,227
1072,450; 1500,404;    0,000;   -0,045
1072,992; 1486,222;   -0,273;    3,136
1073,535; 1631,040;    2,091;    2,136
1074,077; 1408,949;   -0,727;    2,045
1074,619; 1375,495;   -1,364;    0,591
1075,161; 1407,768;   -1,091;    1,500
1075,704; 1592,859;    1,545;    1,227
1076,246; 1381,768;   -0,182;    0,682
1076,788; 1315,949;   -0,364;    1,773
1077,330; 1403,949;    1,273;    2,136
1077,872; 1346,768;    0,909;    0,955
1078,414; 1580,768;    2,727;    0,773
1078,956; 1321,222;    1,273;   -0,227
1079,498; 1569,859;    1,636;    0,318
1080,040; 1275,313;    1,909;   -1,318
1080,581; 1213,495;    1,636;   -0,318
1081,123; 1152,313;    0,091;   -0,773
1081,665; 1192,404;   -1,182;   -0,955
1082,206; 1484,222;    1,364;   -0,500
1082,748; 1352,949;    0,727;    2,045
1083,289; 1226,222;   -2,000;    1,318
1083,831; 1130,131;   -0,545;    0,227
1084,372; 1166,313;    0,000;    0,591
1084,913; 1173,404;    1,091;    0,864
1085,455; 1151,040;   -1,909;   -2,045
1085,996; 1118,677;   -2,273;    0,136
1086,537; 1142,313;   -0,091;    0,864
1087,078; 1160,677;   -0,909;   -2,136
1087,619; 1205,222;   -1,273;    0,227
1088,160; 1121,313;    0,000;    1,318
1088,701; 1113,677;   -1,091;    0,682
1089,242; 1048,222;    1,364;   -2,227
1089,783; 1152,222;   -0,273;    1,409
1090,324; 1115,404;    0,455;    0,682
1090,865;  997,586;    2,727;   -0,409
1091,405;  960,222;    0,727;    2,227
1091,946;  985,313;    0,182;   -0,955
1092,487;  914,768;    0,818;   -1,409
1093,027; 1083,222;   -1,364;   -1,500
1093,568;  950,495;   -0,364;    1,227
1094,108; 1035,222;    0,273;    1,773
1094,649;  978,859;   -1,182;    0,136
1095,189;  908,404;   -0,636;   -0,682
1095,729;  857,313;   -0,091;    0,955
1096,269;  870,677;    0,727;   -0,955
1096,810; 1184,949;   -1,364;    0,500
1097,350; 1005,586;    1,364;   -0,773
1097,890;  915,495;    0,364;    1,227
1098,430; 1155,313;    2,364;    2,864
1098,970; 1028,313;    2,182;    1,682
1099,510;  888,677;    0,545;   -2,318
1100,050;  820,131;    1,000;   -1,591
1100,589;  789,404;   -0,727;   -0,318
1101,129;  918,768;    0,818;   -0,955
1101,669; 1063,404;    1,727;    2,136
1102,209;  887,313;   -0,091;    2,227
1102,748;  837,131;    0,000;    0,955
1103,288;  825,586;    1,273;   -1,227
1103,827;  856,040;    3,091;   -2,227
1104,367;  743,586;   -0,091;   -2,409
1104,906;  706,404;    1,364;   -1,136
1105,445;  770,586;    0,636;   -1,136
1105,985;  717,495;   -0,727;    1,500
1106,524;  757,677;   -1,727;   -0,682
1107,063;  738,859;   -2,727;    1,409
1107,602;  709,949;   -1,909;   -1,500
1108,141;  636,768;   -1,909;    1,500
1108,680;  735,040;   -3,455;   -0,591
1109,219;  674,677;   -0,909;   -0,500
1109,758;  664,949;    0,455;    0,682
1110,297;  643,404;    1,000;   -0,682
1110,836;  597,768;   -0,727;    0,955
1111,375;  748,586;   -2,545;    0,409
1111,913;  764,677;   -1,000;    0,773
1112,452;  709,404;   -0,273;    0,136
1112,991;  599,040;    1,091;    1,955
1113,529;  549,768;   -0,818;   -0,045
1114,068;  615,131;   -0,273;    2,955
1114,606;  518,586;   -0,364;   -0,955
1115,144;  674,586;   -1,273;    1,045
1115,683;  623,313;   -0,727;    0,318
1116,221;  669,222;   -0,455;   -0,864
1116,759;  573,040;    0,636;   -0,864
1117,297;  768,495;    0,000;    1,864
1117,836;  585,677;   -2,182;   -1,227
1118,374;  594,495;    0,182;   -0,682
1118,912;  530,131;    0,909;    2,682
1119,450;  516,313;    1,000;    0,864
1119,988;  567,949;    1,545;    2,136
1120,525; 1015,313;    5,091;    3,318
1121,063;  712,859;    1,182;    1,864
1121,601;  530,222;   -0,909;   -1,227
1122,139;  489,677;   -0,727;   -2,045
1122,676;  690,313;   -0,727;    2,773
1123,214;  604,040;   -1,182;    4,409
1123,751;  425,495;    1,727;    2,227
1124,289;  550,586;   -0,091;   -0,409
1124,826;  430,495;    1,727;    0,227
1125,364;  359,495;    1,727;   -0,955
1125,901;  529,040;    1,182;    1,227
1126,438;  650,222;    0,818;    0,955
1126,975;  377,313;   -0,727;   -0,773
1127,513;  445,313;    0,273;    2,136
1128,050;  354,040;    1,636;   -0,682
1128,587;  450,677;    2,000;   -0,227
1129,124;  496,131;    0,091;    1,318
1129,661;  362,222;    0,273;    0,227
1130,198;  513,040;    1,636;    0,773
1130,734;  470,586;    0,182;    1,409
1131,271;  326,404;   -0,909;    0,864
1131,808;  504,222;    2,909;    3,045
1132,345;  372,859;    1,545;    0,318
1132,881;  252,222;   -1,545;   -1,864
1133,418;  388,677;    0,727;   -1,136
1133,954;  317,313;    2,455;   -2,682
1134,491;  399,040;    1,364;   -0,773
1135,027;  294,768;    2,364;    0,864
1135,564;  380,131;    0,273;    2,955
1136,100;  365,768;    0,364;    2,136
1136,636;  265,768;   -1,273;   -1,045
1137,172;  354,313;    0,000;   -1,045
1137,708;  281,859;   -1,364;   -1,045
1138,245;  282,313;    1,273;   -1,227
1138,781;  233,131;    1,091;   -3,318
1139,317;  298,131;    1,273;   -1,409
1139,852;  286,040;    3,091;    0,136
1140,388;  404,949;   -1,182;   -0,409
1140,924;  284,859;   -1,091;   -2,227
1141,460;  223,495;   -1,636;    0,136
1141,996;  162,404;   -1,364;    2,682
1142,531;  215,677;    1,364;    3,318
1143,067;  421,131;    1,182;    1,045
1143,602;  478,495;   -0,091;   -0,318
1144,138;  328,040;   -2,636;    1,045
1144,673;  199,040;   -1,455;    1,409
1145,209;  261,222;   -1,909;   -0,318
1145,744;  172,222;   -0,727;    0,864
1146,279;  307,222;    1,818;   -0,136
1146,815;  230,586;    1,545;   -2,682
1147,350;  272,040;   -1,364;    0,045
1147,885;  183,586;   -0,818;   -1,318
1148,420;  184,768;   -2,273;    0,773
1148,955;  167,495;   -1,727;    1,864
1149,490;  195,313;   -0,909;   -1,591
1150,025;  171,313;    0,455;   -1,773
1150,560;  287,131;    1,091;   -0,955
1151,094;  257,040;    1,455;   -0,591
1151,629;  258,586;    1,636;    0,864
1152,164;  186,586;    1,364;    1,318
1152,698;  143,859;   -0,182;   -0,136
1153,233;  104,131;    0,091;   -0,682
1153,767;  145,404;   -3,000;   -2,318
1154,302;  198,040;   -1,455;    1,773
1154,836;  190,677;   -0,455;   -2,136
1155,371;  250,495;   -1,364;    3,682
1155,905;  196,222;   -0,636;    1,682
1156,439;  168,586;   -0,636;   -0,500
1156,973;  206,859;    0,364;    0,318
1157,507;  144,677;   -0,364;    0,682
1158,042;  163,222;   -0,727;    1,045
1158,576;  212,040;    0,182;    1,773
1159,110;  189,404;   -0,818;    2,409
1159,643;  160,495;    0,636;   -0,045
1160,177;  109,131;   -1,545;    1,500

