
Integration time [ms]:   0,040
Averaging Nr. [scans]: 11
Smoothing Nr. [pixels]: 0
Data measured with spectrometer [name]: 7318044SP
Wave   ;Sample   ;Dark     ;Reference
[nm]   ;[counts] ;[counts] ;[counts] 

186,757;   25,879;   31,551;    1,318
187,357;   50,342;   22,551;    0,955
187,958;   29,224;   15,460;   -1,591
188,558;   64,332;    8,915;   -1,227
189,159;   35,163;    6,733;   -4,500
189,759;   10,859;    7,278;   -3,591
190,360;   11,974;    2,824;   -2,136
190,960;   49,756;    2,915;   -4,136
191,560;   55,887;    3,189;   -6,591
192,161;  283,204;    4,372;   -3,500
192,761;  139,592;    4,010;   -3,227
193,361;   92,243;    1,556;   -3,773
193,962;  143,001;    2,010;   -2,682
194,562;   60,060;    1,189;   -3,955
195,162;   91,437;   -2,448;   -2,227
195,762;  252,880;   -3,176;   -0,045
196,362;  192,799;    1,370;   -2,500
196,963;   67,662;    2,006;   -0,864
197,563;  133,060;    1,551;   -0,955
198,163;   81,665;    0,096;   -0,682
198,763;  101,500;    1,733;   -0,500
199,363;  195,472;    3,096;   -0,500
199,963;  164,952;    0,369;    0,409
200,563;  134,357;    2,823;   -1,409
201,163;  111,674;    3,277;   -0,227
201,763;  192,761;    3,732;    0,318
202,363;  139,010;    1,459;    1,500
202,963;  240,357;    1,459;    1,045
203,563;  333,015;    0,277;    0,500
204,162;  205,746;    2,096;   -1,864
204,762;  197,963;    0,550;    0,591
205,362;  172,827;    3,004;    1,955
205,962;  257,582;    3,096;    1,955
206,562;  248,396;    1,823;    2,318
207,161;  223,850;   -0,087;    0,318
207,761;  368,608;    1,277;    2,409
208,361;  251,656;   -0,268;    1,409
208,960;  349,271;    0,459;    1,500
209,560;  411,420;    1,277;    1,591
210,160;  397,408;    0,550;    1,864
210,759;  362,158;    4,186;    1,227
211,359;  374,341;    1,459;    1,045
211,958;  620,775;    1,277;    2,045
212,558;  700,770;    1,732;    1,864
213,157;  543,598;    1,822;    1,500
213,757;  959,801;    3,822;   -0,227
214,356;  680,182;    1,277;   -0,409
214,956;  980,946;    3,095;    0,409
215,555;  625,350;    2,095;    2,136
216,154;  569,745;   -2,723;   -0,591
216,754;  569,470;    0,277;    0,773
217,353;  687,968;   -0,268;   -1,045
217,952;  556,610;   -0,178;    0,318
218,552;  785,611;    1,368;   -0,773
219,151;  683,560;    0,277;    0,955
219,750;  670,637;    0,004;   -0,227
220,349;  773,584;   -0,451;    1,045
220,948;  856,323;   -1,360;    1,136
221,548;  846,788;    0,913;    1,227
222,147;  942,814;   -0,087;   -0,409
222,746; 1210,321;   -0,451;   -0,955
223,345; 1085,870;    0,731;    0,500
223,944; 1096,006;   -0,451;    0,773
224,543; 1233,450;    1,004;   -1,409
225,142; 1339,492;    0,094;    0,136
225,741; 1236,163;   -0,814;    1,045
226,340; 1252,197;   -0,451;   -0,955
226,939; 1658,449;   -0,996;   -0,136
227,538; 1556,191;   -0,360;   -0,773
228,137; 1710,502;   -0,814;    0,864
228,735; 1791,047;   -0,541;    1,227
229,334; 1564,227;   -0,905;   -0,227
229,933; 1932,472;    0,459;    0,591
230,532; 2023,098;    1,186;   -0,409
231,131; 2058,941;    1,732;    0,318
231,729; 2125,377;   -2,450;   -2,318
232,328; 2181,253;   -0,723;   -1,500
232,927; 2212,814;    1,004;   -0,500
233,525; 2307,152;    3,640;    0,045
234,124; 2479,522;    2,368;   -1,591
234,723; 2462,529;    0,913;   -1,045
235,321; 2580,421;    2,277;    0,136
235,920; 2768,469;    1,186;   -1,227
236,518; 3011,633;    3,459;    0,318
237,117; 3106,394;    0,004;   -0,227
237,715; 3266,743;    0,640;   -0,500
238,314; 3300,828;   -0,087;   -2,318
238,912; 3440,950;   -0,723;   -1,409
239,510; 3471,765;    0,459;   -1,227
240,109; 3629,838;    0,004;    3,773
240,707; 3656,630;   -0,996;    1,227
241,305; 3970,757;    0,550;    0,136
241,904; 4152,484;   -0,178;   -2,045
242,502; 4164,850;   -0,632;   -0,227
243,100; 4133,014;   -0,087;   -0,955
243,698; 4395,908;    0,732;    1,682
244,297; 4546,228;   -0,632;    0,682
244,895; 4409,964;   -0,269;   -2,318
245,493; 4721,669;    2,186;   -0,591
246,091; 4767,272;    1,368;   -1,318
246,689; 4750,998;    1,004;    0,591
247,287; 4917,149;    0,822;   -1,136
247,885; 5195,711;   -1,451;    1,227
248,483; 5289,572;    1,822;   -0,500
249,081; 5436,150;    0,185;    1,591
249,679; 5580,996;   -0,178;    1,682
250,277; 5845,705;   -1,723;    0,864
250,875; 5813,742;   -1,087;   -1,045
251,473; 5861,335;   -1,178;    0,500
252,071; 6037,936;    1,459;    1,045
252,669; 6210,097;   -1,814;    0,318
253,267; 6437,306;   -0,087;    0,773
253,864; 6368,876;   -0,360;    0,682
254,462; 6315,163;    1,640;    1,591
255,060; 6273,704;   -0,269;    1,318
255,658; 6568,278;    0,822;   -0,136
256,255; 6956,784;    0,186;   -2,045
256,853; 6835,347;   -0,269;    1,409
257,451; 6832,395;    0,822;    1,864
258,048; 7120,300;    1,822;    1,864
258,646; 6854,889;    1,731;   -1,045
259,243; 7076,256;   -0,087;    2,227
259,841; 7135,249;   -0,814;    0,318
260,438; 7020,954;   -0,087;    0,864
261,036; 7695,078;   -1,905;    1,409
261,633; 7632,644;   -0,087;    2,227
262,231; 7393,034;    2,731;   -0,045
262,828; 7443,890;   -0,905;    1,136
263,425; 7498,844;    0,913;   -0,591
264,023; 7761,068;    0,186;    0,045
264,620; 7334,978;   -0,360;   -0,318
265,217; 7671,370;   -2,087;    3,136
265,815; 7766,240;   -1,905;    2,136
266,412; 7581,190;    0,731;    0,136
267,009; 7618,031;   -1,451;    0,773
267,606; 7550,071;    0,822;   -0,955
268,203; 7522,293;   -0,269;   -0,591
268,801; 7799,672;    1,731;    0,591
269,398; 8062,198;   -0,360;    2,500
269,995; 8045,981;    0,277;    1,591
270,592; 7815,167;   -0,632;   -0,500
271,189; 7993,411;    0,186;    0,409
271,786; 8135,602;   -0,632;    1,227
272,383; 7977,261;   -1,087;    0,227
272,980; 8129,820;    0,277;    0,318
273,577; 8568,975;    0,004;    1,227
274,174; 8147,827;    0,822;    2,591
274,771; 8141,824;   -0,814;   -0,773
275,367; 8307,884;    2,277;    1,409
275,964; 8256,045;    0,731;   -0,500
276,561; 8346,463;    1,549;   -1,045
277,158; 8568,541;    0,095;   -1,773
277,755; 8701,605;    2,185;    0,409
278,351; 8141,161;   -0,451;   -1,500
278,948; 8462,028;   -0,815;    0,045
279,545; 8465,867;   -1,360;    2,318
280,141; 9057,210;   -1,723;   -2,045
280,738; 8948,822;   -0,451;   -0,136
281,334; 9164,744;   -1,633;    0,591
281,931; 8580,013;   -0,087;   -1,318
282,528; 8702,403;    0,822;   -0,500
283,124; 9387,435;   -1,087;   -0,500
283,721; 9299,646;   -0,451;    1,409
284,317; 9151,166;    0,185;    2,500
284,913; 9684,254;   -1,360;    0,591
285,510; 9891,072;    0,640;   -0,318
286,106; 9930,667;   -2,269;   -0,955
286,703; 9569,631;   -0,360;    1,955
287,299; 9776,794;   -1,451;   -0,591
287,895; 9966,645;    0,822;   -1,045
288,491;10534,016;    0,186;    2,136
289,088;10301,630;   -2,360;    2,409
289,684;10337,460;   -1,723;    1,500
290,280;10354,662;    0,368;    0,682
290,876;10485,674;    1,822;    5,500
291,472;10417,117;    1,276;    2,227
292,068;10489,759;    1,367;    0,227
292,665;10242,521;    2,095;    0,773
293,261; 9865,503;    0,276;    2,136
293,857;10247,479;    2,913;    2,136
294,453;10245,562;    3,550;    0,955
295,049;10111,487;   -0,268;    1,955
295,644;10148,934;    0,095;    0,136
296,240;10067,980;   -0,905;   -0,136
296,836;10110,053;   -0,995;    0,318
297,432;10358,069;    1,096;   -0,500
298,028;10418,676;    0,732;    0,773
298,624;10834,510;    1,459;    1,864
299,220;11073,836;    2,368;    0,591
299,815;10772,998;    1,005;   -0,409
300,411;10576,851;    0,914;    1,773
301,007;10575,218;    1,368;    0,227
301,602;10627,024;   -0,541;   -2,318
302,198;10796,119;    0,732;   -0,773
302,794;11140,439;    1,187;   -0,500
303,389;11248,351;   -1,177;    1,045
303,985;11308,959;    0,550;    1,409
304,580;11253,984;    1,459;    1,591
305,176;11251,184;   -3,086;    0,136
305,771;11215,949;   -1,268;   -1,227
306,367;11035,288;    4,095;    0,136
306,962;11369,388;    0,641;    1,500
307,558;11085,327;   -0,450;    0,136
308,153;11019,639;    1,095;   -1,136
308,748;11208,240;   -0,814;    1,682
309,344;11170,137;   -0,632;   -1,318
309,939;11271,251;   -1,905;   -1,318
310,534;11524,284;   -0,086;   -1,682
311,130;11478,575;    0,459;   -2,500
311,725;11183,945;    1,004;   -0,500
312,320;11531,086;    2,459;    0,045
312,915;11395,467;    1,459;   -1,045
313,510;11439,613;    1,550;   -0,500
314,105;11984,676;    1,096;    1,409
314,700;11357,865;   -3,086;   -1,045
315,295;11019,711;   -0,904;    0,045
315,890;10600,477;    1,277;    0,864
316,485;10936,128;   -0,359;   -0,318
317,080;11047,571;   -3,086;    1,591
317,675;11569,178;    2,005;   -0,682
318,270;10988,123;    5,550;    3,318
318,865;10991,577;    3,278;    3,045
319,460;10824,903;   -0,904;    0,591
320,055;11094,812;   -0,541;   -1,227
320,650;10772,050;   -1,995;   -0,591
321,244;10825,543;   -0,177;   -1,409
321,839;11728,140;   -1,541;   -0,227
322,434;11617,450;   -1,086;   -1,591
323,029;11235,885;    1,732;    1,591
323,623;11085,058;    1,550;    0,773
324,218;10864,698;    2,368;    1,409
324,812;10752,531;    1,096;    1,591
325,407;10532,812;   -0,814;    2,045
326,002;10450,510;    0,277;   -0,409
326,596;10780,680;    0,914;    1,318
327,191;10968,961;    0,823;   -1,045
327,785;10587,953;   -0,813;   -0,227
328,379;10796,537;    1,368;    0,136
328,974;10596,385;    0,914;   -3,955
329,568;10799,562;    0,186;   -2,409
330,163;10663,918;    2,096;    1,045
330,757;11047,464;    2,459;    1,591
331,351;10384,849;    0,459;    0,682
331,945;10669,256;    0,914;    1,409
332,540;10321,123;   -1,723;   -0,591
333,134;10458,617;   -1,086;    0,773
333,728;10702,637;    0,005;    0,318
334,322;11035,747;   -1,177;   -0,864
334,916;10343,959;    0,277;    0,955
335,510;10666,332;   -0,450;   -0,136
336,105;10926,233;   -1,086;    1,591
336,699;10626,398;   -1,086;    0,591
337,293;10607,018;   -1,723;    0,318
337,887;10735,389;   -2,723;    1,955
338,481;10836,880;    0,459;    0,591
339,074;11011,776;   -0,359;    2,682
339,668;10838,832;   -1,632;    1,227
340,262;11097,921;    1,732;    3,227
340,856;10603,118;    1,822;   -0,682
341,450;10011,913;    1,004;    1,864
342,044;10882,199;    1,459;    0,136
342,637;10678,020;    0,913;   -2,136
343,231;10523,638;   -2,360;    0,682
343,825;10507,124;   -1,086;   -0,591
344,419;10442,534;   -1,995;    0,500
345,012;10267,648;    2,459;    4,045
345,606;10276,795;    4,641;    1,591
346,199;10117,451;   -1,813;   -0,227
346,793; 9661,962;    1,914;    2,045
347,386; 9871,863;   -0,813;   -1,136
347,980; 9875,255;   -0,268;   -0,045
348,573; 9680,029;    2,278;    0,409
349,167; 9372,984;    5,278;    4,773
349,760; 9685,471;    2,914;    2,682
350,354; 9654,099;   -0,813;    1,136
350,947; 9426,965;    1,096;    1,682
351,540; 9113,358;   -0,358;   -1,409
352,134; 9068,501;    1,096;    1,136
352,727; 9109,160;   -0,086;    1,136
353,320; 8957,354;    0,005;    0,591
353,913; 8804,844;   -1,995;    1,864
354,507; 8954,030;    0,823;   -1,227
355,100; 8992,753;    0,460;    0,864
355,693; 8237,631;    2,005;    2,409
356,286; 8285,137;    0,823;    2,773
356,879; 8629,109;   -0,722;    1,227
357,472; 8275,505;   -0,904;    1,500
358,065; 8425,189;   -0,722;    2,500
358,658; 8362,926;   -0,540;    2,318
359,251; 8044,201;   -1,631;   -0,591
359,844; 7525,005;   -1,904;   -1,136
360,437; 7693,360;   -2,995;    0,045
361,030; 7951,079;    1,369;   -0,682
361,623; 7577,996;    2,824;    0,318
362,215; 7600,217;   -0,086;    2,045
362,808; 7443,222;   -2,358;   -1,682
363,401; 7618,596;   -2,449;    0,136
363,994; 7384,012;   -0,631;   -1,500
364,586; 7318,564;    0,824;   -1,500
365,179; 7502,489;   -0,449;   -1,136
365,772; 6986,606;   -1,995;    2,045
366,364; 7271,619;    1,915;   -3,227
366,957; 7480,399;    2,279;   -0,045
367,549; 7488,238;    2,188;   -0,864
368,142; 7142,763;    1,825;   -1,500
368,734; 7355,116;    0,734;   -2,136
369,327; 7327,373;    1,643;   -0,500
369,919; 7232,043;   -1,538;    0,409
370,512; 7039,761;   -1,083;   -0,500
371,104; 6785,205;   -0,901;    1,591
371,696; 6948,515;    1,191;   -0,955
372,289; 7025,888;    0,373;    1,136
372,881; 7174,128;   -2,080;    1,318
373,473; 7065,778;   -2,170;    1,136
374,066; 6885,726;   -0,169;    0,500
374,658; 6770,811;    0,378;    1,136
375,250; 7120,269;    0,653;   -1,409
375,842; 6940,703;    0,473;   -0,045
376,434; 6832,694;   -0,435;   -0,409
377,026; 7398,021;    0,204;   -2,500
377,618; 7280,114;   -0,158;   -0,682
378,210; 7150,959;   -0,338;   -1,955
378,802; 6990,161;    0,754;   -0,591
379,394; 6920,993;    1,846;    0,682
379,986; 7508,882;    1,393;   -0,955
380,578; 7607,646;   -0,153;    0,773
381,170; 6977,847;   -0,972;    0,045
381,762; 6936,317;    0,755;    1,409
382,354; 7123,376;   -0,065;   -1,318
382,945; 7200,741;   -2,976;    0,318
383,537; 7351,819;   -2,705;   -1,955
384,129; 7385,134;   -2,160;   -1,136
384,721; 7560,514;   -0,252;    0,955
385,312; 7460,031;   -0,161;   -0,955
385,904; 7558,976;   -2,706;    1,591
386,496; 6970,039;   -0,979;    1,045
387,087; 7087,534;    1,022;    2,500
387,679; 7114,965;   -1,160;    0,045
388,270; 7282,764;    2,840;    2,045
388,862; 7371,353;    1,295;   -0,318
389,453; 7230,436;   -0,887;    1,045
390,045; 7497,587;   -0,705;   -2,682
390,636; 7461,716;    0,204;   -0,591
391,227; 7306,562;   -0,523;   -0,045
391,819; 7411,576;    0,204;    0,773
392,410; 7471,020;    1,022;    0,045
393,001; 7396,927;   -0,979;   -1,591
393,593; 7675,424;    1,930;   -0,045
394,184; 7543,656;    1,385;   -0,409
394,775; 7472,506;    1,839;    2,136
395,366; 7654,900;    1,385;    0,773
395,957; 7622,779;    0,113;    0,136
396,548; 7933,073;   -0,342;    2,682
397,139; 8252,859;   -2,433;    0,591
397,730; 7962,049;   -1,888;    0,955
398,321; 8026,160;   -1,252;    0,955
398,912; 8066,379;   -0,615;    0,136
399,503; 8141,681;   -3,524;   -1,409
400,094; 7595,179;    0,294;    1,682
400,685; 7473,187;   -0,433;    0,045
401,276; 7542,544;    0,930;   -0,955
401,867; 7844,833;   -0,888;    0,773
402,458; 7914,603;   -2,251;   -2,318
403,048; 7902,111;    1,112;    0,591
403,639; 7537,904;    0,840;    0,864
404,230; 7762,325;    2,476;    0,318
404,821; 7715,317;   -0,615;    0,045
405,411; 7839,090;    1,203;   -2,591
406,002; 7460,689;   -1,252;   -1,136
406,592; 7296,619;    2,294;    0,045
407,183; 7575,949;    0,566;   -1,500
407,774; 7530,362;    3,475;   -0,136
408,364; 7810,234;    0,930;    0,409
408,954; 7430,394;    0,384;    1,227
409,545; 7457,573;    1,021;    1,045
410,135; 7015,960;    1,293;    0,500
410,726; 7154,850;    1,838;    0,318
411,316; 7519,880;    0,111;    0,773
411,906; 7205,020;   -0,253;   -0,409
412,497; 6706,020;   -1,070;   -0,045
413,087; 7284,265;   -1,980;   -0,227
413,677; 7648,426;   -0,707;    3,864
414,267; 7510,210;    0,656;    1,409
414,857; 7477,942;   -2,980;    4,227
415,448; 7722,299;    0,839;    0,500
416,038; 7443,061;    0,020;   -0,591
416,628; 7381,605;   -0,889;    0,409
417,218; 6897,950;    0,565;    3,318
417,808; 7110,591;    0,202;   -0,409
418,398; 7519,168;    0,020;    2,682
418,988; 7510,051;    2,020;    0,591
419,578; 7742,582;   -0,707;    1,409
420,168; 8045,658;   -1,343;   -0,955
420,757; 7643,057;   -1,343;   -1,500
421,347; 7330,250;    0,111;   -0,227
421,937; 7449,733;    2,292;    1,409
422,527; 7404,380;    0,838;   -0,773
423,116; 7218,743;   -0,253;   -0,045
423,706; 7534,632;   -1,889;    0,318
424,296; 7508,540;    1,384;    0,682
424,885; 7899,449;   -0,071;   -3,045
425,475; 8167,825;    1,474;   -2,864
426,065; 8084,581;   -0,980;   -0,318
426,654; 7700,858;   -0,435;   -0,318
427,244; 7793,677;    0,020;    1,409
427,833; 7274,489;    1,383;   -0,500
428,423; 7674,000;   -0,526;    1,136
429,012; 8384,204;   -0,344;   -1,136
429,601; 7870,519;   -1,344;    0,136
430,191; 8106,892;    1,292;    4,318
430,780; 7737,335;   -0,344;   -0,409
431,369; 7681,701;    0,746;   -0,045
431,959; 8265,827;   -1,254;    0,500
432,548; 8005,315;   -1,163;   -0,045
433,137; 8110,506;   -1,254;   -1,318
433,726; 8606,772;    0,292;    0,500
434,315; 8003,385;   -0,526;    2,409
434,905; 8063,812;   -1,254;    1,409
435,494; 7960,826;    0,746;    0,955
436,083; 8374,836;   -0,981;   -0,955
436,672; 8231,482;    0,110;    0,500
437,261; 7836,652;    0,292;   -1,955
437,850; 7923,067;    1,383;    0,682
438,439; 7876,067;    3,291;    1,955
439,027; 7697,619;    3,655;    1,773
439,616; 8006,939;    2,927;    1,227
440,205; 7863,075;    0,200;   -2,136
440,794; 7874,307;    2,109;   -0,045
441,383; 8089,660;   -1,346;   -0,591
441,971; 7923,021;   -2,436;    0,591
442,560; 7783,162;    0,563;   -1,773
443,149; 7510,243;    0,379;   -1,318
443,737; 7632,892;   -0,074;   -2,318
444,326; 7845,710;    0,018;    0,318
444,915; 7875,191;   -1,982;    0,864
445,503; 8196,455;   -2,891;   -0,318
446,092; 7527,279;    0,382;    2,136
446,680; 7974,019;    0,382;    0,318
447,269; 8099,360;   -0,346;   -0,318
447,857; 7890,558;    0,018;   -1,773
448,445; 7979,140;    0,563;    1,318
449,034; 8158,256;   -1,528;   -1,136
449,622; 8235,257;   -1,073;    3,500
450,210; 7550,020;    2,017;    2,227
450,799; 8018,753;    0,290;   -0,591
451,387; 7951,517;    1,381;   -0,591
451,975; 7636,690;    2,654;    0,864
452,563; 7732,463;    3,472;    2,318
453,151; 7722,941;   -0,528;   -1,227
453,739; 7634,399;   -1,347;    0,136
454,328; 7502,812;    2,381;   -2,136
454,916; 7228,765;    2,562;   -0,136
455,504; 7380,965;    1,017;    1,227
456,092; 7539,258;    0,017;   -1,591
456,679; 7510,593;    1,472;    0,682
457,267; 7480,519;    4,017;    1,045
457,855; 7569,589;    1,017;    1,409
458,443; 7284,336;   -0,165;    1,682
459,031; 7443,505;    0,108;    2,409
459,619; 7830,919;   -1,801;    2,864
460,206; 7917,684;    0,835;    2,045
460,794; 8001,362;   -2,983;   -0,227
461,382; 8148,418;   -0,529;   -0,864
461,970; 7775,720;    1,198;    1,864
462,557; 7838,204;   -0,711;   -0,682
463,145; 7994,164;   -3,165;   -1,682
463,732; 8081,554;    2,016;   -1,045
464,320; 7987,150;   -0,075;   -3,045
464,907; 7714,839;    2,743;   -0,773
465,495; 7592,302;    0,743;   -1,227
466,082; 7742,814;   -1,984;   -0,045
466,670; 7590,181;   -2,529;    1,227
467,257; 7981,280;   -1,711;    2,045
467,844; 8150,409;   -0,075;    0,045
468,432; 8146,261;    0,834;    3,500
469,019; 7708,799;    0,925;   -1,773
469,606; 8069,846;    0,470;    3,682
470,193; 7919,754;   -1,439;    0,227
470,780; 7508,791;   -2,075;    0,864
471,368; 7845,473;   -1,257;   -0,773
471,955; 7644,192;    1,379;   -0,682
472,542; 7281,517;    0,652;   -1,136
473,129; 7478,985;   -0,166;    0,136
473,716; 7246,494;    1,470;    0,591
474,303; 7377,769;    0,652;   -0,864
474,890; 7609,474;   -1,439;   -0,500
475,477; 7638,727;   -1,621;    0,409
476,064; 7506,387;    1,106;   -1,591
476,650; 7388,548;    0,288;    0,318
477,237; 7195,275;   -0,258;    0,955
477,824; 7319,674;   -1,076;    0,864
478,411; 7317,580;   -1,894;   -0,318
478,997; 7462,053;    0,560;   -0,773
479,584; 7495,138;    1,196;   -0,409
480,171; 8062,674;   -0,440;   -0,773
480,757; 7775,090;    2,651;    0,773
481,344; 8017,463;    0,469;    0,409
481,931; 7501,772;    1,105;    1,045
482,517; 8254,017;   -1,258;    0,318
483,104; 8668,926;    1,106;    2,864
483,690; 8857,747;   -1,804;    0,045
484,276; 9080,613;   -0,895;    0,227
484,863; 8859,603;    2,469;    1,136
485,449; 9324,356;   -0,077;    0,318
486,035; 9312,753;   -1,986;   -0,136
486,622; 9687,190;   -0,895;    0,045
487,208; 9596,626;    1,378;    1,500
487,794; 9494,399;    0,741;    0,318
488,380; 9594,406;    0,105;   -1,409
488,967; 9656,438;   -1,168;   -0,409
489,553; 9703,637;   -1,895;   -1,409
490,139; 9876,336;    1,559;    0,773
490,725; 9480,612;    0,741;   -0,227
491,311; 9217,396;    3,287;    3,045
491,897; 8710,307;   -0,986;    1,500
492,483; 8665,981;    0,105;    1,227
493,069; 8580,644;    3,923;    0,864
493,655; 8544,508;    1,650;    0,682
494,241; 8541,292;    1,377;   -0,955
494,826; 8910,364;    0,287;   -1,045
495,412; 8490,031;    2,559;   -0,682
495,998; 8707,436;   -0,805;   -0,318
496,584; 8871,547;    0,377;    1,045
497,169; 8907,707;    1,014;   -0,682
497,755; 8952,070;    0,650;    1,227
498,341; 9518,161;    0,559;    0,318
498,926; 9183,053;    1,832;    1,955
499,512; 9430,421;    1,286;    2,955
500,097; 9575,757;    0,195;   -0,318
500,683; 9665,383;   -0,350;    2,136
501,268;10091,052;   -0,169;   -0,955
501,854; 9910,304;   -0,169;    1,227
502,439; 9942,963;   -0,624;   -1,773
503,024;10210,007;    0,195;    0,500
503,610;10362,308;   -0,078;   -0,682
504,195;10425,438;    0,558;    1,955
504,780;10631,691;    2,922;    1,227
505,366;10599,050;    3,013;    2,864
505,951;10422,408;    0,740;    1,045
506,536;10517,888;   -3,260;   -3,682
507,121;10606,909;    0,285;   -0,318
507,706;11180,184;    2,376;    1,045
508,291;11617,499;    2,649;    1,136
508,876;11154,394;   -0,988;    2,591
509,461;10704,649;   -0,169;   -0,773
510,046;11202,404;    0,194;    0,318
510,631;11468,935;   -0,351;   -0,773
511,216;11239,280;    2,467;   -0,500
511,801;11650,587;   -0,442;    2,591
512,386;11973,729;    0,740;    0,500
512,971;11973,298;   -2,988;    0,955
513,555;11604,342;   -0,897;   -1,500
514,140;12405,288;   -0,442;   -3,136
514,725;12439,011;   -0,715;   -1,136
515,309;12621,188;   -0,533;    0,318
515,894;12098,974;   -0,624;   -2,227
516,479;12586,528;   -0,624;   -0,955
517,063;12437,612;    0,376;    1,227
517,648;12594,979;    1,012;   -1,136
518,232;12298,413;   -0,261;   -1,409
518,817;12675,202;   -0,079;    1,682
519,401;12869,985;    2,194;    0,591
519,985;12379,433;    1,103;    1,136
520,570;12318,024;    0,830;   -1,955
521,154;12637,823;    2,102;    0,591
521,738;12787,210;   -2,352;    2,409
522,323;13410,000;   -0,170;    1,682
522,907;13130,177;    0,466;   -0,136
523,491;12870,543;    0,557;    0,955
524,075;12846,514;    2,284;    0,591
524,659;12962,076;    1,466;    0,591
525,243;12441,746;    1,739;    0,409
525,827;12702,757;    0,648;   -0,045
526,411;13520,894;   -1,989;   -0,136
526,995;13738,872;   -0,352;    1,409
527,579;13347,811;   -0,443;   -1,045
528,163;13674,219;    0,375;   -1,500
528,747;13586,487;    2,466;   -0,773
529,331;13875,696;   -0,080;   -1,409
529,915;14104,705;    1,738;    0,955
530,499;14049,948;   -0,807;    1,227
531,082;13748,173;   -0,534;    1,591
531,666;13206,180;    1,374;    0,773
532,250;13850,731;    1,284;    2,682
532,833;14186,236;    0,920;    2,773
533,417;14107,450;   -1,807;    0,864
534,001;14056,769;    1,647;   -0,318
534,584;14733,180;    0,374;    0,500
535,168;14613,361;    0,465;    1,409
535,751;14596,847;    0,647;    0,045
536,334;14095,946;   -0,898;   -0,409
536,918;14685,610;    0,011;    1,591
537,501;14780,622;   -0,899;    1,318
538,085;14774,628;   -0,444;    1,045
538,668;14918,417;    0,829;    2,409
539,251;15211,570;    1,829;    3,773
539,834;15243,839;    0,101;    0,773
540,418;15169,438;   -1,990;    4,318
541,001;15295,310;   -0,990;    1,773
541,584;15282,409;    2,101;    2,227
542,167;15002,745;    1,374;    2,955
542,750;15184,510;    1,919;   -0,773
543,333;14765,779;    0,555;    2,136
543,916;15518,246;    0,192;    2,500
544,499;16131,406;   -1,354;    0,227
545,082;16115,832;    1,374;    3,591
545,665;16260,674;    1,919;    1,500
546,248;16566,416;    1,010;   -0,318
546,830;16272,563;   -0,445;    1,955
547,413;16656,551;    1,010;   -0,773
547,996;17155,259;    0,555;    0,500
548,579;16967,697;    0,919;    0,955
549,161;16780,941;    1,828;    2,682
549,744;16582,652;   -0,809;    0,409
550,326;17080,835;   -0,809;   -1,136
550,909;16813,544;    2,737;    0,591
551,492;17219,194;   -0,263;    0,227
552,074;16999,308;   -0,173;   -1,318
552,657;17574,187;    2,373;    0,045
553,239;17343,737;   -0,173;   -0,773
553,821;17263,539;   -1,082;    1,045
554,404;16790,156;    1,282;    1,136
554,986;17154,529;    0,464;    1,045
555,568;17746,170;    1,191;   -0,955
556,151;16952,686;    1,191;   -0,227
556,733;17166,434;   -0,264;   -0,864
557,315;17606,188;    0,100;    0,500
557,897;17420,336;    0,554;   -0,500
558,479;17537,186;   -1,991;    1,318
559,061;17680,938;   -0,719;   -0,864
559,643;18022,078;   -0,264;    0,045
560,225;18358,142;    1,645;    2,864
560,807;18415,896;    0,918;    0,318
561,389;17893,143;    0,554;    2,318
561,971;18601,629;    0,463;    2,136
562,553;18412,879;   -1,628;    1,591
563,135;18511,089;   -0,537;    1,136
563,717;18160,057;    3,372;    1,136
564,298;18827,005;    3,645;   -0,045
564,880;18565,374;    0,645;   -1,409
565,462;18730,737;    0,645;    1,318
566,043;19863,013;   -0,446;    2,318
566,625;19395,013;    1,918;    1,227
567,207;19224,209;    1,099;    1,682
567,788;20306,486;   -1,264;    1,500
568,370;21111,476;    1,917;   -0,500
568,951;20968,189;    0,190;    0,227
569,533;21766,669;   -0,628;   -0,500
570,114;22187,597;   -0,446;    0,682
570,695;22685,447;   -0,174;   -1,318
571,277;23177,639;   -0,265;   -1,682
571,858;23831,934;    2,008;   -1,136
572,439;24765,620;    1,554;   -1,045
573,021;24889,421;    2,099;   -2,773
573,602;25366,320;   -1,265;    0,318
574,183;26245,482;   -2,083;    2,227
574,764;26422,085;   -1,629;    0,409
575,345;26940,367;    0,917;   -0,136
575,926;27533,164;   -0,356;    0,136
576,507;27492,046;    1,099;   -0,227
577,088;28592,561;    3,099;    1,682
577,669;28579,728;    0,735;    1,955
578,250;29251,482;    0,644;   -1,045
578,831;29901,297;   -1,356;   -2,227
579,412;30122,881;   -0,810;    0,955
579,993;31068,671;    1,008;    0,227
580,573;31434,339;   -0,629;   -0,955
581,154;30394,669;    0,735;   -0,591
581,735;31234,515;    0,644;    0,773
582,315;30736,697;   -0,629;    2,136
582,896;31026,812;   -0,174;    1,227
583,477;30574,832;    0,189;    1,227
584,057;30765,549;    0,553;    0,955
584,638;31055,853;    2,553;    2,318
585,218;31007,548;   -0,538;    2,682
585,799;31168,390;    0,281;   -0,227
586,379;31189,743;    0,372;    1,591
586,959;29981,725;    0,735;    0,318
587,540;29366,658;   -0,629;    2,227
588,120;28895,802;    1,007;   -0,045
588,700;27868,178;    2,553;    2,136
589,281;28135,096;    0,462;   -0,955
589,861;28147,586;    0,099;   -1,682
590,441;27984,370;    2,371;   -2,682
591,021;26982,216;   -0,265;   -2,591
591,601;27198,131;   -0,537;    0,500
592,181;27186,341;   -0,719;   -0,773
592,761;26511,911;    0,007;    1,409
593,341;26459,784;   -0,901;    0,045
593,921;26452,621;   -0,265;    1,591
594,501;26350,483;   -0,538;    1,318
595,081;26291,559;    0,917;   -0,318
595,661;26577,993;   -1,447;    0,955
596,240;27008,798;   -0,537;    0,136
596,820;26623,995;    0,372;    1,955
597,400;26847,293;    2,008;    0,773
597,980;27103,459;    2,008;    1,045
598,559;27129,745;    2,735;   -0,227
599,139;26862,478;   -0,174;   -1,227
599,718;26778,569;   -0,174;   -0,409
600,298;27009,958;    0,735;    0,682
600,877;27175,734;    2,917;    1,409
601,457;27500,022;    2,281;    1,136
602,036;27382,858;    0,190;    2,045
602,616;27619,367;    0,644;    1,682
603,195;27920,839;   -0,355;    3,500
603,774;27457,268;   -0,901;    2,045
604,354;27355,421;    0,826;   -0,500
604,933;26858,583;    0,463;    1,864
605,512;26990,029;    3,554;    0,591
606,091;26990,621;   -0,537;    3,773
606,671;27838,901;    0,281;    0,773
607,250;26927,448;    1,644;    3,136
607,829;27192,429;    2,372;    3,227
608,408;27081,316;    1,190;    2,591
608,987;26124,108;    1,281;    3,409
609,566;26402,721;   -1,265;   -2,500
610,145;26554,627;   -1,082;    0,682
610,723;26943,115;    4,372;    6,864
611,302;26164,374;   -0,446;    1,682
611,881;25711,926;    5,008;   11,227
612,460;26525,170;    1,645;    3,955
613,039;26964,003;   -0,082;    2,045
613,617;25690,463;    1,736;    4,773
614,196;25880,019;    1,099;    1,227
614,775;26219,152;    1,009;    2,409
615,353;26141,476;    0,736;    0,864
615,932;25924,994;    0,100;    2,409
616,510;26495,970;    0,554;    0,591
617,089;26044,420;    7,100;   17,591
617,667;25811,995;    2,372;    6,136
618,246;25684,924;   -1,537;    1,318
618,824;25827,988;   -3,355;   -0,955
619,402;25358,352;   -2,900;   -1,773
619,981;25890,524;   -0,173;   -1,045
620,559;25749,576;    0,009;    1,682
621,137;25313,187;   -0,718;    1,864
621,715;25321,312;   -1,173;   -0,682
622,293;25231,974;   -0,537;   -0,773
622,871;25679,461;   -0,718;    0,500
623,450;25292,715;    0,373;   -0,864
624,028;25204,515;    0,191;   -0,955
624,606;24811,810;   -1,718;    1,682
625,183;25249,131;   -1,536;   -1,136
625,761;24847,948;    1,009;    1,136
626,339;25107,874;    1,373;    2,591
626,917;25541,386;   -0,172;   -0,045
627,495;25553,510;   -0,354;    1,318
628,073;24937,892;   -0,263;    2,864
628,650;24694,426;    0,100;    2,136
629,228;25108,833;    0,373;    4,409
629,806;24521,155;    2,282;    1,136
630,383;24842,201;    1,464;   -0,318
630,961;24634,367;    2,555;   -0,955
631,539;24382,260;    2,464;    0,227
632,116;23682,731;   11,373;   15,409
632,694;24282,930;    2,555;    6,500
633,271;24542,116;    0,828;    2,682
633,848;24502,855;    1,828;    2,045
634,426;24549,168;   -1,081;    1,773
635,003;23652,017;    1,101;   -0,409
635,580;24004,741;    1,192;    3,682
636,158;24544,370;    3,737;    1,227
636,735;24508,238;    0,555;   -0,500
637,312;24662,920;   -0,809;   -0,682
637,889;24737,225;   -4,354;   -0,682
638,466;24232,555;   -3,990;   -0,409
639,043;24208,198;    2,101;   -1,136
639,620;24547,348;   -2,262;   -0,955
640,197;24885,674;    1,100;    1,682
640,774;25044,358;   -0,172;    1,136
641,351;25416,496;    0,737;    1,136
641,928;24806,452;   -0,627;    1,409
642,505;24453,227;    0,828;   -0,500
643,082;24605,729;   -1,718;    1,227
643,658;23678,231;   -0,718;    1,500
644,235;24412,823;    1,191;    2,500
644,812;24671,143;    1,918;    0,773
645,388;24400,100;   -0,991;    1,409
645,965;24524,511;   -0,809;    1,682
646,542;24545,558;   -1,445;   -0,227
647,118;24546,151;    1,009;   -0,955
647,695;24880,471;   -0,263;    1,136
648,271;24805,700;   -0,536;    0,500
648,848;25069,292;    0,736;    2,227
649,424;24936,794;    0,827;    1,318
650,000;24729,569;   -0,354;   -1,045
650,577;24490,162;   -0,627;   -0,955
651,153;24961,027;   -1,809;    0,955
651,729;25925,256;    1,191;    0,864
652,305;26030,940;    0,645;    2,773
652,881;30033,260;   -0,082;    1,136
653,458;36591,762;    1,100;    0,227
654,034;40380,445;    0,282;    1,591
654,610;41890,129;    0,554;    0,773
655,186;43230,176;    0,645;    3,045
655,762;42923,769;   -0,991;    0,409
656,338;42909,362;    0,100;    0,136
656,913;43827,045;   -0,082;    0,409
657,489;43156,365;    0,827;   -0,318
658,065;43149,503;   -0,173;   -1,591
658,641;43858,278;   -0,900;   -0,864
659,217;43227,598;   -0,991;    0,409
659,792;42531,463;    0,645;   -0,409
660,368;42812,056;   -2,173;   -0,682
660,944;42599,104;   -2,082;    1,227
661,519;38428,696;   -0,628;    0,409
662,095;32772,016;   -1,719;    0,591
662,670;28189,791;    1,281;   -0,136
663,246;26940,474;    1,009;   -0,409
663,821;26145,613;    0,281;    1,682
664,396;25702,842;    0,009;    1,864
664,972;25947,980;    0,009;   -0,500
665,547;26275,482;    1,372;    0,136
666,122;26316,711;   -1,082;    0,318
666,698;26555,304;   -0,173;    0,318
667,273;25900,078;   -0,173;    0,136
667,848;26691,398;    2,372;    1,500
668,423;26507,900;    2,190;    2,318
668,998;27074,675;    2,827;   -0,682
669,573;27587,085;   -3,264;   -1,500
670,148;27410,405;   -1,446;   -0,682
670,723;27278,180;   -1,810;    0,318
671,298;27669,409;    2,372;    1,045
671,873;27718,911;   -0,082;   -0,136
672,448;27695,867;    0,645;    0,136
673,023;28015,460;   -1,992;   -0,227
673,597;28306,235;    0,827;    2,318
674,172;28125,464;   -0,355;    0,318
674,747;27618,147;    0,372;   -1,045
675,321;27493,376;   -0,628;    3,318
675,896;27075,060;    0,645;    1,045
676,471;28021,380;    2,645;    1,591
677,045;27787,155;   -1,264;    0,682
677,620;27860,566;    0,190;    1,136
678,194;28187,431;   -2,628;    1,136
678,769;27751,842;   -1,083;   -0,318
679,343;27968,798;   -0,628;    1,773
679,917;27823,664;   -1,446;    1,955
680,492;27920,984;    0,826;    3,227
681,066;28044,031;    3,372;    0,409
681,640;28092,897;    1,463;   -0,318
682,214;28895,762;    0,735;    0,500
682,788;28428,537;   -1,356;   -0,773
683,363;28407,857;   -1,810;    1,682
683,937;28101,086;   -1,719;   -0,318
684,511;28825,769;    0,463;   -0,591
685,085;28588,453;   -1,356;    0,318
685,659;28322,682;   -2,538;    0,864
686,232;28530,184;   -0,356;   -0,318
686,806;28328,231;   -0,901;    0,409
687,380;28979,824;   -0,174;    0,591
687,954;29175,326;   -1,174;    1,136
688,528;28840,555;   -0,719;    1,955
689,101;29583,875;   -3,992;    1,045
689,675;29188,649;   -0,356;   -0,136
690,249;28599,060;   -0,719;    0,409
690,822;28855,108;    0,280;    0,318
691,396;28980,064;   -0,265;    1,227
691,969;28454,839;    1,280;    0,136
692,543;28948,977;   -0,447;   -1,955
693,116;28587,024;   -0,265;   -1,409
693,690;28433,253;    0,099;    0,500
694,263;28996,119;   -1,083;    2,955
694,836;29011,893;    1,371;    3,591
695,410;27637,031;   -0,265;    1,773
695,983;28124,079;    0,189;    0,591
696,556;28117,217;   -0,447;   -1,045
697,129;28514,900;   -0,356;    1,409
697,703;28145,675;   -1,629;    1,955
698,276;28124,359;    1,462;   -0,773
698,849;27976,679;    1,280;    1,409
699,422;28317,180;   -1,083;    0,591
699,995;28020,319;    0,007;    0,136
700,568;28512,911;   -0,629;    3,045
701,140;28537,868;   -2,811;    1,682
701,713;28269,188;   -0,174;    2,409
702,286;28049,962;   -0,538;    0,864
702,859;27955,555;   -0,902;   -0,591
703,432;27081,330;    0,825;    0,682
704,004;27554,650;    0,462;    0,318
704,577;27447,606;   -0,629;    0,136
705,150;28022,017;    0,189;    2,500
705,722;27759,246;   -0,356;   -3,227
706,295;27556,021;   -0,175;   -0,591
706,867;27412,159;   -0,175;    1,955
707,440;27618,842;   -1,720;   -0,409
708,012;27882,435;    0,462;    0,591
708,584;27810,664;    2,462;    0,227
709,157;28130,712;    1,825;   -0,591
709,729;27796,850;    2,280;    2,045
710,301;28652,806;    0,734;    0,045
710,874;28595,490;   -1,447;   -0,227
711,446;27482,901;    0,371;    0,864
712,018;27370,039;    0,098;    0,500
712,590;27104,722;   -1,993;    1,682
713,162;27664,042;    0,825;    1,318
713,734;27957,362;    1,825;   -2,045
714,306;27864,592;   -1,902;   -0,409
714,878;26554,184;    0,825;    0,864
715,450;27356,141;    0,643;    0,864
716,022;27626,370;    1,552;    1,318
716,593;27755,235;    0,189;    0,591
717,165;27700,646;   -3,175;   -1,227
717,737;27356,330;    0,280;    0,409
718,309;27004,104;    0,280;   -0,045
718,880;26975,333;   -0,539;   -1,409
719,452;27249,108;   -0,175;   -1,591
720,024;26828,519;    0,734;   -0,591
720,595;27390,293;   -2,902;    0,955
721,167;26914,341;    0,370;   -2,045
721,738;26456,570;   -0,812;   -1,045
722,309;26468,981;   -0,993;   -1,227
722,881;26261,210;   -1,357;    0,773
723,452;26868,439;   -2,630;    2,864
724,023;27037,486;   -0,721;    2,682
724,595;26802,715;    0,007;    0,682
725,166;26533,217;    0,007;   -0,409
725,737;26209,355;    1,734;    0,227
726,308;26338,857;   -0,266;    0,318
726,879;26698,904;   -1,630;    1,227
727,450;26578,952;    0,552;   -0,045
728,021;26536,635;    3,097;    0,682
728,592;26368,501;    0,734;    0,500
729,163;26698,912;    0,643;   -0,136
729,734;26709,777;    0,188;   -0,227
730,305;27003,734;    1,734;    0,136
730,876;27353,145;    0,188;    2,955
731,447;27058,828;    2,188;    2,682
732,017;27134,239;    1,097;    1,864
732,588;26657,650;    0,734;    1,227
733,159;26826,788;    0,643;   -1,045
733,729;26703,199;    0,006;    0,409
734,300;25992,519;    0,915;    0,864
734,870;26388,112;    3,461;    0,591
735,441;26950,705;    0,370;   -0,591
736,011;26711,570;    0,643;   -1,591
736,582;26653,254;   -0,812;    0,045
737,152;26127,665;   -1,721;   -2,045
737,722;26576,439;   -0,267;   -0,682
738,293;26280,486;   -1,358;    1,318
738,863;26199,534;    2,461;    2,318
739,433;25996,945;    5,279;    0,318
740,003;26598,083;   -0,994;   -0,682
740,573;26028,948;    2,097;   -1,591
741,143;26025,359;   -1,085;    0,318
741,713;26747,861;    1,188;   -0,500
742,283;26435,272;    0,915;    1,591
742,853;26245,956;    1,915;    1,591
743,423;25711,912;    1,733;    0,045
743,993;25850,505;   -0,358;    1,500
744,563;25206,643;    0,097;   -0,864
745,133;25168,508;   -0,812;   -0,864
745,702;25907,556;   -0,267;    1,773
746,272;25082,512;   -0,176;    0,591
746,842;24838,468;   -1,358;   -0,591
747,411;25227,152;   -0,267;   -0,318
747,981;25474,927;    0,097;    0,500
748,551;25482,065;    2,278;   -1,045
749,120;25352,294;    0,642;   -0,227
749,690;25724,705;   -0,631;    2,409
750,259;26125,388;    1,369;    2,955
750,828;25990,890;    1,551;   -1,955
751,398;26247,392;    1,278;   -0,045
751,967;25729,894;    2,187;    0,409
752,536;25977,850;   -0,813;   -0,227
753,105;26410,625;    0,096;    0,227
753,675;26210,127;    0,096;    1,773
754,244;26159,719;   -0,904;    3,591
754,813;26135,312;    0,551;    1,227
755,382;25724,359;    0,460;    0,955
755,951;26292,316;    1,551;    3,682
756,520;25806,545;   -0,085;    1,864
757,089;26350,683;    0,278;    0,500
757,658;26505,276;    1,733;    1,227
758,227;26515,596;    1,096;    0,318
758,795;26808,552;    1,187;    1,136
759,364;27082,872;   -0,086;   -0,591
759,933;26132,283;   -1,176;   -0,045
760,501;25636,149;    0,733;   -1,318
761,070;26056,741;   -2,813;   -1,409
761,639;26774,061;   -1,904;    1,318
762,207;26105,836;    1,551;   -0,955
762,776;26055,610;    0,369;    0,864
763,344;25991,021;   -0,995;    0,591
763,913;25116,341;   -0,722;    1,409
764,481;25857,389;    1,005;   -0,136
765,049;25679,254;   -1,358;    1,409
765,618;25542,665;   -0,086;    0,318
766,186;25651,894;    0,278;    0,136
766,754;25805,760;    0,005;    1,864
767,322;24844,352;   -1,995;    0,409
767,890;24855,309;   -0,722;   -1,773
768,459;25277,811;   -2,177;   -0,318
769,027;25442,585;    1,641;    3,409
769,595;24412,723;    3,278;    2,591
770,163;24868,407;    3,823;    2,955
770,730;24590,818;    0,732;   -0,136
771,298;24482,138;    0,187;   -1,409
771,866;24601,912;   -1,541;    4,955
772,434;24871,960;   -0,631;   -1,864
773,002;25041,007;    0,005;    0,682
773,569;24704,963;    0,914;    1,682
774,137;24508,920;   -0,268;   -0,045
774,705;25309,422;    0,278;   -0,136
775,272;24813,560;    0,641;    0,682
775,840;24618,516;   -0,177;    2,682
776,407;24151,836;    0,277;    1,955
776,975;23753,974;   -0,632;    0,318
777,542;24733,840;   -1,086;   -0,045
778,110;24607,523;   -1,268;   -0,045
778,677;24311,025;   -2,359;   -0,864
779,244;24009,982;    2,186;    1,045
779,812;24132,756;    1,823;    0,864
780,379;23995,713;    0,005;    1,136
780,946;24262,851;    1,005;   -0,773
781,513;24577,262;   -1,450;    0,318
782,080;23935,036;   -0,086;    2,864
782,647;24679,629;   -0,268;    3,045
783,214;24283,858;   -0,177;    3,864
783,781;23916,087;   -0,723;   -0,682
784,348;23757,316;   -0,632;    1,500
784,915;24242,909;   -3,177;    0,318
785,482;23986,593;    1,368;    2,591
786,049;24370,276;    0,186;   -0,591
786,615;24557,233;    0,277;   -0,955
787,182;24316,553;    0,186;   -0,682
787,749;23931,964;   -2,814;    1,409
788,315;23267,647;   -1,632;   -0,409
788,882;23579,695;    1,550;   -1,227
789,448;24306,196;    1,732;   -0,955
790,015;24309,425;    1,095;    3,227
790,581;23846,473;    1,459;    0,227
791,148;23790,884;    0,641;    1,045
791,714;24055,385;   -0,541;    3,136
792,280;23660,796;    0,186;    1,591
792,847;23249,389;    0,550;    2,500
793,413;23802,800;   -0,269;   -0,318
793,979;23338,938;    3,459;   -1,318
794,545;23435,986;    4,459;    2,682
795,111;22822,396;    2,186;    1,318
795,678;23039,626;    0,731;   -1,682
796,244;22653,491;    3,368;    0,136
796,810;23215,266;    1,731;    0,773
797,375;22947,858;    0,549;   -2,136
797,941;22982,633;   -0,541;    0,591
798,507;23134,407;   -0,451;   -0,955
799,073;22678,364;   -0,360;    0,591
799,639;22740,866;   -2,632;    3,136
800,205;22785,186;    0,095;    2,682
800,770;22336,051;    0,640;    1,773
801,336;22406,826;    1,368;   -0,955
801,901;22139,782;    4,549;    3,136
802,467;22691,193;   -0,542;    2,045
803,033;22021,422;   -0,087;    0,864
803,598;22272,924;    1,913;   -1,045
804,163;22295,789;    1,095;   -0,318
804,729;22222,655;   -0,178;    1,136
805,294;22668,247;    0,822;    2,227
805,859;22424,295;    0,731;   -0,409
806,425;21861,706;    1,186;    2,682
806,990;21549,117;    2,186;    4,318
807,555;22140,709;   -1,451;    2,591
808,120;21937,029;    0,822;   -0,409
808,685;21990,349;    0,185;   -2,500
809,250;21482,760;    0,004;   -0,500
809,815;21819,626;    1,913;    0,682
810,380;22357,400;   -0,269;    1,591
810,945;22845,175;   -1,087;    2,045
811,510;22067,949;    2,094;    1,591
812,075;21758,633;   -0,633;   -1,409
812,640;21804,589;    2,003;    1,409
813,204;21876,364;    0,822;   -0,227
813,769;22326,593;    2,094;   -0,045
814,334;21747,731;    0,458;    0,864
814,898;21828,869;    0,367;    0,591
815,463;21678,644;    1,276;   -0,773
816,027;21655,782;   -0,724;   -2,318
816,592;21782,829;    0,640;   -2,045
817,156;21279,695;    2,094;    1,136
817,721;21106,197;    4,276;    2,318
818,285;21102,971;    2,912;    1,500
818,849;21726,291;   -1,451;    1,682
819,414;21647,520;   -0,269;    2,955
819,978;21237,295;   -1,269;    1,773
820,542;21799,979;    2,003;    0,500
821,106;21522,662;   -0,815;    0,682
821,670;21567,800;   -0,815;    2,591
822,234;21333,575;   -0,270;    1,409
822,798;20709,804;    0,003;    0,500
823,362;20684,397;   -0,633;    4,227
823,926;19982,808;    0,094;    1,136
824,490;20218,128;   -0,997;   -0,682
825,054;20681,357;   -0,088;   -1,136
825,618;20262,768;   -1,542;   -1,500
826,181;20195,542;    0,458;   -1,318
826,745;20125,953;    1,367;   -1,045
827,309;20483,455;    1,185;    1,318
827,872;19895,048;    1,367;    0,955
828,436;20864,731;    1,185;   -0,773
828,999;20925,142;   -0,997;    1,227
829,563;19755,917;   -0,179;    1,136
830,126;19581,782;   -0,179;   -0,591
830,690;19594,375;   -1,997;    2,864
831,253;19089,968;   -0,543;    2,227
831,816;19200,833;   -1,906;    0,500
832,380;19178,244;    0,185;    0,864
832,943;19403,201;   -1,361;   -0,500
833,506;18925,066;    2,639;   -1,227
834,069;19669,477;    3,912;   -0,955
834,632;19738,433;    1,730;    1,318
835,195;19635,662;    1,003;    0,955
835,758;18824,164;   -0,997;    1,955
836,321;18682,575;    0,730;   -1,045
836,884;18793,986;   -0,725;   -0,955
837,447;18808,761;   -2,816;    1,773
838,010;19064,081;    0,366;    3,227
838,573;19340,855;   -1,179;    0,773
839,135;19312,084;   -1,361;   -0,955
839,698;18795,495;    1,275;    0,409
840,261;18273,179;    1,003;   -0,227
840,823;18158,681;   -0,543;    0,864
841,386;18484,728;   -0,452;   -2,409
841,948;18339,957;   -1,361;    1,773
842,511;18073,186;    0,912;    1,682
843,073;18210,961;    1,912;    0,227
843,636;17988,463;   -0,361;   -0,227
844,198;17949,783;    0,911;    0,591
844,760;18101,012;    1,093;    1,955
845,322;17745,059;    0,548;    1,136
845,885;18154,834;    0,730;    0,591
846,447;18613,154;   -1,998;    0,227
847,009;18182,564;    1,911;   -0,682
847,571;18464,703;    0,820;   -2,045
848,133;18601,205;   -1,089;   -1,864
848,695;18465,434;   -0,543;    1,409
849,257;18004,935;   -1,089;   -1,682
849,819;18145,801;   -0,998;   -0,409
850,381;18213,575;   -0,725;   -0,864
850,942;18562,714;    1,093;   -0,591
851,504;18508,579;    1,184;    0,227
852,066;18531,808;    1,275;   -1,591
852,628;18070,583;   -0,180;    1,955
853,189;17630,175;    1,638;    2,682
853,751;17773,768;   -0,907;    1,409
854,312;17595,997;   -0,453;   -1,682
854,874;18088,045;   -2,089;   -0,773
855,435;18591,456;   -0,907;   -1,682
855,997;18726,776;   -1,816;   -0,136
856,558;18023,096;    0,366;    1,773
857,119;18090,416;    0,820;    2,864
857,681;17807,372;    0,002;    0,318
858,242;17908,601;    1,911;   -2,136
858,803;18315,012;    0,456;   -0,773
859,364;18921,968;    0,184;   -4,773
859,925;18225,652;   -2,453;   -0,955
860,486;18098,790;   -0,453;   -0,955
861,047;17846,928;   -0,544;   -1,227
861,608;17623,703;   -1,089;   -0,773
862,169;17779,114;    0,638;   -0,045
862,730;17576,434;    0,456;    1,409
863,291;17781,208;   -0,635;   -0,500
863,852;18160,892;   -0,635;    1,955
864,412;17668,939;   -0,271;   -0,864
864,973;16278,259;   -0,089;    0,500
865,534;16135,852;   -1,726;    0,227
866,094;17633,990;    1,820;    0,227
866,655;17219,856;    1,274;    3,318
867,215;17529,176;    0,274;    0,136
867,776;17419,859;    0,547;   -0,136
868,336;17443,907;   -1,453;    0,136
868,897;16938,499;    2,638;    1,682
869,457;16707,274;    1,365;    0,318
870,017;16953,412;    0,547;   -1,227
870,578;17439,096;   -0,817;    0,773
871,138;17109,688;   -2,089;   -0,955
871,698;16653,008;   -0,817;   -1,318
872,258;16538,329;   -0,453;   -2,864
872,818;16930,285;    2,729;    0,045
873,378;16874,150;    0,638;    1,045
873,938;16425,652;    0,547;    0,500
874,498;16759,609;    0,274;   -1,955
875,058;16667,565;    2,183;    1,773
875,618;16507,885;    1,910;   -2,682
876,177;16448,387;    1,274;    0,136
876,737;16087,979;   -0,090;    1,955
877,297;16084,754;    0,183;    1,955
877,856;16065,983;   -0,362;    0,318
878,416;15980,576;    1,183;   -0,136
878,976;16211,169;   -1,817;    0,409
879,535;16386,034;    0,092;    3,136
880,095;16144,081;   -0,544;    0,045
880,654;16276,765;   -1,090;    1,318
881,213;16355,358;    2,456;    1,500
881,773;16023,860;    2,637;    2,682
882,332;16369,543;    3,365;    5,136
882,891;16205,409;    3,092;    2,136
883,451;16678,183;   -1,272;    1,682
884,010;16167,958;   -2,908;   -0,409
884,569;16221,096;   -0,999;   -0,045
885,128;16338,689;    2,819;   -1,864
885,687;16405,191;    4,455;    0,682
886,246;16146,601;    1,455;    2,136
886,805;15896,194;    2,455;    2,045
887,364;16191,969;   -0,999;   -0,500
887,922;16520,380;   -1,181;    0,045
888,481;16022,881;   -1,545;    0,591
889,040;16365,474;    1,183;    2,136
889,599;17060,703;    2,455;    1,409
890,157;17101,478;    1,455;    2,409
890,716;16752,707;   -0,090;    0,227
891,274;16566,936;    0,092;   -1,136
891,833;17021,892;    1,546;    0,864
892,391;16879,485;   -0,454;    0,500
892,950;16901,623;    1,819;   -0,773
893,508;17286,398;    0,455;   -0,409
894,067;16652,536;    0,637;    0,136
894,625;16581,220;   -0,636;   -1,500
895,183;16834,085;   -0,363;   -0,682
895,741;16699,678;    1,728;   -1,773
896,299;16547,089;   -0,545;   -2,409
896,858;16735,045;    0,819;   -1,591
897,416;16879,365;    2,728;   -1,318
897,974;16641,503;    1,819;    0,318
898,532;16725,187;    6,091;    2,682
899,089;16633,325;    2,091;   -0,682
899,647;16707,645;   -1,454;    1,318
900,205;16415,874;    1,182;    1,045
900,763;16615,831;   -0,454;    0,227
901,321;16582,333;    2,364;   -1,409
901,878;16070,016;   -1,000;   -0,773
902,436;15958,700;   -1,363;    1,318
902,994;16346,293;    4,728;    3,682
903,551;15771,522;    0,728;    0,409
904,109;16173,387;    0,182;   -1,409
904,666;15764,889;    2,455;    1,045
905,224;15632,664;    0,182;   -0,409
905,781;15353,074;    0,727;   -0,318
906,338;15420,213;   -1,363;    1,045
906,895;15340,169;    0,637;    2,045
907,453;15272,580;    1,727;    1,136
908,010;15331,173;   -0,909;    0,409
908,567;14992,311;    1,273;    0,591
909,124;14481,631;    0,364;   -1,500
909,681;14591,769;   -2,909;    0,682
910,238;14738,362;    0,636;   -1,318
910,795;15045,500;   -0,273;   -1,136
911,352;14651,773;   -2,909;   -2,682
911,909;14080,864;   -1,364;   -0,864
912,466;14595,682;   -3,182;    1,500
913,022;14130,136;   -1,636;    0,500
913,579;14488,955;   -0,909;    2,045
914,136;14201,045;    1,636;    0,955
914,692;14540,318;    0,091;   -1,227
915,249;14128,045;    1,455;    0,409
915,806;14375,500;    0,182;    1,955
916,362;14121,045;    1,909;    1,864
916,918;13694,318;    2,000;    1,045
917,475;13641,500;   -1,182;    0,955
918,031;13705,045;    3,364;   -0,045
918,587;13173,318;   -0,909;   -0,318
919,144;13405,591;   -2,273;    0,227
919,700;13720,864;    1,727;    0,773
920,256;13333,864;    0,727;    0,045
920,812;12930,955;   -0,727;   -1,045
921,368;12951,409;   -1,727;   -1,045
921,924;12554,773;    0,182;   -0,136
922,480;12154,864;   -0,545;    1,227
923,036;12816,136;    1,273;    1,955
923,592;12734,409;    0,455;    0,318
924,148;12635,864;    0,455;   -0,955
924,704;11916,864;   -1,364;   -0,409
925,259;12188,500;   -0,273;    0,591
925,815;11956,955;    1,455;    0,500
926,371;11531,045;    2,909;    1,409
926,926;11410,955;    2,091;    0,591
927,482;11020,227;   -1,364;    0,773
928,037;10937,318;    0,909;    2,045
928,593;11176,227;    1,636;    1,045
929,148;11050,136;   -1,818;   -1,500
929,704;10562,773;   -1,455;   -0,500
930,259;10747,409;    0,091;   -0,136
930,814; 9823,227;   -0,818;    1,955
931,369; 9558,227;    1,091;   -0,773
931,925; 9447,409;   -0,091;    0,136
932,480; 9345,318;   -2,818;   -2,591
933,035; 9216,409;    0,545;   -0,318
933,590; 9002,136;    0,364;   -1,773
934,145; 8651,227;   -1,364;   -0,318
934,700; 9015,318;    0,455;   -0,591
935,255; 8827,591;   -0,091;    0,045
935,809; 8107,682;    3,182;    0,864
936,364; 7242,227;   -0,455;   -0,136
936,919; 7212,227;    0,455;   -1,773
937,474; 7118,500;    1,455;    0,136
938,028; 6916,500;   -1,636;    1,136
938,583; 6361,409;    1,818;    4,682
939,138; 6648,591;    2,091;    2,136
939,692; 6098,045;    1,636;   -1,136
940,247; 5807,500;   -0,727;   -1,045
940,801; 5371,500;   -0,636;    0,227
941,355; 5275,955;   -0,364;    2,591
941,910; 4949,591;   -0,273;   -2,136
942,464; 5062,955;   -0,818;   -0,318
943,018; 4828,500;    1,000;   -0,227
943,572; 4780,136;    2,545;   -0,682
944,126; 4225,045;    0,091;   -0,409
944,681; 4103,955;    3,091;    0,227
945,235; 4080,682;    1,000;   -0,591
945,789; 4052,227;    0,364;   -1,864
946,342; 4140,227;    0,455;   -0,591
946,896; 3952,864;   -2,273;    0,955
947,450; 3716,136;    1,545;   -0,227
948,004; 3896,591;    1,727;   -0,045
948,558; 3898,682;    0,273;   -0,864
949,111; 3827,864;   -0,273;   -0,318
949,665; 3844,773;    1,636;   -0,682
950,219; 3751,591;   -0,091;   -1,045
950,772; 3812,955;   -1,909;    1,864
951,326; 3719,500;    0,545;   -0,955
951,879; 3820,955;    0,727;   -2,318
952,433; 3848,136;    0,000;    2,227
952,986; 3677,864;    2,909;    0,682
953,539; 3634,318;   -0,273;    0,591
954,093; 3581,955;    0,545;   -1,318
954,646; 3679,500;    0,909;    1,318
955,199; 3517,955;    0,000;   -0,500
955,752; 3412,864;   -0,455;    1,773
956,305; 3359,500;   -0,091;    2,955
956,858; 3513,227;    0,818;   -0,318
957,411; 3689,136;   -0,545;    2,136
957,964; 3526,864;    1,364;    2,136
958,517; 3512,227;   -1,545;    3,136
959,070; 3352,227;   -0,455;    1,955
959,623; 3423,500;    1,091;    1,500
960,176; 3200,591;    1,727;    2,045
960,728; 3183,682;   -2,727;    0,773
961,281; 3232,409;    0,545;    0,500
961,834; 3288,591;   -0,909;    0,864
962,386; 3210,864;    1,727;    1,045
962,939; 3133,864;    0,364;   -0,318
963,491; 3271,227;    0,455;    1,136
964,043; 3142,864;    1,182;    2,409
964,596; 3242,773;   -1,000;    2,227
965,148; 3105,591;   -1,000;    1,773
965,700; 3011,682;    1,091;   -0,227
966,253; 3172,227;   -0,636;    0,318
966,805; 3016,500;   -2,273;    0,773
967,357; 3070,318;    1,091;   -1,500
967,909; 3015,591;    0,455;   -1,227
968,461; 3143,227;    0,545;    3,136
969,013; 3070,591;   -0,182;   -0,864
969,565; 3139,500;   -0,455;   -1,136
970,117; 3209,864;   -0,364;    1,045
970,669; 3044,591;    0,182;   -0,136
971,220; 2902,591;   -0,455;   -1,500
971,772; 2842,136;   -0,636;   -0,318
972,324; 2980,864;    0,091;   -0,500
972,876; 2913,409;    0,818;   -0,045
973,427; 3030,136;    1,909;   -1,045
973,979; 2999,500;   -0,727;   -2,500
974,530; 3037,045;    1,818;    1,318
975,082; 3054,045;   -0,545;    1,682
975,633; 2955,409;    1,091;    1,682
976,184; 3080,318;    0,909;    0,773
976,736; 2892,045;    0,091;    0,227
977,287; 2699,409;   -0,909;   -0,500
977,838; 2868,773;    0,909;   -0,318
978,389; 2921,045;   -1,000;   -0,500
978,940; 2793,682;    0,545;   -0,409
979,491; 2822,773;    0,091;   -0,500
980,042; 2790,591;    0,182;    3,045
980,593; 2841,136;   -2,545;    0,227
981,144; 2899,136;    2,545;   -0,500
981,695; 2870,409;    1,455;    1,500
982,246; 2840,045;   -0,273;    1,045
982,797; 2990,682;   -1,727;    0,682
983,347; 3098,318;    0,364;    0,591
983,898; 3244,500;    3,091;    0,409
984,449; 3058,227;    2,182;    0,773
984,999; 2986,136;    1,455;   -1,136
985,550; 2768,591;    0,182;   -0,318
986,100; 2794,773;   -0,455;   -0,318
986,651; 2859,318;   -0,818;    0,045
987,201; 2812,591;   -1,000;   -0,591
987,751; 2885,864;    0,818;    2,864
988,302; 2872,045;    2,636;    1,500
988,852; 2916,864;    0,455;   -1,136
989,402; 2962,136;    0,091;    0,682
989,952; 2874,409;   -2,182;    0,864
990,502; 2965,136;   -0,091;    0,682
991,052; 2919,500;   -0,727;    0,045
991,602; 2812,136;   -2,909;    1,318
992,152; 2800,864;    0,455;    0,682
992,702; 2800,864;    1,364;   -0,045
993,252; 2703,227;   -3,000;   -0,500
993,802; 2798,227;   -0,273;    1,318
994,352; 3023,409;   -1,545;    1,136
994,901; 3101,318;   -0,182;    3,227
995,451; 3040,409;   -0,182;    0,318
996,000; 3119,864;    1,636;    0,318
996,550; 2841,773;    2,273;    0,227
997,100; 2846,773;    1,273;   -0,045
997,649; 3114,864;    2,182;    0,955
998,198; 2766,682;    1,727;   -1,500
998,748; 2957,773;    1,091;   -2,318
999,297; 2875,773;   -0,818;   -0,409
999,846; 2902,773;    1,000;   -0,773
1000,395; 2951,500;   -0,818;    0,500
1000,945; 2908,136;    1,818;   -0,773
1001,494; 2989,500;    2,364;    0,682
1002,043; 2997,045;    4,636;    0,864
1002,592; 2857,682;   -1,091;    1,955
1003,141; 2978,318;   -0,455;   -0,682
1003,690; 2824,773;    1,727;    0,500
1004,238; 2918,591;    1,455;   -0,045
1004,787; 2577,409;    1,364;    1,227
1005,336; 2809,136;    0,364;    0,682
1005,885; 2938,773;    1,364;   -2,773
1006,433; 3063,409;    0,545;    0,955
1006,982; 3124,318;    0,455;    1,682
1007,531; 3054,591;   -1,818;   -0,227
1008,079; 3011,955;   -2,273;    0,500
1008,627; 3136,500;   -1,455;    0,409
1009,176; 2878,864;    0,000;   -1,955
1009,724; 2917,682;    1,091;    0,864
1010,273; 2982,318;    1,273;    0,500
1010,821; 3095,500;    0,091;    1,409
1011,369; 2830,409;   -1,364;    1,318
1011,917; 2813,045;   -1,364;   -0,591
1012,465; 3104,682;    1,273;   -1,591
1013,013; 3207,955;    2,091;   -1,682
1013,561; 3091,136;    0,455;   -0,773
1014,109; 3121,318;   -1,909;    1,682
1014,657; 2996,045;    0,364;    0,591
1015,205; 3119,409;    1,636;   -0,955
1015,753; 3151,864;   -0,545;   -1,409
1016,301; 3191,682;   -2,636;    3,045
1016,848; 3210,318;   -1,273;    0,409
1017,396; 3241,955;    2,545;    0,045
1017,944; 3359,045;    1,182;    1,864
1018,491; 3121,318;    0,273;    1,409
1019,039; 3279,682;    0,455;    0,591
1019,586; 3218,955;   -1,364;    1,682
1020,134; 3311,864;    0,455;    1,500
1020,681; 3318,227;    0,182;   -1,136
1021,228; 3336,045;    2,909;   -2,227
1021,776; 3180,045;    1,182;   -1,136
1022,323; 3384,318;    0,455;    0,773
1022,870; 3314,409;   -1,000;   -0,045
1023,417; 3218,409;    2,636;    1,864
1023,964; 3344,682;    2,636;    1,227
1024,511; 3186,773;    1,000;    0,773
1025,058; 3006,864;    3,182;   -0,045
1025,605; 3044,591;   -2,273;    3,136
1026,152; 3264,318;    1,727;   -0,591
1026,699; 3003,409;    1,818;    1,318
1027,245; 3171,500;   -0,091;    0,318
1027,792; 3390,136;   -1,000;    1,409
1028,339; 3269,955;    2,364;   -0,045
1028,885; 3111,955;    1,000;   -0,227
1029,432; 3054,500;   -0,091;    0,227
1029,978; 3114,318;   -1,000;   -1,591
1030,525; 3019,864;    1,000;    0,409
1031,071; 3272,409;   -1,364;    1,136
1031,618; 3372,045;    0,364;    1,682
1032,164; 3149,409;   -0,091;    3,045
1032,710; 3180,227;    1,636;   -1,500
1033,256; 3122,773;   -0,636;   -0,136
1033,803; 3114,318;   -0,545;    1,500
1034,349; 2852,955;   -1,364;    0,136
1034,895; 3000,955;    0,000;   -0,318
1035,441; 2966,773;   -0,818;    0,318
1035,987; 2969,500;   -2,364;   -0,682
1036,533; 2966,227;   -1,455;   -0,955
1037,078; 3157,136;    1,455;    1,682
1037,624; 2991,227;    2,455;   -0,955
1038,170; 3021,773;    0,455;   -0,318
1038,716; 2927,773;    1,636;   -0,409
1039,261; 2840,227;   -2,273;   -0,773
1039,807; 2782,136;   -0,091;    3,409
1040,352; 2851,500;   -1,909;   -0,318
1040,898; 2898,864;   -1,545;   -0,682
1041,443; 2811,500;   -1,455;   -2,591
1041,989; 2822,500;    1,091;    1,591
1042,534; 2695,955;   -0,364;    2,591
1043,079; 2823,682;    2,909;    0,955
1043,625; 2626,136;    1,818;    0,500
1044,170; 2681,045;   -1,364;    1,045
1044,715; 2914,591;    2,455;    0,955
1045,260; 2737,045;    2,182;   -0,955
1045,805; 2788,409;    1,182;   -0,591
1046,350; 2732,500;    1,364;   -0,409
1046,895; 2678,318;    2,909;    1,591
1047,440; 2624,136;    5,364;    0,409
1047,985; 2541,227;    2,818;   -0,955
1048,530; 2453,318;    1,545;    1,227
1049,074; 2508,227;    0,000;    0,318
1049,619; 2486,409;   -1,364;    1,955
1050,164; 2297,045;    0,455;    0,227
1050,708; 2359,318;   -0,455;    0,045
1051,253; 2714,136;    1,273;   -2,227
1051,797; 2410,409;    0,818;   -1,318
1052,342; 2437,773;   -1,182;    1,045
1052,886; 2413,773;    0,364;   -1,409
1053,430; 2318,864;   -1,364;    0,136
1053,975; 2319,136;   -0,818;   -0,318
1054,519; 2304,864;   -0,727;    3,227
1055,063; 2310,409;    0,909;    1,318
1055,607; 2197,864;   -0,182;    0,227
1056,151; 2220,045;    2,909;    1,682
1056,695; 2139,045;    2,273;   -1,136
1057,239; 2228,864;   -1,727;   -0,682
1057,783; 2219,864;    0,818;   -1,500
1058,327; 2163,591;    0,000;    1,409
1058,871; 2402,955;   -0,545;    1,318
1059,415; 2107,045;   -0,818;   -0,045
1059,958; 2355,682;    1,455;    2,591
1060,502; 2084,227;   -1,000;   -0,773
1061,046; 1999,682;    0,364;   -0,955
1061,589; 1986,773;   -3,000;   -1,136
1062,133; 1855,682;   -1,273;    1,864
1062,676; 1798,500;    1,182;    0,864
1063,220; 1806,773;    1,091;    0,500
1063,763; 1830,227;    0,909;    1,136
1064,306; 1885,955;   -0,909;    1,864
1064,849; 1777,864;   -0,909;    0,591
1065,393; 1783,773;    2,000;   -1,500
1065,936; 1904,500;    0,182;   -0,409
1066,479; 1782,955;   -1,455;    1,318
1067,022; 1828,045;   -0,273;   -0,227
1067,565; 1723,500;   -0,091;   -1,318
1068,108; 1740,409;    0,727;   -0,591
1068,651; 1717,409;   -0,636;    1,409
1069,194; 1637,318;   -0,455;   -1,682
1069,736; 1640,682;   -1,273;    0,955
1070,279; 1612,773;   -1,364;   -0,500
1070,822; 1669,409;   -2,000;   -0,318
1071,364; 1753,864;   -0,364;    1,318
1071,907; 1573,682;   -0,727;    3,227
1072,450; 1489,409;    0,000;   -0,045
1072,992; 1468,864;   -0,273;    3,136
1073,535; 1617,045;    2,091;    2,136
1074,077; 1412,773;   -0,727;    2,045
1074,619; 1388,682;   -1,364;    0,591
1075,161; 1409,682;   -1,091;    1,500
1075,704; 1576,045;    1,545;    1,227
1076,246; 1392,773;   -0,182;    0,682
1076,788; 1312,682;   -0,364;    1,773
1077,330; 1389,227;    1,273;    2,136
1077,872; 1358,773;    0,909;    0,955
1078,414; 1577,864;    2,727;    0,773
1078,956; 1319,045;    1,273;   -0,227
1079,498; 1571,409;    1,636;    0,318
1080,040; 1286,500;    1,909;   -1,318
1080,581; 1226,045;    1,636;   -0,318
1081,123; 1154,591;    0,091;   -0,773
1081,665; 1197,500;   -1,182;   -0,955
1082,206; 1489,864;    1,364;   -0,500
1082,748; 1342,227;    0,727;    2,045
1083,289; 1226,227;   -2,000;    1,318
1083,831; 1132,591;   -0,545;    0,227
1084,372; 1173,773;    0,000;    0,591
1084,913; 1180,955;    1,091;    0,864
1085,455; 1152,682;   -1,909;   -2,045
1085,996; 1115,773;   -2,273;    0,136
1086,537; 1134,227;   -0,091;    0,864
1087,078; 1173,955;   -0,909;   -2,136
1087,619; 1218,227;   -1,273;    0,227
1088,160; 1134,409;    0,000;    1,318
1088,701; 1120,227;   -1,091;    0,682
1089,242; 1063,773;    1,364;   -2,227
1089,783; 1143,409;   -0,273;    1,409
1090,324; 1122,500;    0,455;    0,682
1090,865; 1003,500;    2,727;   -0,409
1091,405;  963,227;    0,727;    2,227
1091,946;  984,318;    0,182;   -0,955
1092,487;  921,409;    0,818;   -1,409
1093,027; 1082,409;   -1,364;   -1,500
1093,568;  946,409;   -0,364;    1,227
1094,108; 1030,773;    0,273;    1,773
1094,649;  971,864;   -1,182;    0,136
1095,189;  911,136;   -0,636;   -0,682
1095,729;  860,500;   -0,091;    0,955
1096,269;  869,500;    0,727;   -0,955
1096,810; 1179,227;   -1,364;    0,500
1097,350;  999,318;    1,364;   -0,773
1097,890;  909,955;    0,364;    1,227
1098,430; 1164,136;    2,364;    2,864
1098,970; 1025,682;    2,182;    1,682
1099,510;  901,864;    0,545;   -2,318
1100,050;  829,682;    1,000;   -1,591
1100,589;  784,682;   -0,727;   -0,318
1101,129;  921,682;    0,818;   -0,955
1101,669; 1063,955;    1,727;    2,136
1102,209;  883,227;   -0,091;    2,227
1102,748;  843,955;    0,000;    0,955
1103,288;  826,864;    1,273;   -1,227
1103,827;  862,773;    3,091;   -2,227
1104,367;  736,136;   -0,091;   -2,409
1104,906;  700,227;    1,364;   -1,136
1105,445;  769,409;    0,636;   -1,136
1105,985;  718,955;   -0,727;    1,500
1106,524;  759,500;   -1,727;   -0,682
1107,063;  732,136;   -2,727;    1,409
1107,602;  713,500;   -1,909;   -1,500
1108,141;  646,864;   -1,909;    1,500
1108,680;  733,409;   -3,455;   -0,591
1109,219;  664,409;   -0,909;   -0,500
1109,758;  664,591;    0,455;    0,682
1110,297;  649,409;    1,000;   -0,682
1110,836;  593,227;   -0,727;    0,955
1111,375;  765,500;   -2,545;    0,409
1111,913;  776,864;   -1,000;    0,773
1112,452;  710,045;   -0,273;    0,136
1112,991;  592,773;    1,091;    1,955
1113,529;  550,500;   -0,818;   -0,045
1114,068;  620,318;   -0,273;    2,955
1114,606;  519,045;   -0,364;   -0,955
1115,144;  682,773;   -1,273;    1,045
1115,683;  615,045;   -0,727;    0,318
1116,221;  662,500;   -0,455;   -0,864
1116,759;  569,773;    0,636;   -0,864
1117,297;  766,500;    0,000;    1,864
1117,836;  584,045;   -2,182;   -1,227
1118,374;  593,045;    0,182;   -0,682
1118,912;  535,045;    0,909;    2,682
1119,450;  520,773;    1,000;    0,864
1119,988;  555,773;    1,545;    2,136
1120,525; 1018,409;    5,091;    3,318
1121,063;  725,591;    1,182;    1,864
1121,601;  527,409;   -0,909;   -1,227
1122,139;  484,409;   -0,727;   -2,045
1122,676;  675,136;   -0,727;    2,773
1123,214;  606,136;   -1,182;    4,409
1123,751;  432,318;    1,727;    2,227
1124,289;  560,773;   -0,091;   -0,409
1124,826;  434,773;    1,727;    0,227
1125,364;  354,409;    1,727;   -0,955
1125,901;  542,409;    1,182;    1,227
1126,438;  644,227;    0,818;    0,955
1126,975;  379,045;   -0,727;   -0,773
1127,513;  441,318;    0,273;    2,136
1128,050;  355,773;    1,636;   -0,682
1128,587;  449,682;    2,000;   -0,227
1129,124;  499,045;    0,091;    1,318
1129,661;  363,773;    0,273;    0,227
1130,198;  521,318;    1,636;    0,773
1130,734;  471,500;    0,182;    1,409
1131,271;  321,864;   -0,909;    0,864
1131,808;  496,864;    2,909;    3,045
1132,345;  371,318;    1,545;    0,318
1132,881;  252,227;   -1,545;   -1,864
1133,418;  382,227;    0,727;   -1,136
1133,954;  325,591;    2,455;   -2,682
1134,491;  392,864;    1,364;   -0,773
1135,027;  297,864;    2,364;    0,864
1135,564;  381,682;    0,273;    2,955
1136,100;  371,136;    0,364;    2,136
1136,636;  259,136;   -1,273;   -1,045
1137,172;  356,227;    0,000;   -1,045
1137,708;  280,682;   -1,364;   -1,045
1138,245;  276,773;    1,273;   -1,227
1138,781;  237,682;    1,091;   -3,318
1139,317;  300,227;    1,273;   -1,409
1139,852;  292,136;    3,091;    0,136
1140,388;  400,227;   -1,182;   -0,409
1140,924;  284,136;   -1,091;   -2,227
1141,460;  222,864;   -1,636;    0,136
1141,996;  164,500;   -1,364;    2,682
1142,531;  206,227;    1,364;    3,318
1143,067;  417,955;    1,182;    1,045
1143,602;  475,318;   -0,091;   -0,318
1144,138;  312,591;   -2,636;    1,045
1144,673;  177,773;   -1,455;    1,409
1145,209;  267,682;   -1,909;   -0,318
1145,744;  180,318;   -0,727;    0,864
1146,279;  318,773;    1,818;   -0,136
1146,815;  236,955;    1,545;   -2,682
1147,350;  277,409;   -1,364;    0,045
1147,885;  187,773;   -0,818;   -1,318
1148,420;  178,136;   -2,273;    0,773
1148,955;  166,955;   -1,727;    1,864
1149,490;  197,045;   -0,909;   -1,591
1150,025;  182,500;    0,455;   -1,773
1150,560;  289,227;    1,091;   -0,955
1151,094;  262,773;    1,455;   -0,591
1151,629;  259,591;    1,636;    0,864
1152,164;  187,318;    1,364;    1,318
1152,698;  152,136;   -0,182;   -0,136
1153,233;  106,591;    0,091;   -0,682
1153,767;  150,227;   -3,000;   -2,318
1154,302;  198,682;   -1,455;    1,773
1154,836;  193,500;   -0,455;   -2,136
1155,371;  254,136;   -1,364;    3,682
1155,905;  202,227;   -0,636;    1,682
1156,439;  173,682;   -0,636;   -0,500
1156,973;  197,591;    0,364;    0,318
1157,507;  132,864;   -0,364;    0,682
1158,042;  165,864;   -0,727;    1,045
1158,576;  218,500;    0,182;    1,773
1159,110;  203,591;   -0,818;    2,409
1159,643;  176,227;    0,636;   -0,045
1160,177;  110,045;   -1,545;    1,500

