
Integration time [ms]:   0,040
Averaging Nr. [scans]: 11
Smoothing Nr. [pixels]: 0
Data measured with spectrometer [name]: 7318044SP
Wave   ;Sample   ;Dark     ;Reference
[nm]   ;[counts] ;[counts] ;[counts] 

186,757;   30,839;   31,551;    1,318
187,357;   54,029;   22,551;    0,955
187,958;   32,548;   15,460;   -1,591
188,558;   65,747;    8,915;   -1,227
189,159;   40,941;    6,733;   -4,500
189,759;    6,001;    7,278;   -3,591
190,360;    9,844;    2,824;   -2,136
190,960;   48,535;    2,915;   -4,136
191,560;   54,303;    3,189;   -6,591
192,161;  275,622;    4,372;   -3,500
192,761;  126,920;    4,010;   -3,227
193,361;   81,572;    1,556;   -3,773
193,962;  132,965;    2,010;   -2,682
194,562;   51,659;    1,189;   -3,955
195,162;   76,307;   -2,448;   -2,227
195,762;  223,113;   -3,176;   -0,045
196,362;  171,123;    1,370;   -2,500
196,963;   53,895;    2,006;   -0,864
197,563;  113,020;    1,551;   -0,955
198,163;   58,534;    0,096;   -0,682
198,763;   78,914;    1,733;   -0,500
199,363;  169,340;    3,096;   -0,500
199,963;  128,639;    0,369;    0,409
200,563;  112,044;    2,823;   -1,409
201,163;   95,906;    3,277;   -0,227
201,763;  171,175;    3,732;    0,318
202,363;  116,151;    1,459;    1,500
202,963;  198,044;    1,459;    1,045
203,563;  295,338;    0,277;    0,500
204,162;  167,069;    2,096;   -1,864
204,762;  164,013;    0,550;    0,591
205,362;  123,605;    3,004;    1,955
205,962;  210,541;    3,096;    1,955
206,562;  211,991;    1,823;    2,318
207,161;  182,082;   -0,087;    0,318
207,761;  320,568;    1,277;    2,409
208,361;  216,979;   -0,268;    1,409
208,960;  293,867;    0,459;    1,500
209,560;  346,561;    1,277;    1,591
210,160;  334,822;    0,550;    1,864
210,759;  305,208;    4,186;    1,227
211,359;  303,936;    1,459;    1,045
211,958;  546,643;    1,277;    2,045
212,558;  618,729;    1,732;    1,864
213,157;  474,103;    1,822;    1,500
213,757;  869,396;    3,822;   -0,227
214,356;  582,323;    1,277;   -0,409
214,956;  882,632;    3,095;    0,409
215,555;  541,764;    2,095;    2,136
216,154;  487,612;   -2,723;   -0,591
216,754;  491,338;    0,277;    0,773
217,353;  597,836;   -0,268;   -1,045
217,952;  460,023;   -0,178;    0,318
218,552;  685,206;    1,368;   -0,773
219,151;  582,882;    0,277;    0,955
219,750;  584,050;    0,004;   -0,227
220,349;  640,815;   -0,451;    1,045
220,948;  733,918;   -1,360;    1,136
221,548;  689,928;    0,913;    1,227
222,147;  789,773;   -0,087;   -0,409
222,746; 1066,915;   -0,451;   -0,955
223,345;  907,010;    0,731;    0,500
223,944;  898,237;   -0,451;    0,773
224,543; 1027,772;    1,004;   -1,409
225,142; 1152,178;    0,094;    0,136
225,741; 1036,485;   -0,814;    1,045
226,340; 1037,519;   -0,451;   -0,955
226,939; 1391,862;   -0,996;   -0,136
227,538; 1231,422;   -0,360;   -0,773
228,137; 1403,097;   -0,814;    0,864
228,735; 1429,369;   -0,541;    1,227
229,334; 1220,186;   -0,905;   -0,227
229,933; 1580,794;    0,459;    0,591
230,532; 1666,421;    1,186;   -0,409
231,131; 1730,263;    1,732;    0,318
231,729; 1698,426;   -2,450;   -2,318
232,328; 1685,666;   -0,723;   -1,500
232,927; 1699,137;    1,004;   -0,500
233,525; 1744,474;    3,640;    0,045
234,124; 1912,027;    2,368;   -1,591
234,723; 1876,760;    0,913;   -1,045
235,321; 1958,288;    2,277;    0,136
235,920; 2107,518;    1,186;   -1,227
236,518; 2346,046;    3,459;    0,318
237,117; 2376,080;    0,004;   -0,227
237,715; 2491,793;    0,640;   -0,500
238,314; 2567,787;   -0,087;   -2,318
238,912; 2723,999;   -0,723;   -1,409
239,510; 2701,814;    0,459;   -1,227
240,109; 2884,342;    0,004;    3,773
240,707; 2909,771;   -0,996;    1,227
241,305; 3116,989;    0,550;    0,136
241,904; 3336,989;   -0,178;   -2,045
242,502; 3377,809;   -0,632;   -0,227
243,100; 3329,427;   -0,087;   -0,955
243,698; 3534,049;    0,732;    1,682
244,297; 3698,550;   -0,632;    0,682
244,895; 3609,650;   -0,269;   -2,318
245,493; 3917,173;    2,186;   -0,591
246,091; 3959,685;    1,368;   -1,318
246,689; 3944,411;    1,004;    0,591
247,287; 4106,562;    0,822;   -1,136
247,885; 4372,578;   -1,451;    1,227
248,483; 4496,076;    1,822;   -0,500
249,081; 4604,290;    0,185;    1,591
249,679; 4746,499;   -0,178;    1,682
250,277; 4997,027;   -1,723;    0,864
250,875; 4979,428;   -1,087;   -1,045
251,473; 5020,384;   -1,178;    0,500
252,071; 5231,349;    1,459;    1,045
252,669; 5362,691;   -1,814;    0,318
253,267; 5569,719;   -0,087;    0,773
253,864; 5511,744;   -0,360;    0,682
254,462; 5467,303;    1,640;    1,591
255,060; 5447,481;   -0,269;    1,318
255,658; 5707,328;    0,822;   -0,136
256,255; 6076,470;    0,186;   -2,045
256,853; 5987,669;   -0,269;    1,409
257,451; 5987,717;    0,822;    1,864
258,048; 6305,713;    1,822;    1,864
258,646; 6048,029;    1,731;   -1,045
259,243; 6228,124;   -0,087;    2,227
259,841; 6275,116;   -0,814;    0,318
260,438; 6215,457;   -0,087;    0,864
261,036; 6812,582;   -1,905;    1,409
261,633; 6765,420;   -0,087;    2,227
262,231; 6547,265;    2,731;   -0,045
262,828; 6644,303;   -0,905;    1,136
263,425; 6680,621;    0,913;   -0,591
264,023; 6913,844;    0,186;    0,045
264,620; 6500,937;   -0,360;   -0,318
265,217; 6834,874;   -2,087;    3,136
265,815; 6955,289;   -1,905;    2,136
266,412; 6770,876;    0,731;    0,136
267,009; 6764,080;   -1,451;    0,773
267,606; 6732,029;    0,822;   -0,955
268,203; 6714,070;   -0,269;   -0,591
268,801; 6958,085;    1,731;    0,591
269,398; 7229,975;   -0,360;    2,500
269,995; 7214,758;    0,277;    1,591
270,592; 6995,398;   -0,632;   -0,500
271,189; 7160,551;    0,186;    0,409
271,786; 7282,925;   -0,632;    1,227
272,383; 7143,674;   -1,087;    0,227
272,980; 7285,596;    0,277;    0,318
273,577; 7687,661;    0,004;    1,227
274,174; 7297,422;    0,822;    2,591
274,771; 7288,237;   -0,814;   -0,773
275,367; 7431,570;    2,277;    1,409
275,964; 7382,731;    0,731;   -0,500
276,561; 7474,876;    1,549;   -1,045
277,158; 7661,227;    0,095;   -1,773
277,755; 7834,927;    2,185;    0,409
278,351; 7323,119;   -0,451;   -1,500
278,948; 7612,623;   -0,815;    0,045
279,545; 7624,007;   -1,360;    2,318
280,141; 8223,259;   -1,723;   -2,045
280,738; 8083,235;   -0,451;   -0,136
281,334; 8319,157;   -1,633;    0,591
281,931; 7766,517;   -0,087;   -1,318
282,528; 7967,907;    0,822;   -0,500
283,124; 8599,757;   -1,087;   -0,500
283,721; 8529,241;   -0,451;    1,409
284,317; 8378,397;    0,185;    2,500
284,913; 8927,212;   -1,360;    0,591
285,510; 9150,484;    0,640;   -0,318
286,106; 9205,807;   -2,269;   -0,955
286,703; 8802,680;   -0,360;    1,955
287,299; 9020,116;   -1,451;   -0,591
287,895; 9255,877;    0,822;   -1,045
288,491; 9811,066;    0,186;    2,136
289,088; 9598,406;   -2,360;    2,409
289,684; 9659,601;   -1,723;    1,500
290,280; 9714,166;    0,368;    0,682
290,876; 9822,451;    1,822;    5,500
291,472; 9745,985;    1,276;    2,227
292,068; 9876,172;    1,367;    0,227
292,665; 9604,389;    2,095;    0,773
293,261; 9267,916;    0,276;    2,136
293,857; 9656,437;    2,913;    2,136
294,453; 9627,975;    3,550;    0,955
295,049; 9508,082;   -0,268;    1,955
295,644; 9548,984;    0,095;    0,136
296,240; 9498,394;   -0,905;   -0,136
296,836; 9597,285;   -0,995;    0,318
297,432; 9856,483;    1,096;   -0,500
298,028; 9916,362;    0,732;    0,773
298,624;10288,378;    1,459;    1,864
299,220;10541,977;    2,368;    0,591
299,815;10238,775;    1,005;   -0,409
300,411;10070,082;    0,914;    1,773
301,007;10091,451;    1,368;    0,227
301,602;10114,983;   -0,541;   -2,318
302,198;10282,897;    0,732;   -0,773
302,794;10614,671;    1,187;   -0,500
303,389;10721,310;   -1,177;    1,045
303,985;10797,191;    0,550;    1,409
304,580;10753,579;    1,459;    1,591
305,176;10725,961;   -3,086;    0,136
305,771;10688,817;   -1,268;   -1,227
306,367;10537,156;    4,095;    0,136
306,962;10823,620;    0,641;    1,500
307,558;10572,195;   -0,450;    0,136
308,153;10493,598;    1,095;   -1,136
308,748;10725,744;   -0,814;    1,682
309,344;10699,732;   -0,632;   -1,318
309,939;10756,846;   -1,905;   -1,318
310,534;11015,153;   -0,086;   -1,682
311,130;10909,170;    0,459;   -2,500
311,725;10675,177;    1,004;   -0,500
312,320;11000,863;    2,459;    0,045
312,915;10854,426;    1,459;   -1,045
313,510;10876,572;    1,550;   -0,500
314,105;11363,999;    1,096;    1,409
314,700;10779,915;   -3,086;   -1,045
315,295;10464,125;   -0,904;    0,045
315,890;10035,709;    1,277;    0,864
316,485;10357,178;   -0,359;   -0,318
317,080;10470,349;   -3,086;    1,591
317,675;10999,046;    2,005;   -0,682
318,270;10453,810;    5,550;    3,318
318,865;10457,264;    3,278;    3,045
319,460;10296,862;   -0,904;    0,591
320,055;10535,590;   -0,541;   -1,227
320,650;10185,919;   -1,995;   -0,591
321,244;10258,321;   -0,177;   -1,409
321,839;11170,554;   -1,541;   -0,227
322,434;11060,318;   -1,086;   -1,591
323,029;10726,481;    1,732;    1,591
323,623;10513,472;    1,550;    0,773
324,218;10324,021;    2,368;    1,409
324,812;10210,217;    1,096;    1,591
325,407;10042,044;   -0,814;    2,045
326,002; 9956,560;    0,277;   -0,409
326,596;10275,549;    0,914;    1,318
327,191;10453,920;    0,823;   -1,045
327,785;10088,640;   -0,813;   -0,227
328,379;10314,859;    1,368;    0,136
328,974;10111,708;    0,914;   -3,955
329,568;10349,703;    0,186;   -2,409
330,163;10188,877;    2,096;    1,045
330,757;10513,423;    2,459;    1,591
331,351; 9914,990;    0,459;    0,682
331,945;10250,398;    0,914;    1,409
332,540; 9868,991;   -1,723;   -0,591
333,134;10010,757;   -1,086;    0,773
333,728;10259,324;    0,005;    0,318
334,322;10599,252;   -1,177;   -0,864
334,916; 9911,281;    0,277;    0,955
335,510;10257,382;   -0,450;   -0,136
336,105;10503,192;   -1,086;    1,591
336,699;10230,175;   -1,086;    0,591
337,293;10172,886;   -1,723;    0,318
337,887;10341,076;   -2,723;    1,955
338,481;10447,839;    0,459;    0,591
339,074;10603,371;   -0,359;    2,682
339,668;10452,973;   -1,632;    1,227
340,262;10692,334;    1,732;    3,227
340,856;10244,804;    1,822;   -0,682
341,450; 9663,508;    1,004;    1,864
342,044;10528,795;    1,459;    0,136
342,637;10325,797;    0,913;   -2,136
343,231;10178,596;   -2,360;    0,682
343,825;10130,356;   -1,086;   -0,591
344,419;10139,766;   -1,995;    0,500
345,012; 9926,335;    2,459;    4,045
345,606; 9955,845;    4,641;    1,591
346,199; 9833,047;   -1,813;   -0,227
346,793; 9411,557;    1,914;    2,045
347,386; 9598,550;   -0,813;   -1,136
347,980; 9571,487;   -0,268;   -0,045
348,573; 9375,898;    2,278;    0,409
349,167; 9085,580;    5,278;    4,773
349,760; 9400,885;    2,914;    2,682
350,354; 9380,423;   -0,813;    1,136
350,947; 9131,652;    1,096;    1,682
351,540; 8858,954;   -0,358;   -1,409
352,134; 8780,370;    1,096;    1,136
352,727; 8840,210;   -0,086;    1,136
353,320; 8682,678;    0,005;    0,591
353,913; 8508,440;   -1,995;    1,864
354,507; 8702,899;    0,823;   -1,227
355,100; 8702,167;    0,460;    0,864
355,693; 7969,318;    2,005;    2,409
356,286; 8000,279;    0,823;    2,773
356,879; 8345,159;   -0,722;    1,227
357,472; 7964,283;   -0,904;    1,500
358,065; 8193,513;   -0,722;    2,500
358,658; 8106,431;   -0,540;    2,318
359,251; 7756,797;   -1,631;   -0,591
359,844; 7264,692;   -1,904;   -1,136
360,437; 7419,047;   -2,995;    0,045
361,030; 7690,493;    1,369;   -0,682
361,623; 7278,502;    2,824;    0,318
362,215; 7323,813;   -0,086;    2,045
362,808; 7174,000;   -2,358;   -1,682
363,401; 7381,101;   -2,449;    0,136
363,994; 7144,427;   -0,631;   -1,500
364,586; 7057,707;    0,824;   -1,500
365,179; 7236,086;   -0,449;   -1,136
365,772; 6752,020;   -1,995;    2,045
366,364; 7050,488;    1,915;   -3,227
366,957; 7241,906;    2,279;   -0,045
367,549; 7220,563;    2,188;   -0,864
368,142; 6894,179;    1,825;   -1,500
368,734; 7056,350;    0,734;   -2,136
369,327; 7014,971;    1,643;   -0,500
369,919; 6940,368;   -1,538;    0,409
370,512; 6769,360;   -1,083;   -0,500
371,104; 6537,986;   -0,901;    1,591
371,696; 6678,843;    1,191;   -0,955
372,289; 6747,397;    0,373;    1,136
372,881; 6864,093;   -2,080;    1,318
373,473; 6797,653;   -2,170;    1,136
374,066; 6625,784;   -0,169;    0,500
374,658; 6478,326;    0,378;    1,136
375,250; 6807,240;    0,653;   -1,409
375,842; 6665,494;    0,473;   -0,045
376,434; 6522,941;   -0,435;   -0,409
377,026; 7071,634;    0,204;   -2,500
377,618; 6986,638;   -0,158;   -0,682
378,210; 6825,121;   -0,338;   -1,955
378,802; 6646,233;    0,754;   -0,591
379,394; 6618,521;    1,846;    0,682
379,986; 7171,047;    1,393;   -0,955
380,578; 7272,721;   -0,153;    0,773
381,170; 6646,649;   -0,972;    0,045
381,762; 6610,845;    0,755;    1,409
382,354; 6787,993;   -0,065;   -1,318
382,945; 6886,447;   -2,976;    0,318
383,537; 7056,796;   -2,705;   -1,955
384,129; 7054,019;   -2,160;   -1,136
384,721; 7209,489;   -0,252;    0,955
385,312; 7139,097;   -0,161;   -0,955
385,904; 7213,769;   -2,706;    1,591
386,496; 6635,560;   -0,979;    1,045
387,087; 6752,056;    1,022;    2,500
387,679; 6807,941;   -1,160;    0,045
388,270; 6941,286;    2,840;    2,045
388,862; 7033,875;    1,295;   -0,318
389,453; 6928,503;   -0,887;    1,045
390,045; 7169,473;   -0,705;   -2,682
390,636; 7111,329;    0,204;   -0,591
391,227; 6969,539;   -0,523;   -0,045
391,819; 7092,734;    0,204;    0,773
392,410; 7130,360;    1,022;    0,045
393,001; 7085,357;   -0,979;   -1,591
393,593; 7329,855;    1,930;   -0,045
394,184; 7199,450;    1,385;   -0,409
394,775; 7093,936;    1,839;    2,136
395,366; 7288,330;    1,385;    0,773
395,957; 7285,665;    0,113;    0,136
396,548; 7571,322;   -0,342;    2,682
397,139; 7856,926;   -2,433;    0,591
397,730; 7595,389;   -1,888;    0,955
398,321; 7660,045;   -1,252;    0,955
398,912; 7686,446;   -0,615;    0,136
399,503; 7767,656;   -3,524;   -1,409
400,094; 7225,609;    0,294;    1,682
400,685; 7116,527;   -0,433;    0,045
401,276; 7197,338;    0,930;   -0,955
401,867; 7477,899;   -0,888;    0,773
402,458; 7560,943;   -2,251;   -2,318
403,048; 7526,178;    1,112;    0,591
403,639; 7168,425;    0,840;    0,864
404,230; 7420,119;    2,476;    0,318
404,821; 7348,566;   -0,615;    0,045
405,411; 7437,611;    1,203;   -2,591
406,002; 7042,028;   -1,252;   -1,136
406,592; 6940,503;    2,294;    0,045
407,183; 7192,742;    0,566;   -1,500
407,774; 7125,610;    3,475;   -0,136
408,364; 7412,118;    0,930;    0,409
408,954; 7036,733;    0,384;    1,227
409,545; 7080,185;    1,021;    1,045
410,135; 6617,026;    1,293;    0,500
410,726; 6742,006;    1,838;    0,318
411,316; 7120,219;    0,111;    0,773
411,906; 6783,086;   -0,253;   -0,409
412,497; 6330,722;   -1,070;   -0,045
413,087; 6854,603;   -1,980;   -0,227
413,677; 7200,855;   -0,707;    3,864
414,267; 7002,639;    0,656;    1,409
414,857; 6983,826;   -2,980;    4,227
415,448; 7234,820;    0,839;    0,500
416,038; 6947,764;    0,020;   -0,591
416,628; 6899,216;   -0,889;    0,409
417,218; 6410,742;    0,565;    3,318
417,808; 6622,111;    0,202;   -0,409
418,398; 6994,051;    0,020;    2,682
418,988; 6963,480;    2,020;    0,591
419,578; 7168,738;   -0,707;    1,409
420,168; 7458,087;   -1,343;   -0,955
420,757; 7039,396;   -1,343;   -1,500
421,347; 6752,679;    0,111;   -0,227
421,937; 6862,162;    2,292;    1,409
422,527; 6808,991;    0,838;   -0,773
423,116; 6610,808;   -0,253;   -0,045
423,706; 6865,516;   -1,889;    0,318
424,296; 6821,332;    1,384;    0,682
424,885; 7189,514;   -0,071;   -3,045
425,475; 7420,708;    1,474;   -2,864
426,065; 7308,373;   -0,980;   -0,318
426,654; 6980,468;   -0,435;   -0,318
427,244; 7070,469;    0,020;    1,409
427,833; 6551,464;    1,383;   -0,500
428,423; 6898,065;   -0,526;    1,136
429,012; 7561,451;   -0,344;   -1,136
429,601; 7084,493;   -1,344;    0,136
430,191; 7260,138;    1,292;    4,318
430,780; 6856,581;   -0,344;   -0,409
431,369; 6830,039;    0,746;   -0,045
431,959; 7360,710;   -1,254;    0,500
432,548; 7120,106;   -1,163;   -0,045
433,137; 7192,480;   -1,254;   -1,318
433,726; 7657,745;    0,292;    0,500
434,315; 7090,540;   -0,526;    2,409
434,905; 7119,603;   -1,254;    1,409
435,494; 7049,436;    0,746;    0,955
436,083; 7388,810;   -0,981;   -0,955
436,672; 7217,183;    0,110;    0,500
437,261; 6853,807;    0,292;   -1,955
437,850; 6933,859;    1,383;    0,682
438,439; 6880,495;    3,291;    1,955
439,027; 6732,411;    3,655;    1,773
439,616; 6957,912;    2,927;    1,227
440,205; 6782,048;    0,200;   -2,136
440,794; 6751,734;    2,109;   -0,045
441,383; 6891,360;   -1,346;   -0,591
441,971; 6756,721;   -2,436;    0,591
442,560; 6567,498;    0,563;   -1,773
443,149; 6301,304;    0,379;   -1,318
443,737; 6409,045;   -0,074;   -2,318
444,326; 6562,319;    0,018;    0,318
444,915; 6557,163;   -1,982;    0,864
445,503; 6842,882;   -2,891;   -0,318
446,092; 6240,525;    0,382;    2,136
446,680; 6656,264;    0,382;    0,318
447,269; 6764,696;   -0,346;   -0,318
447,857; 6516,166;    0,018;   -1,773
448,445; 6585,566;    0,563;    1,318
449,034; 6716,137;   -1,528;   -1,136
449,622; 6766,320;   -1,073;    3,500
450,210; 6202,537;    2,017;    2,227
450,799; 6613,815;    0,290;   -0,591
451,387; 6495,671;    1,381;   -0,591
451,975; 6218,843;    2,654;    0,864
452,563; 6304,980;    3,472;    2,318
453,151; 6268,367;   -0,528;   -1,227
453,739; 6160,370;   -1,347;    0,136
454,328; 6045,147;    2,381;   -2,136
454,916; 5795,736;    2,562;   -0,136
455,504; 5920,027;    1,017;    1,227
456,092; 6050,502;    0,017;   -1,591
456,679; 5944,019;    1,472;    0,682
457,267; 6023,126;    4,017;    1,045
457,855; 6053,015;    1,017;    1,409
458,443; 5753,216;   -0,165;    1,682
459,031; 5933,567;    0,108;    2,409
459,619; 6258,254;   -1,801;    2,864
460,206; 6252,110;    0,835;    2,045
460,794; 6308,424;   -2,983;   -0,227
461,382; 6491,570;   -0,529;   -0,864
461,970; 6137,236;    1,198;    1,864
462,557; 6183,447;   -0,711;   -0,682
463,145; 6308,680;   -3,165;   -1,682
463,732; 6390,343;    2,016;   -1,045
464,320; 6263,120;   -0,075;   -3,045
464,907; 6046,082;    2,743;   -0,773
465,495; 5898,909;    0,743;   -1,227
466,082; 6009,148;   -1,984;   -0,045
466,670; 5867,152;   -2,529;    1,227
467,257; 6214,887;   -1,711;    2,045
467,844; 6369,016;   -0,075;    0,045
468,432; 6359,504;    0,834;    3,500
469,019; 5971,133;    0,925;   -1,773
469,606; 6287,089;    0,470;    3,682
470,193; 6150,361;   -1,439;    0,227
470,780; 5819,670;   -2,075;    0,864
471,368; 6045,534;   -1,257;   -0,773
471,955; 5886,708;    1,379;   -0,682
472,542; 5542,214;    0,652;   -1,136
473,129; 5697,501;   -0,166;    0,136
473,716; 5476,010;    1,470;    0,591
474,303; 5546,011;    0,652;   -0,864
474,890; 5713,989;   -1,439;   -0,500
475,477; 5734,878;   -1,621;    0,409
476,064; 5604,629;    1,106;   -1,591
476,650; 5462,335;    0,288;    0,318
477,237; 5320,335;   -0,258;    0,955
477,824; 5403,644;   -1,076;    0,864
478,411; 5345,277;   -1,894;   -0,318
478,997; 5466,568;    0,560;   -0,773
479,584; 5453,471;    1,196;   -0,409
480,171; 5943,189;   -0,440;   -0,773
480,757; 5693,059;    2,651;    0,773
481,344; 5789,705;    0,469;    0,409
481,931; 5356,468;    1,105;    1,045
482,517; 5986,167;   -1,258;    0,318
483,104; 6242,804;    1,106;    2,864
483,690; 6335,989;   -1,804;    0,045
484,276; 6495,128;   -0,895;    0,227
484,863; 6322,208;    2,469;    1,136
485,449; 6626,052;   -0,077;    0,318
486,035; 6600,540;   -1,986;   -0,136
486,622; 6927,341;   -0,895;    0,045
487,208; 6835,413;    1,378;    1,500
487,794; 6701,095;    0,741;    0,318
488,380; 6840,465;    0,105;   -1,409
488,967; 6904,952;   -1,168;   -0,409
489,553; 6932,515;   -1,895;   -1,409
490,139; 7120,577;    1,559;    0,773
490,725; 6794,217;    0,741;   -0,227
491,311; 6604,092;    3,287;    3,045
491,897; 6196,549;   -0,986;    1,500
492,483; 6257,404;    0,105;    1,227
493,069; 6409,158;    3,923;    0,864
493,655; 6322,658;    1,650;    0,682
494,241; 6322,078;    1,377;   -0,955
494,826; 6638,969;    0,287;   -1,045
495,412; 6294,181;    2,559;   -0,682
495,998; 6533,132;   -0,805;   -0,318
496,584; 6681,606;    0,377;    1,045
497,169; 6737,312;    1,014;   -0,682
497,755; 6836,401;    0,650;    1,227
498,341; 7423,584;    0,559;    0,318
498,926; 7205,475;    1,832;    1,955
499,512; 7454,934;    1,286;    2,955
500,097; 7605,815;    0,195;   -0,318
500,683; 7771,169;   -0,350;    2,136
501,268; 8227,838;   -0,169;   -0,955
501,854; 8174,544;   -0,169;    1,227
502,439; 8250,658;   -0,624;   -1,773
503,024; 8558,702;    0,195;    0,500
503,610; 8771,457;   -0,078;   -0,682
504,195; 8903,497;    0,558;    1,955
504,780; 9193,205;    2,922;    1,227
505,366; 9192,836;    3,013;    2,864
505,951; 9116,739;    0,740;    1,045
506,536; 9291,401;   -3,260;   -3,682
507,121; 9430,421;    0,285;   -0,318
507,706;10015,515;    2,376;    1,045
508,291;10493,467;    2,649;    1,136
508,876;10151,906;   -0,988;    2,591
509,461; 9790,707;   -0,169;   -0,773
510,046;10335,461;    0,194;    0,318
510,631;10692,811;   -0,351;   -0,773
511,216;10516,610;    2,467;   -0,500
511,801;10948,645;   -0,442;    2,591
512,386;11322,514;    0,740;    0,500
512,971;11357,083;   -2,988;    0,955
513,555;11045,127;   -0,897;   -1,500
514,140;11861,800;   -0,442;   -3,136
514,725;11947,614;   -0,715;   -1,136
515,309;12173,700;   -0,533;    0,318
515,894;11748,123;   -0,624;   -2,227
516,479;12241,949;   -0,624;   -0,955
517,063;12104,942;    0,376;    1,227
517,648;12296,400;    1,012;   -1,136
518,232;11993,288;   -0,261;   -1,409
518,817;12380,896;   -0,079;    1,682
519,401;12620,951;    2,194;    0,591
519,985;12198,036;    1,103;    1,136
520,570;12106,172;    0,830;   -1,955
521,154;12399,607;    2,102;    0,591
521,738;12626,448;   -2,352;    2,409
522,323;13221,784;   -0,170;    1,682
522,907;12970,870;    0,466;   -0,136
523,491;12731,600;    0,557;    0,955
524,075;12730,298;    2,284;    0,591
524,659;12862,678;    1,466;    0,591
525,243;12347,439;    1,739;    0,409
525,827;12569,359;    0,648;   -0,045
526,411;13427,860;   -1,989;   -0,136
526,995;13644,656;   -0,352;    1,409
527,579;13261,777;   -0,443;   -1,045
528,163;13587,820;    0,375;   -1,500
528,747;13525,816;    2,466;   -0,773
529,331;13821,934;   -0,080;   -1,409
529,915;14062,944;    1,738;    0,955
530,499;14023,004;   -0,807;    1,227
531,082;13711,775;   -0,534;    1,591
531,666;13172,963;    1,374;    0,773
532,250;13839,060;    1,284;    2,682
532,833;14171,838;    0,920;    2,773
533,417;14044,961;   -1,807;    0,864
534,001;14033,279;    1,647;   -0,318
534,584;14666,054;    0,374;    0,500
535,168;14564,416;    0,465;    1,409
535,751;14613,995;    0,647;    0,045
536,334;14082,093;   -0,898;   -0,409
536,918;14669,121;    0,011;    1,591
537,501;14762,405;   -0,899;    1,318
538,085;14779,502;   -0,444;    1,045
538,668;14925,473;    0,829;    2,409
539,251;15219,535;    1,829;    3,773
539,834;15275,441;    0,101;    0,773
540,418;15179,130;   -1,990;    4,318
541,001;15287,548;   -0,990;    1,773
541,584;15302,737;    2,101;    2,227
542,167;14981,710;    1,374;    2,955
542,750;15122,020;    1,919;   -0,773
543,333;14734,926;    0,555;    2,136
543,916;15501,666;    0,192;    2,500
544,499;16112,279;   -1,354;    0,227
545,082;16103,070;    1,374;    3,591
545,665;16232,184;    1,919;    1,500
546,248;16595,744;    1,010;   -0,318
546,830;16274,436;   -0,445;    1,955
547,413;16639,152;    1,010;   -0,773
547,996;17172,677;    0,555;    0,500
548,579;16982,388;    0,919;    0,955
549,161;16773,451;    1,828;    2,682
549,744;16540,252;   -0,809;    0,409
550,326;17030,890;   -0,809;   -1,136
550,909;16786,507;    2,737;    0,591
551,492;17266,703;   -0,263;    0,227
552,074;17032,817;   -0,173;   -1,318
552,657;17562,696;    2,373;    0,045
553,239;17356,701;   -0,173;   -0,773
553,821;17262,684;   -1,082;    1,045
554,404;16754,847;    1,282;    1,136
554,986;17127,493;    0,464;    1,045
555,568;17720,770;    1,191;   -0,955
556,151;16955,014;    1,191;   -0,227
556,733;17131,853;   -0,264;   -0,864
557,315;17604,788;    0,100;    0,500
557,897;17439,936;    0,554;   -0,500
558,479;17538,241;   -1,991;    1,318
559,061;17679,720;   -0,719;   -0,864
559,643;17960,041;   -0,264;    0,045
560,225;18348,742;    1,645;    2,864
560,807;18386,041;    0,918;    0,318
561,389;17884,379;    0,554;    2,318
561,971;18611,047;    0,463;    2,136
562,553;18414,660;   -1,628;    1,591
563,135;18555,688;   -0,537;    1,136
563,717;18133,111;    3,372;    1,136
564,298;18837,241;    3,645;   -0,045
564,880;18584,791;    0,645;   -1,409
565,462;18716,973;    0,645;    1,318
566,043;19827,067;   -0,446;    2,318
566,625;19383,612;    1,918;    1,227
567,207;19232,081;    1,099;    1,682
567,788;20317,813;   -1,264;    1,500
568,370;21115,257;    1,917;   -0,500
568,951;20941,879;    0,190;    0,227
569,533;21773,632;   -0,628;   -0,500
570,114;22184,651;   -0,446;    0,682
570,695;22671,955;   -0,174;   -1,318
571,277;23149,511;   -0,265;   -1,682
571,858;23812,533;    2,008;   -1,136
572,439;24750,855;    1,554;   -1,045
573,021;24866,384;    2,099;   -2,773
573,602;25359,555;   -1,265;    0,318
574,183;26257,262;   -2,083;    2,227
574,764;26343,593;   -1,629;    0,409
575,345;26829,784;    0,917;   -0,136
575,926;27497,581;   -0,356;    0,136
576,507;27519,645;    1,099;   -0,227
577,088;28546,069;    3,099;    1,682
577,669;28518,690;    0,735;    1,955
578,250;29239,080;    0,644;   -1,045
578,831;29855,078;   -1,356;   -2,227
579,412;30127,934;   -0,810;    0,955
579,993;31034,088;    1,008;    0,227
580,573;31427,392;   -0,629;   -0,955
581,154;30350,449;    0,735;   -0,591
581,735;31170,568;    0,644;    0,773
582,315;30659,386;   -0,629;    2,136
582,896;31019,502;   -0,174;    1,227
583,477;30564,794;    0,189;    1,227
584,057;30730,239;    0,553;    0,955
584,638;31013,179;    2,553;    2,318
585,218;30968,965;   -0,538;    2,682
585,799;31183,352;    0,281;   -0,227
586,379;31168,796;    0,372;    1,591
586,959;29981,233;    0,735;    0,318
587,540;29338,802;   -0,629;    2,227
588,120;28931,764;    1,007;   -0,045
588,700;27952,685;    2,553;    2,136
589,281;28224,694;    0,462;   -0,955
589,861;28162,821;    0,099;   -1,682
590,441;27994,878;    2,371;   -2,682
591,021;26987,269;   -0,265;   -2,591
591,601;27233,094;   -0,537;    0,500
592,181;27212,485;   -0,719;   -0,773
592,761;26531,418;    0,007;    1,409
593,341;26507,383;   -0,901;    0,045
593,921;26464,038;   -0,265;    1,591
594,501;26345,809;   -0,538;    1,318
595,081;26169,431;    0,917;   -0,318
595,661;26551,500;   -1,447;    0,955
596,240;27008,215;   -0,537;    0,136
596,820;26676,958;    0,372;    1,955
597,400;26842,983;    2,008;    0,773
597,980;27062,330;    2,008;    1,045
598,559;27101,981;    2,735;   -0,227
599,139;26836,076;   -0,174;   -1,227
599,718;26745,713;   -0,174;   -0,409
600,298;27036,375;    0,735;    0,682
600,877;27220,969;    2,917;    1,409
601,457;27504,166;    2,281;    1,136
602,036;27327,002;    0,190;    2,045
602,616;27570,602;    0,644;    1,682
603,195;27889,620;   -0,355;    3,500
603,774;27413,321;   -0,901;    2,045
604,354;27327,383;    0,826;   -0,500
604,933;26875,001;    0,463;    1,864
605,512;26972,264;    3,554;    0,591
606,091;27051,038;   -0,537;    3,773
606,671;27857,227;    0,281;    0,773
607,250;26966,865;    1,644;    3,136
607,829;27216,846;    2,372;    3,227
608,408;27100,279;    1,190;    2,591
608,987;26104,617;    1,281;    3,409
609,566;26417,774;   -1,265;   -2,500
610,145;26489,499;   -1,082;    0,682
610,723;26925,533;    4,372;    6,864
611,302;26208,246;   -0,446;    1,682
611,881;25723,798;    5,008;   11,227
612,460;26537,679;    1,645;    3,955
613,039;26966,693;   -0,082;    2,045
613,617;25739,335;    1,736;    4,773
614,196;25919,437;    1,099;    1,227
614,775;26229,025;    1,009;    2,409
615,353;26188,440;    0,736;    0,864
615,932;25897,957;    0,100;    2,409
616,510;26501,206;    0,554;    0,591
617,089;26011,202;    7,100;   17,591
617,667;25786,776;    2,372;    6,136
618,246;25671,433;   -1,537;    1,318
618,824;25799,406;   -3,355;   -0,955
619,402;25353,770;   -2,900;   -1,773
619,981;25909,123;   -0,173;   -1,045
620,559;25776,994;    0,009;    1,682
621,137;25331,332;   -0,718;    1,864
621,715;25309,730;   -1,173;   -0,682
622,293;25259,483;   -0,537;   -0,773
622,871;25676,697;   -0,718;    0,500
623,450;25311,405;    0,373;   -0,864
624,028;25165,388;    0,191;   -0,955
624,606;24831,228;   -1,718;    1,682
625,183;25212,640;   -1,536;   -1,136
625,761;24820,094;    1,009;    1,136
626,339;25103,565;    1,373;    2,591
626,917;25503,895;   -0,172;   -0,045
627,495;25548,473;   -0,354;    1,318
628,073;25023,946;   -0,263;    2,864
628,650;24672,390;    0,100;    2,136
629,228;25116,433;    0,373;    4,409
629,806;24554,664;    2,282;    1,136
630,383;24831,893;    1,464;   -0,318
630,961;24572,695;    2,555;   -0,955
631,539;24321,679;    2,464;    0,227
632,116;23645,968;   11,373;   15,409
632,694;24262,531;    2,555;    6,500
633,271;24543,808;    0,828;    2,682
633,848;24486,365;    1,828;    2,045
634,426;24504,496;   -1,081;    1,773
635,003;23691,618;    1,101;   -0,409
635,580;23994,251;    1,192;    3,682
636,158;24578,516;    3,737;    1,227
636,735;24503,020;    0,555;   -0,500
637,312;24609,702;   -0,809;   -0,682
637,889;24746,916;   -4,354;   -0,682
638,466;24237,428;   -3,990;   -0,409
639,043;24241,981;    2,101;   -1,136
639,620;24571,404;   -2,262;   -0,955
640,197;24873,002;    1,100;    1,682
640,774;25005,776;   -0,172;    1,136
641,351;25400,005;    0,737;    1,136
641,928;24846,234;   -0,627;    1,409
642,505;24466,464;    0,828;   -0,500
643,082;24595,238;   -1,718;    1,227
643,658;23601,285;   -0,718;    1,500
644,235;24371,514;    1,191;    2,500
644,812;24691,562;    1,918;    0,773
645,388;24394,064;   -0,991;    1,409
645,965;24505,293;   -0,809;    1,682
646,542;24554,704;   -1,445;   -0,227
647,118;24554,205;    1,009;   -0,955
647,695;24836,343;   -0,263;    1,136
648,271;24720,482;   -0,536;    0,500
648,848;25056,983;    0,736;    2,227
649,424;24893,940;    0,827;    1,318
650,000;24664,805;   -0,354;   -1,045
650,577;24467,943;   -0,627;   -0,955
651,153;24917,172;   -1,809;    0,955
651,729;25918,583;    1,191;    0,864
652,305;26046,085;    0,645;    2,773
652,881;29989,223;   -0,082;    1,136
653,458;36533,271;    1,100;    0,227
654,034;40375,500;    0,282;    1,591
654,610;41890,729;    0,554;    0,773
655,186;43183,685;    0,645;    3,045
655,762;42853,460;   -0,991;    0,409
656,338;42886,780;    0,100;    0,136
656,913;43896,827;   -0,082;    0,409
657,489;43179,965;    0,827;   -0,318
658,065;43157,740;   -0,173;   -1,591
658,641;43893,696;   -0,900;   -0,864
659,217;43222,289;   -0,991;    0,409
659,792;42554,336;    0,645;   -0,409
660,368;42800,020;   -2,173;   -0,682
660,944;42593,794;   -2,082;    1,227
661,519;38428,114;   -0,628;    0,409
662,095;32802,980;   -1,719;    0,591
662,670;28204,390;    1,281;   -0,136
663,246;27001,620;    1,009;   -0,409
663,821;26258,576;    0,281;    1,682
664,396;25680,714;    0,009;    1,864
664,972;25943,398;    0,009;   -0,500
665,547;26272,536;    1,372;    0,136
666,122;26301,765;   -1,082;    0,318
666,698;26548,812;   -0,173;    0,318
667,273;25913,223;   -0,173;    0,136
667,848;26715,543;    2,372;    1,500
668,423;26482,954;    2,190;    2,318
668,998;27080,638;    2,827;   -0,682
669,573;27570,867;   -3,264;   -1,500
670,148;27411,550;   -1,446;   -0,682
670,723;27239,143;   -1,810;    0,318
671,298;27589,099;    2,372;    1,045
671,873;27766,056;   -0,082;   -0,136
672,448;27681,012;    0,645;    0,136
673,023;28043,241;   -1,992;   -0,227
673,597;28332,470;    0,827;    2,318
674,172;28099,881;   -0,355;    0,318
674,747;27602,019;    0,372;   -1,045
675,321;27498,885;   -0,628;    3,318
675,896;27085,114;    0,645;    1,045
676,471;28036,161;    2,645;    1,591
677,045;27847,208;   -1,264;    0,682
677,620;27854,256;    0,190;    1,136
678,194;28196,667;   -2,628;    1,136
678,769;27746,350;   -1,083;   -0,318
679,343;28018,397;   -0,628;    1,773
679,917;27860,263;   -1,446;    1,955
680,492;27965,310;    0,826;    3,227
681,066;28087,721;    3,372;    0,409
681,640;28095,405;    1,463;   -0,318
682,214;28887,997;    0,735;    0,500
682,788;28426,226;   -1,356;   -0,773
683,363;28308,637;   -1,810;    1,682
683,937;28038,866;   -1,719;   -0,318
684,511;28851,095;    0,463;   -0,591
685,085;28531,234;   -1,356;    0,318
685,659;28340,554;   -2,538;    0,864
686,232;28531,783;   -0,356;   -0,318
686,806;28276,285;   -0,901;    0,409
687,380;28922,877;   -0,174;    0,591
687,954;29178,652;   -1,174;    1,136
688,528;28841,881;   -0,719;    1,955
689,101;29638,655;   -3,992;    1,045
689,675;29156,703;   -0,356;   -0,136
690,249;28556,659;   -0,719;    0,409
690,822;28905,252;    0,280;    0,318
691,396;28984,572;   -0,265;    1,227
691,969;28457,164;    1,280;    0,136
692,543;28892,757;   -0,447;   -1,955
693,116;28567,168;   -0,265;   -1,409
693,690;28457,124;    0,099;    0,500
694,263;28974,081;   -1,083;    2,955
694,836;29024,401;    1,371;    3,591
695,410;27691,175;   -0,265;    1,773
695,983;28136,495;    0,189;    0,591
696,556;28127,815;   -0,447;   -1,045
697,129;28540,953;   -0,356;    1,409
697,703;28085,637;   -1,629;    1,955
698,276;28159,321;    1,462;   -0,773
698,849;27963,550;    1,280;    1,409
699,422;28345,415;   -1,083;    0,591
699,995;28017,917;    0,007;    0,136
700,568;28495,601;   -0,629;    3,045
701,140;28533,284;   -2,811;    1,682
701,713;28277,604;   -0,174;    2,409
702,286;28019,106;   -0,538;    0,864
702,859;27873,517;   -0,902;   -0,591
703,432;27095,473;    0,825;    0,682
704,004;27603,521;    0,462;    0,318
704,577;27451,295;   -0,629;    0,136
705,150;27986,979;    0,189;    2,500
705,722;27788,299;   -0,356;   -3,227
706,295;27555,073;   -0,175;   -0,591
706,867;27408,393;   -0,175;    1,955
707,440;27611,077;   -1,720;   -0,409
708,012;27874,851;    0,462;    0,591
708,584;27812,717;    2,462;    0,227
709,157;28133,400;    1,825;   -0,591
709,729;27787,902;    2,280;    2,045
710,301;28605,950;    0,734;    0,045
710,874;28632,179;   -1,447;   -0,227
711,446;27494,680;    0,371;    0,864
712,018;27377,273;    0,098;    0,500
712,590;27105,957;   -1,993;    1,682
713,162;27594,640;    0,825;    1,318
713,734;27878,779;    1,825;   -2,045
714,306;27814,189;   -1,902;   -0,409
714,878;26531,600;    0,825;    0,864
715,450;27326,375;    0,643;    0,864
716,022;27591,422;    1,552;    1,318
716,593;27764,833;    0,189;    0,591
717,165;27634,880;   -3,175;   -1,227
717,737;27385,928;    0,280;    0,409
718,309;27039,884;    0,280;   -0,045
718,880;26995,204;   -0,539;   -1,409
719,452;27229,069;   -0,175;   -1,591
720,024;26778,117;    0,734;   -0,591
720,595;27386,073;   -2,902;    0,955
721,167;26937,120;    0,370;   -2,045
721,738;26460,986;   -0,812;   -1,045
722,309;26431,033;   -0,993;   -1,227
722,881;26204,717;   -1,357;    0,773
723,452;26810,309;   -2,630;    2,864
724,023;27005,538;   -0,721;    2,682
724,595;26818,767;    0,007;    0,682
725,166;26611,815;    0,007;   -0,409
725,737;26188,316;    1,734;    0,227
726,308;26305,909;   -0,266;    0,318
726,879;26748,411;   -1,630;    1,227
727,450;26546,822;    0,552;   -0,045
728,021;26536,506;    3,097;    0,682
728,592;26341,553;    0,734;    0,500
729,163;26599,055;    0,643;   -0,136
729,734;26674,738;    0,188;   -0,227
730,305;27051,513;    1,734;    0,136
730,876;27346,105;    0,188;    2,955
731,447;27056,516;    2,188;    2,682
732,017;27145,564;    1,097;    1,864
732,588;26671,156;    0,734;    1,227
733,159;26829,749;    0,643;   -1,045
733,729;26692,614;    0,006;    0,409
734,300;25978,934;    0,915;    0,864
734,870;26382,800;    3,461;    0,591
735,441;26953,938;    0,370;   -0,591
736,011;26701,076;    0,643;   -1,591
736,582;26686,305;   -0,812;    0,045
737,152;26127,716;   -1,721;   -2,045
737,722;26578,491;   -0,267;   -0,682
738,293;26310,629;   -1,358;    1,318
738,863;26202,222;    2,461;    2,318
739,433;25943,269;    5,279;    0,318
740,003;26625,498;   -0,994;   -0,682
740,573;26002,091;    2,097;   -1,591
741,143;26024,683;   -1,085;    0,318
741,713;26752,458;    1,188;   -0,500
742,283;26434,232;    0,915;    1,591
742,853;26221,916;    1,915;    1,591
743,423;25713,691;    1,733;    0,045
743,993;25853,829;   -0,358;    1,500
744,563;25198,422;    0,097;   -0,864
745,133;25183,105;   -0,812;   -0,864
745,702;25908,516;   -0,267;    1,773
746,272;25096,745;   -0,176;    0,591
746,842;24910,338;   -1,358;   -0,591
747,411;25284,021;   -0,267;   -0,318
747,981;25459,614;    0,097;    0,500
748,551;25485,843;    2,278;   -1,045
749,120;25381,527;    0,642;   -0,227
749,690;25779,392;   -0,631;    2,409
750,259;26136,803;    1,369;    2,955
750,828;26020,760;    1,551;   -1,955
751,398;26263,989;    1,278;   -0,045
751,967;25738,581;    2,187;    0,409
752,536;26009,083;   -0,813;   -0,227
753,105;26402,949;    0,096;    0,227
753,675;26200,269;    0,096;    1,773
754,244;26140,134;   -0,904;    3,591
754,813;26153,090;    0,551;    1,227
755,382;25773,956;    0,460;    0,955
755,951;26302,276;    1,551;    3,682
756,520;25848,232;   -0,085;    1,864
757,089;26342,461;    0,278;    0,500
757,658;26490,781;    1,733;    1,227
758,227;26522,465;    1,096;    0,318
758,795;26824,967;    1,187;    1,136
759,364;27075,559;   -0,086;   -0,591
759,933;26110,789;   -1,176;   -0,045
760,501;25623,745;    0,733;   -1,318
761,070;26052,610;   -2,813;   -1,409
761,639;26761,203;   -1,904;    1,318
762,207;26066,978;    1,551;   -0,955
762,776;26042,116;    0,369;    0,864
763,344;26016,981;   -0,995;    0,591
763,913;25165,665;   -0,722;    1,409
764,481;25869,348;    1,005;   -0,136
765,049;25658,396;   -1,358;    1,409
765,618;25518,443;   -0,086;    0,318
766,186;25633,036;    0,278;    0,136
766,754;25836,174;    0,005;    1,864
767,322;24853,039;   -1,995;    0,409
767,890;24860,905;   -0,722;   -1,773
768,459;25258,407;   -2,177;   -0,318
769,027;25425,999;    1,641;    3,409
769,595;24459,956;    3,278;    2,591
770,163;24888,639;    3,823;    2,955
770,730;24650,232;    0,732;   -0,136
771,298;24494,552;    0,187;   -1,409
771,866;24555,236;   -1,541;    4,955
772,434;24899,556;   -0,631;   -1,864
773,002;25087,785;    0,005;    0,682
773,569;24725,468;    0,914;    1,682
774,137;24562,152;   -0,268;   -0,045
774,705;25363,381;    0,278;   -0,136
775,272;24827,519;    0,641;    0,682
775,840;24589,112;   -0,177;    2,682
776,407;24144,705;    0,277;    1,955
776,975;23767,752;   -0,632;    0,318
777,542;24754,981;   -1,086;   -0,045
778,110;24599,846;   -1,268;   -0,045
778,677;24312,348;   -2,359;   -0,864
779,244;24027,850;    2,186;    1,045
779,812;24127,443;    1,823;    0,864
780,379;24037,399;    0,005;    1,136
780,946;24282,628;    1,005;   -0,773
781,513;24595,766;   -1,450;    0,318
782,080;23923,359;   -0,086;    2,864
782,647;24644,134;   -0,268;    3,045
783,214;24291,817;   -0,177;    3,864
783,781;23901,864;   -0,723;   -0,682
784,348;23784,548;   -0,632;    1,500
784,915;24241,868;   -3,177;    0,318
785,482;24016,915;    1,368;    2,591
786,049;24451,599;    0,186;   -0,591
786,615;24545,010;    0,277;   -0,955
787,182;24293,239;    0,186;   -0,682
787,749;24006,286;   -2,814;    1,409
788,315;23322,242;   -1,632;   -0,409
788,882;23622,562;    1,550;   -1,227
789,448;24267,064;    1,732;   -0,955
790,015;24304,930;    1,095;    3,227
790,581;23858,977;    1,459;    0,227
791,148;23746,752;    0,641;    1,045
791,714;24024,799;   -0,541;    3,136
792,280;23710,664;    0,186;    1,591
792,847;23275,439;    0,550;    2,500
793,413;23763,850;   -0,269;   -0,318
793,979;23313,988;    3,459;   -1,318
794,545;23390,399;    4,459;    2,682
795,111;22800,537;    2,186;    1,318
795,678;23049,857;    0,731;   -1,682
796,244;22692,086;    3,368;    0,136
796,810;23194,588;    1,731;    0,773
797,375;22922,726;    0,549;   -2,136
797,941;22969,410;   -0,541;    0,591
798,507;23106,548;   -0,451;   -0,955
799,073;22656,413;   -0,360;    0,591
799,639;22754,188;   -2,632;    3,136
800,205;22790,871;    0,095;    2,682
800,770;22323,282;    0,640;    1,773
801,336;22438,239;    1,368;   -0,955
801,901;22120,922;    4,549;    3,136
802,467;22710,697;   -0,542;    2,045
803,033;22068,653;   -0,087;    0,864
803,598;22239,973;    1,913;   -1,045
804,163;22288,111;    1,095;   -0,318
804,729;22230,704;   -0,178;    1,136
805,294;22666,842;    0,822;    2,227
805,859;22444,344;    0,731;   -0,409
806,425;21892,300;    1,186;    2,682
806,990;21566,075;    2,186;    4,318
807,555;22105,122;   -1,451;    2,591
808,120;21945,988;    0,822;   -0,409
808,685;22011,035;    0,185;   -2,500
809,250;21533,628;    0,004;   -0,500
809,815;21808,857;    1,913;    0,682
810,380;22315,904;   -0,269;    1,591
810,945;22886,497;   -1,087;    2,045
811,510;22044,544;    2,094;    1,591
812,075;21773,046;   -0,633;   -1,409
812,640;21848,366;    2,003;    1,409
813,204;21870,231;    0,822;   -0,227
813,769;22339,824;    2,094;   -0,045
814,334;21745,417;    0,458;    0,864
814,898;21799,464;    0,367;    0,591
815,463;21688,875;    1,276;   -0,773
816,027;21684,831;   -0,724;   -2,318
816,592;21770,060;    0,640;   -2,045
817,156;21293,653;    2,094;    1,136
817,721;21110,155;    4,276;    2,318
818,285;21089,929;    2,912;    1,500
818,849;21698,613;   -1,451;    1,682
819,414;21607,296;   -0,269;    2,955
819,978;21216,253;   -1,269;    1,773
820,542;21764,300;    2,003;    0,500
821,106;21500,529;   -0,815;    0,682
821,670;21569,213;   -0,815;    2,591
822,234;21297,987;   -0,270;    1,409
822,798;20728,216;    0,003;    0,500
823,362;20701,900;   -0,633;    4,227
823,926;20012,220;    0,094;    1,136
824,490;20171,358;   -0,997;   -0,682
825,054;20651,860;   -0,088;   -1,136
825,618;20292,271;   -1,542;   -1,500
826,181;20258,136;    0,458;   -1,318
826,745;20157,184;    1,367;   -1,045
827,309;20480,867;    1,185;    1,318
827,872;19884,369;    1,367;    0,955
828,436;20871,598;    1,185;   -0,773
828,999;20925,463;   -0,997;    1,227
829,563;19733,147;   -0,179;    1,136
830,126;19592,740;   -0,179;   -0,591
830,690;19583,878;   -1,997;    2,864
831,253;19081,107;   -0,543;    2,227
831,816;19207,700;   -1,906;    0,500
832,380;19141,020;    0,185;    0,864
832,943;19385,249;   -1,361;   -0,500
833,506;18888,114;    2,639;   -1,227
834,069;19643,071;    3,912;   -0,955
834,632;19690,482;    1,730;    1,318
835,195;19608,165;    1,003;    0,955
835,758;18862,394;   -0,997;    1,955
836,321;18704,896;    0,730;   -1,045
836,884;18790,034;   -0,725;   -0,955
837,447;18825,354;   -2,816;    1,773
838,010;19103,947;    0,366;    3,227
838,573;19385,449;   -1,179;    0,773
839,135;19311,678;   -1,361;   -0,955
839,698;18812,907;    1,275;    0,409
840,261;18361,318;    1,003;   -0,227
840,823;18217,092;   -0,543;    0,864
841,386;18476,958;   -0,452;   -2,409
841,948;18377,096;   -1,361;    1,773
842,511;18119,143;    0,912;    1,682
843,073;18238,372;    1,912;    0,227
843,636;18022,965;   -0,361;   -0,227
844,198;17981,921;    0,911;    0,591
844,760;18059,969;    1,093;    1,955
845,322;17705,016;    0,548;    1,136
845,885;18118,972;    0,730;    0,591
846,447;18604,929;   -1,998;    0,227
847,009;18135,612;    1,911;   -0,682
847,571;18512,114;    0,820;   -2,045
848,133;18616,616;   -1,089;   -1,864
848,695;18422,118;   -0,543;    1,409
849,257;17996,074;   -1,089;   -1,682
849,819;18175,303;   -0,998;   -0,409
850,381;18188,350;   -0,725;   -0,864
850,942;18540,034;    1,093;   -0,591
851,504;18528,354;    1,184;    0,227
852,066;18514,856;    1,275;   -1,591
852,628;18057,994;   -0,180;    1,955
853,189;17664,859;    1,638;    2,682
853,751;17760,088;   -0,907;    1,409
854,312;17593,863;   -0,453;   -1,682
854,874;18072,638;   -2,089;   -0,773
855,435;18595,321;   -0,907;   -1,682
855,997;18768,459;   -1,816;   -0,136
856,558;18029,052;    0,366;    1,773
857,119;18106,099;    0,820;    2,864
857,681;17845,328;    0,002;    0,318
858,242;17879,376;    1,911;   -2,136
858,803;18335,787;    0,456;   -0,773
859,364;18941,016;    0,184;   -4,773
859,925;18247,426;   -2,453;   -0,955
860,486;18075,746;   -0,453;   -0,955
861,047;17828,976;   -0,544;   -1,227
861,608;17613,750;   -1,089;   -0,773
862,169;17786,706;    0,638;   -0,045
862,730;17587,208;    0,456;    1,409
863,291;17839,801;   -0,635;   -0,500
863,852;18176,576;   -0,635;    1,955
864,412;17646,714;   -0,271;   -0,864
864,973;16249,943;   -0,089;    0,500
865,534;16073,990;   -1,726;    0,227
866,094;17577,037;    1,820;    0,227
866,655;17255,903;    1,274;    3,318
867,215;17559,586;    0,274;    0,136
867,776;17421,361;    0,547;   -0,136
868,336;17495,590;   -1,453;    0,136
868,897;16957,728;    2,638;    1,682
869,457;16658,503;    1,365;    0,318
870,017;16926,732;    0,547;   -1,227
870,578;17438,779;   -0,817;    0,773
871,138;17105,826;   -2,089;   -0,955
871,698;16682,237;   -0,817;   -1,318
872,258;16573,557;   -0,453;   -2,864
872,818;16926,604;    2,729;    0,045
873,378;16856,015;    0,638;    1,045
873,938;16431,426;    0,547;    0,500
874,498;16788,110;    0,274;   -1,955
875,058;16678,884;    2,183;    1,773
875,618;16525,295;    1,910;   -2,682
876,177;16433,433;    1,274;    0,136
876,737;16055,572;   -0,090;    1,955
877,297;16069,346;    0,183;    1,955
877,856;16065,393;   -0,362;    0,318
878,416;16032,713;    1,183;   -0,136
878,976;16253,124;   -1,817;    0,409
879,535;16412,899;    0,092;    3,136
880,095;16180,492;   -0,544;    0,045
880,654;16285,266;   -1,090;    1,318
881,213;16351,859;    2,456;    1,500
881,773;16018,088;    2,637;    2,682
882,332;16332,226;    3,365;    5,136
882,891;16207,273;    3,092;    2,136
883,451;16678,411;   -1,272;    1,682
884,010;16132,913;   -2,908;   -0,409
884,569;16215,961;   -0,999;   -0,045
885,128;16322,826;    2,819;   -1,864
885,687;16414,419;    4,455;    0,682
886,246;16080,466;    1,455;    2,136
886,805;15860,968;    2,455;    2,045
887,364;16191,742;   -0,999;   -0,500
887,922;16547,426;   -1,181;    0,045
888,481;16054,655;   -1,545;    0,591
889,040;16360,248;    1,183;    2,136
889,599;17055,750;    2,455;    1,409
890,157;17132,979;    1,455;    2,409
890,716;16769,208;   -0,090;    0,227
891,274;16559,073;    0,092;   -1,136
891,833;17021,029;    1,546;    0,864
892,391;16903,986;   -0,454;    0,500
892,950;16936,760;    1,819;   -0,773
893,508;17311,535;    0,455;   -0,409
894,067;16668,582;    0,637;    0,136
894,625;16600,084;   -0,636;   -1,500
895,183;16827,222;   -0,363;   -0,682
895,741;16693,906;    1,728;   -1,773
896,299;16558,862;   -0,545;   -2,409
896,858;16744,273;    0,819;   -1,591
897,416;16770,684;    2,728;   -1,318
897,974;16566,822;    1,819;    0,318
898,532;16702,506;    6,091;    2,682
899,089;16631,553;    2,091;   -0,682
899,647;16712,237;   -1,454;    1,318
900,205;16413,011;    1,182;    1,045
900,763;16653,877;   -0,454;    0,227
901,321;16683,106;    2,364;   -1,409
901,878;16082,244;   -1,000;   -0,773
902,436;15926,746;   -1,363;    1,318
902,994;16295,884;    4,728;    3,682
903,551;15784,931;    0,728;    0,409
904,109;16180,342;    0,182;   -1,409
904,666;15767,844;    2,455;    1,045
905,224;15613,436;    0,182;   -0,409
905,781;15308,029;    0,727;   -0,318
906,338;15399,440;   -1,363;    1,045
906,895;15364,215;    0,637;    2,045
907,453;15266,444;    1,727;    1,136
908,010;15335,673;   -0,909;    0,409
908,567;15002,720;    1,273;    0,591
909,124;14501,131;    0,364;   -1,500
909,681;14576,905;   -2,909;    0,682
910,238;14707,862;    0,636;   -1,318
910,795;15038,909;   -0,273;   -1,136
911,352;14702,182;   -2,909;   -2,682
911,909;14072,182;   -1,364;   -0,864
912,466;14580,455;   -3,182;    1,500
913,022;14158,364;   -1,636;    0,500
913,579;14517,273;   -0,909;    2,045
914,136;14185,909;    1,636;    0,955
914,692;14537,636;    0,091;   -1,227
915,249;14121,636;    1,455;    0,409
915,806;14386,000;    0,182;    1,955
916,362;14108,182;    1,909;    1,864
916,918;13692,818;    2,000;    1,045
917,475;13625,455;   -1,182;    0,955
918,031;13738,091;    3,364;   -0,045
918,587;13200,000;   -0,909;   -0,318
919,144;13407,636;   -2,273;    0,227
919,700;13729,000;    1,727;    0,773
920,256;13313,364;    0,727;    0,045
920,812;12925,909;   -0,727;   -1,045
921,368;12950,455;   -1,727;   -1,045
921,924;12580,818;    0,182;   -0,136
922,480;12176,182;   -0,545;    1,227
923,036;12767,545;    1,273;    1,955
923,592;12721,273;    0,455;    0,318
924,148;12639,545;    0,455;   -0,955
924,704;11923,455;   -1,364;   -0,409
925,259;12218,091;   -0,273;    0,591
925,815;11983,727;    1,455;    0,500
926,371;11525,636;    2,909;    1,409
926,926;11396,818;    2,091;    0,591
927,482;11023,545;   -1,364;    0,773
928,037;10934,545;    0,909;    2,045
928,593;11199,909;    1,636;    1,045
929,148;11068,091;   -1,818;   -1,500
929,704;10567,818;   -1,455;   -0,500
930,259;10800,455;    0,091;   -0,136
930,814; 9860,455;   -0,818;    1,955
931,369; 9526,818;    1,091;   -0,773
931,925; 9426,000;   -0,091;    0,136
932,480; 9340,636;   -2,818;   -2,591
933,035; 9236,091;    0,545;   -0,318
933,590; 8996,727;    0,364;   -1,773
934,145; 8661,273;   -1,364;   -0,318
934,700; 8998,818;    0,455;   -0,591
935,255; 8793,091;   -0,091;    0,045
935,809; 8082,818;    3,182;    0,864
936,364; 7252,273;   -0,455;   -0,136
936,919; 7224,727;    0,455;   -1,773
937,474; 7162,273;    1,455;    0,136
938,028; 6884,273;   -1,636;    1,136
938,583; 6348,091;    1,818;    4,682
939,138; 6662,091;    2,091;    2,136
939,692; 6105,909;    1,636;   -1,136
940,247; 5799,364;   -0,727;   -1,045
940,801; 5386,000;   -0,636;    0,227
941,355; 5281,455;   -0,364;    2,591
941,910; 4950,818;   -0,273;   -2,136
942,464; 5050,091;   -0,818;   -0,318
943,018; 4825,182;    1,000;   -0,227
943,572; 4785,818;    2,545;   -0,682
944,126; 4216,455;    0,091;   -0,409
944,681; 4111,091;    3,091;    0,227
945,235; 4076,909;    1,000;   -0,591
945,789; 4042,727;    0,364;   -1,864
946,342; 4125,182;    0,455;   -0,591
946,896; 3944,182;   -2,273;    0,955
947,450; 3721,455;    1,545;   -0,227
948,004; 3899,091;    1,727;   -0,045
948,558; 3931,273;    0,273;   -0,864
949,111; 3837,909;   -0,273;   -0,318
949,665; 3873,818;    1,636;   -0,682
950,219; 3735,909;   -0,091;   -1,045
950,772; 3812,727;   -1,909;    1,864
951,326; 3708,818;    0,545;   -0,955
951,879; 3817,273;    0,727;   -2,318
952,433; 3831,182;    0,000;    2,227
952,986; 3673,818;    2,909;    0,682
953,539; 3645,091;   -0,273;    0,591
954,093; 3582,636;    0,545;   -1,318
954,646; 3700,364;    0,909;    1,318
955,199; 3516,909;    0,000;   -0,500
955,752; 3397,545;   -0,455;    1,773
956,305; 3368,636;   -0,091;    2,955
956,858; 3517,000;    0,818;   -0,318
957,411; 3698,818;   -0,545;    2,136
957,964; 3536,182;    1,364;    2,136
958,517; 3509,364;   -1,545;    3,136
959,070; 3350,364;   -0,455;    1,955
959,623; 3443,364;    1,091;    1,500
960,176; 3211,273;    1,727;    2,045
960,728; 3172,545;   -2,727;    0,773
961,281; 3244,273;    0,545;    0,500
961,834; 3289,364;   -0,909;    0,864
962,386; 3193,000;    1,727;    1,045
962,939; 3122,000;    0,364;   -0,318
963,491; 3283,000;    0,455;    1,136
964,043; 3142,364;    1,182;    2,409
964,596; 3243,273;   -1,000;    2,227
965,148; 3103,909;   -1,000;    1,773
965,700; 3036,545;    1,091;   -0,227
966,253; 3195,182;   -0,636;    0,318
966,805; 3046,545;   -2,273;    0,773
967,357; 3091,909;    1,091;   -1,500
967,909; 3021,909;    0,455;   -1,227
968,461; 3125,455;    0,545;    3,136
969,013; 3063,455;   -0,182;   -0,864
969,565; 3127,455;   -0,455;   -1,136
970,117; 3204,273;   -0,364;    1,045
970,669; 3029,091;    0,182;   -0,136
971,220; 2899,727;   -0,455;   -1,500
971,772; 2838,455;   -0,636;   -0,318
972,324; 2959,000;    0,091;   -0,500
972,876; 2921,818;    0,818;   -0,045
973,427; 3050,909;    1,909;   -1,045
973,979; 3011,545;   -0,727;   -2,500
974,530; 3041,909;    1,818;    1,318
975,082; 3037,545;   -0,545;    1,682
975,633; 2932,182;    1,091;    1,682
976,184; 3081,273;    0,909;    0,773
976,736; 2891,636;    0,091;    0,227
977,287; 2674,182;   -0,909;   -0,500
977,838; 2879,818;    0,909;   -0,318
978,389; 2922,545;   -1,000;   -0,500
978,940; 2791,727;    0,545;   -0,409
979,491; 2849,273;    0,091;   -0,500
980,042; 2807,091;    0,182;    3,045
980,593; 2840,818;   -2,545;    0,227
981,144; 2881,273;    2,545;   -0,500
981,695; 2853,727;    1,455;    1,500
982,246; 2826,091;   -0,273;    1,045
982,797; 2977,818;   -1,727;    0,682
983,347; 3096,182;    0,364;    0,591
983,898; 3239,091;    3,091;    0,409
984,449; 3067,818;    2,182;    0,773
984,999; 2993,091;    1,455;   -1,136
985,550; 2766,364;    0,182;   -0,318
986,100; 2799,636;   -0,455;   -0,318
986,651; 2839,636;   -0,818;    0,045
987,201; 2821,091;   -1,000;   -0,591
987,751; 2889,273;    0,818;    2,864
988,302; 2875,545;    2,636;    1,500
988,852; 2907,000;    0,455;   -1,136
989,402; 2952,455;    0,091;    0,682
989,952; 2873,455;   -2,182;    0,864
990,502; 2963,091;   -0,091;    0,682
991,052; 2950,000;   -0,727;    0,045
991,602; 2802,182;   -2,909;    1,318
992,152; 2788,636;    0,455;    0,682
992,702; 2803,000;    1,364;   -0,045
993,252; 2713,909;   -3,000;   -0,500
993,802; 2790,364;   -0,273;    1,318
994,352; 3008,909;   -1,545;    1,136
994,901; 3107,000;   -0,182;    3,227
995,451; 3019,455;   -0,182;    0,318
996,000; 3117,364;    1,636;    0,318
996,550; 2846,818;    2,273;    0,227
997,100; 2832,818;    1,273;   -0,045
997,649; 3112,000;    2,182;    0,955
998,198; 2728,545;    1,727;   -1,500
998,748; 2938,182;    1,091;   -2,318
999,297; 2851,273;   -0,818;   -0,409
999,846; 2908,273;    1,000;   -0,773
1000,395; 2964,818;   -0,818;    0,500
1000,945; 2903,455;    1,818;   -0,773
1001,494; 3008,636;    2,364;    0,682
1002,043; 2999,545;    4,636;    0,864
1002,592; 2829,455;   -1,091;    1,955
1003,141; 2967,455;   -0,455;   -0,682
1003,690; 2830,455;    1,727;    0,500
1004,238; 2919,818;    1,455;   -0,045
1004,787; 2571,273;    1,364;    1,227
1005,336; 2810,091;    0,364;    0,682
1005,885; 2938,182;    1,364;   -2,773
1006,433; 3052,636;    0,545;    0,955
1006,982; 3109,273;    0,455;    1,682
1007,531; 3031,182;   -1,818;   -0,227
1008,079; 2986,273;   -2,273;    0,500
1008,627; 3135,636;   -1,455;    0,409
1009,176; 2875,636;    0,000;   -1,955
1009,724; 2916,909;    1,091;    0,864
1010,273; 2975,091;    1,273;    0,500
1010,821; 3082,000;    0,091;    1,409
1011,369; 2830,545;   -1,364;    1,318
1011,917; 2791,000;   -1,364;   -0,591
1012,465; 3092,273;    1,273;   -1,591
1013,013; 3203,000;    2,091;   -1,682
1013,561; 3075,818;    0,455;   -0,773
1014,109; 3126,091;   -1,909;    1,682
1014,657; 2997,273;    0,364;    0,591
1015,205; 3134,273;    1,636;   -0,955
1015,753; 3166,182;   -0,545;   -1,409
1016,301; 3189,000;   -2,636;    3,045
1016,848; 3200,182;   -1,273;    0,409
1017,396; 3239,818;    2,545;    0,045
1017,944; 3356,727;    1,182;    1,864
1018,491; 3151,091;    0,273;    1,409
1019,039; 3267,818;    0,455;    0,591
1019,586; 3196,000;   -1,364;    1,682
1020,134; 3295,273;    0,455;    1,500
1020,681; 3309,455;    0,182;   -1,136
1021,228; 3315,364;    2,909;   -2,227
1021,776; 3157,273;    1,182;   -1,136
1022,323; 3385,636;    0,455;    0,773
1022,870; 3307,455;   -1,000;   -0,045
1023,417; 3207,273;    2,636;    1,864
1023,964; 3361,273;    2,636;    1,227
1024,511; 3203,000;    1,000;    0,773
1025,058; 3004,727;    3,182;   -0,045
1025,605; 3053,273;   -2,273;    3,136
1026,152; 3280,455;    1,727;   -0,591
1026,699; 3003,364;    1,818;    1,318
1027,245; 3162,091;   -0,091;    0,318
1027,792; 3377,273;   -1,000;    1,409
1028,339; 3252,636;    2,364;   -0,045
1028,885; 3101,364;    1,000;   -0,227
1029,432; 3039,818;   -0,091;    0,227
1029,978; 3105,545;   -1,000;   -1,591
1030,525; 3013,545;    1,000;    0,409
1031,071; 3267,182;   -1,364;    1,136
1031,618; 3376,000;    0,364;    1,682
1032,164; 3167,000;   -0,091;    3,045
1032,710; 3213,545;    1,636;   -1,500
1033,256; 3101,182;   -0,636;   -0,136
1033,803; 3107,182;   -0,545;    1,500
1034,349; 2807,727;   -1,364;    0,136
1034,895; 2980,273;    0,000;   -0,318
1035,441; 2961,636;   -0,818;    0,318
1035,987; 2964,000;   -2,364;   -0,682
1036,533; 2969,636;   -1,455;   -0,955
1037,078; 3170,273;    1,455;    1,682
1037,624; 2995,727;    2,455;   -0,955
1038,170; 3021,182;    0,455;   -0,318
1038,716; 2912,455;    1,636;   -0,409
1039,261; 2834,455;   -2,273;   -0,773
1039,807; 2785,909;   -0,091;    3,409
1040,352; 2853,000;   -1,909;   -0,318
1040,898; 2903,182;   -1,545;   -0,682
1041,443; 2811,000;   -1,455;   -2,591
1041,989; 2824,364;    1,091;    1,591
1042,534; 2703,818;   -0,364;    2,591
1043,079; 2818,364;    2,909;    0,955
1043,625; 2606,818;    1,818;    0,500
1044,170; 2660,545;   -1,364;    1,045
1044,715; 2905,455;    2,455;    0,955
1045,260; 2727,455;    2,182;   -0,955
1045,805; 2776,818;    1,182;   -0,591
1046,350; 2708,000;    1,364;   -0,409
1046,895; 2668,273;    2,909;    1,591
1047,440; 2610,000;    5,364;    0,409
1047,985; 2542,818;    2,818;   -0,955
1048,530; 2453,182;    1,545;    1,227
1049,074; 2516,545;    0,000;    0,318
1049,619; 2491,545;   -1,364;    1,955
1050,164; 2295,727;    0,455;    0,227
1050,708; 2338,000;   -0,455;    0,045
1051,253; 2688,364;    1,273;   -2,227
1051,797; 2420,091;    0,818;   -1,318
1052,342; 2431,455;   -1,182;    1,045
1052,886; 2419,455;    0,364;   -1,409
1053,430; 2301,000;   -1,364;    0,136
1053,975; 2306,091;   -0,818;   -0,318
1054,519; 2299,182;   -0,727;    3,227
1055,063; 2306,727;    0,909;    1,318
1055,607; 2202,000;   -0,182;    0,227
1056,151; 2230,636;    2,909;    1,682
1056,695; 2150,364;    2,273;   -1,136
1057,239; 2222,273;   -1,727;   -0,682
1057,783; 2219,182;    0,818;   -1,500
1058,327; 2160,455;    0,000;    1,409
1058,871; 2392,273;   -0,545;    1,318
1059,415; 2110,182;   -0,818;   -0,045
1059,958; 2351,000;    1,455;    2,591
1060,502; 2081,000;   -1,000;   -0,773
1061,046; 1987,727;    0,364;   -0,955
1061,589; 1977,273;   -3,000;   -1,136
1062,133; 1844,727;   -1,273;    1,864
1062,676; 1793,273;    1,182;    0,864
1063,220; 1801,273;    1,091;    0,500
1063,763; 1823,818;    0,909;    1,136
1064,306; 1890,455;   -0,909;    1,864
1064,849; 1771,545;   -0,909;    0,591
1065,393; 1788,818;    2,000;   -1,500
1065,936; 1898,545;    0,182;   -0,409
1066,479; 1797,636;   -1,455;    1,318
1067,022; 1814,727;   -0,273;   -0,227
1067,565; 1706,455;   -0,091;   -1,318
1068,108; 1734,182;    0,727;   -0,591
1068,651; 1718,909;   -0,636;    1,409
1069,194; 1647,273;   -0,455;   -1,682
1069,736; 1646,182;   -1,273;    0,955
1070,279; 1621,091;   -1,364;   -0,500
1070,822; 1664,818;   -2,000;   -0,318
1071,364; 1741,000;   -0,364;    1,318
1071,907; 1580,091;   -0,727;    3,227
1072,450; 1479,182;    0,000;   -0,045
1072,992; 1473,091;   -0,273;    3,136
1073,535; 1620,091;    2,091;    2,136
1074,077; 1414,273;   -0,727;    2,045
1074,619; 1368,000;   -1,364;    0,591
1075,161; 1397,636;   -1,091;    1,500
1075,704; 1584,091;    1,545;    1,227
1076,246; 1394,727;   -0,182;    0,682
1076,788; 1315,000;   -0,364;    1,773
1077,330; 1392,182;    1,273;    2,136
1077,872; 1361,545;    0,909;    0,955
1078,414; 1554,000;    2,727;    0,773
1078,956; 1304,636;    1,273;   -0,227
1079,498; 1563,818;    1,636;    0,318
1080,040; 1268,727;    1,909;   -1,318
1080,581; 1222,182;    1,636;   -0,318
1081,123; 1138,091;    0,091;   -0,773
1081,665; 1192,000;   -1,182;   -0,955
1082,206; 1475,091;    1,364;   -0,500
1082,748; 1335,273;    0,727;    2,045
1083,289; 1235,273;   -2,000;    1,318
1083,831; 1144,000;   -0,545;    0,227
1084,372; 1180,273;    0,000;    0,591
1084,913; 1191,000;    1,091;    0,864
1085,455; 1141,545;   -1,909;   -2,045
1085,996; 1114,727;   -2,273;    0,136
1086,537; 1134,545;   -0,091;    0,864
1087,078; 1168,364;   -0,909;   -2,136
1087,619; 1205,727;   -1,273;    0,227
1088,160; 1115,545;    0,000;    1,318
1088,701; 1112,818;   -1,091;    0,682
1089,242; 1046,455;    1,364;   -2,227
1089,783; 1139,182;   -0,273;    1,409
1090,324; 1109,364;    0,455;    0,682
1090,865;  996,364;    2,727;   -0,409
1091,405;  977,000;    0,727;    2,227
1091,946;  985,818;    0,182;   -0,955
1092,487;  909,182;    0,818;   -1,409
1093,027; 1080,636;   -1,364;   -1,500
1093,568;  935,545;   -0,364;    1,227
1094,108; 1026,000;    0,273;    1,773
1094,649;  967,364;   -1,182;    0,136
1095,189;  910,455;   -0,636;   -0,682
1095,729;  849,636;   -0,091;    0,955
1096,269;  865,909;    0,727;   -0,955
1096,810; 1179,091;   -1,364;    0,500
1097,350; 1001,000;    1,364;   -0,773
1097,890;  903,909;    0,364;    1,227
1098,430; 1152,727;    2,364;    2,864
1098,970; 1019,727;    2,182;    1,682
1099,510;  889,000;    0,545;   -2,318
1100,050;  826,909;    1,000;   -1,591
1100,589;  790,091;   -0,727;   -0,318
1101,129;  910,727;    0,818;   -0,955
1101,669; 1061,364;    1,727;    2,136
1102,209;  883,455;   -0,091;    2,227
1102,748;  836,364;    0,000;    0,955
1103,288;  827,364;    1,273;   -1,227
1103,827;  855,636;    3,091;   -2,227
1104,367;  733,273;   -0,091;   -2,409
1104,906;  701,000;    1,364;   -1,136
1105,445;  769,364;    0,636;   -1,136
1105,985;  710,818;   -0,727;    1,500
1106,524;  767,455;   -1,727;   -0,682
1107,063;  733,818;   -2,727;    1,409
1107,602;  706,455;   -1,909;   -1,500
1108,141;  630,364;   -1,909;    1,500
1108,680;  739,000;   -3,455;   -0,591
1109,219;  671,727;   -0,909;   -0,500
1109,758;  663,727;    0,455;    0,682
1110,297;  642,364;    1,000;   -0,682
1110,836;  596,273;   -0,727;    0,955
1111,375;  763,091;   -2,545;    0,409
1111,913;  762,273;   -1,000;    0,773
1112,452;  697,364;   -0,273;    0,136
1112,991;  591,091;    1,091;    1,955
1113,529;  546,909;   -0,818;   -0,045
1114,068;  623,000;   -0,273;    2,955
1114,606;  525,182;   -0,364;   -0,955
1115,144;  677,182;   -1,273;    1,045
1115,683;  610,182;   -0,727;    0,318
1116,221;  663,545;   -0,455;   -0,864
1116,759;  573,727;    0,636;   -0,864
1117,297;  772,091;    0,000;    1,864
1117,836;  580,273;   -2,182;   -1,227
1118,374;  580,364;    0,182;   -0,682
1118,912;  511,000;    0,909;    2,682
1119,450;  509,727;    1,000;    0,864
1119,988;  566,455;    1,545;    2,136
1120,525; 1015,727;    5,091;    3,318
1121,063;  712,455;    1,182;    1,864
1121,601;  522,636;   -0,909;   -1,227
1122,139;  483,909;   -0,727;   -2,045
1122,676;  675,545;   -0,727;    2,773
1123,214;  608,182;   -1,182;    4,409
1123,751;  426,182;    1,727;    2,227
1124,289;  548,636;   -0,091;   -0,409
1124,826;  417,909;    1,727;    0,227
1125,364;  354,364;    1,727;   -0,955
1125,901;  534,273;    1,182;    1,227
1126,438;  642,636;    0,818;    0,955
1126,975;  375,000;   -0,727;   -0,773
1127,513;  444,000;    0,273;    2,136
1128,050;  346,182;    1,636;   -0,682
1128,587;  450,455;    2,000;   -0,227
1129,124;  486,727;    0,091;    1,318
1129,661;  365,182;    0,273;    0,227
1130,198;  522,000;    1,636;    0,773
1130,734;  470,727;    0,182;    1,409
1131,271;  329,636;   -0,909;    0,864
1131,808;  503,818;    2,909;    3,045
1132,345;  373,909;    1,545;    0,318
1132,881;  248,000;   -1,545;   -1,864
1133,418;  390,636;    0,727;   -1,136
1133,954;  327,364;    2,455;   -2,682
1134,491;  401,727;    1,364;   -0,773
1135,027;  295,273;    2,364;    0,864
1135,564;  388,455;    0,273;    2,955
1136,100;  363,273;    0,364;    2,136
1136,636;  262,091;   -1,273;   -1,045
1137,172;  356,000;    0,000;   -1,045
1137,708;  279,091;   -1,364;   -1,045
1138,245;  275,818;    1,273;   -1,227
1138,781;  231,364;    1,091;   -3,318
1139,317;  306,182;    1,273;   -1,409
1139,852;  284,545;    3,091;    0,136
1140,388;  402,727;   -1,182;   -0,409
1140,924;  287,364;   -1,091;   -2,227
1141,460;  221,364;   -1,636;    0,136
1141,996;  160,909;   -1,364;    2,682
1142,531;  210,727;    1,364;    3,318
1143,067;  420,727;    1,182;    1,045
1143,602;  468,727;   -0,091;   -0,318
1144,138;  318,273;   -2,636;    1,045
1144,673;  190,273;   -1,455;    1,409
1145,209;  255,182;   -1,909;   -0,318
1145,744;  186,909;   -0,727;    0,864
1146,279;  314,273;    1,818;   -0,136
1146,815;  224,273;    1,545;   -2,682
1147,350;  270,455;   -1,364;    0,045
1147,885;  185,727;   -0,818;   -1,318
1148,420;  181,455;   -2,273;    0,773
1148,955;  164,636;   -1,727;    1,864
1149,490;  184,455;   -0,909;   -1,591
1150,025;  175,273;    0,455;   -1,773
1150,560;  269,182;    1,091;   -0,955
1151,094;  247,636;    1,455;   -0,591
1151,629;  258,727;    1,636;    0,864
1152,164;  181,364;    1,364;    1,318
1152,698;  145,091;   -0,182;   -0,136
1153,233;  100,727;    0,091;   -0,682
1153,767;  145,364;   -3,000;   -2,318
1154,302;  200,636;   -1,455;    1,773
1154,836;  193,273;   -0,455;   -2,136
1155,371;  249,091;   -1,364;    3,682
1155,905;  208,727;   -0,636;    1,682
1156,439;  172,273;   -0,636;   -0,500
1156,973;  195,455;    0,364;    0,318
1157,507;  130,364;   -0,364;    0,682
1158,042;  160,364;   -0,727;    1,045
1158,576;  214,364;    0,182;    1,773
1159,110;  199,818;   -0,818;    2,409
1159,643;  162,636;    0,636;   -0,045
1160,177;  106,455;   -1,545;    1,500

