
Integration time [ms]:   0,040
Averaging Nr. [scans]: 11
Smoothing Nr. [pixels]: 0
Data measured with spectrometer [name]: 7318044SP
Wave   ;Sample   ;Dark     ;Reference
[nm]   ;[counts] ;[counts] ;[counts] 

186,757;   22,255;   31,551;    1,318
187,357;   58,628;   22,551;    0,955
187,958;   35,874;   15,460;   -1,591
188,558;   71,163;    8,915;   -1,227
189,159;   44,994;    6,733;   -4,500
189,759;   15,781;    7,278;   -3,591
190,360;   24,263;    2,824;   -2,136
190,960;   62,410;    2,915;   -4,136
191,560;   63,546;    3,189;   -6,591
192,161;  288,873;    4,372;   -3,500
192,761;  139,815;    4,010;   -3,227
193,361;   90,013;    1,556;   -3,773
193,962;  143,038;    2,010;   -2,682
194,562;   69,721;    1,189;   -3,955
195,162;   98,092;   -2,448;   -2,227
195,762;  257,260;   -3,176;   -0,045
196,362;  207,633;    1,370;   -2,500
196,963;   80,131;    2,006;   -0,864
197,563;  148,345;    1,551;   -0,955
198,163;   95,039;    0,096;   -0,682
198,763;  112,693;    1,733;   -0,500
199,363;  208,301;    3,096;   -0,500
199,963;  178,144;    0,369;    0,409
200,563;  156,003;    2,823;   -1,409
201,163;  131,500;    3,277;   -0,227
201,763;  229,497;    3,732;    0,318
202,363;  159,291;    1,459;    1,500
202,963;  267,001;    1,459;    1,045
203,563;  371,023;    0,277;    0,500
204,162;  226,663;    2,096;   -1,864
204,762;  217,241;    0,550;    0,591
205,362;  184,288;    3,004;    1,955
205,962;  294,409;    3,096;    1,955
206,562;  283,403;    1,823;    2,318
207,161;  245,765;   -0,087;    0,318
207,761;  401,979;    1,277;    2,409
208,361;  289,664;   -0,268;    1,409
208,960;  379,097;    0,459;    1,500
209,560;  451,789;    1,277;    1,591
210,160;  432,778;    0,550;    1,864
210,759;  408,165;    4,186;    1,227
211,359;  412,164;    1,459;    1,045
211,958;  671,235;    1,277;    2,045
212,558;  749,321;    1,732;    1,864
213,157;  583,695;    1,822;    1,500
213,757; 1019,896;    3,822;   -0,227
214,356;  730,005;    1,277;   -0,409
214,956; 1059,316;    3,095;    0,409
215,555;  689,627;    2,095;    2,136
216,154;  639,022;   -2,723;   -0,591
216,754;  641,293;    0,277;    0,773
217,353;  768,246;   -0,268;   -1,045
217,952;  621,250;   -0,178;    0,318
218,552;  866,250;    1,368;   -0,773
219,151;  765,836;    0,277;    0,955
219,750;  758,457;    0,004;   -0,227
220,349;  877,315;   -0,451;    1,045
220,948;  952,598;   -1,360;    1,136
221,548;  950,700;    0,913;    1,227
222,147; 1063,363;   -0,087;   -0,409
222,746; 1360,414;   -0,451;   -0,955
223,345; 1231,418;    0,731;    0,500
223,944; 1234,918;   -0,451;    0,773
224,543; 1402,090;    1,004;   -1,409
225,142; 1512,494;    0,094;    0,136
225,741; 1410,166;   -0,814;    1,045
226,340; 1427,836;   -0,451;   -0,955
226,939; 1865,453;   -0,996;   -0,136
227,538; 1810,830;   -0,360;   -0,773
228,137; 1961,870;   -0,814;    0,864
228,735; 2082,324;   -0,541;    1,227
229,334; 1841,959;   -0,905;   -0,227
229,933; 2217,113;    0,459;    0,591
230,532; 2309,649;    1,186;   -0,409
231,131; 2354,491;    1,732;    0,318
231,729; 2477,018;   -2,450;   -2,318
232,328; 2579,439;   -0,723;   -1,500
232,927; 2656,274;    1,004;   -0,500
233,525; 2769,792;    3,640;    0,045
234,124; 2953,073;    2,368;   -1,591
234,723; 2981,443;    0,913;   -1,045
235,321; 3113,515;    2,277;    0,136
235,920; 3330,200;    1,186;   -1,227
236,518; 3595,273;    3,459;    0,318
237,117; 3754,307;    0,004;   -0,227
237,715; 3907,838;    0,640;   -0,500
238,314; 3942,196;   -0,087;   -2,318
238,912; 4050,591;   -0,723;   -1,409
239,510; 4086,588;    0,459;   -1,227
240,109; 4252,662;    0,004;    3,773
240,707; 4291,999;   -0,996;    1,227
241,305; 4651,671;    0,550;    0,136
241,904; 4835,126;   -0,178;   -2,045
242,502; 4809,765;   -0,632;   -0,227
243,100; 4778,655;   -0,087;   -0,955
243,698; 5006,368;    0,732;    1,682
244,297; 5193,414;   -0,632;    0,682
244,895; 5042,696;   -0,269;   -2,318
245,493; 5361,400;    2,186;   -0,591
246,091; 5402,457;    1,368;   -1,318
246,689; 5402,456;    1,004;    0,591
247,287; 5558,061;    0,822;   -1,136
247,885; 5839,350;   -1,451;    1,227
248,483; 5948,212;    1,822;   -0,500
249,081; 6047,879;    0,185;    1,591
249,679; 6210,361;   -0,178;    1,682
250,277; 6459,435;   -1,723;    0,864
250,875; 6450,019;   -1,087;   -1,045
251,473; 6499,429;   -1,178;    0,500
252,071; 6674,394;    1,459;    1,045
252,669; 6827,918;   -1,814;    0,318
253,267; 7082,853;   -0,087;    0,773
253,864; 7048,061;   -0,360;    0,682
254,462; 6919,256;    1,640;    1,591
255,060; 6908,616;   -0,269;    1,318
255,658; 7220,463;    0,822;   -0,136
256,255; 7605,606;    0,186;   -2,045
256,853; 7486,713;   -0,269;    1,409
257,451; 7478,035;    0,822;    1,864
258,048; 7743,485;    1,822;    1,864
258,646; 7532,801;    1,731;   -1,045
259,243; 7716,713;   -0,087;    2,227
259,841; 7761,434;   -0,814;    0,318
260,438; 7646,865;   -0,087;    0,864
261,036; 8341,900;   -1,905;    1,409
261,633; 8260,647;   -0,087;    2,227
262,231; 8028,583;    2,731;   -0,045
262,828; 8110,349;   -0,905;    1,136
263,425; 8142,848;    0,913;   -0,591
264,023; 8407,798;    0,186;    0,045
264,620; 7978,345;   -0,360;   -0,318
265,217; 8299,101;   -2,087;    3,136
265,815; 8397,969;   -1,905;    2,136
266,412; 8185,375;    0,731;    0,136
267,009; 8223,216;   -1,451;    0,773
267,606; 8127,347;    0,822;   -0,955
268,203; 8143,752;   -0,269;   -0,591
268,801; 8423,221;    1,731;    0,591
269,398; 8693,837;   -0,360;    2,500
269,995; 8685,713;    0,277;    1,591
270,592; 8454,262;   -0,632;   -0,500
271,189; 8665,050;    0,186;    0,409
271,786; 8790,333;   -0,632;    1,227
272,383; 8625,811;   -1,087;    0,227
272,980; 8808,005;    0,277;    0,318
273,577; 9251,798;    0,004;    1,227
274,174; 8825,196;    0,822;    2,591
274,771; 8804,736;   -0,814;   -0,773
275,367; 8965,161;    2,277;    1,409
275,964; 8884,595;    0,731;   -0,500
276,561; 8985,193;    1,549;   -1,045
277,158; 9196,725;    0,095;   -1,773
277,755; 9344,970;    2,185;    0,409
278,351; 8744,255;   -0,451;   -1,500
278,948; 9056,303;   -0,815;    0,045
279,545; 9075,687;   -1,360;    2,318
280,141; 9666,032;   -1,723;   -2,045
280,738; 9528,371;   -0,451;   -0,136
281,334; 9794,292;   -1,633;    0,591
281,931; 9194,469;   -0,087;   -1,318
282,528; 9311,586;    0,822;   -0,500
283,124; 9987,438;   -1,087;   -0,500
283,721; 9875,465;   -0,451;    1,409
284,317; 9708,167;    0,185;    2,500
284,913;10261,982;   -1,360;    0,591
285,510;10431,982;    0,640;   -0,318
286,106;10462,305;   -2,269;   -0,955
286,703;10070,997;   -0,360;    1,955
287,299;10276,252;   -1,451;   -0,591
287,895;10523,830;    0,822;   -1,045
288,491;11064,019;    0,186;    2,136
289,088;10791,541;   -2,360;    2,409
289,684;10838,100;   -1,723;    1,500
290,280;10856,938;    0,368;    0,682
290,876;10923,950;    1,822;    5,500
291,472;10834,392;    1,276;    2,227
292,068;10950,852;    1,367;    0,227
292,665;10676,797;    2,095;    0,773
293,261;10320,597;    0,276;    2,136
293,857;10679,301;    2,913;    2,136
294,453;10632,475;    3,550;    0,955
295,049;10502,948;   -0,268;    1,955
295,644;10509,849;    0,095;    0,136
296,240;10412,896;   -0,905;   -0,136
296,836;10501,788;   -0,995;    0,318
297,432;10746,077;    1,096;   -0,500
298,028;10785,138;    0,732;    0,773
298,624;11220,154;    1,459;    1,864
299,220;11479,298;    2,368;    0,591
299,815;11128,369;    1,005;   -0,409
300,411;10932,767;    0,914;    1,773
301,007;10940,681;    1,368;    0,227
301,602;10984,213;   -0,541;   -2,318
302,198;11139,946;    0,732;   -0,773
302,794;11508,356;    1,187;   -0,500
303,389;11637,449;   -1,177;    1,045
303,985;11703,148;    0,550;    1,409
304,580;11661,537;    1,459;    1,591
305,176;11626,372;   -3,086;    0,136
305,771;11569,955;   -1,268;   -1,227
306,367;11405,476;    4,095;    0,136
306,962;11731,850;    0,641;    1,500
307,558;11452,243;   -0,450;    0,136
308,153;11387,010;    1,095;   -1,136
308,748;11612,520;   -0,814;    1,682
309,344;11545,961;   -0,632;   -1,318
309,939;11652,439;   -1,905;   -1,318
310,534;11927,200;   -0,086;   -1,682
311,130;11850,764;    0,459;   -2,500
311,725;11629,406;    1,004;   -0,500
312,320;11907,366;    2,459;    0,045
312,915;11742,928;    1,459;   -1,045
313,510;11795,437;    1,550;   -0,500
314,105;12331,594;    1,096;    1,409
314,700;11780,054;   -3,086;   -1,045
315,295;11405,355;   -0,904;    0,045
315,890;10965,485;    1,277;    0,864
316,485;11296,408;   -0,359;   -0,318
317,080;11444,760;   -3,086;    1,591
317,675;11972,003;    2,005;   -0,682
318,270;11378,859;    5,550;    3,318
318,865;11418,586;    3,278;    3,045
319,460;11254,910;   -0,904;    0,591
320,055;11491,094;   -0,541;   -1,227
320,650;11178,423;   -1,995;   -0,591
321,244;11204,461;   -0,177;   -1,409
321,839;12109,875;   -1,541;   -0,227
322,434;11972,548;   -1,086;   -1,591
323,029;11603,621;    1,732;    1,591
323,623;11445,156;    1,550;    0,773
324,218;11194,161;    2,368;    1,409
324,812;11111,811;    1,096;    1,591
325,407;10935,274;   -0,814;    2,045
326,002;10840,517;    0,277;   -0,409
326,596;11154,870;    0,914;    1,318
327,191;11366,968;    0,823;   -1,045
327,785;10952,052;   -0,813;   -0,227
328,379;11131,908;    1,368;    0,136
328,974;10953,484;    0,914;   -3,955
329,568;11188,934;    0,186;   -2,409
330,163;10990,744;    2,096;    1,045
330,757;11349,834;    2,459;    1,591
331,351;10710,311;    0,459;    0,682
331,945;10993,810;    0,914;    1,409
332,540;10580,039;   -1,723;   -0,591
333,134;10735,169;   -1,086;    0,773
333,728;10970,008;    0,005;    0,318
334,322;11311,210;   -1,177;   -0,864
334,916;10612,601;    0,277;    0,955
335,510;10932,430;   -0,450;   -0,136
336,105;11175,604;   -1,086;    1,591
336,699;10890,132;   -1,086;    0,591
337,293;10831,751;   -1,723;    0,318
337,887;11014,306;   -2,723;    1,955
338,481;11085,796;    0,459;    0,591
339,074;11250,509;   -0,359;    2,682
339,668;11063,475;   -1,632;    1,227
340,262;11325,927;    1,732;    3,227
340,856;10825,033;    1,822;   -0,682
341,450;10244,918;    1,004;    1,864
342,044;11090,478;    1,459;    0,136
342,637;10905,935;    0,913;   -2,136
343,231;10778,369;   -2,360;    0,682
343,825;10721,586;   -1,086;   -0,591
344,419;10704,360;   -1,995;    0,500
345,012;10485,202;    2,459;    4,045
345,606;10471,257;    4,641;    1,591
346,199;10314,460;   -1,813;   -0,227
346,793; 9852,880;    1,914;    2,045
347,386;10058,416;   -0,813;   -1,136
347,980;10064,628;   -0,268;   -0,045
348,573; 9849,676;    2,278;    0,409
349,167; 9533,632;    5,278;    4,773
349,760; 9909,118;    2,914;    2,682
350,354; 9883,294;   -0,813;    1,136
350,947; 9598,796;    1,096;    1,682
351,540; 9292,825;   -0,358;   -1,409
352,134; 9260,785;    1,096;    1,136
352,727; 9334,534;   -0,086;    1,136
353,320; 9127,274;    0,005;    0,591
353,913; 8985,673;   -1,995;    1,864
354,507; 9168,223;    0,823;   -1,227
355,100; 9151,763;    0,460;    0,864
355,693; 8396,098;    2,005;    2,409
356,286; 8438,512;    0,823;    2,773
356,879; 8799,756;   -0,722;    1,227
357,472; 8446,971;   -0,904;    1,500
358,065; 8631,383;   -0,722;    2,500
358,658; 8556,574;   -0,540;    2,318
359,251; 8213,848;   -1,631;   -0,591
359,844; 7719,289;   -1,904;   -1,136
360,437; 7875,189;   -2,995;    0,045
361,030; 8151,908;    1,369;   -0,682
361,623; 7741,373;    2,824;    0,318
362,215; 7799,775;   -0,086;    2,045
362,808; 7599,688;   -2,358;   -1,682
363,401; 7827,154;   -2,449;    0,136
363,994; 7561,026;   -0,631;   -1,500
364,586; 7478,943;    0,824;   -1,500
365,179; 7709,778;   -0,449;   -1,136
365,772; 7191,709;   -1,995;    2,045
366,364; 7484,089;    1,915;   -3,227
366,957; 7673,780;    2,279;   -0,045
367,549; 7704,892;    2,188;   -0,864
368,142; 7339,237;    1,825;   -1,500
368,734; 7538,592;    0,734;   -2,136
369,327; 7502,305;    1,643;   -0,500
369,919; 7415,612;   -1,538;    0,409
370,512; 7228,060;   -1,083;   -0,500
371,104; 7016,417;   -0,901;    1,591
371,696; 7153,096;    1,191;   -0,955
372,289; 7243,108;    0,373;    1,136
372,881; 7386,444;   -2,080;    1,318
373,473; 7296,463;   -2,170;    1,136
374,066; 7103,510;   -0,169;    0,500
374,658; 6965,515;    0,378;    1,136
375,250; 7288,528;    0,653;   -1,409
375,842; 7162,792;    0,473;   -0,045
376,434; 7042,066;   -0,435;   -0,409
377,026; 7596,041;    0,204;   -2,500
377,618; 7491,693;   -0,158;   -0,682
378,210; 7347,002;   -0,338;   -1,955
378,802; 7220,667;    0,754;   -0,591
379,394; 7149,687;    1,846;    0,682
379,986; 7728,398;    1,393;   -0,955
380,578; 7809,255;   -0,153;    0,773
381,170; 7169,906;   -0,972;    0,045
381,762; 7130,916;    0,755;    1,409
382,354; 7336,784;   -0,065;   -1,318
382,945; 7451,140;   -2,976;    0,318
383,537; 7608,026;   -2,705;   -1,955
384,129; 7617,515;   -2,160;   -1,136
384,721; 7781,165;   -0,252;    0,955
385,312; 7703,135;   -0,161;   -0,955
385,904; 7804,899;   -2,706;    1,591
386,496; 7205,873;   -0,979;    1,045
387,087; 7345,553;    1,022;    2,500
387,679; 7384,440;   -1,160;    0,045
388,270; 7495,058;    2,840;    2,045
388,862; 7588,646;    1,295;   -0,318
389,453; 7495,275;   -0,887;    1,045
390,045; 7745,426;   -0,705;   -2,682
390,636; 7680,375;    0,204;   -0,591
391,227; 7533,947;   -0,523;   -0,045
391,819; 7663,869;    0,204;    0,773
392,410; 7724,948;    1,022;    0,045
393,001; 7641,397;   -0,979;   -1,591
393,593; 7908,257;    1,930;   -0,045
394,184; 7777,762;    1,385;   -0,409
394,775; 7705,066;    1,839;    2,136
395,366; 7912,735;    1,385;    0,773
395,957; 7890,707;    0,113;    0,136
396,548; 8196,909;   -0,342;    2,682
397,139; 8474,333;   -2,433;    0,591
397,730; 8223,339;   -1,888;    0,955
398,321; 8284,631;   -1,252;    0,955
398,912; 8337,304;   -0,615;    0,136
399,503; 8412,333;   -3,524;   -1,409
400,094; 7837,103;    0,294;    1,682
400,685; 7717,022;   -0,433;    0,045
401,276; 7815,379;    0,930;   -0,955
401,867; 8132,121;   -0,888;    0,773
402,458; 8176,165;   -2,251;   -2,318
403,048; 8174,036;    1,112;    0,591
403,639; 7808,557;    0,840;    0,864
404,230; 8038,977;    2,476;    0,318
404,821; 7973,969;   -0,615;    0,045
405,411; 8100,287;    1,203;   -2,591
406,002; 7685,068;   -1,252;   -1,136
406,592; 7557,360;    2,294;    0,045
407,183; 7837,325;    0,566;   -1,500
407,774; 7781,012;    3,475;   -0,136
408,364; 8110,429;    0,930;    0,409
408,954; 7704,680;    0,384;    1,227
409,545; 7763,223;    1,021;    1,045
410,135; 7305,699;    1,293;    0,500
410,726; 7448,041;    1,838;    0,318
411,316; 7811,983;    0,111;    0,773
411,906; 7500,576;   -0,253;   -0,409
412,497; 7006,850;   -1,070;   -0,045
413,087; 7603,186;   -1,980;   -0,227
413,677; 7976,617;   -0,707;    3,864
414,267; 7798,856;    0,656;    1,409
414,857; 7827,315;   -2,980;    4,227
415,448; 8120,038;    0,839;    0,500
416,038; 7800,891;    0,020;   -0,591
416,628; 7762,887;   -0,889;    0,409
417,218; 7226,231;    0,565;    3,318
417,808; 7476,600;    0,202;   -0,409
418,398; 7933,358;    0,020;    2,682
418,988; 7947,241;    2,020;    0,591
419,578; 8174,046;   -0,707;    1,409
420,168; 8487,486;   -1,343;   -0,955
420,757; 8078,887;   -1,343;   -1,500
421,347; 7762,076;    0,111;   -0,227
421,937; 7908,195;    2,292;    1,409
422,527; 7896,205;    0,838;   -0,773
423,116; 7707,570;   -0,253;   -0,045
423,706; 8045,549;   -1,889;    0,318
424,296; 8016,184;    1,384;    0,682
424,885; 8446,911;   -0,071;   -3,045
425,475; 8721,196;    1,474;   -2,864
426,065; 8631,679;   -0,980;   -0,318
426,654; 8260,954;   -0,435;   -0,318
427,244; 8350,684;    0,020;    1,409
427,833; 7819,497;    1,383;   -0,500
428,423; 8258,460;   -0,526;    1,136
429,012; 9006,572;   -0,344;   -1,136
429,601; 8496,705;   -1,344;    0,136
430,191; 8721,988;    1,292;    4,318
430,780; 8360,613;   -0,344;   -0,409
431,369; 8283,251;    0,746;   -0,045
431,959; 8910,831;   -1,254;    0,500
432,548; 8716,409;   -1,163;   -0,045
433,137; 8808,600;   -1,254;   -1,318
433,726; 9294,502;    0,292;    0,500
434,315; 8684,206;   -0,526;    2,409
434,905; 8788,177;   -1,254;    1,409
435,494; 8719,192;    0,746;    0,955
436,083; 9184,294;   -0,981;   -0,955
436,672; 9039,849;    0,110;    0,500
437,261; 8598,562;    0,292;   -1,955
437,850; 8694,615;    1,383;    0,682
438,439; 8657,522;    3,291;    1,955
439,027; 8512,892;    3,655;    1,773
439,616; 8839,029;    2,927;    1,227
440,205; 8717,802;    0,200;   -2,136
440,794; 8773,396;    2,109;   -0,045
441,383; 9017,749;   -1,346;   -0,591
441,971; 8874,746;   -2,436;    0,591
442,560; 8735,795;    0,563;   -1,773
443,149; 8485,771;    0,379;   -1,318
443,737; 8605,066;   -0,074;   -2,318
444,326; 8850,343;    0,018;    0,318
444,915; 8915,733;   -1,982;    0,864
445,503; 9261,179;   -2,891;   -0,318
446,092; 8560,185;    0,382;    2,136
446,680; 9073,470;    0,382;    0,318
447,269; 9236,537;   -0,346;   -0,318
447,857; 9020,916;    0,018;   -1,773
448,445; 9139,770;    0,563;    1,318
449,034; 9337,160;   -1,528;   -1,136
449,622; 9454,161;   -1,073;    3,500
450,210; 8707,649;    2,017;    2,227
450,799; 9218,745;    0,290;   -0,591
451,387; 9155,600;    1,381;   -0,591
451,975; 8832,046;    2,654;    0,864
452,563; 8908,910;    3,472;    2,318
453,151; 8972,569;   -0,528;   -1,227
453,739; 8899,389;   -1,347;    0,136
454,328; 8709,621;    2,381;   -2,136
454,916; 8441,664;    2,562;   -0,136
455,504; 8654,592;    1,017;    1,227
456,092; 8803,339;    0,017;   -1,591
456,679; 8760,493;    1,472;    0,682
457,267; 8681,054;    4,017;    1,045
457,855; 8849,487;    1,017;    1,409
458,443; 8610,597;   -0,165;    1,682
459,031; 8716,222;    0,108;    2,409
459,619; 9157,545;   -1,801;    2,864
460,206; 9292,309;    0,835;    2,045
460,794; 9379,714;   -2,983;   -0,227
461,382; 9582,950;   -0,529;   -0,864
461,970; 9176,889;    1,198;    1,864
462,557; 9225,373;   -0,711;   -0,682
463,145; 9366,333;   -3,165;   -1,682
463,732; 9498,267;    2,016;   -1,045
464,320; 9442,589;   -0,075;   -3,045
464,907; 9105,915;    2,743;   -0,773
465,495; 9002,286;    0,743;   -1,227
466,082; 9151,617;   -1,984;   -0,045
466,670; 9065,984;   -2,529;    1,227
467,257; 9480,265;   -1,711;    2,045
467,844; 9633,575;   -0,075;    0,045
468,432; 9640,154;    0,834;    3,500
469,019; 9180,418;    0,925;   -1,773
469,606; 9604,375;    0,470;    3,682
470,193; 9428,281;   -1,439;    0,227
470,780; 8998,501;   -2,075;    0,864
471,368; 9381,091;   -1,257;   -0,773
471,955; 9151,175;    1,379;   -0,682
472,542; 8769,044;    0,652;   -1,136
473,129; 8996,695;   -0,166;    0,136
473,716; 8768,295;    1,470;    0,591
474,303; 8938,569;    0,652;   -0,864
474,890; 9208,636;   -1,439;   -0,500
475,477; 9204,343;   -1,621;    0,409
476,064; 9101,638;    1,106;   -1,591
476,650; 9013,163;    0,288;    0,318
477,237; 8892,163;   -0,258;    0,955
477,824; 9011,562;   -1,076;    0,864
478,411; 9017,014;   -1,894;   -0,318
478,997; 9193,850;    0,560;   -0,773
479,584; 9269,479;    1,196;   -0,409
480,171; 9915,560;   -0,440;   -0,773
480,757; 9594,794;    2,651;    0,773
481,344; 9858,986;    0,469;    0,409
481,931; 9368,109;    1,105;    1,045
482,517;10260,355;   -1,258;    0,318
483,104;10741,994;    1,106;    2,864
483,690;11015,360;   -1,804;    0,045
484,276;11323,225;   -0,895;    0,227
484,863;11060,852;    2,469;    1,136
485,449;11627,058;   -0,077;    0,318
486,035;11642,728;   -1,986;   -0,136
486,622;12019,348;   -0,895;    0,045
487,208;11981,419;    1,378;    1,500
487,794;11837,464;    0,741;    0,318
488,380;11949,561;    0,105;   -1,409
488,967;12013,501;   -1,168;   -0,409
489,553;12088,519;   -1,895;   -1,409
490,139;12260,853;    1,559;    0,773
490,725;11761,766;    0,741;   -0,227
491,311;11396,096;    3,287;    3,045
491,897;10773,916;   -0,986;    1,500
492,483;10640,953;    0,105;    1,227
493,069;10445,525;    3,923;    0,864
493,655;10429,934;    1,650;    0,682
494,241;10382,718;    1,377;   -0,955
494,826;10792,882;    0,287;   -1,045
495,412;10289,821;    2,559;   -0,682
495,998;10439,679;   -0,805;   -0,318
496,584;10580,700;    0,377;    1,045
497,169;10588,587;    1,014;   -0,682
497,755;10574,493;    0,650;    1,227
498,341;11135,949;    0,559;    0,318
498,926;10748,113;    1,832;    1,955
499,512;10938,841;    1,286;    2,955
500,097;11092,360;    0,195;   -0,318
500,683;11073,533;   -0,350;    2,136
501,268;11479,656;   -0,169;   -0,955
501,854;11243,726;   -0,169;    1,227
502,439;11182,747;   -0,624;   -1,773
503,024;11420,610;    0,195;    0,500
503,610;11555,820;   -0,078;   -0,682
504,195;11561,496;    0,558;    1,955
504,780;11697,932;    2,922;    1,227
505,366;11563,382;    3,013;    2,864
505,951;11335,372;    0,740;    1,045
506,536;11392,762;   -3,260;   -3,682
507,121;11397,511;    0,285;   -0,318
507,706;11927,240;    2,376;    1,045
508,291;12314,100;    2,649;    1,136
508,876;11829,719;   -0,988;    2,591
509,461;11315,430;   -0,169;   -0,773
510,046;11795,730;    0,194;    0,318
510,631;12020,081;   -0,351;   -0,773
511,216;11705,425;    2,467;   -0,500
511,801;12081,097;   -0,442;    2,591
512,386;12374,238;    0,740;    0,500
512,971;12365,260;   -2,988;    0,955
513,555;11971,851;   -0,897;   -1,500
514,140;12793,887;   -0,442;   -3,136
514,725;12735,609;   -0,715;   -1,136
515,309;12883,604;   -0,533;    0,318
515,894;12382,300;   -0,624;   -2,227
516,479;12836,489;   -0,624;   -0,955
517,063;12696,028;    0,376;    1,227
517,648;12844,849;    1,012;   -1,136
518,232;12507,918;   -0,261;   -1,409
518,817;12833,343;   -0,079;    1,682
519,401;13030,763;    2,194;    0,591
519,985;12541,393;    1,103;    1,136
520,570;12442,346;    0,830;   -1,955
521,154;12726,690;    2,102;    0,591
521,738;12901,257;   -2,352;    2,409
522,323;13504,777;   -0,170;    1,682
522,907;13240,406;    0,466;   -0,136
523,491;12963,409;    0,557;    0,955
524,075;12951,743;    2,284;    0,591
524,659;13037,852;    1,466;    0,591
525,243;12477,522;    1,739;    0,409
525,827;12713,804;    0,648;   -0,045
526,411;13618,488;   -1,989;   -0,136
526,995;13807,374;   -0,352;    1,409
527,579;13410,676;   -0,443;   -1,045
528,163;13712,355;    0,375;   -1,500
528,747;13623,169;    2,466;   -0,773
529,331;13929,560;   -0,080;   -1,409
529,915;14148,387;    1,738;    0,955
530,499;14090,266;   -0,807;    1,227
531,082;13785,310;   -0,534;    1,591
531,666;13245,860;    1,374;    0,773
532,250;13909,322;    1,284;    2,682
532,833;14228,735;    0,920;    2,773
533,417;14080,676;   -1,807;    0,864
534,001;14071,176;    1,647;   -0,318
534,584;14734,677;    0,374;    0,500
535,168;14606,221;    0,465;    1,409
535,751;14612,437;    0,647;    0,045
536,334;14092,171;   -0,898;   -0,409
536,918;14679,199;    0,011;    1,591
537,501;14792,665;   -0,899;    1,318
538,085;14809,034;   -0,444;    1,045
538,668;14956,914;    0,829;    2,409
539,251;15232,976;    1,829;    3,773
539,834;15258,791;    0,101;    0,773
540,418;15161,025;   -1,990;    4,318
541,001;15304,988;   -0,990;    1,773
541,584;15313,085;    2,101;    2,227
542,167;15032,877;    1,374;    2,955
542,750;15188,824;    1,919;   -0,773
543,333;14778,273;    0,555;    2,136
543,916;15547,105;    0,192;    2,500
544,499;16112,900;   -1,354;    0,227
545,082;16104,508;    1,374;    3,591
545,665;16216,715;    1,919;    1,500
546,248;16570,728;    1,010;   -0,318
546,830;16261,511;   -0,445;    1,955
547,413;16669,862;    1,010;   -0,773
547,996;17201,296;    0,555;    0,500
548,579;16988,915;    0,919;    0,955
549,161;16801,342;    1,828;    2,682
549,744;16578,233;   -0,809;    0,409
550,326;17053,053;   -0,809;   -1,136
550,909;16826,124;    2,737;    0,591
551,492;17237,594;   -0,263;    0,227
552,074;17044,616;   -0,173;   -1,318
552,657;17564,313;    2,373;    0,045
553,239;17322,226;   -0,173;   -0,773
553,821;17261,029;   -1,082;    1,045
554,404;16779,736;    1,282;    1,136
554,986;17151,655;    0,464;    1,045
555,568;17736,295;    1,191;   -0,955
556,151;16950,539;    1,191;   -0,227
556,733;17147,196;   -0,264;   -0,864
557,315;17593,312;    0,100;    0,500
557,897;17455,824;    0,554;   -0,500
558,479;17559,129;   -1,991;    1,318
559,061;17648,061;   -0,719;   -0,864
559,643;17970,110;   -0,264;    0,045
560,225;18362,721;    1,645;    2,864
560,807;18381,383;    0,918;    0,318
561,389;17895,721;    0,554;    2,318
561,971;18630,296;    0,463;    2,136
562,553;18424,729;   -1,628;    1,591
563,135;18528,848;   -0,537;    1,136
563,717;18123,453;    3,372;    1,136
564,298;18840,309;    3,645;   -0,045
564,880;18590,494;    0,645;   -1,409
565,462;18742,585;    0,645;    1,318
566,043;19876,772;   -0,446;    2,318
566,625;19348,225;    1,918;    1,227
567,207;19208,148;    1,099;    1,682
567,788;20286,061;   -1,264;    1,500
568,370;21120,505;    1,917;   -0,500
568,951;20942,218;    0,190;    0,227
569,533;21794,061;   -0,628;   -0,500
570,114;22185,355;   -0,446;    0,682
570,695;22687,658;   -0,174;   -1,318
571,277;23129,212;   -0,265;   -1,682
571,858;23863,144;    2,008;   -1,136
572,439;24723,922;    1,554;   -1,045
573,021;24894,903;    2,099;   -2,773
573,602;25407,529;   -1,265;    0,318
574,183;26278,872;   -2,083;    2,227
574,764;26395,475;   -1,629;    0,409
575,345;26908,393;    0,917;   -0,136
575,926;27485,010;   -0,356;    0,136
576,507;27471,801;    1,099;   -0,227
577,088;28559,770;    3,099;    1,682
577,669;28498,845;    0,735;    1,955
578,250;29245,599;    0,644;   -1,045
578,831;29835,141;   -1,356;   -2,227
579,412;30111,816;   -0,810;    0,955
579,993;31023,152;    1,008;    0,227
580,573;31365,819;   -0,629;   -0,955
581,154;30355,968;    0,735;   -0,591
581,735;31180,541;    0,644;    0,773
582,315;30681,814;   -0,629;    2,136
582,896;30998,385;   -0,174;    1,227
583,477;30537,130;    0,189;    1,227
584,057;30657,576;    0,553;    0,955
584,638;30970,606;    2,553;    2,318
585,218;30950,392;   -0,538;    2,682
585,799;31124,053;    0,281;   -0,227
586,379;31143,770;    0,372;    1,591
586,959;29961,751;    0,735;    0,318
587,540;29353,228;   -0,629;    2,227
588,120;28887,008;    1,007;   -0,045
588,700;27921,475;    2,553;    2,136
589,281;28194,395;    0,462;   -0,955
589,861;28115,703;    0,099;   -1,682
590,441;27940,214;    2,371;   -2,682
591,021;26980,515;   -0,265;   -2,591
591,601;27206,250;   -0,537;    0,500
592,181;27192,186;   -0,719;   -0,773
592,761;26497,390;    0,007;    1,409
593,341;26442,538;   -0,901;    0,045
593,921;26422,558;   -0,265;    1,591
594,501;26373,691;   -0,538;    1,318
595,081;26218,678;    0,917;   -0,318
595,661;26541,838;   -1,447;    0,955
596,240;27040,008;   -0,537;    0,136
596,820;26697,569;    0,372;    1,955
597,400;26917,048;    2,008;    0,773
597,980;27121,850;    2,008;    1,045
598,559;27110,500;    2,735;   -0,227
599,139;26881,868;   -0,174;   -1,227
599,718;26763,323;   -0,174;   -0,409
600,298;26993,621;    0,735;    0,682
600,877;27187,307;    2,917;    1,409
601,457;27482,232;    2,281;    1,136
602,036;27377,249;    0,190;    2,045
602,616;27579,940;    0,644;    1,682
603,195;27922,140;   -0,355;    3,500
603,774;27455,114;   -0,901;    2,045
604,354;27310,358;    0,826;   -0,500
604,933;26863,884;    0,463;    1,864
605,512;26972,512;    3,554;    0,591
606,091;27030,741;   -0,537;    3,773
606,671;27809,475;    0,281;    0,773
607,250;26905,022;    1,644;    3,136
607,829;27189,731;    2,372;    3,227
608,408;27058,618;    1,190;    2,591
608,987;26107,957;    1,281;    3,409
609,566;26377,475;   -1,265;   -2,500
610,145;26491,839;   -1,082;    0,682
610,723;26902,600;    4,372;    6,864
611,302;26123,041;   -0,446;    1,682
611,881;25656,411;    5,008;   11,227
612,460;26493,201;    1,645;    3,955
613,039;26960,034;   -0,082;    2,045
613,617;25715,947;    1,736;    4,773
614,196;25897,686;    1,099;    1,227
614,775;26183,184;    1,009;    2,409
615,353;26115,236;    0,736;    0,864
615,932;25857,117;    0,100;    2,409
616,510;26473,547;    0,554;    0,591
617,089;26003,998;    7,100;   17,591
617,667;25830,208;    2,372;    6,136
618,246;25662,502;   -1,537;    1,318
618,824;25816,748;   -3,355;   -0,955
619,402;25424,748;   -2,900;   -1,773
619,981;25903,011;   -0,173;   -1,045
620,559;25777,519;    0,009;    1,682
621,137;25347,493;   -0,718;    1,864
621,715;25309,163;   -1,173;   -0,682
622,293;25199,462;   -0,537;   -0,773
622,871;25686,767;   -0,718;    0,500
623,450;25278,294;    0,373;   -0,864
624,028;25171,821;    0,191;   -0,955
624,606;24835,480;   -1,718;    1,682
625,183;25235,529;   -1,536;   -1,136
625,761;24814,710;    1,009;    1,136
626,339;25138,999;    1,373;    2,591
626,917;25501,240;   -0,172;   -0,045
627,495;25570,636;   -0,354;    1,318
628,073;24959,837;   -0,263;    2,864
628,650;24682,007;    0,100;    2,136
629,228;25133,322;    0,373;    4,409
629,806;24534,554;    2,282;    1,136
630,383;24829,055;    1,464;   -0,318
630,961;24619,948;    2,555;   -0,955
631,539;24367,751;    2,464;    0,227
632,116;23676,948;   11,373;   15,409
632,694;24270,421;    2,555;    6,500
633,271;24544,335;    0,828;    2,682
633,848;24477,892;    1,828;    2,045
634,426;24467,206;   -1,081;    1,773
635,003;23720,511;    1,101;   -0,409
635,580;23966,145;    1,192;    3,682
636,158;24543,409;    3,737;    1,227
636,735;24501,730;    0,555;   -0,500
637,312;24643,592;   -0,809;   -0,682
637,889;24706,626;   -4,354;   -0,682
638,466;24234,140;   -3,990;   -0,409
639,043;24224,966;    2,101;   -1,136
639,620;24565,208;   -2,262;   -0,955
640,197;24880,256;    1,100;    1,682
640,774;25011,122;   -0,172;    1,136
641,351;25361,442;    0,737;    1,136
641,928;24777,125;   -0,627;    1,409
642,505;24449,172;    0,828;   -0,500
643,082;24601,401;   -1,718;    1,227
643,658;23665,630;   -0,718;    1,500
644,235;24410,405;    1,191;    2,500
644,812;24658,361;    1,918;    0,773
645,388;24339,408;   -0,991;    1,409
645,965;24463,183;   -0,809;    1,682
646,542;24559,775;   -1,445;   -0,227
647,118;24525,095;    1,009;   -0,955
647,695;24883,779;   -0,263;    1,136
648,271;24757,189;   -0,536;    0,500
648,848;25042,327;    0,736;    2,227
649,424;24903,011;    0,827;    1,318
650,000;24672,331;   -0,354;   -1,045
650,577;24482,651;   -0,627;   -0,955
651,153;24904,789;   -1,809;    0,955
651,729;25888,927;    1,191;    0,864
652,305;26032,701;    0,645;    2,773
652,881;30006,930;   -0,082;    1,136
653,458;36463,614;    1,100;    0,227
654,034;40263,843;    0,282;    1,591
654,610;41804,435;    0,554;    0,773
655,186;43158,574;    0,645;    3,045
655,762;42891,893;   -0,991;    0,409
656,338;42908,486;    0,100;    0,136
656,913;43924,897;   -0,082;    0,409
657,489;43184,762;    0,827;   -0,318
658,065;43125,900;   -0,173;   -1,591
658,641;43819,220;   -0,900;   -0,864
659,217;43173,449;   -0,991;    0,409
659,792;42528,951;    0,645;   -0,409
660,368;42844,453;   -2,173;   -0,682
660,944;42584,227;   -2,082;    1,227
661,519;38373,456;   -0,628;    0,409
662,095;32755,503;   -1,719;    0,591
662,670;28178,641;    1,281;   -0,136
663,246;26974,597;    1,009;   -0,409
663,821;26246,645;    0,281;    1,682
664,396;25736,328;    0,009;    1,864
664,972;25961,557;    0,009;   -0,500
665,547;26267,968;    1,372;    0,136
666,122;26319,470;   -1,082;    0,318
666,698;26584,062;   -0,173;    0,318
667,273;25903,928;   -0,173;    0,136
667,848;26720,884;    2,372;    1,500
668,423;26501,931;    2,190;    2,318
668,998;27079,251;    2,827;   -0,682
669,573;27536,298;   -3,264;   -1,500
670,148;27393,254;   -1,446;   -0,682
670,723;27229,665;   -1,810;    0,318
671,298;27625,985;    2,372;    1,045
671,873;27730,759;   -0,082;   -0,136
672,448;27607,625;    0,645;    0,136
673,023;27956,763;   -1,992;   -0,227
673,597;28334,810;    0,827;    2,318
674,172;28169,312;   -0,355;    0,318
674,747;27632,541;    0,372;   -1,045
675,321;27457,315;   -0,628;    3,318
675,896;27072,908;    0,645;    1,045
676,471;28060,864;    2,645;    1,591
677,045;27816,820;   -1,264;    0,682
677,620;27871,595;    0,190;    1,136
678,194;28192,824;   -2,628;    1,136
678,769;27698,234;   -1,083;   -0,318
679,343;27964,554;   -0,628;    1,773
679,917;27875,692;   -1,446;    1,955
680,492;27950,830;    0,826;    3,227
681,066;28086,332;    3,372;    0,409
681,640;28049,743;    1,463;   -0,318
682,214;28877,972;    0,735;    0,500
682,788;28417,928;   -1,356;   -0,773
683,363;28332,794;   -1,810;    1,682
683,937;28063,568;   -1,719;   -0,318
684,511;28820,888;    0,463;   -0,591
685,085;28535,390;   -1,356;    0,318
685,659;28291,982;   -2,538;    0,864
686,232;28540,211;   -0,356;   -0,318
686,806;28271,258;   -0,901;    0,409
687,380;28940,487;   -0,174;    0,591
687,954;29142,444;   -1,174;    1,136
688,528;28852,400;   -0,719;    1,955
689,101;29650,265;   -3,992;    1,045
689,675;29217,676;   -0,356;   -0,136
690,249;28550,087;   -0,719;    0,409
690,822;28858,679;    0,280;    0,318
691,396;28951,181;   -0,265;    1,227
691,969;28412,956;    1,280;    0,136
692,543;28932,639;   -0,447;   -1,955
693,116;28588,232;   -0,265;   -1,409
693,690;28392,824;    0,099;    0,500
694,263;28944,235;   -1,083;    2,955
694,836;28970,100;    1,371;    3,591
695,410;27650,602;   -0,265;    1,773
695,983;28108,922;    0,189;    0,591
696,556;28113,515;   -0,447;   -1,045
697,129;28514,562;   -0,356;    1,409
697,703;28147,427;   -1,629;    1,955
698,276;28117,565;    1,462;   -0,773
698,849;27979,249;    1,280;    1,409
699,422;28321,478;   -1,083;    0,591
699,995;28037,979;    0,007;    0,136
700,568;28528,754;   -0,629;    3,045
701,140;28520,256;   -2,811;    1,682
701,713;28284,212;   -0,174;    2,409
702,286;27988,077;   -0,538;    0,864
702,859;27885,306;   -0,902;   -0,591
703,432;27065,626;    0,825;    0,682
704,004;27543,673;    0,462;    0,318
704,577;27467,902;   -0,629;    0,136
705,150;28007,858;    0,189;    2,500
705,722;27826,451;   -0,356;   -3,227
706,295;27562,044;   -0,175;   -0,591
706,867;27435,182;   -0,175;    1,955
707,440;27607,138;   -1,720;   -0,409
708,012;27879,185;    0,462;    0,591
708,584;27816,323;    2,462;    0,227
709,157;28123,189;    1,825;   -0,591
709,729;27816,690;    2,280;    2,045
710,301;28607,737;    0,734;    0,045
710,874;28634,785;   -1,447;   -0,227
711,446;27503,741;    0,371;    0,864
712,018;27318,243;    0,098;    0,500
712,590;27132,108;   -1,993;    1,682
713,162;27624,519;    0,825;    1,318
713,734;27912,111;    1,825;   -2,045
714,306;27834,431;   -1,902;   -0,409
714,878;26563,933;    0,825;    0,864
715,450;27353,798;    0,643;    0,864
716,022;27559,845;    1,552;    1,318
716,593;27718,438;    0,189;    0,591
717,165;27698,667;   -3,175;   -1,227
717,737;27392,351;    0,280;    0,409
718,309;27017,307;    0,280;   -0,045
718,880;26988,263;   -0,539;   -1,409
719,452;27227,492;   -0,175;   -1,591
720,024;26807,812;    0,734;   -0,591
720,595;27377,404;   -2,902;    0,955
721,167;26903,179;    0,370;   -2,045
721,738;26461,772;   -0,812;   -1,045
722,309;26437,455;   -0,993;   -1,227
722,881;26162,230;   -1,357;    0,773
723,452;26796,458;   -2,630;    2,864
724,023;27009,778;   -0,721;    2,682
724,595;26789,098;    0,007;    0,682
725,166;26544,327;    0,007;   -0,409
725,737;26184,556;    1,734;    0,227
726,308;26284,512;   -0,266;    0,318
726,879;26699,378;   -1,630;    1,227
727,450;26527,516;    0,552;   -0,045
728,021;26510,381;    3,097;    0,682
728,592;26351,065;    0,734;    0,500
729,163;26691,476;    0,643;   -0,136
729,734;26641,977;    0,188;   -0,227
730,305;27012,115;    1,734;    0,136
730,876;27344,435;    0,188;    2,955
731,447;27076,210;    2,188;    2,682
732,017;27192,075;    1,097;    1,864
732,588;26641,668;    0,734;    1,227
733,159;26824,533;    0,643;   -1,045
733,729;26636,944;    0,006;    0,409
734,300;25940,173;    0,915;    0,864
734,870;26386,584;    3,461;    0,591
735,441;26988,540;    0,370;   -0,591
736,011;26711,496;    0,643;   -1,591
736,582;26634,543;   -0,812;    0,045
737,152;26127,136;   -1,721;   -2,045
737,722;26604,456;   -0,267;   -0,682
738,293;26285,776;   -1,358;    1,318
738,863;26133,550;    2,461;    2,318
739,433;25960,324;    5,279;    0,318
740,003;26598,099;   -0,994;   -0,682
740,573;26002,055;    2,097;   -1,591
741,143;26006,193;   -1,085;    0,318
741,713;26739,422;    1,188;   -0,500
742,283;26439,924;    0,915;    1,591
742,853;26272,880;    1,915;    1,591
743,423;25686,655;    1,733;    0,045
743,993;25836,520;   -0,358;    1,500
744,563;25205,840;    0,097;   -0,864
745,133;25184,342;   -0,812;   -0,864
745,702;25876,480;   -0,267;    1,773
746,272;25080,163;   -0,176;    0,591
746,842;24842,210;   -1,358;   -0,591
747,411;25298,439;   -0,267;   -0,318
747,981;25497,123;    0,097;    0,500
748,551;25493,352;    2,278;   -1,045
749,120;25390,853;    0,642;   -0,227
749,690;25778,719;   -0,631;    2,409
750,259;26054,311;    1,369;    2,955
750,828;25986,813;    1,551;   -1,955
751,398;26229,769;    1,278;   -0,045
751,967;25717,362;    2,187;    0,409
752,536;25939,500;   -0,813;   -0,227
753,105;26388,184;    0,096;    0,227
753,675;26214,776;    0,096;    1,773
754,244;26154,096;   -0,904;    3,591
754,813;26183,325;    0,551;    1,227
755,382;25725,281;    0,460;    0,955
755,951;26313,056;    1,551;    3,682
756,520;25815,739;   -0,085;    1,864
757,089;26327,332;    0,278;    0,500
757,658;26440,561;    1,733;    1,227
758,227;26465,426;    1,096;    0,318
758,795;26768,019;    1,187;    1,136
759,364;27058,066;   -0,086;   -0,591
759,933;26067,204;   -1,176;   -0,045
760,501;25611,797;    0,733;   -1,318
761,070;26077,208;   -2,813;   -1,409
761,639;26753,164;   -1,904;    1,318
762,207;26048,756;    1,551;   -0,955
762,776;26039,622;    0,369;    0,864
763,344;25982,942;   -0,995;    0,591
763,913;25114,898;   -0,722;    1,409
764,481;25898,036;    1,005;   -0,136
765,049;25666,356;   -1,358;    1,409
765,618;25559,494;   -0,086;    0,318
766,186;25633,087;    0,278;    0,136
766,754;25849,770;    0,005;    1,864
767,322;24880,726;   -1,995;    0,409
767,890;24887,319;   -0,722;   -1,773
768,459;25261,366;   -2,177;   -0,318
769,027;25439,231;    1,641;    3,409
769,595;24400,369;    3,278;    2,591
770,163;24859,508;    3,823;    2,955
770,730;24585,827;    0,732;   -0,136
771,298;24451,693;    0,187;   -1,409
771,866;24563,649;   -1,541;    4,955
772,434;24901,151;   -0,631;   -1,864
773,002;25043,834;    0,005;    0,682
773,569;24710,518;    0,914;    1,682
774,137;24524,474;   -0,268;   -0,045
774,705;25317,976;    0,278;   -0,136
775,272;24827,477;    0,641;    0,682
775,840;24593,525;   -0,177;    2,682
776,407;24154,390;    0,277;    1,955
776,975;23778,892;   -0,632;    0,318
777,542;24729,484;   -1,086;   -0,045
778,110;24541,895;   -1,268;   -0,045
778,677;24291,397;   -2,359;   -0,864
779,244;24039,717;    2,186;    1,045
779,812;24103,673;    1,823;    0,864
780,379;23999,993;    0,005;    1,136
780,946;24202,767;    1,005;   -0,773
781,513;24517,269;   -1,450;    0,318
782,080;23949,953;   -0,086;    2,864
782,647;24655,545;   -0,268;    3,045
783,214;24227,047;   -0,177;    3,864
783,781;23868,367;   -0,723;   -0,682
784,348;23749,414;   -0,632;    1,500
784,915;24233,188;   -3,177;    0,318
785,482;23958,417;    1,368;    2,591
786,049;24408,283;    0,186;   -0,591
786,615;24554,421;    0,277;   -0,955
787,182;24263,286;    0,186;   -0,682
787,749;23987,060;   -2,814;    1,409
788,315;23294,744;   -1,632;   -0,409
788,882;23593,337;    1,550;   -1,227
789,448;24254,202;    1,732;   -0,955
790,015;24325,067;    1,095;    3,227
790,581;23869,296;    1,459;    0,227
791,148;23737,525;    0,641;    1,045
791,714;24004,209;   -0,541;    3,136
792,280;23648,801;    0,186;    1,591
792,847;23246,485;    0,550;    2,500
793,413;23838,532;   -0,269;   -0,318
793,979;23319,397;    3,459;   -1,318
794,545;23398,808;    4,459;    2,682
795,111;22839,583;    2,186;    1,318
795,678;23006,448;    0,731;   -1,682
796,244;22652,950;    3,368;    0,136
796,810;23195,179;    1,731;    0,773
797,375;22900,317;    0,549;   -2,136
797,941;22934,091;   -0,541;    0,591
798,507;23107,957;   -0,451;   -0,955
799,073;22686,549;   -0,360;    0,591
799,639;22762,233;   -2,632;    3,136
800,205;22838,553;    0,095;    2,682
800,770;22331,963;    0,640;    1,773
801,336;22398,556;    1,368;   -0,955
801,901;22108,058;    4,549;    3,136
802,467;22640,469;   -0,542;    2,045
803,033;22005,425;   -0,087;    0,864
803,598;22240,836;    1,913;   -1,045
804,163;22243,155;    1,095;   -0,318
804,729;22201,748;   -0,178;    1,136
805,294;22656,522;    0,822;    2,227
805,859;22390,297;    0,731;   -0,409
806,425;21856,980;    1,186;    2,682
806,990;21518,119;    2,186;    4,318
807,555;22013,711;   -1,451;    2,591
808,120;21849,122;    0,822;   -0,409
808,685;21984,260;    0,185;   -2,500
809,250;21539,671;    0,004;   -0,500
809,815;21844,445;    1,913;    0,682
810,380;22303,311;   -0,269;    1,591
810,945;22832,812;   -1,087;    2,045
811,510;22031,859;    2,094;    1,591
812,075;21744,907;   -0,633;   -1,409
812,640;21776,408;    2,003;    1,409
813,204;21841,001;    0,822;   -0,227
813,769;22339,957;    2,094;   -0,045
814,334;21784,823;    0,458;    0,864
814,898;21791,142;    0,367;    0,591
815,463;21675,371;    1,276;   -0,773
816,027;21643,964;   -0,724;   -2,318
816,592;21727,102;    0,640;   -2,045
817,156;21249,240;    2,094;    1,136
817,721;21097,924;    4,276;    2,318
818,285;21074,062;    2,912;    1,500
818,849;21732,291;   -1,451;    1,682
819,414;21612,702;   -0,269;    2,955
819,978;21219,021;   -1,269;    1,773
820,542;21739,250;    2,003;    0,500
821,106;21481,752;   -0,815;    0,682
821,670;21606,799;   -0,815;    2,591
822,234;21336,665;   -0,270;    1,409
822,798;20675,166;    0,003;    0,500
823,362;20681,123;   -0,633;    4,227
823,926;19982,715;    0,094;    1,136
824,490;20218,035;   -0,997;   -0,682
825,054;20680,537;   -0,088;   -1,136
825,618;20276,675;   -1,542;   -1,500
826,181;20203,449;    0,458;   -1,318
826,745;20117,224;    1,367;   -1,045
827,309;20477,998;    1,185;    1,318
827,872;19963,682;    1,367;    0,955
828,436;20891,729;    1,185;   -0,773
828,999;20889,049;   -0,997;    1,227
829,563;19707,187;   -0,179;    1,136
830,126;19551,961;   -0,179;   -0,591
830,690;19564,190;   -1,997;    2,864
831,253;19077,419;   -0,543;    2,227
831,816;19195,466;   -1,906;    0,500
832,380;19170,150;    0,185;    0,864
832,943;19352,561;   -1,361;   -0,500
833,506;18854,335;    2,639;   -1,227
834,069;19649,382;    3,912;   -0,955
834,632;19703,248;    1,730;    1,318
835,195;19607,931;    1,003;    0,955
835,758;18804,160;   -0,997;    1,955
836,321;18711,571;    0,730;   -1,045
836,884;18806,618;   -0,725;   -0,955
837,447;18822,120;   -2,816;    1,773
838,010;19038,803;    0,366;    3,227
838,573;19326,850;   -1,179;    0,773
839,135;19315,534;   -1,361;   -0,955
839,698;18771,581;    1,275;    0,409
840,261;18312,537;    1,003;   -0,227
840,823;18138,948;   -0,543;    0,864
841,386;18443,359;   -0,452;   -2,409
841,948;18309,861;   -1,361;    1,773
842,511;18086,090;    0,912;    1,682
843,073;18195,955;    1,912;    0,227
843,636;18014,911;   -0,361;   -0,227
844,198;17947,686;    0,911;    0,591
844,760;18096,187;    1,093;    1,955
845,322;17746,416;    0,548;    1,136
845,885;18134,100;    0,730;    0,591
846,447;18591,056;   -1,998;    0,227
847,009;18144,558;    1,911;   -0,682
847,571;18477,241;    0,820;   -2,045
848,133;18604,198;   -1,089;   -1,864
848,695;18391,790;   -0,543;    1,409
849,257;17981,019;   -1,089;   -1,682
849,819;18146,612;   -0,998;   -0,409
850,381;18176,750;   -0,725;   -0,864
850,942;18543,706;    1,093;   -0,591
851,504;18504,935;    1,184;    0,227
852,066;18512,891;    1,275;   -1,591
852,628;18020,666;   -0,180;    1,955
853,189;17624,622;    1,638;    2,682
853,751;17746,487;   -0,907;    1,409
854,312;17558,171;   -0,453;   -1,682
854,874;18032,855;   -2,089;   -0,773
855,435;18560,174;   -0,907;   -1,682
855,997;18735,040;   -1,816;   -0,136
856,558;18040,814;    0,366;    1,773
857,119;18133,861;    0,820;    2,864
857,681;17849,727;    0,002;    0,318
858,242;17868,138;    1,911;   -2,136
858,803;18337,730;    0,456;   -0,773
859,364;18858,050;    0,184;   -4,773
859,925;18198,734;   -2,453;   -0,955
860,486;18102,508;   -0,453;   -0,955
861,047;17833,101;   -0,544;   -1,227
861,608;17665,330;   -1,089;   -0,773
862,169;17784,104;    0,638;   -0,045
862,730;17547,151;    0,456;    1,409
863,291;17784,653;   -0,635;   -0,500
863,852;18127,155;   -0,635;    1,955
864,412;17592,111;   -0,271;   -0,864
864,973;16247,249;   -0,089;    0,500
865,534;16059,932;   -1,726;    0,227
866,094;17558,798;    1,820;    0,227
866,655;17259,481;    1,274;    3,318
867,215;17544,165;    0,274;    0,136
867,776;17393,212;    0,547;   -0,136
868,336;17507,714;   -1,453;    0,136
868,897;16939,670;    2,638;    1,682
869,457;16698,444;    1,365;    0,318
870,017;16931,037;    0,547;   -1,227
870,578;17430,357;   -0,817;    0,773
871,138;17089,040;   -2,089;   -0,955
871,698;16661,178;   -0,817;   -1,318
872,258;16551,862;   -0,453;   -2,864
872,818;16900,727;    2,729;    0,045
873,378;16878,775;    0,638;    1,045
873,938;16419,003;    0,547;    0,500
874,498;16773,142;    0,274;   -1,955
875,058;16659,825;    2,183;    1,773
875,618;16514,600;    1,910;   -2,682
876,177;16459,829;    1,274;    0,136
876,737;16069,967;   -0,090;    1,955
877,297;16073,014;    0,183;    1,955
877,856;16076,152;   -0,362;    0,318
878,416;16011,654;    1,183;   -0,136
878,976;16225,792;   -1,817;    0,409
879,535;16419,839;    0,092;    3,136
880,095;16180,704;   -0,544;    0,045
880,654;16252,388;   -1,090;    1,318
881,213;16340,798;    2,456;    1,500
881,773;15998,391;    2,637;    2,682
882,332;16317,620;    3,365;    5,136
882,891;16223,576;    3,092;    2,136
883,451;16678,351;   -1,272;    1,682
884,010;16118,307;   -2,908;   -0,409
884,569;16228,990;   -0,999;   -0,045
885,128;16351,038;    2,819;   -1,864
885,687;16379,539;    4,455;    0,682
886,246;16114,314;    1,455;    2,136
886,805;15868,543;    2,455;    2,045
887,364;16184,590;   -0,999;   -0,500
887,922;16556,728;   -1,181;    0,045
888,481;16035,139;   -1,545;    0,591
889,040;16346,731;    1,183;    2,136
889,599;17037,233;    2,455;    1,409
890,157;17110,735;    1,455;    2,409
890,716;16759,509;   -0,090;    0,227
891,274;16557,011;    0,092;   -1,136
891,833;16986,422;    1,546;    0,864
892,391;16885,651;   -0,454;    0,500
892,950;16945,334;    1,819;   -0,773
893,508;17307,381;    0,455;   -0,409
894,067;16654,065;    0,637;    0,136
894,625;16548,839;   -0,636;   -1,500
895,183;16794,341;   -0,363;   -0,682
895,741;16694,025;    1,728;   -1,773
896,299;16573,435;   -0,545;   -2,409
896,858;16729,028;    0,819;   -1,591
897,416;16857,893;    2,728;   -1,318
897,974;16603,941;    1,819;    0,318
898,532;16698,897;    6,091;    2,682
899,089;16611,398;    2,091;   -0,682
899,647;16679,718;   -1,454;    1,318
900,205;16393,038;    1,182;    1,045
900,763;16609,904;   -0,454;    0,227
901,321;16620,496;    2,364;   -1,409
901,878;16067,271;   -1,000;   -0,773
902,436;15949,045;   -1,363;    1,318
902,994;16297,365;    4,728;    3,682
903,551;15779,230;    0,728;    0,409
904,109;16175,732;    0,182;   -1,409
904,666;15766,779;    2,455;    1,045
905,224;15605,008;    0,182;   -0,409
905,781;15335,237;    0,727;   -0,318
906,338;15397,921;   -1,363;    1,045
906,895;15339,150;    0,637;    2,045
907,453;15277,288;    1,727;    1,136
908,010;15322,153;   -0,909;    0,409
908,567;14971,837;    1,273;    0,591
909,124;14487,338;    0,364;   -1,500
909,681;14552,204;   -2,909;    0,682
910,238;14717,796;    0,636;   -1,318
910,795;14989,571;   -0,273;   -1,136
911,352;14675,934;   -2,909;   -2,682
911,909;14108,389;   -1,364;   -0,864
912,466;14613,753;   -3,182;    1,500
913,022;14137,389;   -1,636;    0,500
913,579;14494,025;   -0,909;    2,045
914,136;14216,389;    1,636;    0,955
914,692;14502,116;    0,091;   -1,227
915,249;14133,480;    1,455;    0,409
915,806;14343,934;    0,182;    1,955
916,362;14090,934;    1,909;    1,864
916,918;13659,298;    2,000;    1,045
917,475;13623,207;   -1,182;    0,955
918,031;13717,843;    3,364;   -0,045
918,587;13186,753;   -0,909;   -0,318
919,144;13413,571;   -2,273;    0,227
919,700;13746,934;    1,727;    0,773
920,256;13273,843;    0,727;    0,045
920,812;12915,116;   -0,727;   -1,045
921,368;12953,298;   -1,727;   -1,045
921,924;12581,389;    0,182;   -0,136
922,480;12152,843;   -0,545;    1,227
923,036;12747,934;    1,273;    1,955
923,592;12712,934;    0,455;    0,318
924,148;12617,934;    0,455;   -0,955
924,704;11940,843;   -1,364;   -0,409
925,259;12241,389;   -0,273;    0,591
925,815;11985,753;    1,455;    0,500
926,371;11541,934;    2,909;    1,409
926,926;11399,207;    2,091;    0,591
927,482;11044,116;   -1,364;    0,773
928,037;10943,571;    0,909;    2,045
928,593;11209,753;    1,636;    1,045
929,148;11045,298;   -1,818;   -1,500
929,704;10542,207;   -1,455;   -0,500
930,259;10755,389;    0,091;   -0,136
930,814; 9830,934;   -0,818;    1,955
931,369; 9531,480;    1,091;   -0,773
931,925; 9416,298;   -0,091;    0,136
932,480; 9334,207;   -2,818;   -2,591
933,035; 9203,207;    0,545;   -0,318
933,590; 8993,843;    0,364;   -1,773
934,145; 8640,571;   -1,364;   -0,318
934,700; 8973,298;    0,455;   -0,591
935,255; 8774,116;   -0,091;    0,045
935,809; 8084,843;    3,182;    0,864
936,364; 7254,389;   -0,455;   -0,136
936,919; 7197,934;    0,455;   -1,773
937,474; 7121,025;    1,455;    0,136
938,028; 6895,934;   -1,636;    1,136
938,583; 6357,025;    1,818;    4,682
939,138; 6649,025;    2,091;    2,136
939,692; 6117,298;    1,636;   -1,136
940,247; 5807,480;   -0,727;   -1,045
940,801; 5379,389;   -0,636;    0,227
941,355; 5261,753;   -0,364;    2,591
941,910; 4922,934;   -0,273;   -2,136
942,464; 5031,753;   -0,818;   -0,318
943,018; 4834,389;    1,000;   -0,227
943,572; 4782,843;    2,545;   -0,682
944,126; 4208,934;    0,091;   -0,409
944,681; 4090,571;    3,091;    0,227
945,235; 4079,843;    1,000;   -0,591
945,789; 4024,389;    0,364;   -1,864
946,342; 4130,389;    0,455;   -0,591
946,896; 3948,843;   -2,273;    0,955
947,450; 3702,389;    1,545;   -0,227
948,004; 3892,389;    1,727;   -0,045
948,558; 3896,298;    0,273;   -0,864
949,111; 3824,480;   -0,273;   -0,318
949,665; 3861,571;    1,636;   -0,682
950,219; 3736,480;   -0,091;   -1,045
950,772; 3817,843;   -1,909;    1,864
951,326; 3725,389;    0,545;   -0,955
951,879; 3801,662;    0,727;   -2,318
952,433; 3814,934;    0,000;    2,227
952,986; 3657,571;    2,909;    0,682
953,539; 3637,116;   -0,273;    0,591
954,093; 3583,116;    0,545;   -1,318
954,646; 3701,389;    0,909;    1,318
955,199; 3494,116;    0,000;   -0,500
955,752; 3394,843;   -0,455;    1,773
956,305; 3361,753;   -0,091;    2,955
956,858; 3522,116;    0,818;   -0,318
957,411; 3685,207;   -0,545;    2,136
957,964; 3520,116;    1,364;    2,136
958,517; 3513,025;   -1,545;    3,136
959,070; 3358,298;   -0,455;    1,955
959,623; 3426,480;    1,091;    1,500
960,176; 3215,662;    1,727;    2,045
960,728; 3171,389;   -2,727;    0,773
961,281; 3239,116;    0,545;    0,500
961,834; 3272,571;   -0,909;    0,864
962,386; 3206,571;    1,727;    1,045
962,939; 3143,480;    0,364;   -0,318
963,491; 3275,753;    0,455;    1,136
964,043; 3145,753;    1,182;    2,409
964,596; 3262,389;   -1,000;    2,227
965,148; 3112,571;   -1,000;    1,773
965,700; 3042,116;    1,091;   -0,227
966,253; 3178,753;   -0,636;    0,318
966,805; 3006,207;   -2,273;    0,773
967,357; 3068,843;    1,091;   -1,500
967,909; 3037,662;    0,455;   -1,227
968,461; 3140,298;    0,545;    3,136
969,013; 3083,662;   -0,182;   -0,864
969,565; 3136,662;   -0,455;   -1,136
970,117; 3208,389;   -0,364;    1,045
970,669; 3030,753;    0,182;   -0,136
971,220; 2912,480;   -0,455;   -1,500
971,772; 2840,934;   -0,636;   -0,318
972,324; 2960,480;    0,091;   -0,500
972,876; 2906,571;    0,818;   -0,045
973,427; 3033,025;    1,909;   -1,045
973,979; 2994,571;   -0,727;   -2,500
974,530; 3046,843;    1,818;    1,318
975,082; 3041,662;   -0,545;    1,682
975,633; 2950,662;    1,091;    1,682
976,184; 3102,116;    0,909;    0,773
976,736; 2895,571;    0,091;    0,227
977,287; 2696,843;   -0,909;   -0,500
977,838; 2878,480;    0,909;   -0,318
978,389; 2922,662;   -1,000;   -0,500
978,940; 2794,480;    0,545;   -0,409
979,491; 2821,753;    0,091;   -0,500
980,042; 2787,843;    0,182;    3,045
980,593; 2856,207;   -2,545;    0,227
981,144; 2897,025;    2,545;   -0,500
981,695; 2870,662;    1,455;    1,500
982,246; 2821,753;   -0,273;    1,045
982,797; 2980,843;   -1,727;    0,682
983,347; 3066,934;    0,364;    0,591
983,898; 3245,571;    3,091;    0,409
984,449; 3063,480;    2,182;    0,773
984,999; 2973,207;    1,455;   -1,136
985,550; 2792,298;    0,182;   -0,318
986,100; 2802,843;   -0,455;   -0,318
986,651; 2837,662;   -0,818;    0,045
987,201; 2808,298;   -1,000;   -0,591
987,751; 2890,116;    0,818;    2,864
988,302; 2888,753;    2,636;    1,500
988,852; 2908,934;    0,455;   -1,136
989,402; 2946,207;    0,091;    0,682
989,952; 2864,662;   -2,182;    0,864
990,502; 2964,753;   -0,091;    0,682
991,052; 2923,025;   -0,727;    0,045
991,602; 2799,207;   -2,909;    1,318
992,152; 2802,116;    0,455;    0,682
992,702; 2799,571;    1,364;   -0,045
993,252; 2706,389;   -3,000;   -0,500
993,802; 2799,571;   -0,273;    1,318
994,352; 3026,207;   -1,545;    1,136
994,901; 3120,934;   -0,182;    3,227
995,451; 3038,480;   -0,182;    0,318
996,000; 3118,843;    1,636;    0,318
996,550; 2831,298;    2,273;    0,227
997,100; 2835,480;    1,273;   -0,045
997,649; 3097,298;    2,182;    0,955
998,198; 2751,116;    1,727;   -1,500
998,748; 2955,843;    1,091;   -2,318
999,297; 2870,934;   -0,818;   -0,409
999,846; 2919,934;    1,000;   -0,773
1000,395; 2967,662;   -0,818;    0,500
1000,945; 2916,298;    1,818;   -0,773
1001,494; 3013,116;    2,364;    0,682
1002,043; 2994,571;    4,636;    0,864
1002,592; 2819,389;   -1,091;    1,955
1003,141; 2976,753;   -0,455;   -0,682
1003,690; 2832,389;    1,727;    0,500
1004,238; 2928,662;    1,455;   -0,045
1004,787; 2580,025;    1,364;    1,227
1005,336; 2801,298;    0,364;    0,682
1005,885; 2919,843;    1,364;   -2,773
1006,433; 3060,662;    0,545;    0,955
1006,982; 3147,116;    0,455;    1,682
1007,531; 3048,753;   -1,818;   -0,227
1008,079; 2984,389;   -2,273;    0,500
1008,627; 3140,025;   -1,455;    0,409
1009,176; 2871,298;    0,000;   -1,955
1009,724; 2923,480;    1,091;    0,864
1010,273; 2965,389;    1,273;    0,500
1010,821; 3076,843;    0,091;    1,409
1011,369; 2826,298;   -1,364;    1,318
1011,917; 2817,207;   -1,364;   -0,591
1012,465; 3103,298;    1,273;   -1,591
1013,013; 3211,753;    2,091;   -1,682
1013,561; 3092,207;    0,455;   -0,773
1014,109; 3117,662;   -1,909;    1,682
1014,657; 3001,662;    0,364;    0,591
1015,205; 3138,753;    1,636;   -0,955
1015,753; 3168,025;   -0,545;   -1,409
1016,301; 3192,843;   -2,636;    3,045
1016,848; 3192,934;   -1,273;    0,409
1017,396; 3235,116;    2,545;    0,045
1017,944; 3351,843;    1,182;    1,864
1018,491; 3116,207;    0,273;    1,409
1019,039; 3266,298;    0,455;    0,591
1019,586; 3195,389;   -1,364;    1,682
1020,134; 3270,207;    0,455;    1,500
1020,681; 3301,843;    0,182;   -1,136
1021,228; 3333,389;    2,909;   -2,227
1021,776; 3163,662;    1,182;   -1,136
1022,323; 3367,207;    0,455;    0,773
1022,870; 3317,662;   -1,000;   -0,045
1023,417; 3201,207;    2,636;    1,864
1023,964; 3344,753;    2,636;    1,227
1024,511; 3202,207;    1,000;    0,773
1025,058; 3011,753;    3,182;   -0,045
1025,605; 3078,753;   -2,273;    3,136
1026,152; 3256,662;    1,727;   -0,591
1026,699; 3006,025;    1,818;    1,318
1027,245; 3166,389;   -0,091;    0,318
1027,792; 3378,298;   -1,000;    1,409
1028,339; 3262,934;    2,364;   -0,045
1028,885; 3117,571;    1,000;   -0,227
1029,432; 3036,480;   -0,091;    0,227
1029,978; 3105,480;   -1,000;   -1,591
1030,525; 3029,207;    1,000;    0,409
1031,071; 3265,389;   -1,364;    1,136
1031,618; 3357,753;    0,364;    1,682
1032,164; 3156,843;   -0,091;    3,045
1032,710; 3187,207;    1,636;   -1,500
1033,256; 3116,843;   -0,636;   -0,136
1033,803; 3096,025;   -0,545;    1,500
1034,349; 2852,116;   -1,364;    0,136
1034,895; 2993,116;    0,000;   -0,318
1035,441; 2984,480;   -0,818;    0,318
1035,987; 2967,934;   -2,364;   -0,682
1036,533; 2977,207;   -1,455;   -0,955
1037,078; 3175,571;    1,455;    1,682
1037,624; 2984,934;    2,455;   -0,955
1038,170; 3018,934;    0,455;   -0,318
1038,716; 2932,298;    1,636;   -0,409
1039,261; 2842,207;   -2,273;   -0,773
1039,807; 2781,843;   -0,091;    3,409
1040,352; 2855,116;   -1,909;   -0,318
1040,898; 2898,389;   -1,545;   -0,682
1041,443; 2804,934;   -1,455;   -2,591
1041,989; 2823,934;    1,091;    1,591
1042,534; 2698,934;   -0,364;    2,591
1043,079; 2822,207;    2,909;    0,955
1043,625; 2626,480;    1,818;    0,500
1044,170; 2670,662;   -1,364;    1,045
1044,715; 2911,207;    2,455;    0,955
1045,260; 2725,662;    2,182;   -0,955
1045,805; 2791,662;    1,182;   -0,591
1046,350; 2716,934;    1,364;   -0,409
1046,895; 2657,116;    2,909;    1,591
1047,440; 2619,843;    5,364;    0,409
1047,985; 2531,025;    2,818;   -0,955
1048,530; 2445,571;    1,545;    1,227
1049,074; 2503,571;    0,000;    0,318
1049,619; 2479,662;   -1,364;    1,955
1050,164; 2287,843;    0,455;    0,227
1050,708; 2333,298;   -0,455;    0,045
1051,253; 2684,934;    1,273;   -2,227
1051,797; 2416,753;    0,818;   -1,318
1052,342; 2419,025;   -1,182;    1,045
1052,886; 2417,025;    0,364;   -1,409
1053,430; 2296,753;   -1,364;    0,136
1053,975; 2309,298;   -0,818;   -0,318
1054,519; 2293,298;   -0,727;    3,227
1055,063; 2308,753;    0,909;    1,318
1055,607; 2213,753;   -0,182;    0,227
1056,151; 2216,662;    2,909;    1,682
1056,695; 2149,571;    2,273;   -1,136
1057,239; 2214,571;   -1,727;   -0,682
1057,783; 2223,934;    0,818;   -1,500
1058,327; 2168,753;    0,000;    1,409
1058,871; 2381,571;   -0,545;    1,318
1059,415; 2099,025;   -0,818;   -0,045
1059,958; 2360,571;    1,455;    2,591
1060,502; 2082,116;   -1,000;   -0,773
1061,046; 1989,116;    0,364;   -0,955
1061,589; 1981,298;   -3,000;   -1,136
1062,133; 1868,298;   -1,273;    1,864
1062,676; 1787,753;    1,182;    0,864
1063,220; 1795,298;    1,091;    0,500
1063,763; 1813,116;    0,909;    1,136
1064,306; 1899,934;   -0,909;    1,864
1064,849; 1778,025;   -0,909;    0,591
1065,393; 1792,843;    2,000;   -1,500
1065,936; 1899,934;    0,182;   -0,409
1066,479; 1788,843;   -1,455;    1,318
1067,022; 1813,116;   -0,273;   -0,227
1067,565; 1701,116;   -0,091;   -1,318
1068,108; 1744,843;    0,727;   -0,591
1068,651; 1715,753;   -0,636;    1,409
1069,194; 1642,753;   -0,455;   -1,682
1069,736; 1632,662;   -1,273;    0,955
1070,279; 1611,480;   -1,364;   -0,500
1070,822; 1660,662;   -2,000;   -0,318
1071,364; 1740,662;   -0,364;    1,318
1071,907; 1578,298;   -0,727;    3,227
1072,450; 1498,480;    0,000;   -0,045
1072,992; 1471,025;   -0,273;    3,136
1073,535; 1618,934;    2,091;    2,136
1074,077; 1415,389;   -0,727;    2,045
1074,619; 1387,571;   -1,364;    0,591
1075,161; 1418,753;   -1,091;    1,500
1075,704; 1599,480;    1,545;    1,227
1076,246; 1399,753;   -0,182;    0,682
1076,788; 1317,843;   -0,364;    1,773
1077,330; 1390,480;    1,273;    2,136
1077,872; 1359,480;    0,909;    0,955
1078,414; 1578,389;    2,727;    0,773
1078,956; 1301,389;    1,273;   -0,227
1079,498; 1561,207;    1,636;    0,318
1080,040; 1292,116;    1,909;   -1,318
1080,581; 1226,662;    1,636;   -0,318
1081,123; 1148,389;    0,091;   -0,773
1081,665; 1199,934;   -1,182;   -0,955
1082,206; 1487,662;    1,364;   -0,500
1082,748; 1347,207;    0,727;    2,045
1083,289; 1229,207;   -2,000;    1,318
1083,831; 1140,116;   -0,545;    0,227
1084,372; 1173,298;    0,000;    0,591
1084,913; 1186,571;    1,091;    0,864
1085,455; 1146,207;   -1,909;   -2,045
1085,996; 1110,662;   -2,273;    0,136
1086,537; 1141,389;   -0,091;    0,864
1087,078; 1178,116;   -0,909;   -2,136
1087,619; 1209,116;   -1,273;    0,227
1088,160; 1127,753;    0,000;    1,318
1088,701; 1114,662;   -1,091;    0,682
1089,242; 1054,298;    1,364;   -2,227
1089,783; 1142,389;   -0,273;    1,409
1090,324; 1116,298;    0,455;    0,682
1090,865;  999,480;    2,727;   -0,409
1091,405;  961,116;    0,727;    2,227
1091,946;  995,298;    0,182;   -0,955
1092,487;  919,116;    0,818;   -1,409
1093,027; 1087,389;   -1,364;   -1,500
1093,568;  929,389;   -0,364;    1,227
1094,108; 1030,025;    0,273;    1,773
1094,649;  973,753;   -1,182;    0,136
1095,189;  914,662;   -0,636;   -0,682
1095,729;  864,843;   -0,091;    0,955
1096,269;  875,298;    0,727;   -0,955
1096,810; 1172,298;   -1,364;    0,500
1097,350; 1003,934;    1,364;   -0,773
1097,890;  905,480;    0,364;    1,227
1098,430; 1148,298;    2,364;    2,864
1098,970; 1024,571;    2,182;    1,682
1099,510;  901,298;    0,545;   -2,318
1100,050;  815,298;    1,000;   -1,591
1100,589;  788,753;   -0,727;   -0,318
1101,129;  920,480;    0,818;   -0,955
1101,669; 1058,843;    1,727;    2,136
1102,209;  877,934;   -0,091;    2,227
1102,748;  839,389;    0,000;    0,955
1103,288;  829,662;    1,273;   -1,227
1103,827;  852,571;    3,091;   -2,227
1104,367;  737,207;   -0,091;   -2,409
1104,906;  702,934;    1,364;   -1,136
1105,445;  774,389;    0,636;   -1,136
1105,985;  711,571;   -0,727;    1,500
1106,524;  764,207;   -1,727;   -0,682
1107,063;  740,934;   -2,727;    1,409
1107,602;  712,934;   -1,909;   -1,500
1108,141;  644,662;   -1,909;    1,500
1108,680;  734,843;   -3,455;   -0,591
1109,219;  667,934;   -0,909;   -0,500
1109,758;  681,116;    0,455;    0,682
1110,297;  646,025;    1,000;   -0,682
1110,836;  598,843;   -0,727;    0,955
1111,375;  752,025;   -2,545;    0,409
1111,913;  775,207;   -1,000;    0,773
1112,452;  705,025;   -0,273;    0,136
1112,991;  583,843;    1,091;    1,955
1113,529;  548,207;   -0,818;   -0,045
1114,068;  621,753;   -0,273;    2,955
1114,606;  524,025;   -0,364;   -0,955
1115,144;  683,662;   -1,273;    1,045
1115,683;  623,662;   -0,727;    0,318
1116,221;  655,389;   -0,455;   -0,864
1116,759;  574,389;    0,636;   -0,864
1117,297;  765,843;    0,000;    1,864
1117,836;  579,571;   -2,182;   -1,227
1118,374;  582,753;    0,182;   -0,682
1118,912;  529,662;    0,909;    2,682
1119,450;  531,298;    1,000;    0,864
1119,988;  577,480;    1,545;    2,136
1120,525; 1009,843;    5,091;    3,318
1121,063;  717,025;    1,182;    1,864
1121,601;  529,025;   -0,909;   -1,227
1122,139;  483,753;   -0,727;   -2,045
1122,676;  676,025;   -0,727;    2,773
1123,214;  606,389;   -1,182;    4,409
1123,751;  421,207;    1,727;    2,227
1124,289;  546,843;   -0,091;   -0,409
1124,826;  418,934;    1,727;    0,227
1125,364;  350,116;    1,727;   -0,955
1125,901;  529,116;    1,182;    1,227
1126,438;  651,571;    0,818;    0,955
1126,975;  379,843;   -0,727;   -0,773
1127,513;  450,480;    0,273;    2,136
1128,050;  358,116;    1,636;   -0,682
1128,587;  458,843;    2,000;   -0,227
1129,124;  491,662;    0,091;    1,318
1129,661;  359,298;    0,273;    0,227
1130,198;  523,207;    1,636;    0,773
1130,734;  464,116;    0,182;    1,409
1131,271;  332,843;   -0,909;    0,864
1131,808;  509,389;    2,909;    3,045
1132,345;  380,116;    1,545;    0,318
1132,881;  257,298;   -1,545;   -1,864
1133,418;  395,025;    0,727;   -1,136
1133,954;  319,753;    2,455;   -2,682
1134,491;  396,298;    1,364;   -0,773
1135,027;  298,389;    2,364;    0,864
1135,564;  388,298;    0,273;    2,955
1136,100;  370,662;    0,364;    2,136
1136,636;  268,116;   -1,273;   -1,045
1137,172;  354,753;    0,000;   -1,045
1137,708;  271,934;   -1,364;   -1,045
1138,245;  280,389;    1,273;   -1,227
1138,781;  239,934;    1,091;   -3,318
1139,317;  297,753;    1,273;   -1,409
1139,852;  293,116;    3,091;    0,136
1140,388;  401,116;   -1,182;   -0,409
1140,924;  282,571;   -1,091;   -2,227
1141,460;  225,571;   -1,636;    0,136
1141,996;  162,753;   -1,364;    2,682
1142,531;  214,389;    1,364;    3,318
1143,067;  420,662;    1,182;    1,045
1143,602;  467,753;   -0,091;   -0,318
1144,138;  313,480;   -2,636;    1,045
1144,673;  188,843;   -1,455;    1,409
1145,209;  254,207;   -1,909;   -0,318
1145,744;  177,662;   -0,727;    0,864
1146,279;  314,843;    1,818;   -0,136
1146,815;  226,025;    1,545;   -2,682
1147,350;  271,116;   -1,364;    0,045
1147,885;  183,207;   -0,818;   -1,318
1148,420;  179,025;   -2,273;    0,773
1148,955;  167,843;   -1,727;    1,864
1149,490;  194,571;   -0,909;   -1,591
1150,025;  175,662;    0,455;   -1,773
1150,560;  282,207;    1,091;   -0,955
1151,094;  246,207;    1,455;   -0,591
1151,629;  257,662;    1,636;    0,864
1152,164;  185,662;    1,364;    1,318
1152,698;  146,843;   -0,182;   -0,136
1153,233;  107,934;    0,091;   -0,682
1153,767;  155,389;   -3,000;   -2,318
1154,302;  203,025;   -1,455;    1,773
1154,836;  191,662;   -0,455;   -2,136
1155,371;  245,389;   -1,364;    3,682
1155,905;  200,934;   -0,636;    1,682
1156,439;  163,116;   -0,636;   -0,500
1156,973;  193,298;    0,364;    0,318
1157,507;  128,571;   -0,364;    0,682
1158,042;  163,207;   -0,727;    1,045
1158,576;  217,298;    0,182;    1,773
1159,110;  208,753;   -0,818;    2,409
1159,643;  176,298;    0,636;   -0,045
1160,177;  115,025;   -1,545;    1,500

