
Integration time [ms]:   0,040
Averaging Nr. [scans]: 11
Smoothing Nr. [pixels]: 0
Data measured with spectrometer [name]: 7318044SP
Wave   ;Sample   ;Dark     ;Reference
[nm]   ;[counts] ;[counts] ;[counts] 

186,757;   24,619;   31,551;    1,318
187,357;   64,902;   22,551;    0,955
187,958;   37,875;   15,460;   -1,591
188,558;   74,254;    8,915;   -1,227
189,159;   51,541;    6,733;   -4,500
189,759;   18,510;    7,278;   -3,591
190,360;   25,083;    2,824;   -2,136
190,960;   56,412;    2,915;   -4,136
191,560;   65,096;    3,189;   -6,591
192,161;  292,699;    4,372;   -3,500
192,761;  148,189;    4,010;   -3,227
193,361;   97,205;    1,556;   -3,773
193,962;  144,501;    2,010;   -2,682
194,562;   71,544;    1,189;   -3,955
195,162;  106,368;   -2,448;   -2,227
195,762;  261,443;   -3,176;   -0,045
196,362;  209,816;    1,370;   -2,500
196,963;   74,587;    2,006;   -0,864
197,563;  151,437;    1,551;   -0,955
198,163;   96,312;    0,096;   -0,682
198,763;  118,966;    1,733;   -0,500
199,363;  216,301;    3,096;   -0,500
199,963;  185,599;    0,369;    0,409
200,563;  150,730;    2,823;   -1,409
201,163;  132,591;    3,277;   -0,227
201,763;  222,587;    3,732;    0,318
202,363;  164,472;    1,459;    1,500
202,963;  273,727;    1,459;    1,045
203,563;  375,659;    0,277;    0,500
204,162;  229,025;    2,096;   -1,864
204,762;  219,422;    0,550;    0,591
205,362;  185,560;    3,004;    1,955
205,962;  288,135;    3,096;    1,955
206,562;  284,311;    1,823;    2,318
207,161;  254,309;   -0,087;    0,318
207,761;  415,432;    1,277;    2,409
208,361;  290,300;   -0,268;    1,409
208,960;  385,186;    0,459;    1,500
209,560;  446,060;    1,277;    1,591
210,160;  431,595;    0,550;    1,864
210,759;  401,709;    4,186;    1,227
211,359;  409,526;    1,459;    1,045
211,958;  664,143;    1,277;    2,045
212,558;  747,138;    1,732;    1,864
213,157;  587,512;    1,822;    1,500
213,757; 1021,985;    3,822;   -0,227
214,356;  726,276;    1,277;   -0,409
214,956; 1060,860;    3,095;    0,409
215,555;  688,807;    2,095;    2,136
216,154;  635,020;   -2,723;   -0,591
216,754;  646,018;    0,277;    0,773
217,353;  770,699;   -0,268;   -1,045
217,952;  625,702;   -0,178;    0,318
218,552;  857,975;    1,368;   -0,773
219,151;  765,288;    0,277;    0,955
219,750;  765,090;    0,004;   -0,227
220,349;  875,676;   -0,451;    1,045
220,948;  937,505;   -1,360;    1,136
221,548;  962,971;    0,913;    1,227
222,147; 1066,997;   -0,087;   -0,409
222,746; 1346,230;   -0,451;   -0,955
223,345; 1224,597;    0,731;    0,500
223,944; 1240,643;   -0,451;    0,773
224,543; 1399,815;    1,004;   -1,409
225,142; 1499,218;    0,094;    0,136
225,741; 1406,072;   -0,814;    1,045
226,340; 1445,198;   -0,451;   -0,955
226,939; 1866,087;   -0,996;   -0,136
227,538; 1805,010;   -0,360;   -0,773
228,137; 1965,414;   -0,814;    0,864
228,735; 2087,231;   -0,541;    1,227
229,334; 1854,593;   -0,905;   -0,227
229,933; 2222,747;    0,459;    0,591
230,532; 2317,829;    1,186;   -0,409
231,131; 2346,490;    1,732;    0,318
231,729; 2469,107;   -2,450;   -2,318
232,328; 2589,074;   -0,723;   -1,500
232,927; 2667,454;    1,004;   -0,500
233,525; 2767,517;    3,640;    0,045
234,124; 2971,707;    2,368;   -1,591
234,723; 2984,259;    0,913;   -1,045
235,321; 3101,786;    2,277;    0,136
235,920; 3327,380;    1,186;   -1,227
236,518; 3611,089;    3,459;    0,318
237,117; 3766,577;    0,004;   -0,227
237,715; 3892,291;    0,640;   -0,500
238,314; 3916,286;   -0,087;   -2,318
238,912; 4031,225;   -0,723;   -1,409
239,510; 4079,404;    0,459;   -1,227
240,109; 4229,843;    0,004;    3,773
240,707; 4270,907;   -0,996;    1,227
241,305; 4640,761;    0,550;    0,136
241,904; 4826,579;   -0,178;   -2,045
242,502; 4780,581;   -0,632;   -0,227
243,100; 4744,471;   -0,087;   -0,955
243,698; 4985,458;    0,732;    1,682
244,297; 5181,231;   -0,632;    0,682
244,895; 5024,966;   -0,269;   -2,318
245,493; 5341,943;    2,186;   -0,591
246,091; 5379,637;    1,368;   -1,318
246,689; 5366,636;    1,004;    0,591
247,287; 5536,332;    0,822;   -1,136
247,885; 5802,075;   -1,451;    1,227
248,483; 5914,846;    1,822;   -0,500
249,081; 6030,422;    0,185;    1,591
249,679; 6197,722;   -0,178;    1,682
250,277; 6436,615;   -1,723;    0,864
250,875; 6409,017;   -1,087;   -1,045
251,473; 6489,245;   -1,178;    0,500
252,071; 6679,483;    1,459;    1,045
252,669; 6809,734;   -1,814;    0,318
253,267; 7074,305;   -0,087;    0,773
253,864; 7026,787;   -0,360;    0,682
254,462; 6908,254;    1,640;    1,591
255,060; 6891,887;   -0,269;    1,318
255,658; 7184,188;    0,822;   -0,136
256,255; 7591,695;    0,186;   -2,045
256,853; 7456,165;   -0,269;    1,409
257,451; 7464,123;    0,822;    1,864
258,048; 7731,665;    1,822;    1,864
258,646; 7511,253;    1,731;   -1,045
259,243; 7693,256;   -0,087;    2,227
259,841; 7756,159;   -0,814;    0,318
260,438; 7615,136;   -0,087;    0,864
261,036; 8334,535;   -1,905;    1,409
261,633; 8238,372;   -0,087;    2,227
262,231; 8006,126;    2,731;   -0,045
262,828; 8094,257;   -0,905;    1,136
263,425; 8132,936;    0,913;   -0,591
264,023; 8379,978;    0,186;    0,045
264,620; 7917,797;   -0,360;   -0,318
265,217; 8291,189;   -2,087;    3,136
265,815; 8422,148;   -1,905;    2,136
266,412; 8168,554;    0,731;    0,136
267,009; 8233,486;   -1,451;    0,773
267,606; 8133,526;    0,822;   -0,955
268,203; 8121,205;   -0,269;   -0,591
268,801; 8382,945;    1,731;    0,591
269,398; 8681,289;   -0,360;    2,500
269,995; 8662,257;    0,277;    1,591
270,592; 8456,988;   -0,632;   -0,500
271,189; 8640,592;    0,186;    0,409
271,786; 8764,331;   -0,632;    1,227
272,383; 8604,627;   -1,087;    0,227
272,980; 8810,276;    0,277;    0,318
273,577; 9261,342;    0,004;    1,227
274,174; 8825,921;    0,822;    2,591
274,771; 8798,825;   -0,814;   -0,773
275,367; 8925,705;    2,277;    1,409
275,964; 8902,503;    0,731;   -0,500
276,561; 8985,827;    1,549;   -1,045
277,158; 9194,450;    0,095;   -1,773
277,755; 9324,786;    2,185;    0,409
278,351; 8741,253;   -0,451;   -1,500
278,948; 9072,027;   -0,815;    0,045
279,545; 9035,594;   -1,360;    2,318
280,141; 9628,484;   -1,723;   -2,045
280,738; 9532,369;   -0,451;   -0,136
281,334; 9764,471;   -1,633;    0,591
281,931; 9129,375;   -0,087;   -1,318
282,528; 9258,129;    0,822;   -0,500
283,124; 9986,890;   -1,087;   -0,500
283,721; 9867,008;   -0,451;    1,409
284,317; 9710,800;    0,185;    2,500
284,913;10215,888;   -1,360;    0,591
285,510;10416,706;    0,640;   -0,318
286,106;10442,848;   -2,269;   -0,955
286,703;10069,994;   -0,360;    1,955
287,299;10275,795;   -1,451;   -0,591
287,895;10478,464;    0,822;   -1,045
288,491;11044,380;    0,186;    2,136
289,088;10768,084;   -2,360;    2,409
289,684;10839,552;   -1,723;    1,500
290,280;10831,118;    0,368;    0,682
290,876;10919,402;    1,822;    5,500
291,472;10862,298;    1,276;    2,227
292,068;10929,667;    1,367;    0,227
292,665;10635,977;    2,095;    0,773
293,261;10283,230;    0,276;    2,136
293,857;10684,298;    2,913;    2,136
294,453;10605,019;    3,550;    0,955
295,049;10489,675;   -0,268;    1,955
295,644;10532,574;    0,095;    0,136
296,240;10427,349;   -0,905;   -0,136
296,836;10484,514;   -0,995;    0,318
297,432;10747,077;    1,096;   -0,500
298,028;10755,683;    0,732;    0,773
298,624;11179,153;    1,459;    1,864
299,220;11433,934;    2,368;    0,591
299,815;11142,731;    1,005;   -0,409
300,411;10946,675;    0,914;    1,773
301,007;10934,681;    1,368;    0,227
301,602;10981,212;   -0,541;   -2,318
302,198;11157,582;    0,732;   -0,773
302,794;11487,174;    1,187;   -0,500
303,389;11586,812;   -1,177;    1,045
303,985;11658,693;    0,550;    1,409
304,580;11609,082;    1,459;    1,591
305,176;11613,280;   -3,086;    0,136
305,771;11549,954;   -1,268;   -1,227
306,367;11379,020;    4,095;    0,136
306,962;11714,667;    0,641;    1,500
307,558;11433,424;   -0,450;    0,136
308,153;11363,827;    1,095;   -1,136
308,748;11606,155;   -0,814;    1,682
309,344;11534,960;   -0,632;   -1,318
309,939;11635,256;   -1,905;   -1,318
310,534;11934,380;   -0,086;   -1,682
311,130;11884,853;    0,459;   -2,500
311,725;11597,496;    1,004;   -0,500
312,320;11933,638;    2,459;    0,045
312,915;11766,745;    1,459;   -1,045
313,510;11823,709;    1,550;   -0,500
314,105;12339,957;    1,096;    1,409
314,700;11758,508;   -3,086;   -1,045
315,295;11367,809;   -0,904;    0,045
315,890;10965,847;    1,277;    0,864
316,485;11309,861;   -0,359;   -0,318
317,080;11415,305;   -3,086;    1,591
317,675;11962,821;    2,005;   -0,682
318,270;11374,313;    5,550;    3,318
318,865;11392,858;    3,278;    3,045
319,460;11245,909;   -0,904;    0,591
320,055;11476,093;   -0,541;   -1,227
320,650;11136,786;   -1,995;   -0,591
321,244;11172,552;   -0,177;   -1,409
321,839;12132,601;   -1,541;   -0,227
322,434;11989,002;   -1,086;   -1,591
323,029;11654,984;    1,732;    1,591
323,623;11434,337;    1,550;    0,773
324,218;11210,252;    2,368;    1,409
324,812;11093,629;    1,096;    1,591
325,407;10902,727;   -0,814;    2,045
326,002;10829,426;    0,277;   -0,409
326,596;11127,142;    0,914;    1,318
327,191;11337,149;    0,823;   -1,045
327,785;10924,051;   -0,813;   -0,227
328,379;11154,998;    1,368;    0,136
328,974;10921,119;    0,914;   -3,955
329,568;11122,842;    0,186;   -2,409
330,163;10955,289;    2,096;    1,045
330,757;11340,196;    2,459;    1,591
331,351;10677,582;    0,459;    0,682
331,945;10978,900;    0,914;    1,409
332,540;10595,856;   -1,723;   -0,591
333,134;10745,804;   -1,086;    0,773
333,728;10983,280;    0,005;    0,318
334,322;11296,209;   -1,177;   -0,864
334,916;10585,691;    0,277;    0,955
335,510;10934,975;   -0,450;   -0,136
336,105;11201,240;   -1,086;    1,591
336,699;10905,585;   -1,086;    0,591
337,293;10838,659;   -1,723;    0,318
337,887;11011,123;   -2,723;    1,955
338,481;11097,158;    0,459;    0,591
339,074;11223,599;   -0,359;    2,682
339,668;11066,928;   -1,632;    1,227
340,262;11334,017;    1,732;    3,227
340,856;10851,122;    1,822;   -0,682
341,450;10229,371;    1,004;    1,864
342,044;11154,022;    1,459;    0,136
342,637;10903,297;    0,913;   -2,136
343,231;10771,457;   -2,360;    0,682
343,825;10690,403;   -1,086;   -0,591
344,419;10700,086;   -1,995;    0,500
345,012;10478,565;    2,459;    4,045
345,606;10495,711;    4,641;    1,591
346,199;10354,823;   -1,813;   -0,227
346,793; 9889,425;    1,914;    2,045
347,386;10073,688;   -0,813;   -1,136
347,980;10053,628;   -0,268;   -0,045
348,573; 9881,131;    2,278;    0,409
349,167; 9552,541;    5,278;    4,773
349,760; 9889,755;    2,914;    2,682
350,354; 9864,205;   -0,813;    1,136
350,947; 9601,978;    1,096;    1,682
351,540; 9270,098;   -0,358;   -1,409
352,134; 9248,240;    1,096;    1,136
352,727; 9345,352;   -0,086;    1,136
353,320; 9131,911;    0,005;    0,591
353,913; 8985,764;   -1,995;    1,864
354,507; 9182,586;    0,823;   -1,227
355,100; 9187,218;    0,460;    0,864
355,693; 8428,645;    2,005;    2,409
356,286; 8447,512;    0,823;    2,773
356,879; 8832,484;   -0,722;    1,227
357,472; 8414,153;   -0,904;    1,500
358,065; 8616,383;   -0,722;    2,500
358,658; 8559,392;   -0,540;    2,318
359,251; 8195,667;   -1,631;   -0,591
359,844; 7705,654;   -1,904;   -1,136
360,437; 7868,916;   -2,995;    0,045
361,030; 8158,727;    1,369;   -0,682
361,623; 7775,101;    2,824;    0,318
362,215; 7811,866;   -0,086;    2,045
362,808; 7642,325;   -2,358;   -1,682
363,401; 7808,610;   -2,449;    0,136
363,994; 7566,936;   -0,631;   -1,500
364,586; 7489,944;    0,824;   -1,500
365,179; 7704,052;   -0,449;   -1,136
365,772; 7179,710;   -1,995;    2,045
366,364; 7496,272;    1,915;   -3,227
366,957; 7679,419;    2,279;   -0,045
367,549; 7656,259;    2,188;   -0,864
368,142; 7336,785;    1,825;   -1,500
368,734; 7548,141;    0,734;   -2,136
369,327; 7482,309;    1,643;   -0,500
369,919; 7411,617;   -1,538;    0,409
370,512; 7240,247;   -1,083;   -0,500
371,104; 7006,151;   -0,901;    1,591
371,696; 7166,377;    1,191;   -0,955
372,289; 7253,753;    0,373;    1,136
372,881; 7373,728;   -2,080;    1,318
373,473; 7279,021;   -2,170;    1,136
374,066; 7096,798;   -0,169;    0,500
374,658; 6945,261;    0,378;    1,136
375,250; 7307,915;    0,653;   -1,409
375,842; 7160,546;    0,473;   -0,045
376,434; 7032,186;   -0,435;   -0,409
377,026; 7604,893;    0,204;   -2,500
377,618; 7486,094;   -0,158;   -0,682
378,210; 7356,589;   -0,338;   -1,955
378,802; 7213,802;    0,754;   -0,591
379,394; 7155,278;    1,846;    0,682
379,986; 7703,992;    1,393;   -0,955
380,578; 7808,576;   -0,153;    0,773
381,170; 7186,317;   -0,972;    0,045
381,762; 7143,324;    0,755;    1,409
382,354; 7343,553;   -0,065;   -1,318
382,945; 7444,997;   -2,976;    0,318
383,537; 7605,334;   -2,705;   -1,955
384,129; 7623,457;   -2,160;   -1,136
384,721; 7781,742;   -0,252;    0,955
385,312; 7723,075;   -0,161;   -0,955
385,904; 7787,749;   -2,706;    1,591
386,496; 7152,542;   -0,979;    1,045
387,087; 7298,223;    1,022;    2,500
387,679; 7320,201;   -1,160;    0,045
388,270; 7488,547;    2,840;    2,045
388,862; 7595,044;    1,295;   -0,318
389,453; 7484,127;   -0,887;    1,045
390,045; 7765,460;   -0,705;   -2,682
390,636; 7686,955;    0,204;   -0,591
391,227; 7547,253;   -0,523;   -0,045
391,819; 7639,448;    0,204;    0,773
392,410; 7714,890;    1,022;    0,045
393,001; 7630,611;   -0,979;   -1,591
393,593; 7928,289;    1,930;   -0,045
394,184; 7762,067;    1,385;   -0,409
394,775; 7675,280;    1,839;    2,136
395,366; 7895,586;    1,385;    0,773
395,957; 7891,377;    0,113;    0,136
396,548; 8209,124;   -0,342;    2,682
397,139; 8483,093;   -2,433;    0,591
397,730; 8183,008;   -1,888;    0,955
398,321; 8256,754;   -1,252;    0,955
398,912; 8313,972;   -0,615;    0,136
399,503; 8406,092;   -3,524;   -1,409
400,094; 7839,226;    0,294;    1,682
400,685; 7707,418;   -0,433;    0,045
401,276; 7809,139;    0,930;   -0,955
401,867; 8141,335;   -0,888;    0,773
402,458; 8187,016;   -2,251;   -2,318
403,048; 8180,977;    1,112;    0,591
403,639; 7799,317;    0,840;    0,864
404,230; 8042,191;    2,476;    0,318
404,821; 7982,729;   -0,615;    0,045
405,411; 8078,682;    1,203;   -2,591
406,002; 7676,555;   -1,252;   -1,136
406,592; 7540,664;    2,294;    0,045
407,183; 7834,538;    0,566;   -1,500
407,774; 7768,316;    3,475;   -0,136
408,364; 8074,279;    0,930;    0,409
408,954; 7682,893;    0,384;    1,227
409,545; 7751,072;    1,021;    1,045
410,135; 7335,003;    1,293;    0,500
410,726; 7468,889;    1,838;    0,318
411,316; 7804,559;    0,111;    0,773
411,906; 7495,788;   -0,253;   -0,409
412,497; 7015,699;   -1,070;   -0,045
413,087; 7616,216;   -1,980;   -0,227
413,677; 7980,284;   -0,707;    3,864
414,267; 7836,432;    0,656;    1,409
414,857; 7826,527;   -2,980;    4,227
415,448; 8105,069;    0,839;    0,500
416,038; 7776,103;    0,020;   -0,591
416,628; 7739,281;   -0,889;    0,409
417,218; 7246,716;    0,565;    3,318
417,808; 7512,175;    0,202;   -0,409
418,398; 7919,206;    0,020;    2,682
418,988; 7927,725;    2,020;    0,591
419,578; 8205,894;   -0,707;    1,409
420,168; 8532,426;   -1,343;   -0,955
420,757; 8080,645;   -1,343;   -1,500
421,347; 7769,651;    0,111;   -0,227
421,937; 7929,406;    2,292;    1,409
422,527; 7887,234;    0,838;   -0,773
423,116; 7668,327;   -0,253;   -0,045
423,706; 8017,579;   -1,889;    0,318
424,296; 8016,487;    1,384;    0,682
424,885; 8407,123;   -0,071;   -3,045
425,475; 8661,680;    1,474;   -2,864
426,065; 8583,982;   -0,980;   -0,318
426,654; 8225,256;   -0,435;   -0,318
427,244; 8316,168;    0,020;    1,409
427,833; 7791,617;    1,383;   -0,500
428,423; 8244,035;   -0,526;    1,136
429,012; 8998,601;   -0,344;   -1,136
429,601; 8499,733;   -1,344;    0,136
430,191; 8736,744;    1,292;    4,318
430,780; 8364,006;   -0,344;   -0,409
431,369; 8299,461;    0,746;   -0,045
431,959; 8912,404;   -1,254;    0,500
432,548; 8673,892;   -1,163;   -0,045
433,137; 8795,992;   -1,254;   -1,318
433,726; 9320,349;    0,292;    0,500
434,315; 8682,689;   -0,526;    2,409
434,905; 8776,295;   -1,254;    1,409
435,494; 8685,038;    0,746;    0,955
436,083; 9146,776;   -0,981;   -0,955
436,672; 9002,331;    0,110;    0,500
437,261; 8591,317;    0,292;   -1,955
437,850; 8680,734;    1,383;    0,682
438,439; 8652,913;    3,291;    1,955
439,027; 8469,373;    3,655;    1,773
439,616; 8792,056;    2,927;    1,227
440,205; 8686,283;    0,200;   -2,136
440,794; 8756,059;    2,109;   -0,045
441,383; 8978,411;   -1,346;   -0,591
441,971; 8847,408;   -2,436;    0,591
442,560; 8692,275;    0,563;   -1,773
443,149; 8458,156;    0,379;   -1,318
443,737; 8592,000;   -0,074;   -2,318
444,326; 8847,732;    0,018;    0,318
444,915; 8894,668;   -1,982;    0,864
445,503; 9236,387;   -2,891;   -0,318
446,092; 8517,484;    0,382;    2,136
446,680; 9036,677;    0,382;    0,318
447,269; 9216,744;   -0,346;   -0,318
447,857; 8982,760;    0,018;   -1,773
448,445; 9097,614;    0,563;    1,318
449,034; 9292,458;   -1,528;   -1,136
449,622; 9400,368;   -1,073;    3,500
450,210; 8659,582;    2,017;    2,227
450,799; 9179,133;    0,290;   -0,591
451,387; 9131,897;    1,381;   -0,591
451,975; 8774,616;    2,654;    0,864
452,563; 8862,753;    3,472;    2,318
453,151; 8912,321;   -0,528;   -1,227
453,739; 8831,867;   -1,347;    0,136
454,328; 8683,281;    2,381;   -2,136
454,916; 8392,505;    2,562;   -0,136
455,504; 8567,797;    1,017;    1,227
456,092; 8735,454;    0,017;   -1,591
456,679; 8726,608;    1,472;    0,682
457,267; 8650,350;    4,017;    1,045
457,855; 8792,783;    1,017;    1,409
458,443; 8563,802;   -0,165;    1,682
459,031; 8692,427;    0,108;    2,409
459,619; 9140,204;   -1,801;    2,864
460,206; 9244,424;    0,835;    2,045
460,794; 9308,647;   -2,983;   -0,227
461,382; 9528,700;   -0,529;   -0,864
461,970; 9129,912;    1,198;    1,864
462,557; 9150,941;   -0,711;   -0,682
463,145; 9321,720;   -3,165;   -1,682
463,732; 9464,108;    2,016;   -1,045
464,320; 9394,793;   -0,075;   -3,045
464,907; 9077,210;    2,743;   -0,773
465,495; 8965,580;    0,743;   -1,227
466,082; 9130,458;   -1,984;   -0,045
466,670; 9066,188;   -2,529;    1,227
467,257; 9461,377;   -1,711;    2,045
467,844; 9597,869;   -0,075;    0,045
468,432; 9606,812;    0,834;    3,500
469,019; 9120,984;    0,925;   -1,773
469,606; 9584,124;    0,470;    3,682
470,193; 9380,757;   -1,439;    0,227
470,780; 8941,522;   -2,075;    0,864
471,368; 9280,203;   -1,257;   -0,773
471,955; 9100,287;    1,379;   -0,682
472,542; 8756,701;    0,652;   -1,136
473,129; 8974,079;   -0,166;    0,136
473,716; 8727,861;    1,470;    0,591
474,303; 8886,318;    0,652;   -0,864
474,890; 9156,475;   -1,439;   -0,500
475,477; 9155,181;   -1,621;    0,409
476,064; 9054,658;    1,106;   -1,591
476,650; 8964,002;    0,288;    0,318
477,237; 8800,002;   -0,258;    0,955
477,824; 8951,764;   -1,076;    0,864
478,411; 8979,943;   -1,894;   -0,318
478,997; 9171,051;    0,560;   -0,773
479,584; 9219,225;    1,196;   -0,409
480,171; 9852,762;   -0,440;   -0,773
480,757; 9469,176;    2,651;    0,773
481,344; 9781,369;    0,469;    0,409
481,931; 9301,491;    1,105;    1,045
482,517;10173,192;   -1,258;    0,318
483,104;10648,195;    1,106;    2,864
483,690;10928,561;   -1,804;    0,045
484,276;11254,608;   -0,895;    0,227
484,863;10999,871;    2,469;    1,136
485,449;11575,985;   -0,077;    0,318
486,035;11553,110;   -1,986;   -0,136
486,622;11960,094;   -0,895;    0,045
487,208;11875,892;    1,378;    1,500
487,794;11747,210;    0,741;    0,318
488,380;11857,398;    0,105;   -1,409
488,967;11917,064;   -1,168;   -0,409
489,553;11969,718;   -1,895;   -1,409
490,139;12181,598;    1,559;    0,773
490,725;11673,875;    0,741;   -0,227
491,311;11282,113;    3,287;    3,045
491,897;10680,843;   -0,986;    1,500
492,483;10579,698;    0,105;    1,227
493,069;10385,452;    3,923;    0,864
493,655;10369,497;    1,650;    0,682
494,241;10318,190;    1,377;   -0,955
494,826;10715,809;    0,287;   -1,045
495,412;10214,748;    2,559;   -0,682
495,998;10394,787;   -0,805;   -0,318
496,584;10538,535;    0,377;    1,045
497,169;10549,149;    1,014;   -0,682
497,755;10549,782;    0,650;    1,227
498,341;11099,330;    0,559;    0,318
498,926;10673,948;    1,832;    1,955
499,512;10918,675;    1,286;    2,955
500,097;11046,831;    0,195;   -0,318
500,683;11019,549;   -0,350;    2,136
501,268;11399,127;   -0,169;   -0,955
501,854;11186,105;   -0,169;    1,227
502,439;11146,945;   -0,624;   -1,773
503,024;11363,626;    0,195;    0,500
503,610;11463,654;   -0,078;   -0,682
504,195;11511,057;    0,558;    1,955
504,780;11650,948;    2,922;    1,227
505,366;11517,580;    3,013;    2,864
505,951;11315,478;    0,740;    1,045
506,536;11367,141;   -3,260;   -3,682
507,121;11382,890;    0,285;   -0,318
507,706;11897,255;    2,376;    1,045
508,291;12330,843;    2,649;    1,136
508,876;11803,642;   -0,988;    2,591
509,461;11310,899;   -0,169;   -0,773
510,046;11750,654;    0,194;    0,318
510,631;12004,732;   -0,351;   -0,773
511,216;11677,803;    2,467;   -0,500
511,801;12093,567;   -0,442;    2,591
512,386;12400,435;    0,740;    0,500
512,971;12351,547;   -2,988;    0,955
513,555;11955,593;   -0,897;   -1,500
514,140;12766,811;   -0,442;   -3,136
514,725;12746,350;   -0,715;   -1,136
515,309;12865,073;   -0,533;    0,318
515,894;12361,041;   -0,624;   -2,227
516,479;12812,140;   -0,624;   -0,955
517,063;12636,133;    0,376;    1,227
517,648;12811,863;    1,012;   -1,136
518,232;12453,386;   -0,261;   -1,409
518,817;12795,175;   -0,079;    1,682
519,401;13025,867;    2,194;    0,591
519,985;12535,043;    1,103;    1,136
520,570;12432,360;    0,830;   -1,955
521,154;12723,158;    2,102;    0,591
521,738;12886,270;   -2,352;    2,409
522,323;13471,335;   -0,170;    1,682
522,907;13196,510;    0,466;   -0,136
523,491;12928,512;    0,557;    0,955
524,075;12922,392;    2,284;    0,591
524,659;13019,410;    1,466;    0,591
525,243;12508,352;    1,739;    0,409
525,827;12753,544;    0,648;   -0,045
526,411;13567,955;   -1,989;   -0,136
526,995;13800,478;   -0,352;    1,409
527,579;13411,869;   -0,443;   -1,045
528,163;13708,276;    0,375;   -1,500
528,747;13625,817;    2,466;   -0,773
529,331;13912,844;   -0,080;   -1,409
529,915;14131,126;    1,738;    0,955
530,499;14080,641;   -0,807;    1,227
531,082;13770,322;   -0,534;    1,591
531,666;13172,417;    1,374;    0,773
532,250;13853,334;    1,284;    2,682
532,833;14227,292;    0,920;    2,773
533,417;14078,960;   -1,807;    0,864
534,001;14084,823;    1,647;   -0,318
534,584;14773,870;    0,374;    0,500
535,168;14621,050;    0,465;    1,409
535,751;14628,357;    0,647;    0,045
536,334;14102,455;   -0,898;   -0,409
536,918;14678,393;    0,011;    1,591
537,501;14796,130;   -0,899;    1,318
538,085;14802,045;   -0,444;    1,045
538,668;14873,925;    0,829;    2,409
539,251;15200,350;    1,829;    3,773
539,834;15260,529;    0,101;    0,773
540,418;15160,308;   -1,990;    4,318
541,001;15291,363;   -0,990;    1,773
541,584;15264,277;    2,101;    2,227
542,167;15000,160;    1,374;    2,955
542,750;15150,925;    1,919;   -0,773
543,333;14732,283;    0,555;    2,136
543,916;15499,842;    0,192;    2,500
544,499;16123,183;   -1,354;    0,227
545,082;16114,882;    1,374;    3,591
545,665;16234,815;    1,919;    1,500
546,248;16583,646;    1,010;   -0,318
546,830;16264,612;   -0,445;    1,955
547,413;16671,326;    1,010;   -0,773
547,996;17187,669;    0,555;    0,500
548,579;16984,743;    0,919;    0,955
549,161;16759,442;    1,828;    2,682
549,744;16546,969;   -0,809;    0,409
550,326;17064,607;   -0,809;   -1,136
550,909;16810,951;    2,737;    0,591
551,492;17239,421;   -0,263;    0,227
552,074;17012,897;   -0,173;   -1,318
552,657;17560,230;    2,373;    0,045
553,239;17358,689;   -0,173;   -0,773
553,821;17260,037;   -1,082;    1,045
554,404;16775,563;    1,282;    1,136
554,986;17124,572;    0,464;    1,045
555,568;17712,212;    1,191;   -0,955
556,151;16931,001;    1,191;   -0,227
556,733;17162,386;   -0,264;   -0,864
557,315;17608,956;    0,100;    0,500
557,897;17422,286;    0,554;   -0,500
558,479;17529,591;   -1,991;    1,318
559,061;17665,977;   -0,719;   -0,864
559,643;18008,391;   -0,264;    0,045
560,225;18366,911;    1,645;    2,864
560,807;18394,027;    0,918;    0,318
561,389;17921,637;    0,554;    2,318
561,971;18600,848;    0,463;    2,136
562,553;18439,190;   -1,628;    1,591
563,135;18567,855;   -0,537;    1,136
563,717;18147,278;    3,372;    1,136
564,298;18842,044;    3,645;   -0,045
564,880;18567,228;    0,645;   -1,409
565,462;18716,955;    0,645;    1,318
566,043;19893,870;   -0,446;    2,318
566,625;19392,960;    1,918;    1,227
567,207;19220,064;    1,099;    1,682
567,788;20311,704;   -1,264;    1,500
568,370;21074,966;    1,917;   -0,500
568,951;20913,770;    0,190;    0,227
569,533;21765,703;   -0,628;   -0,500
570,114;22215,452;   -0,446;    0,682
570,695;22688,755;   -0,174;   -1,318
571,277;23140,855;   -0,265;   -1,682
571,858;23846,605;    2,008;   -1,136
572,439;24710,746;    1,554;   -1,045
573,021;24878,363;    2,099;   -2,773
573,602;25315,535;   -1,265;    0,318
574,183;26238,787;   -2,083;    2,227
574,764;26335,208;   -1,629;    0,409
575,345;26868,398;    0,917;   -0,136
575,926;27496,834;   -0,356;    0,136
576,507;27443,261;    1,099;   -0,227
577,088;28543,049;    3,099;    1,682
577,669;28555,578;    0,735;    1,955
578,250;29212,150;    0,644;   -1,045
578,831;29841,236;   -1,356;   -2,227
579,412;30125,458;   -0,810;    0,955
579,993;31079,248;    1,008;    0,227
580,573;31353,734;   -0,629;   -0,955
581,154;30345,518;    0,735;   -0,591
581,735;31114,092;    0,644;    0,773
582,315;30689,183;   -0,629;    2,136
582,896;31005,481;   -0,174;    1,227
583,477;30520,590;    0,189;    1,227
584,057;30696,581;    0,553;    0,955
584,638;30962,703;    2,553;    2,318
585,218;30964,489;   -0,538;    2,682
585,799;31112,695;    0,281;   -0,227
586,379;31149,140;    0,372;    1,591
586,959;29962,393;    0,735;    0,318
587,540;29370,506;   -0,629;    2,227
588,120;28900,922;    1,007;   -0,045
588,700;27937,298;    2,553;    2,136
589,281;28197,309;    0,462;   -0,955
589,861;28139,617;    0,099;   -1,682
590,441;27959,311;    2,371;   -2,682
591,021;26950,065;   -0,265;   -2,591
591,601;27172,710;   -0,537;    0,500
592,181;27217,101;   -0,719;   -0,773
592,761;26542,849;    0,007;    1,409
593,341;26435,089;   -0,901;    0,045
593,921;26430,654;   -0,265;    1,591
594,501;26343,878;   -0,538;    1,318
595,081;26164,774;    0,917;   -0,318
595,661;26518,207;   -1,447;    0,955
596,240;27064,650;   -0,537;    0,136
596,820;26664,393;    0,372;    1,955
597,400;26812,053;    2,008;    0,773
597,980;27058,856;    2,008;    1,045
598,559;27059,687;    2,735;   -0,227
599,139;26782,419;   -0,174;   -1,227
599,718;26660,965;   -0,174;   -0,409
600,298;26938,718;    0,735;    0,682
600,877;27218,131;    2,917;    1,409
601,457;27529,784;    2,281;    1,136
602,036;27361,255;    0,190;    2,045
602,616;27522,583;    0,644;    1,682
603,195;27865,601;   -0,355;    3,500
603,774;27424,575;   -0,901;    2,045
604,354;27321,273;    0,826;   -0,500
604,933;26810,163;    0,463;    1,864
605,512;26953,154;    3,554;    0,591
606,091;27040,747;   -0,537;    3,773
606,671;27828,936;    0,281;    0,773
607,250;26929,483;    1,644;    3,136
607,829;27187,738;    2,372;    3,227
608,408;27092,442;    1,190;    2,591
608,987;26101,146;    1,281;    3,409
609,566;26366,480;   -1,265;   -2,500
610,145;26468,846;   -1,082;    0,682
610,723;26924,970;    4,372;    6,864
611,302;26200,048;   -0,446;    1,682
611,881;25679,782;    5,008;   11,227
612,460;26505,753;    1,645;    3,955
613,039;26973,951;   -0,082;    2,045
613,617;25719,317;    1,736;    4,773
614,196;25919,966;    1,099;    1,227
614,775;26246,737;    1,009;    2,409
615,353;26159,243;    0,736;    0,864
615,932;25899,397;    0,100;    2,409
616,510;26513,827;    0,554;    0,591
617,089;25980,459;    7,100;   17,591
617,667;25790,852;    2,372;    6,136
618,246;25661,146;   -1,537;    1,318
618,824;25784,664;   -3,355;   -0,955
619,402;25384,029;   -2,900;   -1,773
619,981;25871,200;   -0,173;   -1,045
620,559;25748,254;    0,009;    1,682
621,137;25336,319;   -0,718;    1,864
621,715;25319,171;   -1,173;   -0,682
622,293;25223,015;   -0,537;   -0,773
622,871;25690,865;   -0,718;    0,500
623,450;25286,393;    0,373;   -0,864
624,028;25194,647;    0,191;   -0,955
624,606;24781,761;   -1,718;    1,682
625,183;25255,356;   -1,536;   -1,136
625,761;24799,537;    1,009;    1,136
626,339;25081,461;    1,373;    2,591
626,917;25482,157;   -0,172;   -0,045
627,495;25522,099;   -0,354;    1,318
628,073;24995,573;   -0,263;    2,864
628,650;24674,470;    0,100;    2,136
629,228;25113,966;    0,373;    4,409
629,806;24507,744;    2,282;    1,136
630,383;24775,337;    1,464;   -0,318
630,961;24562,138;    2,555;   -0,955
631,539;24303,850;    2,464;    0,227
632,116;23654,047;   11,373;   15,409
632,694;24276,975;    2,555;    6,500
633,271;24566,708;    0,828;    2,682
633,848;24503,810;    1,828;    2,045
634,426;24520,397;   -1,081;    1,773
635,003;23681,794;    1,101;   -0,409
635,580;23966,245;    1,192;    3,682
636,158;24596,600;    3,737;    1,227
636,735;24548,102;    0,555;   -0,500
637,312;24650,874;   -0,809;   -0,682
637,889;24759,272;   -4,354;   -0,682
638,466;24236,695;   -3,990;   -0,409
639,043;24238,522;    2,101;   -1,136
639,620;24577,673;   -2,262;   -0,955
640,197;24838,720;    1,100;    1,682
640,774;25004,949;   -0,172;    1,136
641,351;25391,178;    0,737;    1,136
641,928;24813,952;   -0,627;    1,409
642,505;24463,545;    0,828;   -0,500
643,082;24602,410;   -1,718;    1,227
643,658;23655,457;   -0,718;    1,500
644,235;24373,777;    1,191;    2,500
644,812;24601,824;    1,918;    0,773
645,388;24365,962;   -0,991;    1,409
645,965;24519,373;   -0,809;    1,682
646,542;24535,238;   -1,445;   -0,227
647,118;24526,831;    1,009;   -0,955
647,695;24822,242;   -0,263;    1,136
648,271;24758,289;   -0,536;    0,500
648,848;25081,881;    0,736;    2,227
649,424;24919,656;    0,827;    1,318
650,000;24658,339;   -0,354;   -1,045
650,577;24453,659;   -0,627;   -0,955
651,153;24951,342;   -1,809;    0,955
651,729;25905,935;    1,191;    0,864
652,305;26026,437;    0,645;    2,773
652,881;29998,757;   -0,082;    1,136
653,458;36574,531;    1,100;    0,227
654,034;40353,124;    0,282;    1,591
654,610;41875,352;    0,554;    0,773
655,186;43182,127;    0,645;    3,045
655,762;42879,265;   -0,991;    0,409
656,338;42852,039;    0,100;    0,136
656,913;43895,541;   -0,082;    0,409
657,489;43165,497;    0,827;   -0,318
658,065;43082,817;   -0,173;   -1,591
658,641;43805,591;   -0,900;   -0,864
659,217;43213,820;   -0,991;    0,409
659,792;42588,504;    0,645;   -0,409
660,368;42800,824;   -2,173;   -0,682
660,944;42560,780;   -2,082;    1,227
661,519;38436,645;   -0,628;    0,409
662,095;32752,329;   -1,719;    0,591
662,670;28139,376;    1,281;   -0,136
663,246;26917,787;    1,009;   -0,409
663,821;26181,834;    0,281;    1,682
664,396;25676,699;    0,009;    1,864
664,972;25909,837;    0,009;   -0,500
665,547;26259,793;    1,372;    0,136
666,122;26273,113;   -1,082;    0,318
666,698;26526,342;   -0,173;    0,318
667,273;25876,480;   -0,173;    0,136
667,848;26751,073;    2,372;    1,500
668,423;26467,665;    2,190;    2,318
668,998;27039,349;    2,827;   -0,682
669,573;27642,032;   -3,264;   -1,500
670,148;27358,534;   -1,446;   -0,682
670,723;27242,126;   -1,810;    0,318
671,298;27620,901;    2,372;    1,045
671,873;27751,221;   -0,082;   -0,136
672,448;27687,722;    0,645;    0,136
673,023;27990,679;   -1,992;   -0,227
673,597;28325,817;    0,827;    2,318
674,172;28145,500;   -0,355;    0,318
674,747;27652,274;    0,372;   -1,045
675,321;27472,867;   -0,628;    3,318
675,896;27082,732;    0,645;    1,045
676,471;27986,961;    2,645;    1,591
677,045;27778,008;   -1,264;    0,682
677,620;27874,692;    0,190;    1,136
678,194;28182,284;   -2,628;    1,136
678,769;27751,877;   -1,083;   -0,318
679,343;28004,197;   -0,628;    1,773
679,917;27835,426;   -1,446;    1,955
680,492;27956,382;    0,826;    3,227
681,066;28050,066;    3,372;    0,409
681,640;28116,476;    1,463;   -0,318
682,214;28910,978;    0,735;    0,500
682,788;28382,207;   -1,356;   -0,773
683,363;28316,709;   -1,810;    1,682
683,937;28064,392;   -1,719;   -0,318
684,511;28877,257;    0,463;   -0,591
685,085;28526,214;   -1,356;    0,318
685,659;28321,897;   -2,538;    0,864
686,232;28592,490;   -0,356;   -0,318
686,806;28303,537;   -0,901;    0,409
687,380;28937,311;   -0,174;    0,591
687,954;29144,267;   -1,174;    1,136
688,528;28763,042;   -0,719;    1,955
689,101;29609,089;   -3,992;    1,045
689,675;29155,136;   -0,356;   -0,136
690,249;28560,729;   -0,719;    0,409
690,822;28844,776;    0,280;    0,318
691,396;28959,277;   -0,265;    1,227
691,969;28439,961;    1,280;    0,136
692,543;28856,917;   -0,447;   -1,955
693,116;28523,419;   -0,265;   -1,409
693,690;28430,648;    0,099;    0,500
694,263;28988,786;   -1,083;    2,955
694,836;28989,196;    1,371;    3,591
695,410;27656,334;   -0,265;    1,773
695,983;28136,472;    0,189;    0,591
696,556;28112,156;   -0,447;   -1,045
697,129;28485,021;   -0,356;    1,409
697,703;28131,796;   -1,629;    1,955
698,276;28114,025;    1,462;   -0,773
698,849;27983,708;    1,280;    1,409
699,422;28311,119;   -1,083;    0,591
699,995;27964,984;    0,007;    0,136
700,568;28533,395;   -0,629;    3,045
701,140;28566,715;   -2,811;    1,682
701,713;28201,216;   -0,174;    2,409
702,286;27950,991;   -0,538;    0,864
702,859;27916,129;   -0,902;   -0,591
703,432;27066,721;    0,825;    0,682
704,004;27560,859;    0,462;    0,318
704,577;27493,452;   -0,629;    0,136
705,150;27981,317;    0,189;    2,500
705,722;27753,274;   -0,356;   -3,227
706,295;27600,048;   -0,175;   -0,591
706,867;27416,095;   -0,175;    1,955
707,440;27640,415;   -1,720;   -0,409
708,012;27857,826;    0,462;    0,591
708,584;27795,691;    2,462;    0,227
709,157;28122,920;    1,825;   -0,591
709,729;27783,785;    2,280;    2,045
710,301;28650,651;    0,734;    0,045
710,874;28593,970;   -1,447;   -0,227
711,446;27479,290;    0,371;    0,864
712,018;27387,428;    0,098;    0,500
712,590;27130,384;   -1,993;    1,682
713,162;27622,341;    0,825;    1,318
713,734;27866,388;    1,825;   -2,045
714,306;27828,253;   -1,902;   -0,409
714,878;26562,391;    0,825;    0,864
715,450;27319,893;    0,643;    0,864
716,022;27605,122;    1,552;    1,318
716,593;27771,623;    0,189;    0,591
717,165;27676,761;   -3,175;   -1,227
717,737;27377,536;    0,280;    0,409
718,309;27073,674;    0,280;   -0,045
718,880;27024,448;   -0,539;   -1,409
719,452;27218,404;   -0,175;   -1,591
720,024;26817,361;    0,734;   -0,591
720,595;27334,044;   -2,902;    0,955
721,167;26939,000;    0,370;   -2,045
721,738;26417,320;   -0,812;   -1,045
722,309;26433,095;   -0,993;   -1,227
722,881;26201,051;   -1,357;    0,773
723,452;26812,734;   -2,630;    2,864
724,023;26984,418;   -0,721;    2,682
724,595;26795,374;    0,007;    0,682
725,166;26510,876;    0,007;   -0,409
725,737;26174,286;    1,734;    0,227
726,308;26292,152;   -0,266;    0,318
726,879;26701,472;   -1,630;    1,227
727,450;26558,791;    0,552;   -0,045
728,021;26554,202;    3,097;    0,682
728,592;26368,340;    0,734;    0,500
729,163;26631,206;    0,643;   -0,136
729,734;26620,162;    0,188;   -0,227
730,305;26993,845;    1,734;    0,136
730,876;27332,801;    0,188;    2,955
731,447;27015,485;    2,188;    2,682
732,017;27145,441;    1,097;    1,864
732,588;26618,670;    0,734;    1,227
733,159;26817,263;    0,643;   -1,045
733,729;26644,946;    0,006;    0,409
734,300;25958,448;    0,915;    0,864
734,870;26368,404;    3,461;    0,591
735,441;26931,178;    0,370;   -0,591
736,011;26706,407;    0,643;   -1,591
736,582;26671,091;   -0,812;    0,045
737,152;26107,047;   -1,721;   -2,045
737,722;26528,731;   -0,267;   -0,682
738,293;26293,869;   -1,358;    1,318
738,863;26171,643;    2,461;    2,318
739,433;25974,690;    5,279;    0,318
740,003;26609,283;   -0,994;   -0,682
740,573;26025,148;    2,097;   -1,591
741,143;25967,741;   -1,085;    0,318
741,713;26718,151;    1,188;   -0,500
742,283;26448,108;    0,915;    1,591
742,853;26205,882;    1,915;    1,591
743,423;25665,384;    1,733;    0,045
743,993;25801,885;   -0,358;    1,500
744,563;25196,932;    0,097;   -0,864
745,133;25214,798;   -0,812;   -0,864
745,702;25881,572;   -0,267;    1,773
746,272;25044,983;   -0,176;    0,591
746,842;24887,121;   -1,358;   -0,591
747,411;25264,623;   -0,267;   -0,318
747,981;25440,761;    0,097;    0,500
748,551;25551,262;    2,278;   -1,045
749,120;25387,037;    0,642;   -0,227
749,690;25784,447;   -0,631;    2,409
750,259;26062,495;    1,369;    2,955
750,828;25990,905;    1,551;   -1,955
751,398;26214,861;    1,278;   -0,045
751,967;25703,090;    2,187;    0,409
752,536;26020,410;   -0,813;   -0,227
753,105;26377,276;    0,096;    0,227
753,675;26133,868;    0,096;    1,773
754,244;26125,370;   -0,904;    3,591
754,813;26149,690;    0,551;    1,227
755,382;25740,646;    0,460;    0,955
755,951;26257,511;    1,551;    3,682
756,520;25783,195;   -0,085;    1,864
757,089;26339,424;    0,278;    0,500
757,658;26446,653;    1,733;    1,227
758,227;26482,791;    1,096;    0,318
758,795;26770,020;    1,187;    1,136
759,364;27040,976;   -0,086;   -0,591
759,933;26059,477;   -1,176;   -0,045
760,501;25655,706;    0,733;   -1,318
761,070;26059,390;   -2,813;   -1,409
761,639;26746,437;   -1,904;    1,318
762,207;26063,120;    1,551;   -0,955
762,776;26007,349;    0,369;    0,864
763,344;25954,942;   -0,995;    0,591
763,913;25115,807;   -0,722;    1,409
764,481;25861,036;    1,005;   -0,136
765,049;25656,992;   -1,358;    1,409
765,618;25532,040;   -0,086;    0,318
766,186;25604,541;    0,278;    0,136
766,754;25807,043;    0,005;    1,864
767,322;24804,726;   -1,995;    0,409
767,890;24898,137;   -0,722;   -1,773
768,459;25298,457;   -2,177;   -0,318
769,027;25405,231;    1,641;    3,409
769,595;24349,551;    3,278;    2,591
770,163;24857,144;    3,823;    2,955
770,730;24652,918;    0,732;   -0,136
771,298;24466,420;    0,187;   -1,409
771,866;24578,012;   -1,541;    4,955
772,434;24916,241;   -0,631;   -1,864
773,002;25062,743;    0,005;    0,682
773,569;24709,154;    0,914;    1,682
774,137;24538,474;   -0,268;   -0,045
774,705;25364,703;    0,278;   -0,136
775,272;24855,295;    0,641;    0,682
775,840;24590,342;   -0,177;    2,682
776,407;24100,026;    0,277;    1,955
776,975;23750,800;   -0,632;    0,318
777,542;24715,302;   -1,086;   -0,045
778,110;24563,622;   -1,268;   -0,045
778,677;24306,851;   -2,359;   -0,864
779,244;24004,352;    2,186;    1,045
779,812;24058,945;    1,823;    0,864
780,379;23945,083;    0,005;    1,136
780,946;24230,403;    1,005;   -0,773
781,513;24555,723;   -1,450;    0,318
782,080;23932,406;   -0,086;    2,864
782,647;24647,999;   -0,268;    3,045
783,214;24273,319;   -0,177;    3,864
783,781;23884,547;   -0,723;   -0,682
784,348;23703,595;   -0,632;    1,500
784,915;24187,369;   -3,177;    0,318
785,482;23963,780;    1,368;    2,591
786,049;24358,918;    0,186;   -0,591
786,615;24552,238;    0,277;   -0,955
787,182;24315,012;    0,186;   -0,682
787,749;23960,332;   -2,814;    1,409
788,315;23307,015;   -1,632;   -0,409
788,882;23592,517;    1,550;   -1,227
789,448;24271,746;    1,732;   -0,955
790,015;24305,702;    1,095;    3,227
790,581;23851,477;    1,459;    0,227
791,148;23721,524;    0,641;    1,045
791,714;23969,571;   -0,541;    3,136
792,280;23659,254;    0,186;    1,591
792,847;23209,210;    0,550;    2,500
793,413;23829,167;   -0,269;   -0,318
793,979;23349,396;    3,459;   -1,318
794,545;23413,625;    4,459;    2,682
795,111;22778,217;    2,186;    1,318
795,678;22992,719;    0,731;   -1,682
796,244;22642,039;    3,368;    0,136
796,810;23163,449;    1,731;    0,773
797,375;22931,497;    0,549;   -2,136
797,941;22952,907;   -0,541;    0,591
798,507;23094,136;   -0,451;   -0,955
799,073;22688,547;   -0,360;    0,591
799,639;22750,049;   -2,632;    3,136
800,205;22797,187;    0,095;    2,682
800,770;22331,143;    0,640;    1,773
801,336;22403,008;    1,368;   -0,955
801,901;22063,510;    4,549;    3,136
802,467;22693,193;   -0,542;    2,045
803,033;22019,786;   -0,087;    0,864
803,598;22254,106;    1,913;   -1,045
804,163;22287,698;    1,095;   -0,318
804,729;22236,927;   -0,178;    1,136
805,294;22625,429;    0,822;    2,227
805,859;22411,203;    0,731;   -0,409
806,425;21844,341;    1,186;    2,682
806,990;21560,934;    2,186;    4,318
807,555;22072,981;   -1,451;    2,591
808,120;21902,028;    0,822;   -0,409
808,685;21965,439;    0,185;   -2,500
809,250;21504,577;    0,004;   -0,500
809,815;21795,715;    1,913;    0,682
810,380;22302,126;   -0,269;    1,591
810,945;22796,446;   -1,087;    2,045
811,510;22011,493;    2,094;    1,591
812,075;21755,904;   -0,633;   -1,409
812,640;21779,587;    2,003;    1,409
813,204;21825,452;    0,822;   -0,227
813,769;22325,863;    2,094;   -0,045
814,334;21767,274;    0,458;    0,864
814,898;21765,048;    0,367;    0,591
815,463;21621,641;    1,276;   -0,773
816,027;21617,233;   -0,724;   -2,318
816,592;21713,644;    0,640;   -2,045
817,156;21268,419;    2,094;    1,136
817,721;21071,102;    4,276;    2,318
818,285;21055,695;    2,912;    1,500
818,849;21719,651;   -1,451;    1,682
819,414;21611,789;   -0,269;    2,955
819,978;21186,109;   -1,269;    1,773
820,542;21752,065;    2,003;    0,500
821,106;21466,657;   -0,815;    0,682
821,670;21559,523;   -0,815;    2,591
822,234;21299,843;   -0,270;    1,409
822,798;20707,526;    0,003;    0,500
823,362;20671,846;   -0,633;    4,227
823,926;19978,166;    0,094;    1,136
824,490;20235,577;   -0,997;   -0,682
825,054;20685,533;   -0,088;   -1,136
825,618;20298,398;   -1,542;   -1,500
826,181;20233,809;    0,458;   -1,318
826,745;20128,311;    1,367;   -1,045
827,309;20457,358;    1,185;    1,318
827,872;19856,587;    1,367;    0,955
828,436;20850,906;    1,185;   -0,773
828,999;20930,590;   -0,997;    1,227
829,563;19709,728;   -0,179;    1,136
830,126;19554,230;   -0,179;   -0,591
830,690;19576,731;   -1,997;    2,864
831,253;19099,233;   -0,543;    2,227
831,816;19229,007;   -1,906;    0,500
832,380;19161,418;    0,185;    0,864
832,943;19363,647;   -1,361;   -0,500
833,506;18866,512;    2,639;   -1,227
834,069;19669,923;    3,912;   -0,955
834,632;19702,697;    1,730;    1,318
835,195;19610,745;    1,003;    0,955
835,758;18811,155;   -0,997;    1,955
836,321;18688,475;    0,730;   -1,045
836,884;18792,341;   -0,725;   -0,955
837,447;18761,569;   -2,816;    1,773
838,010;19054,798;    0,366;    3,227
838,573;19354,118;   -1,179;    0,773
839,135;19316,256;   -1,361;   -0,955
839,698;18789,394;    1,275;    0,409
840,261;18304,805;    1,003;   -0,227
840,823;18180,125;   -0,543;    0,864
841,386;18457,627;   -0,452;   -2,409
841,948;18283,219;   -1,361;    1,773
842,511;18064,357;    0,912;    1,682
843,073;18211,859;    1,912;    0,227
843,636;18012,270;   -0,361;   -0,227
844,198;17922,499;    0,911;    0,591
844,760;18094,637;    1,093;    1,955
845,322;17752,047;    0,548;    1,136
845,885;18141,276;    0,730;    0,591
846,447;18585,051;   -1,998;    0,227
847,009;18148,916;    1,911;   -0,682
847,571;18486,690;    0,820;   -2,045
848,133;18592,828;   -1,089;   -1,864
848,695;18410,239;   -0,543;    1,409
849,257;17964,195;   -1,089;   -1,682
849,819;18134,061;   -0,998;   -0,409
850,381;18168,653;   -0,725;   -0,864
850,942;18528,155;    1,093;   -0,591
851,504;18503,657;    1,184;    0,227
852,066;18502,340;    1,275;   -1,591
852,628;18053,205;   -0,180;    1,955
853,189;17639,253;    1,638;    2,682
853,751;17739,300;   -0,907;    1,409
854,312;17523,801;   -0,453;   -1,682
854,874;18023,667;   -2,089;   -0,773
855,435;18538,259;   -0,907;   -1,682
855,997;18720,397;   -1,816;   -0,136
856,558;18050,081;    0,366;    1,773
857,119;18166,401;    0,820;    2,864
857,681;17855,084;    0,002;    0,318
858,242;17851,222;    1,911;   -2,136
858,803;18291,360;    0,456;   -0,773
859,364;18920,589;    0,184;   -4,773
859,925;18204,091;   -2,453;   -0,955
860,486;18107,501;   -0,453;   -0,955
861,047;17820,730;   -0,544;   -1,227
861,608;17613,050;   -1,089;   -0,773
862,169;17771,643;    0,638;   -0,045
862,730;17527,599;    0,456;    1,409
863,291;17771,737;   -0,635;   -0,500
863,852;18140,330;   -0,635;    1,955
864,412;17624,649;   -0,271;   -0,864
864,973;16224,242;   -0,089;    0,500
865,534;16100,380;   -1,726;    0,227
866,094;17568,518;    1,820;    0,227
866,655;17214,474;    1,274;    3,318
867,215;17530,612;    0,274;    0,136
867,776;17397,114;    0,547;   -0,136
868,336;17439,434;   -1,453;    0,136
868,897;16932,754;    2,638;    1,682
869,457;16699,801;    1,365;    0,318
870,017;16932,212;    0,547;   -1,227
870,578;17420,168;   -0,817;    0,773
871,138;17087,942;   -2,089;   -0,955
871,698;16711,898;   -0,817;   -1,318
872,258;16595,309;   -0,453;   -2,864
872,818;16892,084;    2,729;    0,045
873,378;16885,949;    0,638;    1,045
873,938;16433,905;    0,547;    0,500
874,498;16777,589;    0,274;   -1,955
875,058;16689,545;    2,183;    1,773
875,618;16558,683;    1,910;   -2,682
876,177;16477,457;    1,274;    0,136
876,737;16065,232;   -0,090;    1,955
877,297;16029,188;    0,183;    1,955
877,856;16050,053;   -0,362;    0,318
878,416;16013,282;    1,183;   -0,136
878,976;16239,238;   -1,817;    0,409
879,535;16437,195;    0,092;    3,136
880,095;16154,514;   -0,544;    0,045
880,654;16258,016;   -1,090;    1,318
881,213;16364,245;    2,456;    1,500
881,773;15966,110;    2,637;    2,682
882,332;16331,066;    3,365;    5,136
882,891;16206,659;    3,092;    2,136
883,451;16682,888;   -1,272;    1,682
884,010;16145,844;   -2,908;   -0,409
884,569;16257,528;   -0,999;   -0,045
885,128;16363,120;    2,819;   -1,864
885,687;16416,258;    4,455;    0,682
886,246;16088,124;    1,455;    2,136
886,805;15885,080;    2,455;    2,045
887,364;16189,581;   -0,999;   -0,500
887,922;16524,901;   -1,181;    0,045
888,481;16033,221;   -1,545;    0,591
889,040;16323,450;    1,183;    2,136
889,599;16997,679;    2,455;    1,409
890,157;17080,453;    1,455;    2,409
890,716;16747,864;   -0,090;    0,227
891,274;16536,548;    0,092;   -1,136
891,833;17016,231;    1,546;    0,864
892,391;16896,460;   -0,454;    0,500
892,950;16964,053;    1,819;   -0,773
893,508;17281,373;    0,455;   -0,409
894,067;16652,783;    0,637;    0,136
894,625;16558,194;   -0,636;   -1,500
895,183;16777,241;   -0,363;   -0,682
895,741;16663,470;    1,728;   -1,773
896,299;16499,972;   -0,545;   -2,409
896,858;16733,473;    0,819;   -1,591
897,416;16890,612;    2,728;   -1,318
897,974;16571,750;    1,819;    0,318
898,532;16705,797;    6,091;    2,682
899,089;16650,571;    2,091;   -0,682
899,647;16711,436;   -1,454;    1,318
900,205;16410,938;    1,182;    1,045
900,763;16595,803;   -0,454;    0,227
901,321;16627,850;    2,364;   -1,409
901,878;16041,716;   -1,000;   -0,773
902,436;15951,308;   -1,363;    1,318
902,994;16311,083;    4,728;    3,682
903,551;15775,312;    0,728;    0,409
904,109;16160,995;    0,182;   -1,409
904,666;15751,951;    2,455;    1,045
905,224;15606,998;    0,182;   -0,409
905,781;15347,682;    0,727;   -0,318
906,338;15379,911;   -1,363;    1,045
906,895;15336,413;    0,637;    2,045
907,453;15227,278;    1,727;    1,136
908,010;15315,416;   -0,909;    0,409
908,567;14960,827;    1,273;    0,591
909,124;14467,056;    0,364;   -1,500
909,681;14584,012;   -2,909;    0,682
910,238;14703,332;    0,636;   -1,318
910,795;15041,561;   -0,273;   -1,136
911,352;14667,833;   -2,909;   -2,682
911,909;14044,652;   -1,364;   -0,864
912,466;14536,924;   -3,182;    1,500
913,022;14134,833;   -1,636;    0,500
913,579;14496,561;   -0,909;    2,045
914,136;14219,015;    1,636;    0,955
914,692;14554,561;    0,091;   -1,227
915,249;14147,742;    1,455;    0,409
915,806;14362,379;    0,182;    1,955
916,362;14101,833;    1,909;    1,864
916,918;13663,197;    2,000;    1,045
917,475;13620,652;   -1,182;    0,955
918,031;13709,833;    3,364;   -0,045
918,587;13180,197;   -0,909;   -0,318
919,144;13403,561;   -2,273;    0,227
919,700;13700,561;    1,727;    0,773
920,256;13292,379;    0,727;    0,045
920,812;12904,742;   -0,727;   -1,045
921,368;12923,288;   -1,727;   -1,045
921,924;12595,106;    0,182;   -0,136
922,480;12171,561;   -0,545;    1,227
923,036;12764,288;    1,273;    1,955
923,592;12708,470;    0,455;    0,318
924,148;12590,652;    0,455;   -0,955
924,704;11918,379;   -1,364;   -0,409
925,259;12239,379;   -0,273;    0,591
925,815;11972,470;    1,455;    0,500
926,371;11541,379;    2,909;    1,409
926,926;11402,470;    2,091;    0,591
927,482;11031,833;   -1,364;    0,773
928,037;10929,561;    0,909;    2,045
928,593;11201,470;    1,636;    1,045
929,148;11031,197;   -1,818;   -1,500
929,704;10554,197;   -1,455;   -0,500
930,259;10773,288;    0,091;   -0,136
930,814; 9865,379;   -0,818;    1,955
931,369; 9538,015;    1,091;   -0,773
931,925; 9409,652;   -0,091;    0,136
932,480; 9334,379;   -2,818;   -2,591
933,035; 9219,652;    0,545;   -0,318
933,590; 8984,379;    0,364;   -1,773
934,145; 8635,742;   -1,364;   -0,318
934,700; 8984,833;    0,455;   -0,591
935,255; 8792,742;   -0,091;    0,045
935,809; 8089,015;    3,182;    0,864
936,364; 7249,924;   -0,455;   -0,136
936,919; 7211,742;    0,455;   -1,773
937,474; 7105,742;    1,455;    0,136
938,028; 6863,924;   -1,636;    1,136
938,583; 6358,924;    1,818;    4,682
939,138; 6635,379;    2,091;    2,136
939,692; 6102,652;    1,636;   -1,136
940,247; 5799,924;   -0,727;   -1,045
940,801; 5396,924;   -0,636;    0,227
941,355; 5285,652;   -0,364;    2,591
941,910; 4928,379;   -0,273;   -2,136
942,464; 5040,833;   -0,818;   -0,318
943,018; 4805,015;    1,000;   -0,227
943,572; 4778,106;    2,545;   -0,682
944,126; 4215,833;    0,091;   -0,409
944,681; 4103,652;    3,091;    0,227
945,235; 4069,106;    1,000;   -0,591
945,789; 4037,470;    0,364;   -1,864
946,342; 4133,742;    0,455;   -0,591
946,896; 3941,833;   -2,273;    0,955
947,450; 3717,288;    1,545;   -0,227
948,004; 3888,015;    1,727;   -0,045
948,558; 3897,470;    0,273;   -0,864
949,111; 3830,652;   -0,273;   -0,318
949,665; 3865,742;    1,636;   -0,682
950,219; 3725,379;   -0,091;   -1,045
950,772; 3810,470;   -1,909;    1,864
951,326; 3709,470;    0,545;   -0,955
951,879; 3805,015;    0,727;   -2,318
952,433; 3828,833;    0,000;    2,227
952,986; 3675,288;    2,909;    0,682
953,539; 3636,652;   -0,273;    0,591
954,093; 3584,924;    0,545;   -1,318
954,646; 3703,833;    0,909;    1,318
955,199; 3514,470;    0,000;   -0,500
955,752; 3404,288;   -0,455;    1,773
956,305; 3349,833;   -0,091;    2,955
956,858; 3530,561;    0,818;   -0,318
957,411; 3685,561;   -0,545;    2,136
957,964; 3527,197;    1,364;    2,136
958,517; 3527,015;   -1,545;    3,136
959,070; 3379,379;   -0,455;    1,955
959,623; 3449,924;    1,091;    1,500
960,176; 3200,106;    1,727;    2,045
960,728; 3186,561;   -2,727;    0,773
961,281; 3248,197;    0,545;    0,500
961,834; 3289,924;   -0,909;    0,864
962,386; 3206,015;    1,727;    1,045
962,939; 3121,015;    0,364;   -0,318
963,491; 3267,561;    0,455;    1,136
964,043; 3122,288;    1,182;    2,409
964,596; 3266,742;   -1,000;    2,227
965,148; 3111,106;   -1,000;    1,773
965,700; 3027,561;    1,091;   -0,227
966,253; 3176,197;   -0,636;    0,318
966,805; 3021,379;   -2,273;    0,773
967,357; 3059,379;    1,091;   -1,500
967,909; 3022,379;    0,455;   -1,227
968,461; 3139,197;    0,545;    3,136
969,013; 3080,561;   -0,182;   -0,864
969,565; 3142,288;   -0,455;   -1,136
970,117; 3209,015;   -0,364;    1,045
970,669; 3041,288;    0,182;   -0,136
971,220; 2931,379;   -0,455;   -1,500
971,772; 2836,379;   -0,636;   -0,318
972,324; 2954,106;    0,091;   -0,500
972,876; 2908,106;    0,818;   -0,045
973,427; 3042,470;    1,909;   -1,045
973,979; 3011,106;   -0,727;   -2,500
974,530; 3037,379;    1,818;    1,318
975,082; 3040,015;   -0,545;    1,682
975,633; 2941,015;    1,091;    1,682
976,184; 3073,197;    0,909;    0,773
976,736; 2886,561;    0,091;    0,227
977,287; 2702,561;   -0,909;   -0,500
977,838; 2861,561;    0,909;   -0,318
978,389; 2925,106;   -1,000;   -0,500
978,940; 2805,106;    0,545;   -0,409
979,491; 2824,561;    0,091;   -0,500
980,042; 2798,015;    0,182;    3,045
980,593; 2849,288;   -2,545;    0,227
981,144; 2895,197;    2,545;   -0,500
981,695; 2859,833;    1,455;    1,500
982,246; 2831,197;   -0,273;    1,045
982,797; 2982,197;   -1,727;    0,682
983,347; 3084,470;    0,364;    0,591
983,898; 3247,197;    3,091;    0,409
984,449; 3069,561;    2,182;    0,773
984,999; 2973,470;    1,455;   -1,136
985,550; 2782,742;    0,182;   -0,318
986,100; 2809,470;   -0,455;   -0,318
986,651; 2847,742;   -0,818;    0,045
987,201; 2828,652;   -1,000;   -0,591
987,751; 2902,742;    0,818;    2,864
988,302; 2872,561;    2,636;    1,500
988,852; 2883,470;    0,455;   -1,136
989,402; 2930,288;    0,091;    0,682
989,952; 2863,561;   -2,182;    0,864
990,502; 2977,561;   -0,091;    0,682
991,052; 2925,288;   -0,727;    0,045
991,602; 2799,924;   -2,909;    1,318
992,152; 2793,833;    0,455;    0,682
992,702; 2776,652;    1,364;   -0,045
993,252; 2709,561;   -3,000;   -0,500
993,802; 2786,742;   -0,273;    1,318
994,352; 3032,197;   -1,545;    1,136
994,901; 3111,015;   -0,182;    3,227
995,451; 3029,561;   -0,182;    0,318
996,000; 3104,015;    1,636;    0,318
996,550; 2837,015;    2,273;    0,227
997,100; 2829,379;    1,273;   -0,045
997,649; 3108,833;    2,182;    0,955
998,198; 2767,015;    1,727;   -1,500
998,748; 2955,106;    1,091;   -2,318
999,297; 2865,561;   -0,818;   -0,409
999,846; 2925,924;    1,000;   -0,773
1000,395; 2953,288;   -0,818;    0,500
1000,945; 2912,015;    1,818;   -0,773
1001,494; 2983,833;    2,364;    0,682
1002,043; 2982,015;    4,636;    0,864
1002,592; 2843,924;   -1,091;    1,955
1003,141; 2988,833;   -0,455;   -0,682
1003,690; 2845,379;    1,727;    0,500
1004,238; 2917,652;    1,455;   -0,045
1004,787; 2563,197;    1,364;    1,227
1005,336; 2808,197;    0,364;    0,682
1005,885; 2934,833;    1,364;   -2,773
1006,433; 3075,197;    0,545;    0,955
1006,982; 3139,470;    0,455;    1,682
1007,531; 3054,106;   -1,818;   -0,227
1008,079; 3007,288;   -2,273;    0,500
1008,627; 3135,924;   -1,455;    0,409
1009,176; 2880,470;    0,000;   -1,955
1009,724; 2923,470;    1,091;    0,864
1010,273; 2974,106;    1,273;    0,500
1010,821; 3094,015;    0,091;    1,409
1011,369; 2841,106;   -1,364;    1,318
1011,917; 2813,106;   -1,364;   -0,591
1012,465; 3090,288;    1,273;   -1,591
1013,013; 3201,106;    2,091;   -1,682
1013,561; 3087,197;    0,455;   -0,773
1014,109; 3149,652;   -1,909;    1,682
1014,657; 3016,833;    0,364;    0,591
1015,205; 3127,379;    1,636;   -0,955
1015,753; 3149,379;   -0,545;   -1,409
1016,301; 3190,470;   -2,636;    3,045
1016,848; 3181,197;   -1,273;    0,409
1017,396; 3242,197;    2,545;    0,045
1017,944; 3365,288;    1,182;    1,864
1018,491; 3132,288;    0,273;    1,409
1019,039; 3246,833;    0,455;    0,591
1019,586; 3194,470;   -1,364;    1,682
1020,134; 3297,924;    0,455;    1,500
1020,681; 3322,197;    0,182;   -1,136
1021,228; 3333,015;    2,909;   -2,227
1021,776; 3177,288;    1,182;   -1,136
1022,323; 3376,561;    0,455;    0,773
1022,870; 3310,197;   -1,000;   -0,045
1023,417; 3197,197;    2,636;    1,864
1023,964; 3345,015;    2,636;    1,227
1024,511; 3183,742;    1,000;    0,773
1025,058; 2983,742;    3,182;   -0,045
1025,605; 3036,561;   -2,273;    3,136
1026,152; 3264,652;    1,727;   -0,591
1026,699; 3003,379;    1,818;    1,318
1027,245; 3155,470;   -0,091;    0,318
1027,792; 3384,288;   -1,000;    1,409
1028,339; 3260,197;    2,364;   -0,045
1028,885; 3118,561;    1,000;   -0,227
1029,432; 3054,652;   -0,091;    0,227
1029,978; 3102,470;   -1,000;   -1,591
1030,525; 3022,015;    1,000;    0,409
1031,071; 3260,288;   -1,364;    1,136
1031,618; 3357,015;    0,364;    1,682
1032,164; 3147,015;   -0,091;    3,045
1032,710; 3197,652;    1,636;   -1,500
1033,256; 3117,833;   -0,636;   -0,136
1033,803; 3100,833;   -0,545;    1,500
1034,349; 2844,015;   -1,364;    0,136
1034,895; 2992,833;    0,000;   -0,318
1035,441; 2977,924;   -0,818;    0,318
1035,987; 2973,379;   -2,364;   -0,682
1036,533; 2964,652;   -1,455;   -0,955
1037,078; 3164,652;    1,455;    1,682
1037,624; 3000,015;    2,455;   -0,955
1038,170; 3029,197;    0,455;   -0,318
1038,716; 2929,470;    1,636;   -0,409
1039,261; 2865,379;   -2,273;   -0,773
1039,807; 2793,015;   -0,091;    3,409
1040,352; 2848,015;   -1,909;   -0,318
1040,898; 2882,652;   -1,545;   -0,682
1041,443; 2790,197;   -1,455;   -2,591
1041,989; 2816,106;    1,091;    1,591
1042,534; 2703,742;   -0,364;    2,591
1043,079; 2828,833;    2,909;    0,955
1043,625; 2623,379;    1,818;    0,500
1044,170; 2672,652;   -1,364;    1,045
1044,715; 2908,561;    2,455;    0,955
1045,260; 2718,561;    2,182;   -0,955
1045,805; 2783,742;    1,182;   -0,591
1046,350; 2727,652;    1,364;   -0,409
1046,895; 2667,015;    2,909;    1,591
1047,440; 2619,106;    5,364;    0,409
1047,985; 2533,742;    2,818;   -0,955
1048,530; 2440,015;    1,545;    1,227
1049,074; 2509,379;    0,000;    0,318
1049,619; 2489,561;   -1,364;    1,955
1050,164; 2293,106;    0,455;    0,227
1050,708; 2345,924;   -0,455;    0,045
1051,253; 2704,470;    1,273;   -2,227
1051,797; 2433,652;    0,818;   -1,318
1052,342; 2421,288;   -1,182;    1,045
1052,886; 2412,561;    0,364;   -1,409
1053,430; 2294,561;   -1,364;    0,136
1053,975; 2315,561;   -0,818;   -0,318
1054,519; 2300,652;   -0,727;    3,227
1055,063; 2301,106;    0,909;    1,318
1055,607; 2200,742;   -0,182;    0,227
1056,151; 2232,197;    2,909;    1,682
1056,695; 2138,652;    2,273;   -1,136
1057,239; 2211,652;   -1,727;   -0,682
1057,783; 2230,742;    0,818;   -1,500
1058,327; 2162,379;    0,000;    1,409
1058,871; 2379,015;   -0,545;    1,318
1059,415; 2109,924;   -0,818;   -0,045
1059,958; 2357,561;    1,455;    2,591
1060,502; 2069,833;   -1,000;   -0,773
1061,046; 1992,470;    0,364;   -0,955
1061,589; 1973,652;   -3,000;   -1,136
1062,133; 1838,197;   -1,273;    1,864
1062,676; 1795,924;    1,182;    0,864
1063,220; 1792,652;    1,091;    0,500
1063,763; 1816,561;    0,909;    1,136
1064,306; 1889,561;   -0,909;    1,864
1064,849; 1779,288;   -0,909;    0,591
1065,393; 1789,742;    2,000;   -1,500
1065,936; 1905,924;    0,182;   -0,409
1066,479; 1794,379;   -1,455;    1,318
1067,022; 1814,106;   -0,273;   -0,227
1067,565; 1718,652;   -0,091;   -1,318
1068,108; 1746,197;    0,727;   -0,591
1068,651; 1717,197;   -0,636;    1,409
1069,194; 1645,833;   -0,455;   -1,682
1069,736; 1640,652;   -1,273;    0,955
1070,279; 1619,470;   -1,364;   -0,500
1070,822; 1671,742;   -2,000;   -0,318
1071,364; 1752,197;   -0,364;    1,318
1071,907; 1578,379;   -0,727;    3,227
1072,450; 1493,561;    0,000;   -0,045
1072,992; 1488,924;   -0,273;    3,136
1073,535; 1623,833;    2,091;    2,136
1074,077; 1427,288;   -0,727;    2,045
1074,619; 1382,288;   -1,364;    0,591
1075,161; 1411,106;   -1,091;    1,500
1075,704; 1590,106;    1,545;    1,227
1076,246; 1388,470;   -0,182;    0,682
1076,788; 1313,561;   -0,364;    1,773
1077,330; 1394,197;    1,273;    2,136
1077,872; 1359,652;    0,909;    0,955
1078,414; 1571,470;    2,727;    0,773
1078,956; 1311,197;    1,273;   -0,227
1079,498; 1570,470;    1,636;    0,318
1080,040; 1272,561;    1,909;   -1,318
1080,581; 1238,379;    1,636;   -0,318
1081,123; 1156,833;    0,091;   -0,773
1081,665; 1209,106;   -1,182;   -0,955
1082,206; 1491,924;    1,364;   -0,500
1082,748; 1353,561;    0,727;    2,045
1083,289; 1235,833;   -2,000;    1,318
1083,831; 1133,652;   -0,545;    0,227
1084,372; 1171,106;    0,000;    0,591
1084,913; 1185,652;    1,091;    0,864
1085,455; 1155,015;   -1,909;   -2,045
1085,996; 1120,833;   -2,273;    0,136
1086,537; 1144,379;   -0,091;    0,864
1087,078; 1171,742;   -0,909;   -2,136
1087,619; 1213,015;   -1,273;    0,227
1088,160; 1136,379;    0,000;    1,318
1088,701; 1112,197;   -1,091;    0,682
1089,242; 1055,833;    1,364;   -2,227
1089,783; 1151,833;   -0,273;    1,409
1090,324; 1115,015;    0,455;    0,682
1090,865; 1006,288;    2,727;   -0,409
1091,405;  970,924;    0,727;    2,227
1091,946;  989,924;    0,182;   -0,955
1092,487;  920,106;    0,818;   -1,409
1093,027; 1081,561;   -1,364;   -1,500
1093,568;  937,197;   -0,364;    1,227
1094,108; 1030,015;    0,273;    1,773
1094,649;  976,379;   -1,182;    0,136
1095,189;  919,470;   -0,636;   -0,682
1095,729;  867,742;   -0,091;    0,955
1096,269;  873,288;    0,727;   -0,955
1096,810; 1180,379;   -1,364;    0,500
1097,350;  989,924;    1,364;   -0,773
1097,890;  908,742;    0,364;    1,227
1098,430; 1149,379;    2,364;    2,864
1098,970; 1036,924;    2,182;    1,682
1099,510;  888,652;    0,545;   -2,318
1100,050;  817,924;    1,000;   -1,591
1100,589;  791,833;   -0,727;   -0,318
1101,129;  910,015;    0,818;   -0,955
1101,669; 1056,379;    1,727;    2,136
1102,209;  880,470;   -0,091;    2,227
1102,748;  839,652;    0,000;    0,955
1103,288;  827,833;    1,273;   -1,227
1103,827;  859,197;    3,091;   -2,227
1104,367;  740,833;   -0,091;   -2,409
1104,906;  707,652;    1,364;   -1,136
1105,445;  775,015;    0,636;   -1,136
1105,985;  711,742;   -0,727;    1,500
1106,524;  758,379;   -1,727;   -0,682
1107,063;  732,561;   -2,727;    1,409
1107,602;  715,197;   -1,909;   -1,500
1108,141;  635,288;   -1,909;    1,500
1108,680;  724,742;   -3,455;   -0,591
1109,219;  670,197;   -0,909;   -0,500
1109,758;  677,288;    0,455;    0,682
1110,297;  647,833;    1,000;   -0,682
1110,836;  592,742;   -0,727;    0,955
1111,375;  747,106;   -2,545;    0,409
1111,913;  757,561;   -1,000;    0,773
1112,452;  706,833;   -0,273;    0,136
1112,991;  588,833;    1,091;    1,955
1113,529;  549,470;   -0,818;   -0,045
1114,068;  614,288;   -0,273;    2,955
1114,606;  523,379;   -0,364;   -0,955
1115,144;  679,561;   -1,273;    1,045
1115,683;  606,197;   -0,727;    0,318
1116,221;  665,288;   -0,455;   -0,864
1116,759;  577,470;    0,636;   -0,864
1117,297;  766,833;    0,000;    1,864
1117,836;  574,197;   -2,182;   -1,227
1118,374;  578,561;    0,182;   -0,682
1118,912;  527,652;    0,909;    2,682
1119,450;  517,561;    1,000;    0,864
1119,988;  567,015;    1,545;    2,136
1120,525; 1022,197;    5,091;    3,318
1121,063;  711,106;    1,182;    1,864
1121,601;  518,652;   -0,909;   -1,227
1122,139;  487,015;   -0,727;   -2,045
1122,676;  681,561;   -0,727;    2,773
1123,214;  610,652;   -1,182;    4,409
1123,751;  430,924;    1,727;    2,227
1124,289;  551,561;   -0,091;   -0,409
1124,826;  426,470;    1,727;    0,227
1125,364;  353,470;    1,727;   -0,955
1125,901;  537,106;    1,182;    1,227
1126,438;  641,652;    0,818;    0,955
1126,975;  377,742;   -0,727;   -0,773
1127,513;  440,742;    0,273;    2,136
1128,050;  355,197;    1,636;   -0,682
1128,587;  451,015;    2,000;   -0,227
1129,124;  494,833;    0,091;    1,318
1129,661;  367,470;    0,273;    0,227
1130,198;  533,015;    1,636;    0,773
1130,734;  473,288;    0,182;    1,409
1131,271;  331,015;   -0,909;    0,864
1131,808;  497,742;    2,909;    3,045
1132,345;  370,924;    1,545;    0,318
1132,881;  253,197;   -1,545;   -1,864
1133,418;  393,561;    0,727;   -1,136
1133,954;  334,197;    2,455;   -2,682
1134,491;  393,652;    1,364;   -0,773
1135,027;  297,742;    2,364;    0,864
1135,564;  384,561;    0,273;    2,955
1136,100;  371,561;    0,364;    2,136
1136,636;  263,561;   -1,273;   -1,045
1137,172;  355,561;    0,000;   -1,045
1137,708;  284,652;   -1,364;   -1,045
1138,245;  288,106;    1,273;   -1,227
1138,781;  231,379;    1,091;   -3,318
1139,317;  298,924;    1,273;   -1,409
1139,852;  290,015;    3,091;    0,136
1140,388;  399,015;   -1,182;   -0,409
1140,924;  286,742;   -1,091;   -2,227
1141,460;  231,379;   -1,636;    0,136
1141,996;  160,197;   -1,364;    2,682
1142,531;  208,470;    1,364;    3,318
1143,067;  417,015;    1,182;    1,045
1143,602;  478,833;   -0,091;   -0,318
1144,138;  323,197;   -2,636;    1,045
1144,673;  191,197;   -1,455;    1,409
1145,209;  251,015;   -1,909;   -0,318
1145,744;  184,470;   -0,727;    0,864
1146,279;  308,106;    1,818;   -0,136
1146,815;  230,379;    1,545;   -2,682
1147,350;  268,015;   -1,364;    0,045
1147,885;  181,379;   -0,818;   -1,318
1148,420;  176,470;   -2,273;    0,773
1148,955;  157,833;   -1,727;    1,864
1149,490;  191,288;   -0,909;   -1,591
1150,025;  177,106;    0,455;   -1,773
1150,560;  286,106;    1,091;   -0,955
1151,094;  245,924;    1,455;   -0,591
1151,629;  251,833;    1,636;    0,864
1152,164;  184,652;    1,364;    1,318
1152,698;  140,106;   -0,182;   -0,136
1153,233;  113,015;    0,091;   -0,682
1153,767;  160,470;   -3,000;   -2,318
1154,302;  206,652;   -1,455;    1,773
1154,836;  197,106;   -0,455;   -2,136
1155,371;  256,015;   -1,364;    3,682
1155,905;  206,379;   -0,636;    1,682
1156,439;  174,288;   -0,636;   -0,500
1156,973;  197,470;    0,364;    0,318
1157,507;  146,106;   -0,364;    0,682
1158,042;  166,106;   -0,727;    1,045
1158,576;  212,470;    0,182;    1,773
1159,110;  209,197;   -0,818;    2,409
1159,643;  177,106;    0,636;   -0,045
1160,177;  118,106;   -1,545;    1,500

