
Integration time [ms]:   0,040
Averaging Nr. [scans]: 11
Smoothing Nr. [pixels]: 0
Data measured with spectrometer [name]: 7318044SP
Wave   ;Sample   ;Dark     ;Reference
[nm]   ;[counts] ;[counts] ;[counts] 

186,757;   27,625;   31,551;    1,318
187,357;   58,730;   22,551;    0,955
187,958;   36,974;   15,460;   -1,591
188,558;   76,715;    8,915;   -1,227
189,159;   47,822;    6,733;   -4,500
189,759;   11,882;    7,278;   -3,591
190,360;   17,915;    2,824;   -2,136
190,960;   59,705;    2,915;   -4,136
191,560;   68,219;    3,189;   -6,591
192,161;  292,939;    4,372;   -3,500
192,761;  143,272;    4,010;   -3,227
193,361;   98,473;    1,556;   -3,773
193,962;  153,391;    2,010;   -2,682
194,562;   84,129;    1,189;   -3,955
195,162;  109,481;   -2,448;   -2,227
195,762;  272,913;   -3,176;   -0,045
196,362;  212,648;    1,370;   -2,500
196,963;   81,962;    2,006;   -0,864
197,563;  156,897;    1,551;   -0,955
198,163;  108,586;    0,096;   -0,682
198,763;  125,424;    1,733;   -0,500
199,363;  221,668;    3,096;   -0,500
199,963;  190,416;    0,369;    0,409
200,563;  161,182;    2,823;   -1,409
201,163;  140,132;    3,277;   -0,227
201,763;  235,947;    3,732;    0,318
202,363;  178,013;    1,459;    1,500
202,963;  278,811;    1,459;    1,045
203,563;  393,926;    0,277;    0,500
204,162;  241,837;    2,096;   -1,864
204,762;  229,137;    0,550;    0,591
205,362;  199,369;    3,004;    1,955
205,962;  297,131;    3,096;    1,955
206,562;  295,121;    1,823;    2,318
207,161;  263,659;   -0,087;    0,318
207,761;  422,151;    1,277;    2,409
208,361;  300,475;   -0,268;    1,409
208,960;  393,088;    0,459;    1,500
209,560;  468,684;    1,277;    1,591
210,160;  448,312;    0,550;    1,864
210,759;  407,336;    4,186;    1,227
211,359;  422,603;    1,459;    1,045
211,958;  687,950;    1,277;    2,045
212,558;  767,946;    1,732;    1,864
213,157;  605,500;    1,822;    1,500
213,757; 1052,970;    3,822;   -0,227
214,356;  745,264;    1,277;   -0,409
214,956; 1087,215;    3,095;    0,409
215,555;  720,610;    2,095;    2,136
216,154;  650,368;   -2,723;   -0,591
216,754;  656,457;    0,277;    0,773
217,353;  791,414;   -0,268;   -1,045
217,952;  657,502;   -0,178;    0,318
218,552;  894,866;    1,368;   -0,773
219,151;  798,268;    0,277;    0,955
219,750;  795,977;    0,004;   -0,227
220,349;  922,111;   -0,451;    1,045
220,948;  985,484;   -1,360;    1,136
221,548; 1005,408;    0,913;    1,227
222,147; 1118,253;   -0,087;   -0,409
222,746; 1395,664;   -0,451;   -0,955
223,345; 1286,849;    0,731;    0,500
223,944; 1291,624;   -0,451;    0,773
224,543; 1470,707;    1,004;   -1,409
225,142; 1566,467;    0,094;    0,136
225,741; 1478,780;   -0,814;    1,045
226,340; 1502,814;   -0,451;   -0,955
226,939; 1947,434;   -0,996;   -0,136
227,538; 1907,718;   -0,360;   -0,773
228,137; 2056,035;   -0,814;    0,864
228,735; 2199,852;   -0,541;    1,227
229,334; 1960,760;   -0,905;   -0,227
229,933; 2329,913;    0,459;    0,591
230,532; 2437,178;    1,186;   -0,409
231,131; 2479,113;    1,732;    0,318
231,729; 2616,819;   -2,450;   -2,318
232,328; 2727,878;   -0,723;   -1,500
232,927; 2806,169;    1,004;   -0,500
233,525; 2946,136;    3,640;    0,045
234,124; 3151,875;    2,368;   -1,591
234,723; 3168,244;    0,913;   -1,045
235,321; 3291,587;    2,277;    0,136
235,920; 3509,274;    1,186;   -1,227
236,518; 3778,163;    3,459;    0,318
237,117; 3957,651;    0,004;   -0,227
237,715; 4129,548;    0,640;   -0,500
238,314; 4149,089;   -0,087;   -2,318
238,912; 4265,756;   -0,723;   -1,409
239,510; 4301,663;    0,459;   -1,227
240,109; 4483,286;    0,004;    3,773
240,707; 4510,349;   -0,996;    1,227
241,305; 4877,293;    0,550;    0,136
241,904; 5084,657;   -0,178;   -2,045
242,502; 5044,932;   -0,632;   -0,227
243,100; 5020,002;   -0,087;   -0,955
243,698; 5259,081;    0,732;    1,682
244,297; 5442,942;   -0,632;    0,682
244,895; 5279,222;   -0,269;   -2,318
245,493; 5588,471;    2,186;   -0,591
246,091; 5629,256;    1,368;   -1,318
246,689; 5620,073;    1,004;    0,591
247,287; 5755,951;    0,822;   -1,136
247,885; 6045,873;   -1,451;    1,227
248,483; 6166,284;    1,822;   -0,500
249,081; 6315,764;    0,185;    1,591
249,679; 6441,882;   -0,178;    1,682
250,277; 6691,232;   -1,723;    0,864
250,875; 6651,275;   -1,087;   -1,045
251,473; 6700,682;   -1,178;    0,500
252,071; 6922,466;    1,459;    1,045
252,669; 7067,534;   -1,814;    0,318
253,267; 7315,282;   -0,087;    0,773
253,864; 7274,406;   -0,360;    0,682
254,462; 7124,598;    1,640;    1,591
255,060; 7120,141;   -0,269;    1,318
255,658; 7445,806;    0,822;   -0,136
256,255; 7837,405;    0,186;   -2,045
256,853; 7728,055;   -0,269;    1,409
257,451; 7702,378;    0,822;    1,864
258,048; 7948,557;    1,822;    1,864
258,646; 7755,507;    1,731;   -1,045
259,243; 7934,237;   -0,087;    2,227
259,841; 7993,322;   -0,814;    0,318
260,438; 7897,843;   -0,087;    0,864
261,036; 8566,246;   -1,905;    1,409
261,633; 8457,080;   -0,087;    2,227
262,231; 8236,562;    2,731;   -0,045
262,828; 8328,242;   -0,905;    1,136
263,425; 8366,738;    0,913;   -0,591
264,023; 8654,232;    0,186;    0,045
264,620; 8184,506;   -0,360;   -0,318
265,217; 8495,989;   -2,087;    3,136
265,815; 8620,762;   -1,905;    2,136
266,412; 8415,081;    0,731;    0,136
267,009; 8455,741;   -1,451;    0,773
267,606; 8366,325;    0,822;   -0,955
268,203; 8331,734;   -0,269;   -0,591
268,801; 8614,654;    1,731;    0,591
269,398; 8918,451;   -0,360;    2,500
269,995; 8866,151;    0,277;    1,591
270,592; 8628,427;   -0,632;   -0,500
271,189; 8862,936;    0,186;    0,409
271,786; 8975,769;   -0,632;    1,227
272,383; 8808,157;   -1,087;    0,227
272,980; 9002,349;    0,277;    0,318
273,577; 9487,419;    0,004;    1,227
274,174; 9060,270;    0,822;    2,591
274,771; 9010,261;   -0,814;   -0,773
275,367; 9141,237;    2,277;    1,409
275,964; 9074,215;    0,731;   -0,500
276,561; 9203,354;    1,549;   -1,045
277,158; 9440,973;    0,095;   -1,773
277,755; 9544,309;    2,185;    0,409
278,351; 8999,324;   -0,451;   -1,500
278,948; 9284,187;   -0,815;    0,045
279,545; 9291,210;   -1,360;    2,318
280,141; 9850,649;   -1,723;   -2,045
280,738; 9741,350;   -0,451;   -0,136
281,334; 9982,269;   -1,633;    0,591
281,931; 9372,532;   -0,087;   -1,318
282,528; 9491,378;    0,822;   -0,500
283,124;10187,144;   -1,087;   -0,500
283,721;10086,711;   -0,451;    1,409
284,317; 9872,866;    0,185;    2,500
284,913;10445,228;   -1,360;    0,591
285,510;10607,864;    0,640;   -0,318
286,106;10647,825;   -2,269;   -0,955
286,703;10258,791;   -0,360;    1,955
287,299;10484,958;   -1,451;   -0,591
287,895;10677,445;    0,822;   -1,045
288,491;11237,087;    0,186;    2,136
289,088;10952,971;   -2,360;    2,409
289,684;10991,534;   -1,723;    1,500
290,280;10979,829;    0,368;    0,682
290,876;11093,383;    1,822;    5,500
291,472;10995,277;    1,276;    2,227
292,068;11070,463;    1,367;    0,227
292,665;10820,958;    2,095;    0,773
293,261;10434,574;    0,276;    2,136
293,857;10791,282;    2,913;    2,136
294,453;10751,276;    3,550;    0,955
295,049;10616,848;   -0,268;    1,955
295,644;10652,381;    0,095;    0,136
296,240;10575,976;   -0,905;   -0,136
296,836;10613,871;   -0,995;    0,318
297,432;10865,254;    1,096;   -0,500
298,028;10934,224;    0,732;    0,773
298,624;11355,782;    1,459;    1,864
299,220;11570,109;    2,368;    0,591
299,815;11257,269;    1,005;   -0,409
300,411;11084,212;    0,914;    1,773
301,007;11045,767;    1,368;    0,227
301,602;11096,023;   -0,541;   -2,318
302,198;11254,852;    0,732;   -0,773
302,794;11608,713;    1,187;   -0,500
303,389;11740,442;   -1,177;    1,045
303,985;11795,596;    0,550;    1,409
304,580;11768,531;    1,459;    1,591
305,176;11727,363;   -3,086;    0,136
305,771;11651,035;   -1,268;   -1,227
306,367;11485,828;    4,095;    0,136
306,962;11839,660;    0,641;    1,500
307,558;11557,326;   -0,450;    0,136
308,153;11503,454;    1,095;   -1,136
308,748;11737,329;   -0,814;    1,682
309,344;11663,767;   -0,632;   -1,318
309,939;11776,428;   -1,905;   -1,318
310,534;12076,098;   -0,086;   -1,682
311,130;11991,482;    0,459;   -2,500
311,725;11733,578;    1,004;   -0,500
312,320;12059,358;    2,459;    0,045
312,915;11918,007;    1,459;   -1,045
313,510;11978,154;    1,550;   -0,500
314,105;12494,133;    1,096;    1,409
314,700;11870,593;   -3,086;   -1,045
315,295;11507,985;   -0,904;    0,045
315,890;11114,749;    1,277;    0,864
316,485;11426,215;   -0,359;   -0,318
317,080;11526,934;   -3,086;    1,591
317,675;12093,995;    2,005;   -0,682
318,270;11481,946;    5,550;    3,318
318,865;11532,036;    3,278;    3,045
319,460;11384,720;   -0,904;    0,591
320,055;11619,818;   -0,541;   -1,227
320,650;11293,875;   -1,995;   -0,591
321,244;11315,458;   -0,177;   -1,409
321,839;12253,322;   -1,541;   -0,227
322,434;12154,358;   -1,086;   -1,591
323,029;11766,616;    1,732;    1,591
323,623;11593,238;    1,550;    0,773
324,218;11368,975;    2,368;    1,409
324,812;11225,259;    1,096;    1,591
325,407;11053,266;   -0,814;    2,045
326,002;10957,055;    0,277;   -0,409
326,596;11236,046;    0,914;    1,318
327,191;11423,233;    0,823;   -1,045
327,785;10977,137;   -0,813;   -0,227
328,379;11248,900;    1,368;    0,136
328,974;11061,022;    0,914;   -3,955
329,568;11271,654;    0,186;   -2,409
330,163;11065,011;    2,096;    1,045
330,757;11438,459;    2,459;    1,591
331,351;10761,392;    0,459;    0,682
331,945;11089,804;    0,914;    1,409
332,540;10677,211;   -1,723;   -0,591
333,134;10809,248;   -1,086;    0,773
333,728;11060,635;    0,005;    0,318
334,322;11394,748;   -1,177;   -0,864
334,916;10720,498;    0,277;    0,955
335,510;11039,058;   -0,450;   -0,136
336,105;11280,779;   -1,086;    1,591
336,699;10994,849;   -1,086;    0,591
337,293;10937,375;   -1,723;    0,318
337,887;11089,934;   -2,723;    1,955
338,481;11176,695;    0,459;    0,591
339,074;11303,315;   -0,359;    2,682
339,668;11134,100;   -1,632;    1,227
340,262;11385,734;    1,732;    3,227
340,856;10930,473;    1,822;   -0,682
341,450;10302,539;    1,004;    1,864
342,044;11186,920;    1,459;    0,136
342,637;10964,195;    0,913;   -2,136
343,231;10824,803;   -2,360;    0,682
343,825;10781,939;   -1,086;   -0,591
344,419;10748,444;   -1,995;    0,500
345,012;10540,650;    2,459;    4,045
345,606;10559,252;    4,641;    1,591
346,199;10399,547;   -1,813;   -0,227
346,793; 9924,423;    1,914;    2,045
347,386;10164,774;   -0,813;   -1,136
347,980;10142,628;   -0,268;   -0,045
348,573; 9918,678;    2,278;    0,409
349,167; 9590,181;    5,278;    4,773
349,760; 9964,486;    2,914;    2,682
350,354; 9947,123;   -0,813;    1,136
350,947; 9685,894;    1,096;    1,682
351,540; 9341,014;   -0,358;   -1,409
352,134; 9279,516;    1,096;    1,136
352,727; 9374,806;   -0,086;    1,136
353,320; 9208,096;    0,005;    0,591
353,913; 8997,312;   -1,995;    1,864
354,507; 9202,042;    0,823;   -1,227
355,100; 9235,766;    0,460;    0,864
355,693; 8473,288;    2,005;    2,409
356,286; 8507,334;    0,823;    2,773
356,879; 8888,669;   -0,722;    1,227
357,472; 8498,338;   -0,904;    1,500
358,065; 8663,752;   -0,722;    2,500
358,658; 8613,577;   -0,540;    2,318
359,251; 8248,215;   -1,631;   -0,591
359,844; 7758,386;   -1,904;   -1,136
360,437; 7918,373;   -2,995;    0,045
361,030; 8189,366;    1,369;   -0,682
361,623; 7810,198;    2,824;    0,318
362,215; 7833,780;   -0,086;    2,045
362,808; 7667,057;   -2,358;   -1,682
363,401; 7863,708;   -2,449;    0,136
363,994; 7624,126;   -0,631;   -1,500
364,586; 7575,229;    0,824;   -1,500
365,179; 7760,703;   -0,449;   -1,136
365,772; 7255,079;   -1,995;    2,045
366,364; 7541,740;    1,915;   -3,227
366,957; 7743,438;    2,279;   -0,045
367,549; 7737,279;    2,188;   -0,864
368,142; 7411,445;    1,825;   -1,500
368,734; 7603,353;    0,734;   -2,136
369,327; 7589,159;    1,643;   -0,500
369,919; 7476,472;   -1,538;    0,409
370,512; 7285,472;   -1,083;   -0,500
371,104; 7037,296;   -0,901;    1,591
371,696; 7207,990;    1,191;   -0,955
372,289; 7295,374;    0,373;    1,136
372,881; 7436,454;   -2,080;    1,318
373,473; 7349,850;   -2,170;    1,136
374,066; 7159,558;   -0,169;    0,500
374,658; 7033,596;    0,378;    1,136
375,250; 7383,459;    0,653;   -1,409
375,842; 7237,303;    0,473;   -0,045
376,434; 7093,968;   -0,435;   -0,409
377,026; 7669,437;    0,204;   -2,500
377,618; 7568,943;   -0,158;   -0,682
378,210; 7411,558;   -0,338;   -1,955
378,802; 7258,063;    0,754;   -0,591
379,394; 7204,102;    1,846;    0,682
379,986; 7798,646;    1,393;   -0,955
380,578; 7896,234;   -0,153;    0,773
381,170; 7226,417;   -0,972;    0,045
381,762; 7200,316;    0,755;    1,409
382,354; 7416,340;   -0,065;   -1,318
382,945; 7498,124;   -2,976;    0,318
383,537; 7666,072;   -2,705;   -1,955
384,129; 7681,083;   -2,160;   -1,136
384,721; 7830,452;   -0,252;    0,955
385,312; 7748,507;   -0,161;   -0,955
385,904; 7854,912;   -2,706;    1,591
386,496; 7255,982;   -0,979;    1,045
387,087; 7399,580;    1,022;    2,500
387,679; 7440,016;   -1,160;    0,045
388,270; 7585,729;    2,840;    2,045
388,862; 7689,769;    1,295;   -0,318
389,453; 7558,127;   -0,887;    1,045
390,045; 7846,823;   -0,705;   -2,682
390,636; 7770,503;    0,204;   -0,591
391,227; 7611,797;   -0,523;   -0,045
391,819; 7716,535;    0,204;    0,773
392,410; 7771,702;    1,022;    0,045
393,001; 7728,868;   -0,979;   -1,591
393,593; 7995,453;    1,930;   -0,045
394,184; 7843,506;    1,385;   -0,409
394,775; 7757,719;    1,839;    2,136
395,366; 7980,120;    1,385;    0,773
395,957; 7966,552;    0,113;    0,136
396,548; 8297,659;   -0,342;    2,682
397,139; 8567,907;   -2,433;    0,591
397,730; 8285,361;   -1,888;    0,955
398,321; 8345,558;   -1,252;    0,955
398,912; 8400,048;   -0,615;    0,136
399,503; 8482,168;   -3,524;   -1,409
400,094; 7894,391;    0,294;    1,682
400,685; 7774,859;   -0,433;    0,045
401,276; 7880,308;    0,930;   -0,955
401,867; 8189,593;   -0,888;    0,773
402,458; 8262,185;   -2,251;   -2,318
403,048; 8250,688;    1,112;    0,591
403,639; 7887,396;    0,840;    0,864
404,230; 8126,993;    2,476;    0,318
404,821; 8075,077;   -0,615;    0,045
405,411; 8188,392;    1,203;   -2,591
406,002; 7762,174;   -1,252;   -1,136
406,592; 7621,463;    2,294;    0,045
407,183; 7934,605;    0,566;   -1,500
407,774; 7857,385;    3,475;   -0,136
408,364; 8166,985;    0,930;    0,409
408,954; 7781,143;    0,384;    1,227
409,545; 7804,687;    1,021;    1,045
410,135; 7360,250;    1,293;    0,500
410,726; 7520,130;    1,838;    0,318
411,316; 7899,622;    0,111;    0,773
411,906; 7582,212;   -0,253;   -0,409
412,497; 7104,583;   -1,070;   -0,045
413,087; 7701,009;   -1,980;   -0,227
413,677; 8092,888;   -0,707;    3,864
414,267; 7920,400;    0,656;    1,409
414,857; 7936,131;   -2,980;    4,227
415,448; 8225,315;    0,839;    0,500
416,038; 7919,622;    0,020;   -0,591
416,628; 7851,886;   -0,889;    0,409
417,218; 7337,410;    0,565;    3,318
417,808; 7599,232;    0,202;   -0,409
418,398; 8048,899;    0,020;    2,682
418,988; 8073,145;    2,020;    0,591
419,578; 8316,588;   -0,707;    1,409
420,168; 8653,850;   -1,343;   -0,955
420,757; 8233,255;   -1,343;   -1,500
421,347; 7928,613;    0,111;   -0,227
421,937; 8091,096;    2,292;    1,409
422,527; 8006,923;    0,838;   -0,773
423,116; 7847,384;   -0,253;   -0,045
423,706; 8208,180;   -1,889;    0,318
424,296; 8169,178;    1,384;    0,682
424,885; 8545,724;   -0,071;   -3,045
425,475; 8850,279;    1,474;   -2,864
426,065; 8788,217;   -0,980;   -0,318
426,654; 8410,577;   -0,435;   -0,318
427,244; 8506,675;    0,020;    1,409
427,833; 7977,307;    1,383;   -0,500
428,423; 8451,085;   -0,526;    1,136
429,012; 9211,283;   -0,344;   -1,136
429,601; 8686,232;   -1,344;    0,136
430,191; 8945,064;    1,292;    4,318
430,780; 8559,055;   -0,344;   -0,409
431,369; 8470,142;    0,746;   -0,045
431,959; 9099,266;   -1,254;    0,500
432,548; 8886,571;   -1,163;   -0,045
433,137; 9031,215;   -1,254;   -1,318
433,726; 9557,391;    0,292;    0,500
434,315; 8936,094;   -0,526;    2,409
434,905; 9004,241;   -1,254;    1,409
435,494; 8915,349;    0,746;    0,955
436,083; 9408,000;   -0,981;   -0,955
436,672; 9284,644;    0,110;    0,500
437,261; 8831,173;    0,292;   -1,955
437,850; 8951,682;    1,383;    0,682
438,439; 8906,038;    3,291;    1,955
439,027; 8775,498;    3,655;    1,773
439,616; 9084,541;    2,927;    1,227
440,205; 8973,226;    0,200;   -2,136
440,794; 9062,817;    2,109;   -0,045
441,383; 9333,893;   -1,346;   -0,591
441,971; 9167,254;   -2,436;    0,591
442,560; 9010,936;    0,563;   -1,773
443,149; 8799,327;    0,379;   -1,318
443,737; 8944,924;   -0,074;   -2,318
444,326; 9177,120;    0,018;    0,318
444,915; 9236,147;   -1,982;    0,864
445,503; 9625,868;   -2,891;   -0,318
446,092; 8892,873;    0,382;    2,136
446,680; 9406,700;    0,382;    0,318
447,269; 9618,857;   -0,346;   -0,318
447,857; 9368,325;    0,018;   -1,773
448,445; 9473,450;    0,563;    1,318
449,034; 9723,114;   -1,528;   -1,136
449,622; 9825,660;   -1,073;    3,500
450,210; 9034,141;    2,017;    2,227
450,799; 9589,509;    0,290;   -0,591
451,387; 9561,090;    1,381;   -0,591
451,975; 9216,811;    2,654;    0,864
452,563; 9313,132;    3,472;    2,318
453,151; 9357,696;   -0,528;   -1,227
453,739; 9291,328;   -1,347;    0,136
454,328; 9120,744;    2,381;   -2,136
454,916; 8844,693;    2,562;   -0,136
455,504; 9066,260;    1,017;    1,227
456,092; 9239,646;    0,017;   -1,591
456,679; 9179,345;    1,472;    0,682
457,267; 9099,084;    4,017;    1,045
457,855; 9270,152;    1,017;    1,409
458,443; 9061,622;   -0,165;    1,682
459,031; 9148,885;    0,108;    2,409
459,619; 9628,847;   -1,801;    2,864
460,206; 9729,610;    0,835;    2,045
460,794; 9842,740;   -2,983;   -0,227
461,382;10085,881;   -0,529;   -0,864
461,970; 9674,638;    1,198;    1,864
462,557; 9693,304;   -0,711;   -0,682
463,145; 9876,902;   -3,165;   -1,682
463,732; 9999,559;    2,016;   -1,045
464,320; 9931,150;   -0,075;   -3,045
464,907; 9615,841;    2,743;   -0,773
465,495; 9521,296;    0,743;   -1,227
466,082; 9646,542;   -1,984;   -0,045
466,670; 9547,636;   -2,529;    1,227
467,257; 9997,642;   -1,711;    2,045
467,844;10135,133;   -0,075;    0,045
468,432;10149,620;    0,834;    3,500
469,019; 9698,790;    0,925;   -1,773
469,606;10175,476;    0,470;    3,682
470,193; 9980,832;   -1,439;    0,227
470,780; 9551,601;   -2,075;    0,864
471,368; 9911,007;   -1,257;   -0,773
471,955; 9702,819;    1,379;   -0,682
472,542; 9335,230;    0,652;   -1,136
473,129; 9568,974;   -0,166;    0,136
473,716; 9285,121;    1,470;    0,591
474,303; 9471,486;    0,652;   -0,864
474,890; 9771,183;   -1,439;   -0,500
475,477; 9820,342;   -1,621;    0,409
476,064; 9678,270;    1,106;   -1,591
476,650; 9625,344;    0,288;    0,318
477,237; 9485,162;   -0,258;    0,955
477,824; 9638,560;   -1,076;    0,864
478,411; 9631,376;   -1,894;   -0,318
478,997; 9829,300;    0,560;   -0,773
479,584; 9902,561;    1,196;   -0,409
480,171;10594,190;   -0,440;   -0,773
480,757;10269,237;    2,651;    0,773
481,344;10567,433;    0,469;    0,409
481,931;10082,726;    1,105;    1,045
482,517;10998,796;   -1,258;    0,318
483,104;11524,712;    1,106;    2,864
483,690;11815,078;   -1,804;    0,045
484,276;12173,667;   -0,895;    0,227
484,863;11952,841;    2,469;    1,136
485,449;12530,679;   -0,077;    0,318
486,035;12525,439;   -1,986;   -0,136
486,622;12964,699;   -0,895;    0,045
487,208;12897,859;    1,378;    1,500
487,794;12764,083;    0,741;    0,318
488,380;12839,634;    0,105;   -1,409
488,967;12942,749;   -1,168;   -0,409
489,553;12981,770;   -1,895;   -1,409
490,139;13158,922;    1,559;    0,773
490,725;12648,562;    0,741;   -0,227
491,311;12251,255;    3,287;    3,045
491,897;11628,348;   -0,986;    1,500
492,483;11448,656;    0,105;    1,227
493,069;11211,138;    3,923;    0,864
493,655;11182,908;    1,650;    0,682
494,241;11105,693;    1,377;   -0,955
494,826;11505,133;    0,287;   -1,045
495,412;11005,072;    2,559;   -0,682
495,998;11158,195;   -0,805;   -0,318
496,584;11303,581;    0,377;    1,045
497,169;11254,194;    1,014;   -0,682
497,755;11247,368;    0,650;    1,227
498,341;11813,648;    0,559;    0,318
498,926;11365,718;    1,832;    1,955
499,512;11559,708;    1,286;    2,955
500,097;11710,686;    0,195;   -0,318
500,683;11660,133;   -0,350;    2,136
501,268;12017,711;   -0,169;   -0,955
501,854;11744,142;   -0,169;    1,227
502,439;11693,160;   -0,624;   -1,773
503,024;11894,026;    0,195;    0,500
503,610;11966,236;   -0,078;   -0,682
504,195;12007,728;    0,558;    1,955
504,780;12139,168;    2,922;    1,227
505,366;11969,346;    3,013;    2,864
505,951;11695,600;    0,740;    1,045
506,536;11713,445;   -3,260;   -3,682
507,121;11689,013;    0,285;   -0,318
507,706;12206,924;    2,376;    1,045
508,291;12580,873;    2,649;    1,136
508,876;12114,575;   -0,988;    2,591
509,461;11555,652;   -0,169;   -0,773
510,046;11966,499;    0,194;    0,318
510,631;12192,851;   -0,351;   -0,773
511,216;11883,284;    2,467;   -0,500
511,801;12244,143;   -0,442;    2,591
512,386;12545,553;    0,740;    0,500
512,971;12514,298;   -2,988;    0,955
513,555;12088,256;   -0,897;   -1,500
514,140;12848,382;   -0,442;   -3,136
514,725;12848,189;   -0,715;   -1,136
515,309;12996,731;   -0,533;    0,318
515,894;12449,155;   -0,624;   -2,227
516,479;12858,797;   -0,624;   -0,955
517,063;12725,973;    0,376;    1,227
517,648;12875,976;    1,012;   -1,136
518,232;12500,128;   -0,261;   -1,409
518,817;12845,463;   -0,079;    1,682
519,401;13072,246;    2,194;    0,591
519,985;12574,060;    1,103;    1,136
520,570;12437,374;    0,830;   -1,955
521,154;12767,625;    2,102;    0,591
521,738;12927,097;   -2,352;    2,409
522,323;13521,803;   -0,170;    1,682
522,907;13247,156;    0,466;   -0,136
523,491;12953,340;    0,557;    0,955
524,075;12956,220;    2,284;    0,591
524,659;13025,603;    1,466;    0,591
525,243;12522,818;    1,739;    0,409
525,827;12771,644;    0,648;   -0,045
526,411;13582,694;   -1,989;   -0,136
526,995;13821,670;   -0,352;    1,409
527,579;13355,602;   -0,443;   -1,045
528,163;13683,188;    0,375;   -1,500
528,747;13603,276;    2,466;   -0,773
529,331;13929,031;   -0,080;   -1,409
529,915;14143,129;    1,738;    0,955
530,499;14086,462;   -0,807;    1,227
531,082;13782,783;   -0,534;    1,591
531,666;13207,235;    1,374;    0,773
532,250;13882,883;    1,284;    2,682
532,833;14241,111;    0,920;    2,773
533,417;14115,961;   -1,807;    0,864
534,001;14052,912;    1,647;   -0,318
534,584;14695,501;    0,374;    0,500
535,168;14561,591;    0,465;    1,409
535,751;14637,357;    0,647;    0,045
536,334;14075,545;   -0,898;   -0,409
536,918;14669,573;    0,011;    1,591
537,501;14810,855;   -0,899;    1,318
538,085;14779,314;   -0,444;    1,045
538,668;14924,739;    0,829;    2,409
539,251;15209,619;    1,829;    3,773
539,834;15249,162;    0,101;    0,773
540,418;15192,301;   -1,990;    4,318
541,001;15303,265;   -0,990;    1,773
541,584;15275,446;    2,101;    2,227
542,167;14948,698;    1,374;    2,955
542,750;15113,552;    1,919;   -0,773
543,333;14711,361;    0,555;    2,136
543,916;15492,468;    0,192;    2,500
544,499;16090,080;   -1,354;    0,227
545,082;16081,506;    1,374;    3,591
545,665;16239,168;    1,919;    1,500
546,248;16564,815;    1,010;   -0,318
546,830;16248,509;   -0,445;    1,955
547,413;16624,402;    1,010;   -0,773
547,996;17175,561;    0,555;    0,500
548,579;16958,905;    0,919;    0,955
549,161;16744,695;    1,828;    2,682
549,744;16573,948;   -0,809;    0,409
550,326;17051,676;   -0,809;   -1,136
550,909;16780,291;    2,737;    0,591
551,492;17219,309;   -0,263;    0,227
552,074;17054,054;   -0,173;   -1,318
552,657;17539,842;    2,373;    0,045
553,239;17294,663;   -0,173;   -0,773
553,821;17217,560;   -1,082;    1,045
554,404;16727,084;    1,282;    1,136
554,986;17095,000;    0,464;    1,045
555,568;17699,276;    1,191;   -0,955
556,151;16944,065;    1,191;   -0,227
556,733;17129,452;   -0,264;   -0,864
557,315;17622,290;    0,100;    0,500
557,897;17432,348;    0,554;   -0,500
558,479;17536,380;   -1,991;    1,318
559,061;17665,581;   -0,719;   -0,864
559,643;17971,178;   -0,264;    0,045
560,225;18332,066;    1,645;    2,864
560,807;18356,541;    0,918;    0,318
561,389;17874,787;    0,554;    2,318
561,971;18568,448;    0,463;    2,136
562,553;18385,521;   -1,628;    1,591
563,135;18545,095;   -0,537;    1,136
563,717;18123,427;    3,372;    1,136
564,298;18826,373;    3,645;   -0,045
564,880;18572,370;    0,645;   -1,409
565,462;18703,188;    0,645;    1,318
566,043;19846,107;   -0,446;    2,318
566,625;19385,470;    1,918;    1,227
567,207;19207,481;    1,099;    1,682
567,788;20314,121;   -1,264;    1,500
568,370;21106,561;    1,917;   -0,500
568,951;20894,367;    0,190;    0,227
569,533;21743,115;   -0,628;   -0,500
570,114;22196,598;   -0,446;    0,682
570,695;22633,895;   -0,174;   -1,318
571,277;23091,084;   -0,265;   -1,682
571,858;23808,927;    2,008;   -1,136
572,439;24698,161;    1,554;   -1,045
573,021;24820,588;    2,099;   -2,773
573,602;25284,035;   -1,265;    0,318
574,183;26162,467;   -2,083;    2,227
574,764;26320,798;   -1,629;    0,409
575,345;26834,351;    0,917;   -0,136
575,926;27433,517;   -0,356;    0,136
576,507;27442,307;    1,099;   -0,227
577,088;28540,913;    3,099;    1,682
577,669;28447,712;    0,735;    1,955
578,250;29140,012;    0,644;   -1,045
578,831;29800,549;   -1,356;   -2,227
579,412;30064,956;   -0,810;    0,955
579,993;30989,382;    1,008;    0,227
580,573;31384,413;   -0,629;   -0,955
581,154;30325,289;    0,735;   -0,591
581,735;31096,863;    0,644;    0,773
582,315;30621,045;   -0,629;    2,136
582,896;30943,707;   -0,174;    1,227
583,477;30476,450;    0,189;    1,227
584,057;30678,169;    0,553;    0,955
584,638;30961,018;    2,553;    2,318
585,218;30939,441;   -0,538;    2,682
585,799;31072,012;    0,281;   -0,227
586,379;31082,913;    0,372;    1,591
586,959;29908,710;    0,735;    0,318
587,540;29286,637;   -0,629;    2,227
588,120;28835,867;    1,007;   -0,045
588,700;27840,065;    2,553;    2,136
589,281;28099,534;    0,462;   -0,955
589,861;28078,295;    0,099;   -1,682
590,441;27910,899;    2,371;   -2,682
591,021;26916,654;   -0,265;   -2,591
591,601;27169,757;   -0,537;    0,500
592,181;27141,239;   -0,719;   -0,773
592,761;26443,615;    0,007;    1,409
593,341;26448,770;   -0,901;    0,045
593,921;26418,246;   -0,265;    1,591
594,501;26343,649;   -0,538;    1,318
595,081;26122,820;    0,917;   -0,318
595,661;26468,433;   -1,447;    0,955
596,240;27014,878;   -0,537;    0,136
596,820;26600,533;    0,372;    1,955
597,400;26799,916;    2,008;    0,773
597,980;26989,449;    2,008;    1,045
598,559;27063,369;    2,735;   -0,227
599,139;26796,918;   -0,174;   -1,227
599,718;26690,009;   -0,174;   -0,409
600,298;26892,581;    0,735;    0,682
600,877;27098,906;    2,917;    1,409
601,457;27415,561;    2,281;    1,136
602,036;27342,120;    0,190;    2,045
602,616;27487,903;    0,644;    1,682
603,195;27857,378;   -0,355;    3,500
603,774;27399,351;   -0,901;    2,045
604,354;27290,231;    0,826;   -0,500
604,933;26768,210;    0,463;    1,864
605,512;26927,748;    3,554;    0,591
606,091;27015,525;   -0,537;    3,773
606,671;27811,531;    0,281;    0,773
607,250;26894,077;    1,644;    3,136
607,829;27163,517;    2,372;    3,227
608,408;26998,402;    1,190;    2,591
608,987;26034,383;    1,281;    3,409
609,566;26336,343;   -1,265;   -2,500
610,145;26456,355;   -1,082;    0,682
610,723;26878,751;    4,372;    6,864
611,302;26124,832;   -0,446;    1,682
611,881;25660,564;    5,008;   11,227
612,460;26520,808;    1,645;    3,955
613,039;26891,371;   -0,082;    2,045
613,617;25632,823;    1,736;    4,773
614,196;25885,657;    1,099;    1,227
614,775;26169,158;    1,009;    2,409
615,353;26103,575;    0,736;    0,864
615,932;25865,546;    0,100;    2,409
616,510;26462,157;    0,554;    0,591
617,089;25986,154;    7,100;   17,591
617,667;25719,729;    2,372;    6,136
618,246;25608,297;   -1,537;    1,318
618,824;25756,542;   -3,355;   -0,955
619,402;25346,270;   -2,900;   -1,773
619,981;25825,443;   -0,173;   -1,045
620,559;25691,498;    0,009;    1,682
621,137;25239,289;   -0,718;    1,864
621,715;25203,595;   -1,173;   -0,682
622,293;25138,804;   -0,537;   -0,773
622,871;25613,563;   -0,718;    0,500
623,450;25224,639;    0,373;   -0,864
624,028;25142,801;    0,191;   -0,955
624,606;24773,097;   -1,718;    1,682
625,183;25196,603;   -1,536;   -1,136
625,761;24779,966;    1,009;    1,136
626,339;25111,797;    1,373;    2,591
626,917;25470,135;   -0,172;   -0,045
627,495;25505,167;   -0,354;    1,318
628,073;24912,370;   -0,263;    2,864
628,650;24655,355;    0,100;    2,136
629,228;25081,758;    0,373;    4,409
629,806;24500,447;    2,282;    1,136
630,383;24795,496;    1,464;   -0,318
630,961;24564,750;    2,555;   -0,955
631,539;24322,283;    2,464;    0,227
632,116;23612,204;   11,373;   15,409
632,694;24220,498;    2,555;    6,500
633,271;24526,144;    0,828;    2,682
633,848;24485,244;    1,828;    2,045
634,426;24515,835;   -1,081;    1,773
635,003;23651,236;    1,101;   -0,409
635,580;23964,597;    1,192;    3,682
636,158;24520,948;    3,737;    1,227
636,735;24487,629;    0,555;   -0,500
637,312;24621,580;   -0,809;   -0,682
637,889;24676,346;   -4,354;   -0,682
638,466;24183,775;   -3,990;   -0,409
639,043;24190,515;    2,101;   -1,136
639,620;24533,029;   -2,262;   -0,955
640,197;24833,518;    1,100;    1,682
640,774;24953,838;   -0,172;    1,136
641,351;25315,521;    0,737;    1,136
641,928;24706,386;   -0,627;    1,409
642,505;24375,615;    0,828;   -0,500
643,082;24515,843;   -1,718;    1,227
643,658;23610,254;   -0,718;    1,500
644,235;24323,119;    1,191;    2,500
644,812;24668,529;    1,918;    0,773
645,388;24402,576;   -0,991;    1,409
645,965;24459,259;   -0,809;    1,682
646,542;24498,761;   -1,445;   -0,227
647,118;24489,080;    1,009;   -0,955
647,695;24833,309;   -0,263;    1,136
648,271;24732,719;   -0,536;    0,500
648,848;25031,493;    0,736;    2,227
649,424;24845,267;    0,827;    1,318
650,000;24638,769;   -0,354;   -1,045
650,577;24433,543;   -0,627;   -0,955
651,153;24885,135;   -1,809;    0,955
651,729;25897,454;    1,191;    0,864
652,305;25965,774;    0,645;    2,773
652,881;29939,821;   -0,082;    1,136
653,458;36412,959;    1,100;    0,227
654,034;40233,460;    0,282;    1,591
654,610;41799,870;    0,554;    0,773
655,186;43108,008;    0,645;    3,045
655,762;42852,509;   -0,991;    0,409
656,338;42847,193;    0,100;    0,136
656,913;43820,421;   -0,082;    0,409
657,489;43088,286;    0,827;   -0,318
658,065;43038,515;   -0,173;   -1,591
658,641;43774,925;   -0,900;   -0,864
659,217;43121,972;   -0,991;    0,409
659,792;42477,655;    0,645;   -0,409
660,368;42725,066;   -2,173;   -0,682
660,944;42503,658;   -2,082;    1,227
661,519;38389,614;   -0,628;    0,409
662,095;32787,479;   -1,719;    0,591
662,670;28146,980;    1,281;   -0,136
663,246;26896,118;    1,009;   -0,409
663,821;26153,983;    0,281;    1,682
664,396;25637,575;    0,009;    1,864
664,972;25909,258;    0,009;   -0,500
665,547;26196,578;    1,372;    0,136
666,122;26212,443;   -1,082;    0,318
666,698;26460,126;   -0,173;    0,318
667,273;25819,809;   -0,173;    0,136
667,848;26622,038;    2,372;    1,500
668,423;26406,175;    2,190;    2,318
668,998;26946,040;    2,827;   -0,682
669,573;27507,178;   -3,264;   -1,500
670,148;27395,770;   -1,446;   -0,682
670,723;27190,908;   -1,810;    0,318
671,298;27580,046;    2,372;    1,045
671,873;27679,547;   -0,082;   -0,136
672,448;27646,139;    0,645;    0,136
673,023;28037,913;   -1,992;   -0,227
673,597;28277,324;    0,827;    2,318
674,172;28091,643;   -0,355;    0,318
674,747;27582,781;    0,372;   -1,045
675,321;27422,737;   -0,628;    3,318
675,896;26989,693;    0,645;    1,045
676,471;28024,558;    2,645;    1,591
677,045;27840,696;   -1,264;    0,682
677,620;27811,924;    0,190;    1,136
678,194;28138,607;   -2,628;    1,136
678,769;27658,291;   -1,083;   -0,318
679,343;27881,974;   -0,628;    1,773
679,917;27793,475;   -1,446;    1,955
680,492;27875,613;    0,826;    3,227
681,066;28045,932;    3,372;    0,409
681,640;28052,979;    1,463;   -0,318
682,214;28849,935;    0,735;    0,500
682,788;28429,164;   -1,356;   -0,773
683,363;28323,210;   -1,810;    1,682
683,937;28056,985;   -1,719;   -0,318
684,511;28791,304;    0,463;   -0,591
685,085;28504,896;   -1,356;    0,318
685,659;28240,489;   -2,538;    0,864
686,232;28489,172;   -0,356;   -0,318
686,806;28262,128;   -0,901;    0,409
687,380;28836,356;   -0,174;    0,591
687,954;29131,039;   -1,174;    1,136
688,528;28773,723;   -0,719;    1,955
689,101;29509,769;   -3,992;    1,045
689,675;29158,998;   -0,356;   -0,136
690,249;28490,408;   -0,719;    0,409
690,822;28792,364;    0,280;    0,318
691,396;28919,502;   -0,265;    1,227
691,969;28380,276;    1,280;    0,136
692,543;28849,050;   -0,447;   -1,955
693,116;28530,552;   -0,265;   -1,409
693,690;28413,507;    0,099;    0,500
694,263;28976,009;   -1,083;    2,955
694,836;28961,601;    1,371;    3,591
695,410;27629,921;   -0,265;    1,773
695,983;28076,149;    0,189;    0,591
696,556;28058,741;   -0,447;   -1,045
697,129;28426,243;   -0,356;    1,409
697,703;28060,926;   -1,629;    1,955
698,276;28078,882;    1,462;   -0,773
698,849;27883,201;    1,280;    1,409
699,422;28278,157;   -1,083;    0,591
699,995;27959,295;    0,007;    0,136
700,568;28465,524;   -0,629;    3,045
701,140;28495,025;   -2,811;    1,682
701,713;28209,890;   -0,174;    2,409
702,286;27992,119;   -0,538;    0,864
702,859;27853,802;   -0,902;   -0,591
703,432;27023,394;    0,825;    0,682
704,004;27516,623;    0,462;    0,318
704,577;27403,942;   -0,629;    0,136
705,150;27975,080;    0,189;    2,500
705,722;27774,945;   -0,356;   -3,227
706,295;27509,174;   -0,175;   -0,591
706,867;27398,311;   -0,175;    1,955
707,440;27579,994;   -1,720;   -0,409
708,012;27840,678;    0,462;    0,591
708,584;27723,997;    2,462;    0,227
709,157;28007,862;    1,825;   -0,591
709,729;27729,454;    2,280;    2,045
710,301;28596,410;    0,734;    0,045
710,874;28581,002;   -1,447;   -0,227
711,446;27483,140;    0,371;    0,864
712,018;27353,823;    0,098;    0,500
712,590;27077,870;   -1,993;    1,682
713,162;27622,917;    0,825;    1,318
713,734;27890,782;    1,825;   -2,045
714,306;27819,192;   -1,902;   -0,409
714,878;26523,603;    0,825;    0,864
715,450;27306,013;    0,643;    0,864
716,022;27555,060;    1,552;    1,318
716,593;27676,652;    0,189;    0,591
717,165;27590,517;   -3,175;   -1,227
717,737;27324,019;    0,280;    0,409
718,309;26960,156;    0,280;   -0,045
718,880;26959,385;   -0,539;   -1,409
719,452;27215,068;   -0,175;   -1,591
720,024;26773,479;    0,734;   -0,591
720,595;27325,707;   -2,902;    0,955
721,167;26877,663;    0,370;   -2,045
721,738;26395,437;   -0,812;   -1,045
722,309;26372,848;   -0,993;   -1,227
722,881;26118,713;   -1,357;    0,773
723,452;26796,669;   -2,630;    2,864
724,023;26994,715;   -0,721;    2,682
724,595;26775,580;    0,007;    0,682
725,166;26501,082;    0,007;   -0,409
725,737;26163,401;    1,734;    0,227
726,308;26224,721;   -0,266;    0,318
726,879;26711,131;   -1,630;    1,227
727,450;26506,996;    0,552;   -0,045
728,021;26481,588;    3,097;    0,682
728,592;26292,635;    0,734;    0,500
729,163;26570,046;    0,643;   -0,136
729,734;26611,820;    0,188;   -0,227
730,305;26976,412;    1,734;    0,136
730,876;27346,822;    0,188;    2,955
731,447;26952,324;    2,188;    2,682
732,017;27080,371;    1,097;    1,864
732,588;26561,417;    0,734;    1,227
733,159;26764,828;    0,643;   -1,045
733,729;26582,329;    0,006;    0,409
734,300;25913,921;    0,915;    0,864
734,870;26350,695;    3,461;    0,591
735,441;26926,288;    0,370;   -0,591
736,011;26695,062;    0,643;   -1,591
736,582;26655,927;   -0,812;    0,045
737,152;26088,792;   -1,721;   -2,045
737,722;26523,566;   -0,267;   -0,682
738,293;26224,794;   -1,358;    1,318
738,863;26093,841;    2,461;    2,318
739,433;25932,615;    5,279;    0,318
740,003;26646,753;   -0,994;   -0,682
740,573;25999,982;    2,097;   -1,591
741,143;25884,301;   -1,085;    0,318
741,713;26696,984;    1,188;   -0,500
742,283;26434,668;    0,915;    1,591
742,853;26203,533;    1,915;    1,591
743,423;25691,034;    1,733;    0,045
743,993;25827,262;   -0,358;    1,500
744,563;25219,946;    0,097;   -0,864
745,133;25148,811;   -0,812;   -0,864
745,702;25843,857;   -0,267;    1,773
746,272;25021,268;   -0,176;    0,591
746,842;24783,951;   -1,358;   -0,591
747,411;25260,452;   -0,267;   -0,318
747,981;25444,772;    0,097;    0,500
748,551;25482,273;    2,278;   -1,045
749,120;25293,320;    0,642;   -0,227
749,690;25717,912;   -0,631;    2,409
750,259;26039,596;    1,369;    2,955
750,828;25919,097;    1,551;   -1,955
751,398;26188,507;    1,278;   -0,045
751,967;25642,645;    2,187;    0,409
752,536;25913,055;   -0,813;   -0,227
753,105;26323,375;    0,096;    0,227
753,675;26133,967;    0,096;    1,773
754,244;26074,469;   -0,904;    3,591
754,813;26100,152;    0,551;    1,227
755,382;25647,289;    0,460;    0,955
755,951;26198,245;    1,551;    3,682
756,520;25729,201;   -0,085;    1,864
757,089;26295,521;    0,278;    0,500
757,658;26468,840;    1,733;    1,227
758,227;26419,342;    1,096;    0,318
758,795;26749,752;    1,187;    1,136
759,364;27009,163;   -0,086;   -0,591
759,933;25977,755;   -1,176;   -0,045
760,501;25536,529;    0,733;   -1,318
761,070;25996,757;   -2,813;   -1,409
761,639;26702,895;   -1,904;    1,318
762,207;26046,306;    1,551;   -0,955
762,776;25992,898;    0,369;    0,864
763,344;25939,854;   -0,995;    0,591
763,913;25093,901;   -0,722;    1,409
764,481;25849,220;    1,005;   -0,136
765,049;25581,903;   -1,358;    1,409
765,618;25450,950;   -0,086;    0,318
766,186;25591,997;    0,278;    0,136
766,754;25786,316;    0,005;    1,864
767,322;24800,272;   -1,995;    0,409
767,890;24785,319;   -0,722;   -1,773
768,459;25218,548;   -2,177;   -0,318
769,027;25367,413;    1,641;    3,409
769,595;24392,914;    3,278;    2,591
770,163;24829,325;    3,823;    2,955
770,730;24584,280;    0,732;   -0,136
771,298;24447,691;    0,187;   -1,409
771,866;24574,283;   -1,541;    4,955
772,434;24888,057;   -0,631;   -1,864
773,002;25042,922;    0,005;    0,682
773,569;24665,333;    0,914;    1,682
774,137;24506,834;   -0,268;   -0,045
774,705;25267,153;    0,278;   -0,136
775,272;24777,837;    0,641;    0,682
775,840;24508,247;   -0,177;    2,682
776,407;24039,930;    0,277;    1,955
776,975;23668,068;   -0,632;    0,318
777,542;24730,751;   -1,086;   -0,045
778,110;24587,162;   -1,268;   -0,045
778,677;24259,936;   -2,359;   -0,864
779,244;23977,982;    2,186;    1,045
779,812;24080,393;    1,823;    0,864
780,379;23996,622;    0,005;    1,136
780,946;24218,941;    1,005;   -0,773
781,513;24536,079;   -1,450;    0,318
782,080;23913,035;   -0,086;    2,864
782,647;24617,627;   -0,268;    3,045
783,214;24210,856;   -0,177;    3,864
783,781;23825,448;   -0,723;   -0,682
784,348;23726,676;   -0,632;    1,500
784,915;24219,269;   -3,177;    0,318
785,482;23922,225;    1,368;    2,591
786,049;24349,999;    0,186;   -0,591
786,615;24520,136;    0,277;   -0,955
787,182;24225,456;    0,186;   -0,682
787,749;23922,139;   -2,814;    1,409
788,315;23260,004;   -1,632;   -0,409
788,882;23555,960;    1,550;   -1,227
789,448;24178,552;    1,732;   -0,955
790,015;24270,235;    1,095;    3,227
790,581;23850,100;    1,459;    0,227
791,148;23731,056;    0,641;    1,045
791,714;23889,194;   -0,541;    3,136
792,280;23588,241;    0,186;    1,591
792,847;23224,742;    0,550;    2,500
793,413;23788,607;   -0,269;   -0,318
793,979;23289,472;    3,459;   -1,318
794,545;23397,883;    4,459;    2,682
795,111;22789,566;    2,186;    1,318
795,678;22988,976;    0,731;   -1,682
796,244;22610,568;    3,368;    0,136
796,810;23185,070;    1,731;    0,773
797,375;22878,207;    0,549;   -2,136
797,941;22867,436;   -0,541;    0,591
798,507;23060,756;   -0,451;   -0,955
799,073;22662,984;   -0,360;    0,591
799,639;22732,486;   -2,632;    3,136
800,205;22797,987;    0,095;    2,682
800,770;22278,670;    0,640;    1,773
801,336;22403,535;    1,368;   -0,955
801,901;22022,309;    4,549;    3,136
802,467;22602,356;   -0,542;    2,045
803,033;22017,039;   -0,087;    0,864
803,598;22259,813;    1,913;   -1,045
804,163;22257,133;    1,095;   -0,318
804,729;22155,998;   -0,178;    1,136
805,294;22582,772;    0,822;    2,227
805,859;22391,819;    0,731;   -0,409
806,425;21822,502;    1,186;    2,682
806,990;21500,094;    2,186;    4,318
807,555;22011,595;   -1,451;    2,591
808,120;21854,097;    0,822;   -0,409
808,685;21948,689;    0,185;   -2,500
809,250;21514,554;    0,004;   -0,500
809,815;21764,055;    1,913;    0,682
810,380;22321,466;   -0,269;    1,591
810,945;22838,785;   -1,087;    2,045
811,510;22051,468;    2,094;    1,591
812,075;21734,152;   -0,633;   -1,409
812,640;21743,744;    2,003;    1,409
813,204;21807,882;    0,822;   -0,227
813,769;22292,837;    2,094;   -0,045
814,334;21696,430;    0,458;    0,864
814,898;21741,295;    0,367;    0,591
815,463;21620,705;    1,276;   -0,773
816,027;21615,025;   -0,724;   -2,318
816,592;21671,435;    0,640;   -2,045
817,156;21206,664;    2,094;    1,136
817,721;21036,256;    4,276;    2,318
818,285;21031,394;    2,912;    1,500
818,849;21652,077;   -1,451;    1,682
819,414;21587,942;   -0,269;    2,955
819,978;21165,261;   -1,269;    1,773
820,542;21745,490;    2,003;    0,500
821,106;21466,810;   -0,815;    0,682
821,670;21566,947;   -0,815;    2,591
822,234;21296,539;   -0,270;    1,409
822,798;20700,495;    0,003;    0,500
823,362;20688,269;   -0,633;    4,227
823,926;19971,680;    0,094;    1,136
824,490;20166,818;   -0,997;   -0,682
825,054;20595,955;   -0,088;   -1,136
825,618;20255,093;   -1,542;   -1,500
826,181;20212,140;    0,458;   -1,318
826,745;20089,732;    1,367;   -1,045
827,309;20412,779;    1,185;    1,318
827,872;19828,462;    1,367;    0,955
828,436;20815,236;    1,185;   -0,773
828,999;20883,101;   -0,997;    1,227
829,563;19676,693;   -0,179;    1,136
830,126;19504,558;   -0,179;   -0,591
830,690;19500,514;   -1,997;    2,864
831,253;19050,834;   -0,543;    2,227
831,816;19227,517;   -1,906;    0,500
832,380;19097,836;    0,185;    0,864
832,943;19352,883;   -1,361;   -0,500
833,506;18843,021;    2,639;   -1,227
834,069;19582,977;    3,912;   -0,955
834,632;19674,569;    1,730;    1,318
835,195;19578,161;    1,003;    0,955
835,758;18784,935;   -0,997;    1,955
836,321;18676,528;    0,730;   -1,045
836,884;18745,211;   -0,725;   -0,955
837,447;18769,258;   -2,816;    1,773
838,010;18981,486;    0,366;    3,227
838,573;19293,624;   -1,179;    0,773
839,135;19269,216;   -1,361;   -0,955
839,698;18783,718;    1,275;    0,409
840,261;18325,674;    1,003;   -0,227
840,823;18119,448;   -0,543;    0,864
841,386;18444,585;   -0,452;   -2,409
841,948;18305,541;   -1,361;    1,773
842,511;18066,315;    0,912;    1,682
843,073;18166,544;    1,912;    0,227
843,636;17988,954;   -0,361;   -0,227
844,198;17909,183;    0,911;    0,591
844,760;18053,866;    1,093;    1,955
845,322;17689,186;    0,548;    1,136
845,885;18094,869;    0,730;    0,591
846,447;18545,461;   -1,998;    0,227
847,009;18076,417;    1,911;   -0,682
847,571;18471,373;    0,820;   -2,045
848,133;18553,511;   -1,089;   -1,864
848,695;18394,739;   -0,543;    1,409
849,257;17925,513;   -1,089;   -1,682
849,819;18112,287;   -0,998;   -0,409
850,381;18176,880;   -0,725;   -0,864
850,942;18493,108;    1,093;   -0,591
851,504;18466,337;    1,184;    0,227
852,066;18525,293;    1,275;   -1,591
852,628;18061,612;   -0,180;    1,955
853,189;17619,659;    1,638;    2,682
853,751;17753,706;   -0,907;    1,409
854,312;17546,662;   -0,453;   -1,682
854,874;17994,709;   -2,089;   -0,773
855,435;18526,119;   -0,907;   -1,682
855,997;18693,529;   -1,816;   -0,136
856,558;17985,485;    0,366;    1,773
857,119;18122,078;    0,820;    2,864
857,681;17816,761;    0,002;    0,318
858,242;17860,626;    1,911;   -2,136
858,803;18301,854;    0,456;   -0,773
859,364;18871,719;    0,184;   -4,773
859,925;18217,675;   -2,453;   -0,955
860,486;18071,722;   -0,453;   -0,955
861,047;17793,678;   -0,544;   -1,227
861,608;17640,361;   -1,089;   -0,773
862,169;17732,772;    0,638;   -0,045
862,730;17524,546;    0,456;    1,409
863,291;17757,774;   -0,635;   -0,500
863,852;18173,276;   -0,635;    1,955
864,412;17644,322;   -0,271;   -0,864
864,973;16208,733;   -0,089;    0,500
865,534;16060,052;   -1,726;    0,227
866,094;17540,554;    1,820;    0,227
866,655;17232,510;    1,274;    3,318
867,215;17513,011;    0,274;    0,136
867,776;17364,058;    0,547;   -0,136
868,336;17450,377;   -1,453;    0,136
868,897;16926,697;    2,638;    1,682
869,457;16655,016;    1,365;    0,318
870,017;16910,427;    0,547;   -1,227
870,578;17383,110;   -0,817;    0,773
871,138;17082,430;   -2,089;   -0,955
871,698;16628,567;   -0,817;   -1,318
872,258;16490,523;   -0,453;   -2,864
872,818;16885,843;    2,729;    0,045
873,378;16868,617;    0,638;    1,045
873,938;16448,936;    0,547;    0,500
874,498;16773,892;    0,274;   -1,955
875,058;16648,575;    2,183;    1,773
875,618;16471,077;    1,910;   -2,682
876,177;16401,123;    1,274;    0,136
876,737;16034,898;   -0,090;    1,955
877,297;16067,672;    0,183;    1,955
877,856;16077,082;   -0,362;    0,318
878,416;16011,038;    1,183;   -0,136
878,976;16234,448;   -1,817;    0,409
879,535;16408,586;    0,092;    3,136
880,095;16130,451;   -0,544;    0,045
880,654;16249,316;   -1,090;    1,318
881,213;16343,363;    2,456;    1,500
881,773;15960,228;    2,637;    2,682
882,332;16280,729;    3,365;    5,136
882,891;16149,776;    3,092;    2,136
883,451;16628,823;   -1,272;    1,682
884,010;16079,142;   -2,908;   -0,409
884,569;16155,462;   -0,999;   -0,045
885,128;16340,781;    2,819;   -1,864
885,687;16389,192;    4,455;    0,682
886,246;16082,057;    1,455;    2,136
886,805;15828,195;    2,455;    2,045
887,364;16122,878;   -0,999;   -0,500
887,922;16535,470;   -1,181;    0,045
888,481;16022,062;   -1,545;    0,591
889,040;16329,018;    1,183;    2,136
889,599;16973,701;    2,455;    1,409
890,157;17035,294;    1,455;    2,409
890,716;16701,704;   -0,090;    0,227
891,274;16540,751;    0,092;   -1,136
891,833;16967,343;    1,546;    0,864
892,391;16857,935;   -0,454;    0,500
892,950;16902,800;    1,819;   -0,773
893,508;17286,756;    0,455;   -0,409
894,067;16632,076;    0,637;    0,136
894,625;16522,668;   -0,636;   -1,500
895,183;16771,806;   -0,363;   -0,682
895,741;16650,489;    1,728;   -1,773
896,299;16484,445;   -0,545;   -2,409
896,858;16680,128;    0,819;   -1,591
897,416;16803,993;    2,728;   -1,318
897,974;16551,858;    1,819;    0,318
898,532;16664,723;    6,091;    2,682
899,089;16612,679;    2,091;   -0,682
899,647;16674,635;   -1,454;    1,318
900,205;16348,500;    1,182;    1,045
900,763;16559,001;   -0,454;    0,227
901,321;16581,866;    2,364;   -1,409
901,878;16066,276;   -1,000;   -0,773
902,436;15924,687;   -1,363;    1,318
902,994;16291,643;    4,728;    3,682
903,551;15748,053;    0,728;    0,409
904,109;16115,464;    0,182;   -1,409
904,666;15748,147;    2,455;    1,045
905,224;15597,284;    0,182;   -0,409
905,781;15336,604;    0,727;   -0,318
906,338;15398,560;   -1,363;    1,045
906,895;15310,607;    0,637;    2,045
907,453;15233,563;    1,727;    1,136
908,010;15321,337;   -0,909;    0,409
908,567;14943,111;    1,273;    0,591
909,124;14452,885;    0,364;   -1,500
909,681;14566,023;   -2,909;    0,682
910,238;14682,978;    0,636;   -1,318
910,795;15016,753;   -0,273;   -1,136
911,352;14630,843;   -2,909;   -2,682
911,909;14043,389;   -1,364;   -0,864
912,466;14544,934;   -3,182;    1,500
913,022;14106,843;   -1,636;    0,500
913,579;14466,389;   -0,909;    2,045
914,136;14188,843;    1,636;    0,955
914,692;14493,662;    0,091;   -1,227
915,249;14099,753;    1,455;    0,409
915,806;14323,753;    0,182;    1,955
916,362;14069,662;    1,909;    1,864
916,918;13651,662;    2,000;    1,045
917,475;13635,025;   -1,182;    0,955
918,031;13713,480;    3,364;   -0,045
918,587;13187,843;   -0,909;   -0,318
919,144;13397,025;   -2,273;    0,227
919,700;13721,025;    1,727;    0,773
920,256;13309,934;    0,727;    0,045
920,812;12927,753;   -0,727;   -1,045
921,368;12919,843;   -1,727;   -1,045
921,924;12541,662;    0,182;   -0,136
922,480;12137,662;   -0,545;    1,227
923,036;12741,298;    1,273;    1,955
923,592;12708,298;    0,455;    0,318
924,148;12615,207;    0,455;   -0,955
924,704;11918,389;   -1,364;   -0,409
925,259;12178,662;   -0,273;    0,591
925,815;11989,662;    1,455;    0,500
926,371;11509,934;    2,909;    1,409
926,926;11370,389;    2,091;    0,591
927,482;11024,753;   -1,364;    0,773
928,037;10895,116;    0,909;    2,045
928,593;11161,298;    1,636;    1,045
929,148;11015,480;   -1,818;   -1,500
929,704;10554,480;   -1,455;   -0,500
930,259;10731,025;    0,091;   -0,136
930,814; 9818,753;   -0,818;    1,955
931,369; 9497,571;    1,091;   -0,773
931,925; 9386,207;   -0,091;    0,136
932,480; 9309,843;   -2,818;   -2,591
933,035; 9194,207;    0,545;   -0,318
933,590; 8953,389;    0,364;   -1,773
934,145; 8640,753;   -1,364;   -0,318
934,700; 8989,207;    0,455;   -0,591
935,255; 8782,207;   -0,091;    0,045
935,809; 8088,207;    3,182;    0,864
936,364; 7243,298;   -0,455;   -0,136
936,919; 7216,025;    0,455;   -1,773
937,474; 7095,571;    1,455;    0,136
938,028; 6873,843;   -1,636;    1,136
938,583; 6359,843;    1,818;    4,682
939,138; 6648,934;    2,091;    2,136
939,692; 6098,843;    1,636;   -1,136
940,247; 5795,207;   -0,727;   -1,045
940,801; 5351,116;   -0,636;    0,227
941,355; 5281,934;   -0,364;    2,591
941,910; 4938,843;   -0,273;   -2,136
942,464; 5022,753;   -0,818;   -0,318
943,018; 4812,298;    1,000;   -0,227
943,572; 4774,025;    2,545;   -0,682
944,126; 4207,662;    0,091;   -0,409
944,681; 4083,389;    3,091;    0,227
945,235; 4084,389;    1,000;   -0,591
945,789; 4032,934;    0,364;   -1,864
946,342; 4110,662;    0,455;   -0,591
946,896; 3939,662;   -2,273;    0,955
947,450; 3703,116;    1,545;   -0,227
948,004; 3865,753;    1,727;   -0,045
948,558; 3900,753;    0,273;   -0,864
949,111; 3832,753;   -0,273;   -0,318
949,665; 3863,480;    1,636;   -0,682
950,219; 3730,207;   -0,091;   -1,045
950,772; 3791,116;   -1,909;    1,864
951,326; 3703,662;    0,545;   -0,955
951,879; 3788,298;    0,727;   -2,318
952,433; 3823,025;    0,000;    2,227
952,986; 3668,298;    2,909;    0,682
953,539; 3616,753;   -0,273;    0,591
954,093; 3559,934;    0,545;   -1,318
954,646; 3674,753;    0,909;    1,318
955,199; 3505,207;    0,000;   -0,500
955,752; 3395,480;   -0,455;    1,773
956,305; 3357,025;   -0,091;    2,955
956,858; 3522,025;    0,818;   -0,318
957,411; 3691,207;   -0,545;    2,136
957,964; 3519,934;    1,364;    2,136
958,517; 3506,843;   -1,545;    3,136
959,070; 3358,025;   -0,455;    1,955
959,623; 3404,662;    1,091;    1,500
960,176; 3201,298;    1,727;    2,045
960,728; 3163,298;   -2,727;    0,773
961,281; 3214,389;    0,545;    0,500
961,834; 3268,389;   -0,909;    0,864
962,386; 3213,298;    1,727;    1,045
962,939; 3133,207;    0,364;   -0,318
963,491; 3248,571;    0,455;    1,136
964,043; 3126,571;    1,182;    2,409
964,596; 3257,207;   -1,000;    2,227
965,148; 3089,389;   -1,000;    1,773
965,700; 3035,389;    1,091;   -0,227
966,253; 3178,480;   -0,636;    0,318
966,805; 3017,298;   -2,273;    0,773
967,357; 3047,389;    1,091;   -1,500
967,909; 3027,116;    0,455;   -1,227
968,461; 3124,298;    0,545;    3,136
969,013; 3063,934;   -0,182;   -0,864
969,565; 3126,662;   -0,455;   -1,136
970,117; 3204,207;   -0,364;    1,045
970,669; 3039,116;    0,182;   -0,136
971,220; 2909,480;   -0,455;   -1,500
971,772; 2839,389;   -0,636;   -0,318
972,324; 2967,571;    0,091;   -0,500
972,876; 2879,389;    0,818;   -0,045
973,427; 3023,753;    1,909;   -1,045
973,979; 3003,662;   -0,727;   -2,500
974,530; 3058,571;    1,818;    1,318
975,082; 3055,934;   -0,545;    1,682
975,633; 2943,571;    1,091;    1,682
976,184; 3088,662;    0,909;    0,773
976,736; 2881,116;    0,091;    0,227
977,287; 2700,298;   -0,909;   -0,500
977,838; 2869,207;    0,909;   -0,318
978,389; 2916,753;   -1,000;   -0,500
978,940; 2811,025;    0,545;   -0,409
979,491; 2827,025;    0,091;   -0,500
980,042; 2788,934;    0,182;    3,045
980,593; 2852,207;   -2,545;    0,227
981,144; 2898,389;    2,545;   -0,500
981,695; 2867,843;    1,455;    1,500
982,246; 2830,843;   -0,273;    1,045
982,797; 2978,662;   -1,727;    0,682
983,347; 3076,025;    0,364;    0,591
983,898; 3222,480;    3,091;    0,409
984,449; 3065,662;    2,182;    0,773
984,999; 2972,025;    1,455;   -1,136
985,550; 2783,207;    0,182;   -0,318
986,100; 2827,571;   -0,455;   -0,318
986,651; 2849,571;   -0,818;    0,045
987,201; 2810,207;   -1,000;   -0,591
987,751; 2879,116;    0,818;    2,864
988,302; 2882,025;    2,636;    1,500
988,852; 2895,389;    0,455;   -1,136
989,402; 2953,207;    0,091;    0,682
989,952; 2865,480;   -2,182;    0,864
990,502; 2978,843;   -0,091;    0,682
991,052; 2932,571;   -0,727;    0,045
991,602; 2806,662;   -2,909;    1,318
992,152; 2797,298;    0,455;    0,682
992,702; 2777,753;    1,364;   -0,045
993,252; 2689,571;   -3,000;   -0,500
993,802; 2789,207;   -0,273;    1,318
994,352; 3022,480;   -1,545;    1,136
994,901; 3104,843;   -0,182;    3,227
995,451; 3010,025;   -0,182;    0,318
996,000; 3089,662;    1,636;    0,318
996,550; 2831,662;    2,273;    0,227
997,100; 2822,934;    1,273;   -0,045
997,649; 3103,480;    2,182;    0,955
998,198; 2759,571;    1,727;   -1,500
998,748; 2942,207;    1,091;   -2,318
999,297; 2856,480;   -0,818;   -0,409
999,846; 2906,753;    1,000;   -0,773
1000,395; 2973,662;   -0,818;    0,500
1000,945; 2929,116;    1,818;   -0,773
1001,494; 2996,389;    2,364;    0,682
1002,043; 3004,025;    4,636;    0,864
1002,592; 2835,571;   -1,091;    1,955
1003,141; 2989,571;   -0,455;   -0,682
1003,690; 2845,025;    1,727;    0,500
1004,238; 2916,207;    1,455;   -0,045
1004,787; 2569,843;    1,364;    1,227
1005,336; 2801,480;    0,364;    0,682
1005,885; 2947,207;    1,364;   -2,773
1006,433; 3067,025;    0,545;    0,955
1006,982; 3117,207;    0,455;    1,682
1007,531; 3050,116;   -1,818;   -0,227
1008,079; 2996,753;   -2,273;    0,500
1008,627; 3131,843;   -1,455;    0,409
1009,176; 2882,207;    0,000;   -1,955
1009,724; 2929,207;    1,091;    0,864
1010,273; 2989,571;    1,273;    0,500
1010,821; 3086,116;    0,091;    1,409
1011,369; 2828,207;   -1,364;    1,318
1011,917; 2807,934;   -1,364;   -0,591
1012,465; 3083,934;    1,273;   -1,591
1013,013; 3193,025;    2,091;   -1,682
1013,561; 3079,934;    0,455;   -0,773
1014,109; 3132,116;   -1,909;    1,682
1014,657; 3012,480;    0,364;    0,591
1015,205; 3118,843;    1,636;   -0,955
1015,753; 3153,298;   -0,545;   -1,409
1016,301; 3193,116;   -2,636;    3,045
1016,848; 3200,843;   -1,273;    0,409
1017,396; 3239,753;    2,545;    0,045
1017,944; 3354,934;    1,182;    1,864
1018,491; 3120,753;    0,273;    1,409
1019,039; 3270,571;    0,455;    0,591
1019,586; 3200,934;   -1,364;    1,682
1020,134; 3301,207;    0,455;    1,500
1020,681; 3322,480;    0,182;   -1,136
1021,228; 3330,207;    2,909;   -2,227
1021,776; 3165,571;    1,182;   -1,136
1022,323; 3355,934;    0,455;    0,773
1022,870; 3296,207;   -1,000;   -0,045
1023,417; 3209,207;    2,636;    1,864
1023,964; 3357,298;    2,636;    1,227
1024,511; 3205,571;    1,000;    0,773
1025,058; 2995,753;    3,182;   -0,045
1025,605; 3066,480;   -2,273;    3,136
1026,152; 3274,843;    1,727;   -0,591
1026,699; 2989,934;    1,818;    1,318
1027,245; 3159,571;   -0,091;    0,318
1027,792; 3382,298;   -1,000;    1,409
1028,339; 3260,934;    2,364;   -0,045
1028,885; 3100,025;    1,000;   -0,227
1029,432; 3043,753;   -0,091;    0,227
1029,978; 3102,389;   -1,000;   -1,591
1030,525; 3014,298;    1,000;    0,409
1031,071; 3274,571;   -1,364;    1,136
1031,618; 3375,753;    0,364;    1,682
1032,164; 3159,934;   -0,091;    3,045
1032,710; 3169,571;    1,636;   -1,500
1033,256; 3091,662;   -0,636;   -0,136
1033,803; 3108,571;   -0,545;    1,500
1034,349; 2829,843;   -1,364;    0,136
1034,895; 2983,934;    0,000;   -0,318
1035,441; 2965,843;   -0,818;    0,318
1035,987; 2972,025;   -2,364;   -0,682
1036,533; 2969,934;   -1,455;   -0,955
1037,078; 3161,207;    1,455;    1,682
1037,624; 2992,389;    2,455;   -0,955
1038,170; 3030,025;    0,455;   -0,318
1038,716; 2932,116;    1,636;   -0,409
1039,261; 2836,662;   -2,273;   -0,773
1039,807; 2784,480;   -0,091;    3,409
1040,352; 2841,480;   -1,909;   -0,318
1040,898; 2863,298;   -1,545;   -0,682
1041,443; 2800,025;   -1,455;   -2,591
1041,989; 2823,025;    1,091;    1,591
1042,534; 2709,298;   -0,364;    2,591
1043,079; 2822,571;    2,909;    0,955
1043,625; 2602,116;    1,818;    0,500
1044,170; 2658,753;   -1,364;    1,045
1044,715; 2904,389;    2,455;    0,955
1045,260; 2726,298;    2,182;   -0,955
1045,805; 2783,298;    1,182;   -0,591
1046,350; 2711,662;    1,364;   -0,409
1046,895; 2668,934;    2,909;    1,591
1047,440; 2615,480;    5,364;    0,409
1047,985; 2514,662;    2,818;   -0,955
1048,530; 2443,934;    1,545;    1,227
1049,074; 2513,571;    0,000;    0,318
1049,619; 2494,753;   -1,364;    1,955
1050,164; 2295,207;    0,455;    0,227
1050,708; 2342,843;   -0,455;    0,045
1051,253; 2690,025;    1,273;   -2,227
1051,797; 2412,662;    0,818;   -1,318
1052,342; 2431,116;   -1,182;    1,045
1052,886; 2435,116;    0,364;   -1,409
1053,430; 2312,116;   -1,364;    0,136
1053,975; 2321,025;   -0,818;   -0,318
1054,519; 2281,934;   -0,727;    3,227
1055,063; 2298,662;    0,909;    1,318
1055,607; 2190,116;   -0,182;    0,227
1056,151; 2215,662;    2,909;    1,682
1056,695; 2134,116;    2,273;   -1,136
1057,239; 2212,389;   -1,727;   -0,682
1057,783; 2217,298;    0,818;   -1,500
1058,327; 2155,116;    0,000;    1,409
1058,871; 2389,207;   -0,545;    1,318
1059,415; 2109,934;   -0,818;   -0,045
1059,958; 2363,843;    1,455;    2,591
1060,502; 2086,116;   -1,000;   -0,773
1061,046; 1991,662;    0,364;   -0,955
1061,589; 1981,843;   -3,000;   -1,136
1062,133; 1867,116;   -1,273;    1,864
1062,676; 1790,298;    1,182;    0,864
1063,220; 1795,298;    1,091;    0,500
1063,763; 1815,298;    0,909;    1,136
1064,306; 1901,571;   -0,909;    1,864
1064,849; 1784,662;   -0,909;    0,591
1065,393; 1793,389;    2,000;   -1,500
1065,936; 1897,934;    0,182;   -0,409
1066,479; 1799,207;   -1,455;    1,318
1067,022; 1807,025;   -0,273;   -0,227
1067,565; 1709,389;   -0,091;   -1,318
1068,108; 1731,389;    0,727;   -0,591
1068,651; 1713,843;   -0,636;    1,409
1069,194; 1638,480;   -0,455;   -1,682
1069,736; 1637,389;   -1,273;    0,955
1070,279; 1609,116;   -1,364;   -0,500
1070,822; 1670,662;   -2,000;   -0,318
1071,364; 1767,753;   -0,364;    1,318
1071,907; 1586,298;   -0,727;    3,227
1072,450; 1501,025;    0,000;   -0,045
1072,992; 1474,662;   -0,273;    3,136
1073,535; 1614,843;    2,091;    2,136
1074,077; 1415,662;   -0,727;    2,045
1074,619; 1382,207;   -1,364;    0,591
1075,161; 1414,207;   -1,091;    1,500
1075,704; 1604,389;    1,545;    1,227
1076,246; 1397,662;   -0,182;    0,682
1076,788; 1321,934;   -0,364;    1,773
1077,330; 1395,116;    1,273;    2,136
1077,872; 1353,753;    0,909;    0,955
1078,414; 1569,571;    2,727;    0,773
1078,956; 1309,116;    1,273;   -0,227
1079,498; 1563,207;    1,636;    0,318
1080,040; 1277,934;    1,909;   -1,318
1080,581; 1219,753;    1,636;   -0,318
1081,123; 1147,571;    0,091;   -0,773
1081,665; 1209,298;   -1,182;   -0,955
1082,206; 1486,753;    1,364;   -0,500
1082,748; 1336,934;    0,727;    2,045
1083,289; 1219,843;   -2,000;    1,318
1083,831; 1142,389;   -0,545;    0,227
1084,372; 1186,116;    0,000;    0,591
1084,913; 1175,025;    1,091;    0,864
1085,455; 1140,025;   -1,909;   -2,045
1085,996; 1119,480;   -2,273;    0,136
1086,537; 1132,116;   -0,091;    0,864
1087,078; 1156,298;   -0,909;   -2,136
1087,619; 1201,480;   -1,273;    0,227
1088,160; 1124,116;    0,000;    1,318
1088,701; 1115,389;   -1,091;    0,682
1089,242; 1056,207;    1,364;   -2,227
1089,783; 1146,843;   -0,273;    1,409
1090,324; 1113,116;    0,455;    0,682
1090,865; 1001,753;    2,727;   -0,409
1091,405;  980,025;    0,727;    2,227
1091,946;  998,389;    0,182;   -0,955
1092,487;  928,480;    0,818;   -1,409
1093,027; 1095,298;   -1,364;   -1,500
1093,568;  933,753;   -0,364;    1,227
1094,108; 1026,207;    0,273;    1,773
1094,649;  971,116;   -1,182;    0,136
1095,189;  917,298;   -0,636;   -0,682
1095,729;  854,207;   -0,091;    0,955
1096,269;  873,934;    0,727;   -0,955
1096,810; 1177,934;   -1,364;    0,500
1097,350; 1001,934;    1,364;   -0,773
1097,890;  908,662;    0,364;    1,227
1098,430; 1155,025;    2,364;    2,864
1098,970; 1025,753;    2,182;    1,682
1099,510;  886,298;    0,545;   -2,318
1100,050;  829,389;    1,000;   -1,591
1100,589;  800,025;   -0,727;   -0,318
1101,129;  914,662;    0,818;   -0,955
1101,669; 1058,843;    1,727;    2,136
1102,209;  877,389;   -0,091;    2,227
1102,748;  832,934;    0,000;    0,955
1103,288;  828,207;    1,273;   -1,227
1103,827;  853,207;    3,091;   -2,227
1104,367;  738,207;   -0,091;   -2,409
1104,906;  697,753;    1,364;   -1,136
1105,445;  774,207;    0,636;   -1,136
1105,985;  715,389;   -0,727;    1,500
1106,524;  753,389;   -1,727;   -0,682
1107,063;  731,934;   -2,727;    1,409
1107,602;  717,298;   -1,909;   -1,500
1108,141;  626,662;   -1,909;    1,500
1108,680;  735,207;   -3,455;   -0,591
1109,219;  670,025;   -0,909;   -0,500
1109,758;  671,389;    0,455;    0,682
1110,297;  645,389;    1,000;   -0,682
1110,836;  594,843;   -0,727;    0,955
1111,375;  766,116;   -2,545;    0,409
1111,913;  772,571;   -1,000;    0,773
1112,452;  707,298;   -0,273;    0,136
1112,991;  594,025;    1,091;    1,955
1113,529;  543,207;   -0,818;   -0,045
1114,068;  622,207;   -0,273;    2,955
1114,606;  527,389;   -0,364;   -0,955
1115,144;  678,843;   -1,273;    1,045
1115,683;  614,025;   -0,727;    0,318
1116,221;  661,025;   -0,455;   -0,864
1116,759;  582,025;    0,636;   -0,864
1117,297;  767,934;    0,000;    1,864
1117,836;  575,389;   -2,182;   -1,227
1118,374;  585,116;    0,182;   -0,682
1118,912;  520,662;    0,909;    2,682
1119,450;  514,480;    1,000;    0,864
1119,988;  569,298;    1,545;    2,136
1120,525; 1025,207;    5,091;    3,318
1121,063;  727,207;    1,182;    1,864
1121,601;  531,480;   -0,909;   -1,227
1122,139;  488,480;   -0,727;   -2,045
1122,676;  676,480;   -0,727;    2,773
1123,214;  605,116;   -1,182;    4,409
1123,751;  422,662;    1,727;    2,227
1124,289;  558,480;   -0,091;   -0,409
1124,826;  429,298;    1,727;    0,227
1125,364;  356,389;    1,727;   -0,955
1125,901;  534,571;    1,182;    1,227
1126,438;  638,116;    0,818;    0,955
1126,975;  373,298;   -0,727;   -0,773
1127,513;  445,662;    0,273;    2,136
1128,050;  361,389;    1,636;   -0,682
1128,587;  448,480;    2,000;   -0,227
1129,124;  482,480;    0,091;    1,318
1129,661;  355,025;    0,273;    0,227
1130,198;  530,934;    1,636;    0,773
1130,734;  478,025;    0,182;    1,409
1131,271;  332,025;   -0,909;    0,864
1131,808;  489,025;    2,909;    3,045
1132,345;  371,389;    1,545;    0,318
1132,881;  251,025;   -1,545;   -1,864
1133,418;  384,025;    0,727;   -1,136
1133,954;  321,662;    2,455;   -2,682
1134,491;  402,480;    1,364;   -0,773
1135,027;  296,480;    2,364;    0,864
1135,564;  384,025;    0,273;    2,955
1136,100;  368,480;    0,364;    2,136
1136,636;  269,389;   -1,273;   -1,045
1137,172;  352,662;    0,000;   -1,045
1137,708;  276,116;   -1,364;   -1,045
1138,245;  271,025;    1,273;   -1,227
1138,781;  230,116;    1,091;   -3,318
1139,317;  296,207;    1,273;   -1,409
1139,852;  287,480;    3,091;    0,136
1140,388;  402,571;   -1,182;   -0,409
1140,924;  290,298;   -1,091;   -2,227
1141,460;  226,753;   -1,636;    0,136
1141,996;  167,389;   -1,364;    2,682
1142,531;  212,934;    1,364;    3,318
1143,067;  425,025;    1,182;    1,045
1143,602;  484,934;   -0,091;   -0,318
1144,138;  327,389;   -2,636;    1,045
1144,673;  194,389;   -1,455;    1,409
1145,209;  260,934;   -1,909;   -0,318
1145,744;  175,298;   -0,727;    0,864
1146,279;  306,571;    1,818;   -0,136
1146,815;  235,025;    1,545;   -2,682
1147,350;  267,753;   -1,364;    0,045
1147,885;  177,207;   -0,818;   -1,318
1148,420;  175,116;   -2,273;    0,773
1148,955;  171,934;   -1,727;    1,864
1149,490;  189,389;   -0,909;   -1,591
1150,025;  182,753;    0,455;   -1,773
1150,560;  291,480;    1,091;   -0,955
1151,094;  255,843;    1,455;   -0,591
1151,629;  258,571;    1,636;    0,864
1152,164;  179,662;    1,364;    1,318
1152,698;  145,934;   -0,182;   -0,136
1153,233;   99,571;    0,091;   -0,682
1153,767;  148,753;   -3,000;   -2,318
1154,302;  197,389;   -1,455;    1,773
1154,836;  195,298;   -0,455;   -2,136
1155,371;  253,207;   -1,364;    3,682
1155,905;  206,480;   -0,636;    1,682
1156,439;  169,298;   -0,636;   -0,500
1156,973;  200,480;    0,364;    0,318
1157,507;  140,298;   -0,364;    0,682
1158,042;  162,207;   -0,727;    1,045
1158,576;  208,843;    0,182;    1,773
1159,110;  199,207;   -0,818;    2,409
1159,643;  173,480;    0,636;   -0,045
1160,177;  119,662;   -1,545;    1,500

