
Integration time [ms]:   0,040
Averaging Nr. [scans]: 11
Smoothing Nr. [pixels]: 0
Data measured with spectrometer [name]: 7318044SP
Wave   ;Sample   ;Dark     ;Reference
[nm]   ;[counts] ;[counts] ;[counts] 

186,757;   25,699;   31,551;    1,318
187,357;   60,800;   22,551;    0,955
187,958;   33,954;   15,460;   -1,591
188,558;   79,425;    8,915;   -1,227
189,159;   45,802;    6,733;   -4,500
189,759;   13,589;    7,278;   -3,591
190,360;   12,071;    2,824;   -2,136
190,960;   57,854;    2,915;   -4,136
191,560;   66,990;    3,189;   -6,591
192,161;  291,954;    4,372;   -3,500
192,761;  148,259;    4,010;   -3,227
193,361;   93,366;    1,556;   -3,773
193,962;  147,391;    2,010;   -2,682
194,562;   75,711;    1,189;   -3,955
195,162;  101,082;   -2,448;   -2,227
195,762;  256,977;   -3,176;   -0,045
196,362;  206,441;    1,370;   -2,500
196,963;   80,848;    2,006;   -0,864
197,563;  145,335;    1,551;   -0,955
198,163;   98,665;    0,096;   -0,682
198,763;  116,501;    1,733;   -0,500
199,363;  217,564;    3,096;   -0,500
199,963;  184,134;    0,369;    0,409
200,563;  155,266;    2,823;   -1,409
201,163;  131,127;    3,277;   -0,227
201,763;  224,486;    3,732;    0,318
202,363;  170,099;    1,459;    1,500
202,963;  271,809;    1,459;    1,045
203,563;  382,377;    0,277;    0,500
204,162;  226,743;    2,096;   -1,864
204,762;  210,777;    0,550;    0,591
205,362;  183,006;    3,004;    1,955
205,962;  285,035;    3,096;    1,955
206,562;  288,029;    1,823;    2,318
207,161;  253,573;   -0,087;    0,318
207,761;  400,423;    1,277;    2,409
208,361;  284,654;   -0,268;    1,409
208,960;  382,905;    0,459;    1,500
209,560;  449,506;    1,277;    1,591
210,160;  430,586;    0,550;    1,864
210,759;  395,700;    4,186;    1,227
211,359;  408,154;    1,459;    1,045
211,958;  673,316;    1,277;    2,045
212,558;  750,402;    1,732;    1,864
213,157;  590,958;    1,822;    1,500
213,757; 1020,977;    3,822;   -0,227
214,356;  730,813;    1,277;   -0,409
214,956; 1059,579;    3,095;    0,409
215,555;  693,436;    2,095;    2,136
216,154;  636,284;   -2,723;   -0,591
216,754;  639,646;    0,277;    0,773
217,353;  776,054;   -0,268;   -1,045
217,952;  629,421;   -0,178;    0,318
218,552;  862,695;    1,368;   -0,773
219,151;  762,098;    0,277;    0,955
219,750;  766,447;    0,004;   -0,227
220,349;  872,486;   -0,451;    1,045
220,948;  941,497;   -1,360;    1,136
221,548;  968,054;    0,913;    1,227
222,147; 1072,808;   -0,087;   -0,409
222,746; 1358,767;   -0,451;   -0,955
223,345; 1233,044;    0,731;    0,500
223,944; 1227,908;   -0,451;    0,773
224,543; 1396,261;    1,004;   -1,409
225,142; 1508,211;    0,094;    0,136
225,741; 1407,155;   -0,814;    1,045
226,340; 1435,372;   -0,451;   -0,955
226,939; 1863,624;   -0,996;   -0,136
227,538; 1809,456;   -0,360;   -0,773
228,137; 1961,133;   -0,814;    0,864
228,735; 2079,678;   -0,541;    1,227
229,334; 1850,494;   -0,905;   -0,227
229,933; 2226,648;    0,459;    0,591
230,532; 2298,729;    1,186;   -0,409
231,131; 2356,117;    1,732;    0,318
231,729; 2480,371;   -2,450;   -2,318
232,328; 2603,338;   -0,723;   -1,500
232,927; 2659,082;    1,004;   -0,500
233,525; 2792,600;    3,640;    0,045
234,124; 2957,881;    2,368;   -1,591
234,723; 2990,705;    0,913;   -1,045
235,321; 3121,687;    2,277;    0,136
235,920; 3319,463;    1,186;   -1,227
236,518; 3579,990;    3,459;    0,318
237,117; 3750,569;    0,004;   -0,227
237,715; 3902,192;    0,640;   -0,500
238,314; 3931,186;   -0,087;   -2,318
238,912; 4031,490;   -0,723;   -1,409
239,510; 4089,668;    0,459;   -1,227
240,109; 4276,198;    0,004;    3,773
240,707; 4311,898;   -0,996;    1,227
241,305; 4667,661;    0,550;    0,136
241,904; 4838,661;   -0,178;   -2,045
242,502; 4807,482;   -0,632;   -0,227
243,100; 4778,099;   -0,087;   -0,955
243,698; 5004,994;    0,732;    1,682
244,297; 5201,495;   -0,632;    0,682
244,895; 5052,322;   -0,269;   -2,318
245,493; 5369,572;    2,186;   -0,591
246,091; 5408,629;    1,368;   -1,318
246,689; 5393,265;    1,004;    0,591
247,287; 5544,324;    0,822;   -1,136
247,885; 5810,703;   -1,451;    1,227
248,483; 5958,929;    1,822;   -0,500
249,081; 6070,324;    0,185;    1,591
249,679; 6231,806;   -0,178;    1,682
250,277; 6489,607;   -1,723;    0,864
250,875; 6467,464;   -1,087;   -1,045
251,473; 6484,146;   -1,178;    0,500
252,071; 6673,475;    1,459;    1,045
252,669; 6821,908;   -1,814;    0,318
253,267; 7094,752;   -0,087;    0,773
253,864; 7063,415;   -0,360;    0,682
254,462; 6924,065;    1,640;    1,591
255,060; 6886,243;   -0,269;    1,318
255,658; 7194,362;    0,822;   -0,136
256,255; 7592,232;    0,186;   -2,045
256,853; 7474,431;   -0,269;    1,409
257,451; 7483,388;    0,822;    1,864
258,048; 7743,930;    1,822;    1,864
258,646; 7518,609;    1,731;   -1,045
259,243; 7722,340;   -0,087;    2,227
259,841; 7751,605;   -0,814;    0,318
260,438; 7649,946;   -0,087;    0,864
261,036; 8321,890;   -1,905;    1,409
261,633; 8260,546;   -0,087;    2,227
262,231; 8030,482;    2,731;   -0,045
262,828; 8095,430;   -0,905;    1,136
263,425; 8146,110;    0,913;   -0,591
264,023; 8395,788;    0,186;    0,045
264,620; 7944,062;   -0,360;   -0,318
265,217; 8302,818;   -2,087;    3,136
265,815; 8419,413;   -1,905;    2,136
266,412; 8199,819;    0,731;    0,136
267,009; 8251,115;   -1,451;    0,773
267,606; 8153,155;    0,822;   -0,955
268,203; 8140,378;   -0,269;   -0,591
268,801; 8415,301;    1,731;    0,591
269,398; 8714,373;   -0,360;    2,500
269,995; 8674,521;    0,277;    1,591
270,592; 8469,434;   -0,632;   -0,500
271,189; 8663,494;    0,186;    0,409
271,786; 8788,051;   -0,632;    1,227
272,383; 8616,983;   -1,087;    0,227
272,980; 8812,268;    0,277;    0,318
273,577; 9281,970;    0,004;    1,227
274,174; 8843,822;    0,822;    2,591
274,771; 8797,181;   -0,814;   -0,773
275,367; 8945,151;    2,277;    1,409
275,964; 8891,312;    0,731;   -0,500
276,561; 8992,183;    1,549;   -1,045
277,158; 9233,079;    0,095;   -1,773
277,755; 9363,687;    2,185;    0,409
278,351; 8747,518;   -0,451;   -1,500
278,948; 9039,565;   -0,815;    0,045
279,545; 9033,132;   -1,360;    2,318
280,141; 9664,022;   -1,723;   -2,045
280,738; 9551,088;   -0,451;   -0,136
281,334; 9797,736;   -1,633;    0,591
281,931; 9185,731;   -0,087;   -1,318
282,528; 9302,031;    0,822;   -0,500
283,124; 9993,701;   -1,087;   -0,500
283,721; 9878,274;   -0,451;    1,409
284,317; 9706,793;    0,185;    2,500
284,913;10247,608;   -1,360;    0,591
285,510;10444,063;    0,640;   -0,318
286,106;10460,204;   -2,269;   -0,955
286,703;10089,987;   -0,360;    1,955
287,299;10294,424;   -1,451;   -0,591
287,895;10503,820;    0,822;   -1,045
288,491;11111,009;    0,186;    2,136
289,088;10806,440;   -2,360;    2,409
289,684;10839,635;   -1,723;    1,500
290,280;10867,656;    0,368;    0,682
290,876;10941,031;    1,822;    5,500
291,472;10838,655;    1,276;    2,227
292,068;10977,205;    1,367;    0,227
292,665;10691,151;    2,095;    0,773
293,261;10291,223;    0,276;    2,136
293,857;10701,563;    2,913;    2,136
294,453;10658,556;    3,550;    0,955
295,049;10487,666;   -0,268;    1,955
295,644;10517,748;    0,095;    0,136
296,240;10457,431;   -0,905;   -0,136
296,836;10519,505;   -0,995;    0,318
297,432;10776,158;    1,096;   -0,500
298,028;10802,310;    0,732;    0,773
298,624;11219,871;    1,459;    1,864
299,220;11449,106;    2,368;    0,591
299,815;11120,268;    1,005;   -0,409
300,411;10940,120;    0,914;    1,773
301,007;10944,580;    1,368;    0,227
301,602;10981,203;   -0,541;   -2,318
302,198;11138,027;    0,732;   -0,773
302,794;11495,982;    1,187;   -0,500
303,389;11620,439;   -1,177;    1,045
303,985;11682,593;    0,550;    1,409
304,580;11639,891;    1,459;    1,591
305,176;11654,817;   -3,086;    0,136
305,771;11585,763;   -1,268;   -1,227
306,367;11400,102;    4,095;    0,136
306,962;11712,749;    0,641;    1,500
307,558;11421,324;   -0,450;    0,136
308,153;11364,181;    1,095;   -1,136
308,748;11607,419;   -0,814;    1,682
309,344;11579,769;   -0,632;   -1,318
309,939;11631,156;   -1,905;   -1,318
310,534;11939,826;   -0,086;   -1,682
311,130;11888,299;    0,459;   -2,500
311,725;11609,396;    1,004;   -0,500
312,320;11902,265;    2,459;    0,045
312,915;11763,645;    1,459;   -1,045
313,510;11809,609;    1,550;   -0,500
314,105;12342,402;    1,096;    1,409
314,700;11756,135;   -3,086;   -1,045
315,295;11403,073;   -0,904;    0,045
315,890;10984,384;    1,277;    0,864
316,485;11325,488;   -0,359;   -0,318
317,080;11443,387;   -3,086;    1,591
317,675;11976,721;    2,005;   -0,682
318,270;11369,577;    5,550;    3,318
318,865;11438,758;    3,278;    3,045
319,460;11237,173;   -0,904;    0,591
320,055;11500,356;   -0,541;   -1,227
320,650;11157,686;   -1,995;   -0,591
321,244;11205,360;   -0,177;   -1,409
321,839;12115,501;   -1,541;   -0,227
322,434;12006,992;   -1,086;   -1,591
323,029;11641,611;    1,732;    1,591
323,623;11448,328;    1,550;    0,773
324,218;11189,515;    2,368;    1,409
324,812;11119,620;    1,096;    1,591
325,407;10929,445;   -0,814;    2,045
326,002;10840,598;    0,277;   -0,409
326,596;11122,406;    0,914;    1,318
327,191;11340,140;    0,823;   -1,045
327,785;10959,042;   -0,813;   -0,227
328,379;11154,352;    1,368;    0,136
328,974;10933,656;    0,914;   -3,955
329,568;11154,287;    0,186;   -2,409
330,163;10980,825;    2,096;    1,045
330,757;11343,278;    2,459;    1,591
331,351;10695,482;    0,459;    0,682
331,945;10969,618;    0,914;    1,409
332,540;10601,028;   -1,723;   -0,591
333,134;10763,522;   -1,086;    0,773
333,728;10979,725;    0,005;    0,318
334,322;11325,927;   -1,177;   -0,864
334,916;10623,227;    0,277;    0,955
335,510;10936,329;   -0,450;   -0,136
336,105;11179,231;   -1,086;    1,591
336,699;10896,122;   -1,086;    0,591
337,293;10820,832;   -1,723;    0,318
337,887;10978,296;   -2,723;    1,955
338,481;11102,331;    0,459;    0,591
339,074;11241,681;   -0,359;    2,682
339,668;11066,283;   -1,632;    1,227
340,262;11316,644;    1,732;    3,227
340,856;10845,568;    1,822;   -0,682
341,450;10226,908;    1,004;    1,864
342,044;11121,377;    1,459;    0,136
342,637;10904,470;    0,913;   -2,136
343,231;10745,268;   -2,360;    0,682
343,825;10730,939;   -1,086;   -0,591
344,419;10704,168;   -1,995;    0,500
345,012;10497,828;    2,459;    4,045
345,606;10487,975;    4,641;    1,591
346,199;10342,722;   -1,813;   -0,227
346,793; 9867,324;    1,914;    2,045
347,386;10068,315;   -0,813;   -1,136
347,980;10069,982;   -0,268;   -0,045
348,573; 9876,121;    2,278;    0,409
349,167; 9525,894;    5,278;    4,773
349,760; 9900,472;    2,914;    2,682
350,354; 9873,375;   -0,813;    1,136
350,947; 9624,058;    1,096;    1,682
351,540; 9317,178;   -0,358;   -1,409
352,134; 9238,775;    1,096;    1,136
352,727; 9321,705;   -0,086;    1,136
353,320; 9136,628;    0,005;    0,591
353,913; 8953,027;   -1,995;    1,864
354,507; 9147,667;    0,823;   -1,227
355,100; 9166,935;    0,460;    0,864
355,693; 8428,270;    2,005;    2,409
356,286; 8455,138;    0,823;    2,773
356,879; 8807,110;   -0,722;    1,227
357,472; 8451,052;   -0,904;    1,500
358,065; 8646,736;   -0,722;    2,500
358,658; 8581,836;   -0,540;    2,318
359,251; 8213,293;   -1,631;   -0,591
359,844; 7705,188;   -1,904;   -1,136
360,437; 7881,633;   -2,995;    0,045
361,030; 8150,535;    1,369;   -0,682
361,623; 7744,544;    2,824;    0,318
362,215; 7776,946;   -0,086;    2,045
362,808; 7642,951;   -2,358;   -1,682
363,401; 7841,871;   -2,449;    0,136
363,994; 7566,288;   -0,631;   -1,500
364,586; 7506,205;    0,824;   -1,500
365,179; 7684,222;   -0,449;   -1,136
365,772; 7186,790;   -1,995;    2,045
366,364; 7486,533;    1,915;   -3,227
366,957; 7678,043;    2,279;   -0,045
367,549; 7679,610;    2,188;   -0,864
368,142; 7377,863;    1,825;   -1,500
368,734; 7541,400;    0,734;   -2,136
369,327; 7494,022;    1,643;   -0,500
369,919; 7430,693;   -1,538;    0,409
370,512; 7223,050;   -1,083;   -0,500
371,104; 6977,498;   -0,901;    1,591
371,696; 7159,086;    1,191;   -0,955
372,289; 7250,916;    0,373;    1,136
372,881; 7387,888;   -2,080;    1,318
373,473; 7296,998;   -2,170;    1,136
374,066; 7110,863;   -0,169;    0,500
374,658; 6988,505;    0,378;    1,136
375,250; 7320,064;    0,653;   -1,409
375,842; 7180,237;    0,473;   -0,045
376,434; 7046,510;   -0,435;   -0,409
377,026; 7626,850;    0,204;   -2,500
377,618; 7501,773;   -0,158;   -0,682
378,210; 7373,356;   -0,338;   -1,955
378,802; 7210,748;    0,754;   -0,591
379,394; 7155,858;    1,846;    0,682
379,986; 7737,388;    1,393;   -0,955
380,578; 7839,700;   -0,153;    0,773
381,170; 7171,078;   -0,972;    0,045
381,762; 7138,269;    0,755;    1,409
382,354; 7333,683;   -0,065;   -1,318
382,945; 7440,039;   -2,976;    0,318
383,537; 7602,288;   -2,705;   -1,955
384,129; 7603,505;   -2,160;   -1,136
384,721; 7771,882;   -0,252;    0,955
385,312; 7709,125;   -0,161;   -0,955
385,904; 7794,253;   -2,706;    1,591
386,496; 7184,226;   -0,979;    1,045
387,087; 7328,088;    1,022;    2,500
387,679; 7373,793;   -1,160;    0,045
388,270; 7470,412;    2,840;    2,045
388,862; 7598,545;    1,295;   -0,318
389,453; 7518,720;   -0,887;    1,045
390,045; 7739,144;   -0,705;   -2,682
390,636; 7701,910;    0,204;   -0,591
391,227; 7558,573;   -0,523;   -0,045
391,819; 7658,495;    0,204;    0,773
392,410; 7705,301;    1,022;    0,045
393,001; 7636,569;   -0,979;   -1,591
393,593; 7923,429;    1,930;   -0,045
394,184; 7773,752;    1,385;   -0,409
394,775; 7673,056;    1,839;    2,136
395,366; 7893,907;    1,385;    0,773
395,957; 7876,061;    0,113;    0,136
396,548; 8178,445;   -0,342;    2,682
397,139; 8482,868;   -2,433;    0,591
397,730; 8247,784;   -1,888;    0,955
398,321; 8310,075;   -1,252;    0,955
398,912; 8343,112;   -0,615;    0,136
399,503; 8414,959;   -3,524;   -1,409
400,094; 7853,639;    0,294;    1,682
400,685; 7699,921;   -0,433;    0,045
401,276; 7779,460;    0,930;   -0,955
401,867; 8110,748;   -0,888;    0,773
402,458; 8183,883;   -2,251;   -2,318
403,048; 8176,389;    1,112;    0,591
403,639; 7817,456;    0,840;    0,864
404,230; 8040,694;    2,476;    0,318
404,821; 7976,777;   -0,615;    0,045
405,411; 8096,640;    1,203;   -2,591
406,002; 7695,785;   -1,252;   -1,136
406,592; 7531,623;    2,294;    0,045
407,183; 7821,224;    0,566;   -1,500
407,774; 7790,456;    3,475;   -0,136
408,364; 8112,055;    0,930;    0,409
408,954; 7698,124;    0,384;    1,227
409,545; 7740,940;    1,021;    1,045
410,135; 7308,325;    1,293;    0,500
410,726; 7469,122;    1,838;    0,318
411,316; 7832,154;    0,111;    0,773
411,906; 7492,293;   -0,253;   -0,409
412,497; 7025,295;   -1,070;   -0,045
413,087; 7625,903;   -1,980;   -0,227
413,677; 7971,971;   -0,707;    3,864
414,267; 7827,846;    0,656;    1,409
414,857; 7837,942;   -2,980;    4,227
415,448; 8100,119;    0,839;    0,500
416,038; 7801,790;    0,020;   -0,591
416,628; 7761,332;   -0,889;    0,409
417,218; 7253,221;    0,565;    3,318
417,808; 7478,499;    0,202;   -0,409
418,398; 7928,439;    0,020;    2,682
418,988; 7951,958;    2,020;    0,591
419,578; 8182,854;   -0,707;    1,409
420,168; 8502,658;   -1,343;   -0,955
420,757; 8093,877;   -1,343;   -1,500
421,347; 7779,884;    0,111;   -0,227
421,937; 7957,094;    2,292;    1,409
422,527; 7887,740;    0,838;   -0,773
423,116; 7685,469;   -0,253;   -0,045
423,706; 8041,448;   -1,889;    0,318
424,296; 8008,265;    1,384;    0,682
424,885; 8398,265;   -0,071;   -3,045
425,475; 8673,458;    1,474;   -2,864
426,065; 8614,215;   -0,980;   -0,318
426,654; 8266,762;   -0,435;   -0,318
427,244; 8364,765;    0,020;    1,409
427,833; 7792,123;    1,383;   -0,500
428,423; 8249,450;   -0,526;    1,136
429,012; 9000,471;   -0,344;   -1,136
429,601; 8506,513;   -1,344;    0,136
430,191; 8766,069;    1,292;    4,318
430,780; 8404,330;   -0,344;   -0,409
431,369; 8307,514;    0,746;   -0,045
431,959; 8922,275;   -1,254;    0,500
432,548; 8697,944;   -1,163;   -0,045
433,137; 8804,772;   -1,254;   -1,318
433,726; 9340,856;    0,292;    0,500
434,315; 8721,014;   -0,526;    2,409
434,905; 8794,258;   -1,254;    1,409
435,494; 8675,545;    0,746;    0,955
436,083; 9134,556;   -0,981;   -0,955
436,672; 9023,929;    0,110;    0,500
437,261; 8592,098;    0,292;   -1,955
437,850; 8715,696;    1,383;    0,682
438,439; 8667,694;    3,291;    1,955
439,027; 8477,064;    3,655;    1,773
439,616; 8854,473;    2,927;    1,227
440,205; 8716,246;    0,200;   -2,136
440,794; 8800,932;    2,109;   -0,045
441,383; 9053,375;   -1,346;   -0,591
441,971; 8888,463;   -2,436;    0,591
442,560; 8707,785;    0,563;   -1,773
443,149; 8497,125;    0,379;   -1,318
443,737; 8660,693;   -0,074;   -2,318
444,326; 8911,424;    0,018;    0,318
444,915; 8941,905;   -1,982;    0,864
445,503; 9281,987;   -2,891;   -0,318
446,092; 8557,993;    0,382;    2,136
446,680; 9051,732;    0,382;    0,318
447,269; 9220,891;   -0,346;   -0,318
447,857; 9048,815;    0,018;   -1,773
448,445; 9132,942;    0,563;    1,318
449,034; 9350,695;   -1,528;   -1,136
449,622; 9469,332;   -1,073;    3,500
450,210; 8686,457;    2,017;    2,227
450,799; 9213,462;    0,290;   -0,591
451,387; 9166,408;    1,381;   -0,591
451,975; 8819,036;    2,654;    0,864
452,563; 8930,991;    3,472;    2,318
453,151; 8953,650;   -0,528;   -1,227
453,739; 8868,924;   -1,347;    0,136
454,328; 8720,883;    2,381;   -2,136
454,916; 8449,199;    2,562;   -0,136
455,504; 8621,036;    1,017;    1,227
456,092; 8819,966;    0,017;   -1,591
456,679; 8747,392;    1,472;    0,682
457,267; 8688,135;    4,017;    1,045
457,855; 8832,659;    1,017;    1,409
458,443; 8618,950;   -0,165;    1,682
459,031; 8739,121;    0,108;    2,409
459,619; 9184,807;   -1,801;    2,864
460,206; 9297,299;    0,835;    2,045
460,794; 9360,704;   -2,983;   -0,227
461,382; 9600,213;   -0,529;   -0,864
461,970; 9199,606;    1,198;    1,864
462,557; 9216,272;   -0,711;   -0,682
463,145; 9398,051;   -3,165;   -1,682
463,732; 9508,439;    2,016;   -1,045
464,320; 9433,306;   -0,075;   -3,045
464,907; 9138,360;    2,743;   -0,773
465,495; 9036,366;    0,743;   -1,227
466,082; 9181,244;   -1,984;   -0,045
466,670; 9085,974;   -2,529;    1,227
467,257; 9489,073;   -1,711;    2,045
467,844; 9623,292;   -0,075;    0,045
468,432; 9665,235;    0,834;    3,500
469,019; 9169,681;    0,925;   -1,773
469,606; 9624,274;    0,470;    3,682
470,193; 9439,726;   -1,439;    0,227
470,780; 9020,673;   -2,075;    0,864
471,368; 9354,990;   -1,257;   -0,773
471,955; 9132,347;    1,379;   -0,682
472,542; 8802,125;    0,652;   -1,136
473,129; 9056,139;   -0,166;    0,136
473,716; 8778,648;    1,470;    0,591
474,303; 8926,559;    0,652;   -0,864
474,890; 9231,353;   -1,439;   -0,500
475,477; 9236,696;   -1,621;    0,409
476,064; 9120,901;    1,106;   -1,591
476,650; 9017,699;    0,288;    0,318
477,237; 8835,426;   -0,258;    0,955
477,824; 9025,370;   -1,076;    0,864
478,411; 9039,913;   -1,894;   -0,318
478,997; 9229,840;    0,560;   -0,773
479,584; 9246,560;    1,196;   -0,409
480,171; 9902,550;   -0,440;   -0,773
480,757; 9566,420;    2,651;    0,773
481,344; 9819,521;    0,469;    0,409
481,931; 9375,644;    1,105;    1,045
482,517;10285,164;   -1,258;    0,318
483,104;10722,984;    1,106;    2,864
483,690;10995,168;   -1,804;    0,045
484,276;11355,215;   -0,895;    0,227
484,863;11089,751;    2,469;    1,136
485,449;11620,048;   -0,077;    0,318
486,035;11623,081;   -1,986;   -0,136
486,622;12022,792;   -0,895;    0,045
487,208;11989,591;    1,378;    1,500
487,794;11858,545;    0,741;    0,318
488,380;11957,369;    0,105;   -1,409
488,967;12019,672;   -1,168;   -0,409
489,553;12096,418;   -1,895;   -1,409
490,139;12267,298;    1,559;    0,773
490,725;11787,211;    0,741;   -0,227
491,311;11378,904;    3,287;    3,045
491,897;10773,088;   -0,986;    1,500
492,483;10656,943;    0,105;    1,227
493,069;10463,788;    3,923;    0,864
493,655;10456,106;    1,650;    0,682
494,241;10358,617;    1,377;   -0,955
494,826;10748,326;    0,287;   -1,045
495,412;10302,175;    2,559;   -0,682
495,998;10495,123;   -0,805;   -0,318
496,584;10599,326;    0,377;    1,045
497,169;10572,395;    1,014;   -0,682
497,755;10602,847;    0,650;    1,227
498,341;11159,030;    0,559;    0,318
498,926;10745,830;    1,832;    1,955
499,512;10990,286;    1,286;    2,955
500,097;11150,987;    0,195;   -0,318
500,683;11118,705;   -0,350;    2,136
501,268;11470,191;   -0,169;   -0,955
501,854;11264,625;   -0,169;    1,227
502,439;11207,192;   -0,624;   -1,773
503,024;11424,964;    0,195;    0,500
503,610;11518,901;   -0,078;   -0,682
504,195;11569,122;    0,558;    1,955
504,780;11733,013;    2,922;    1,227
505,366;11574,281;    3,013;    2,864
505,951;11331,090;    0,740;    1,045
506,536;11374,934;   -3,260;   -3,682
507,121;11388,319;    0,285;   -0,318
507,706;11915,594;    2,376;    1,045
508,291;12346,636;    2,649;    1,136
508,876;11854,436;   -0,988;    2,591
509,461;11328,420;   -0,169;   -0,773
510,046;11774,720;    0,194;    0,318
510,631;12016,798;   -0,351;   -0,773
511,216;11709,142;    2,467;   -0,500
511,801;12094,996;   -0,442;    2,591
512,386;12418,592;    0,740;    0,500
512,971;12357,977;   -2,988;    0,955
513,555;11969,114;   -0,897;   -1,500
514,140;12742,150;   -0,442;   -3,136
514,725;12776,417;   -0,715;   -1,136
515,309;12907,957;   -0,533;    0,318
515,894;12357,926;   -0,624;   -2,227
516,479;12810,025;   -0,624;   -0,955
517,063;12676,200;    0,376;    1,227
517,648;12810,657;    1,012;   -1,136
518,232;12442,271;   -0,261;   -1,409
518,817;12764,697;   -0,079;    1,682
519,401;12996,843;    2,194;    0,591
519,985;12536,383;    1,103;    1,136
520,570;12465,518;    0,830;   -1,955
521,154;12752,680;    2,102;    0,591
521,738;12885,702;   -2,352;    2,409
522,323;13465,221;   -0,170;    1,682
522,907;13202,578;    0,466;   -0,136
523,491;12947,035;    0,557;    0,955
524,075;12935,370;    2,284;    0,591
524,659;13048,023;    1,466;    0,591
525,243;12517,693;    1,739;    0,409
525,827;12723,067;    0,648;   -0,045
526,411;13565,205;   -1,989;   -0,136
526,995;13766,637;   -0,352;    1,409
527,579;13380,847;   -0,443;   -1,045
528,163;13689,163;    0,375;   -1,500
528,747;13589,341;    2,466;   -0,773
529,331;13898,186;   -0,080;   -1,409
529,915;14087,377;    1,738;    0,955
530,499;14045,437;   -0,807;    1,227
531,082;13799,028;   -0,534;    1,591
531,666;13264,123;    1,374;    0,773
532,250;13937,676;    1,284;    2,682
532,833;14229,179;    0,920;    2,773
533,417;14116,030;   -1,807;    0,864
534,001;14066,711;    1,647;   -0,318
534,584;14735,122;    0,374;    0,500
535,168;14626,484;    0,465;    1,409
535,751;14638,245;    0,647;    0,045
536,334;14089,252;   -0,898;   -0,409
536,918;14659,826;    0,011;    1,591
537,501;14770,291;   -0,899;    1,318
538,085;14775,024;   -0,444;    1,045
538,668;14938,722;    0,829;    2,409
539,251;15259,511;    1,829;    3,773
539,834;15269,872;    0,101;    0,773
540,418;15204,197;   -1,990;    4,318
541,001;15339,615;   -0,990;    1,773
541,584;15317,984;    2,101;    2,227
542,167;14993,776;    1,374;    2,955
542,750;15097,359;    1,919;   -0,773
543,333;14726,990;    0,555;    2,136
543,916;15536,186;    0,192;    2,500
544,499;16127,163;   -1,354;    0,227
545,082;16137,225;    1,374;    3,591
545,665;16299,704;    1,919;    1,500
546,248;16585,627;    1,010;   -0,318
546,830;16228,956;   -0,445;    1,955
547,413;16641,398;    1,010;   -0,773
547,996;17159,377;    0,555;    0,500
548,579;16959,451;    0,919;    0,955
549,161;16791,422;    1,828;    2,682
549,744;16564,678;   -0,809;    0,409
550,326;17073,770;   -0,809;   -1,136
550,909;16857,478;    2,737;    0,591
551,492;17261,766;   -0,263;    0,227
552,074;17072,333;   -0,173;   -1,318
552,657;17602,030;    2,373;    0,045
553,239;17361,943;   -0,173;   -0,773
553,821;17250,019;   -1,082;    1,045
554,404;16746,817;    1,282;    1,136
554,986;17104,372;    0,464;    1,045
555,568;17681,194;    1,191;   -0,955
556,151;16937,619;    1,191;   -0,227
556,733;17158,277;   -0,264;   -0,864
557,315;17589,756;    0,100;    0,500
557,897;17450,177;    0,554;   -0,500
558,479;17560,028;   -1,991;    1,318
559,061;17667,505;   -0,719;   -0,864
559,643;17974,191;   -0,264;    0,045
560,225;18330,166;    1,645;    2,864
560,807;18392,009;    0,918;    0,318
561,389;17912,438;    0,554;    2,318
561,971;18648,377;    0,463;    2,136
562,553;18420,628;   -1,628;    1,591
563,135;18560,747;   -0,537;    1,136
563,717;18150,261;    3,372;    1,136
564,298;18842,936;    3,645;   -0,045
564,880;18557,666;    0,645;   -1,409
565,462;18753,120;    0,645;    1,318
566,043;19903,943;   -0,446;    2,318
566,625;19392,852;    1,918;    1,227
567,207;19270,047;    1,099;    1,682
567,788;20328,688;   -1,264;    1,500
568,370;21118,313;    1,917;   -0,500
568,951;20945,572;    0,190;    0,227
569,533;21783,233;   -0,628;   -0,500
570,114;22172,254;   -0,446;    0,682
570,695;22670,466;   -0,174;   -1,318
571,277;23152,930;   -0,265;   -1,682
571,858;23860,225;    2,008;   -1,136
572,439;24761,912;    1,554;   -1,045
573,021;24895,983;    2,099;   -2,773
573,602;25365,701;   -1,265;    0,318
574,183;26243,771;   -2,083;    2,227
574,764;26352,920;   -1,629;    0,409
575,345;26836,656;    0,917;   -0,136
575,926;27518,091;   -0,356;    0,136
576,507;27433,609;    1,099;   -0,227
577,088;28529,306;    3,099;    1,682
577,669;28561,108;    0,735;    1,955
578,250;29248,316;    0,644;   -1,045
578,831;29866,494;   -1,356;   -2,227
579,412;30089,079;   -0,810;    0,955
579,993;31067,051;    1,008;    0,227
580,573;31379,537;   -0,629;   -0,955
581,154;30359,412;    0,735;   -0,591
581,735;31210,349;    0,644;    0,773
582,315;30665,440;   -0,629;    2,136
582,896;31025,102;   -0,174;    1,227
583,477;30509,484;    0,189;    1,227
584,057;30733,111;    0,553;    0,955
584,638;30988,233;    2,553;    2,318
585,218;30947,655;   -0,538;    2,682
585,799;31174,861;    0,281;   -0,227
586,379;31173,487;    0,372;    1,591
586,959;29974,650;    0,735;    0,318
587,540;29365,582;   -0,629;    2,227
588,120;28924,361;    1,007;   -0,045
588,700;27936,465;    2,553;    2,136
589,281;28159,294;    0,462;   -0,955
589,861;28106,147;    0,099;   -1,682
590,441;27937,659;    2,371;   -2,682
591,021;26959,050;   -0,265;   -2,591
591,601;27231,149;   -0,537;    0,500
592,181;27209,631;   -0,719;   -0,773
592,761;26550,289;    0,007;    1,409
593,341;26462,164;   -0,901;    0,045
593,921;26451,639;   -0,265;    1,591
594,501;26364,863;   -0,538;    1,318
595,081;26194,031;    0,917;   -0,318
595,661;26533,918;   -1,447;    0,955
596,240;27086,179;   -0,537;    0,136
596,820;26649,195;    0,372;    1,955
597,400;26840,674;    2,008;    0,773
597,980;27074,386;    2,008;    1,045
598,559;27097,762;    2,735;   -0,227
599,139;26774,040;   -0,174;   -1,227
599,718;26717,585;   -0,174;   -0,409
600,298;26966,611;    0,735;    0,682
600,877;27181,842;    2,917;    1,409
601,457;27469,131;    2,281;    1,136
602,036;27375,512;    0,190;    2,045
602,616;27579,294;    0,644;    1,682
603,195;27928,130;   -0,355;    3,500
603,774;27390,377;   -0,901;    2,045
604,354;27303,530;    0,826;   -0,500
604,933;26809,874;    0,463;    1,864
605,512;26906,683;    3,554;    0,591
606,091;26998,458;   -0,537;    3,773
606,671;27836,738;    0,281;    0,773
607,250;26921,739;    1,644;    3,136
607,829;27189,903;    2,372;    3,227
608,408;27050,517;    1,190;    2,591
608,987;26064,220;    1,281;    3,409
609,566;26410,919;   -1,265;   -2,500
610,145;26460,011;   -1,082;    0,682
610,723;26894,953;    4,372;    6,864
611,302;26183,849;   -0,446;    1,682
611,881;25689,401;    5,008;   11,227
612,460;26555,282;    1,645;    3,955
613,039;26945,479;   -0,082;    2,045
613,617;25680,482;    1,736;    4,773
614,196;25882,585;    1,099;    1,227
614,775;26245,174;    1,009;    2,409
615,353;26188,862;    0,736;    0,864
615,932;25854,379;    0,100;    2,409
616,510;26470,809;    0,554;    0,591
617,089;25995,351;    7,100;   17,591
617,667;25758,835;    2,372;    6,136
618,246;25679,310;   -1,537;    1,318
618,824;25832,647;   -3,355;   -0,955
619,402;25387,193;   -2,900;   -1,773
619,981;25869,637;   -0,173;   -1,045
620,559;25782,600;    0,009;    1,682
621,137;25315,847;   -0,718;    1,864
621,715;25317,698;   -1,173;   -0,682
622,293;25205,815;   -0,537;   -0,773
622,871;25674,120;   -0,718;    0,500
623,450;25240,284;    0,373;   -0,864
624,028;25118,266;    0,191;   -0,955
624,606;24764,197;   -1,718;    1,682
625,183;25228,156;   -1,536;   -1,136
625,761;24849,700;    1,009;    1,136
626,339;25102,352;    1,373;    2,591
626,917;25504,593;   -0,172;   -0,045
627,495;25567,990;   -0,354;    1,318
628,073;25001,372;   -0,263;    2,864
628,650;24695,815;    0,100;    2,136
629,228;25140,948;    0,373;    4,409
629,806;24586,725;    2,282;    1,136
630,383;24828,227;    1,464;   -0,318
630,961;24644,120;    2,555;   -0,955
631,539;24320,922;    2,464;    0,227
632,116;23582,847;   11,373;   15,409
632,694;24219,320;    2,555;    6,500
633,271;24570,416;    0,828;    2,682
633,848;24458,973;    1,828;    2,045
634,426;24513,742;   -1,081;    1,773
635,003;23704,410;    1,101;   -0,409
635,580;23967,589;    1,192;    3,682
636,158;24527,671;    3,737;    1,227
636,735;24530,447;    0,555;   -0,500
637,312;24688,037;   -0,809;   -0,682
637,889;24770,889;   -4,354;   -0,682
638,466;24232,584;   -3,990;   -0,409
639,043;24253,047;    2,101;   -1,136
639,620;24548,470;   -2,262;   -0,955
640,197;24834,974;    1,100;    1,682
640,774;24985,021;   -0,172;    1,136
641,351;25391,432;    0,737;    1,136
641,928;24826,388;   -0,627;    1,409
642,505;24454,162;    0,828;   -0,500
643,082;24631,573;   -1,718;    1,227
643,658;23661,257;   -0,718;    1,500
644,235;24333,940;    1,191;    2,500
644,812;24611,896;    1,918;    0,773
645,388;24393,307;   -0,991;    1,409
645,965;24463,445;   -0,809;    1,682
646,542;24593,856;   -1,445;   -0,227
647,118;24515,721;    1,009;   -0,955
647,695;24803,132;   -0,263;    1,136
648,271;24784,452;   -0,536;    0,500
648,848;25066,863;    0,736;    2,227
649,424;24909,455;    0,827;    1,318
650,000;24676,048;   -0,354;   -1,045
650,577;24515,822;   -0,627;   -0,955
651,153;24951,961;   -1,809;    0,955
651,729;25939,917;    1,191;    0,864
652,305;26054,964;    0,645;    2,773
652,881;30013,557;   -0,082;    1,136
653,458;36553,240;    1,100;    0,227
654,034;40350,469;    0,282;    1,591
654,610;41892,789;    0,554;    0,773
655,186;43181,654;    0,645;    3,045
655,762;42880,611;   -0,991;    0,409
656,338;42923,476;    0,100;    0,136
656,913;43872,523;   -0,082;    0,409
657,489;43152,843;    0,827;   -0,318
658,065;43110,981;   -0,173;   -1,591
658,641;43821,392;   -0,900;   -0,864
659,217;43122,712;   -0,991;    0,409
659,792;42508,577;    0,645;   -0,409
660,368;42849,261;   -2,173;   -0,682
660,944;42569,671;   -2,082;    1,227
661,519;38464,082;   -0,628;    0,409
662,095;32811,766;   -1,719;    0,591
662,670;28190,086;    1,281;   -0,136
663,246;26893,315;    1,009;   -0,409
663,821;26215,816;    0,281;    1,682
664,396;25677,773;    0,009;    1,864
664,972;25935,729;    0,009;   -0,500
665,547;26248,867;    1,372;    0,136
666,122;26269,641;   -1,082;    0,318
666,698;26513,234;   -0,173;    0,318
667,273;25895,917;   -0,173;    0,136
667,848;26688,965;    2,372;    1,500
668,423;26478,921;    2,190;    2,318
668,998;27077,059;    2,827;   -0,682
669,573;27568,197;   -3,264;   -1,500
670,148;27373,062;   -1,446;   -0,682
670,723;27216,746;   -1,810;    0,318
671,298;27648,611;    2,372;    1,045
671,873;27721,931;   -0,082;   -0,136
672,448;27683,706;    0,645;    0,136
673,023;28041,480;   -1,992;   -0,227
673,597;28364,800;    0,827;    2,318
674,172;28154,392;   -0,355;    0,318
674,747;27597,440;    0,372;   -1,045
675,321;27496,850;   -0,628;    3,318
675,896;27069,716;    0,645;    1,045
676,471;28064,581;    2,645;    1,591
677,045;27784,356;   -1,264;    0,682
677,620;27819,312;    0,190;    1,136
678,194;28153,541;   -2,628;    1,136
678,769;27692,406;   -1,083;   -0,318
679,343;27963,726;   -0,628;    1,773
679,917;27830,319;   -1,446;    1,955
680,492;27933,002;    0,826;    3,227
681,066;28098,686;    3,372;    0,409
681,640;28101,824;    1,463;   -0,318
682,214;28939,871;    0,735;    0,500
682,788;28447,918;   -1,356;   -0,773
683,363;28381,783;   -1,810;    1,682
683,937;28083,194;   -1,719;   -0,318
684,511;28794,878;    0,463;   -0,591
685,085;28515,289;   -1,356;    0,318
685,659;28293,427;   -2,538;    0,864
686,232;28547,656;   -0,356;   -0,318
686,806;28248,703;   -0,901;    0,409
687,380;28928,659;   -0,174;    0,591
687,954;29150,797;   -1,174;    1,136
688,528;28750,662;   -0,719;    1,955
689,101;29576,982;   -3,992;    1,045
689,675;29176,939;   -0,356;   -0,136
690,249;28549,258;   -0,719;    0,409
690,822;28845,215;    0,280;    0,318
691,396;28946,444;   -0,265;    1,227
691,969;28366,127;    1,280;    0,136
692,543;28846,811;   -0,447;   -1,955
693,116;28524,767;   -0,265;   -1,409
693,690;28436,996;    0,099;    0,500
694,263;28978,225;   -1,083;    2,955
694,836;28956,636;    1,371;    3,591
695,410;27644,410;   -0,265;    1,773
695,983;28104,912;    0,189;    0,591
696,556;28060,050;   -0,447;   -1,045
697,129;28470,461;   -0,356;    1,409
697,703;28158,235;   -1,629;    1,955
698,276;28146,646;    1,462;   -0,773
698,849;27930,511;    1,280;    1,409
699,422;28290,286;   -1,083;    0,591
699,995;28019,151;    0,007;    0,136
700,568;28484,653;   -0,629;    3,045
701,140;28534,155;   -2,811;    1,682
701,713;28262,020;   -0,174;    2,409
702,286;27979,612;   -0,538;    0,864
702,859;27920,023;   -0,902;   -0,591
703,432;27030,616;    0,825;    0,682
704,004;27537,481;    0,462;    0,318
704,577;27460,892;   -0,629;    0,136
705,150;27989,394;    0,189;    2,500
705,722;27744,077;   -0,356;   -3,227
706,295;27589,852;   -0,175;   -0,591
706,867;27429,626;   -0,175;    1,955
707,440;27660,764;   -1,720;   -0,409
708,012;27867,084;    0,462;    0,591
708,584;27755,313;    2,462;    0,227
709,157;28075,815;    1,825;   -0,591
709,729;27791,680;    2,280;    2,045
710,301;28583,273;    0,734;    0,045
710,874;28607,411;   -1,447;   -0,227
711,446;27515,549;    0,371;    0,864
712,018;27349,505;    0,098;    0,500
712,590;27102,370;   -1,993;    1,682
713,162;27669,509;    0,825;    1,318
713,734;27944,283;    1,825;   -2,045
714,306;27799,421;   -1,902;   -0,409
714,878;26499,014;    0,825;    0,864
715,450;27330,879;    0,643;    0,864
716,022;27568,017;    1,552;    1,318
716,593;27771,428;    0,189;    0,591
717,165;27672,839;   -3,175;   -1,227
717,737;27331,340;    0,280;    0,409
718,309;27033,206;    0,280;   -0,045
718,880;27051,071;   -0,539;   -1,409
719,452;27257,846;   -0,175;   -1,591
720,024;26827,893;    0,734;   -0,591
720,595;27385,940;   -2,902;    0,955
721,167;26971,896;    0,370;   -2,045
721,738;26459,216;   -0,812;   -1,045
722,309;26454,990;   -0,993;   -1,227
722,881;26176,038;   -1,357;    0,773
723,452;26818,630;   -2,630;    2,864
724,023;26982,950;   -0,721;    2,682
724,595;26812,906;    0,007;    0,682
725,166;26598,772;    0,007;   -0,409
725,737;26216,728;    1,734;    0,227
726,308;26289,321;   -0,266;    0,318
726,879;26736,459;   -1,630;    1,227
727,450;26599,142;    0,552;   -0,045
728,021;26578,917;    3,097;    0,682
728,592;26336,055;    0,734;    0,500
729,163;26661,738;    0,643;   -0,136
729,734;26689,058;    0,188;   -0,227
730,305;26990,469;    1,734;    0,136
730,876;27334,516;    0,188;    2,955
731,447;27017,109;    2,188;    2,682
732,017;27136,247;    1,097;    1,864
732,588;26671,294;    0,734;    1,227
733,159;26811,523;    0,643;   -1,045
733,729;26649,388;    0,006;    0,409
734,300;25910,254;    0,915;    0,864
734,870;26346,846;    3,461;    0,591
735,441;26910,893;    0,370;   -0,591
736,011;26697,759;    0,643;   -1,591
736,582;26667,624;   -0,812;    0,045
737,152;26064,489;   -1,721;   -2,045
737,722;26547,082;   -0,267;   -0,682
738,293;26258,129;   -1,358;    1,318
738,863;26155,267;    2,461;    2,318
739,433;26017,314;    5,279;    0,318
740,003;26606,362;   -0,994;   -0,682
740,573;26001,863;    2,097;   -1,591
741,143;25935,910;   -1,085;    0,318
741,713;26745,321;    1,188;   -0,500
742,283;26437,005;    0,915;    1,591
742,853;26228,506;    1,915;    1,591
743,423;25703,190;    1,733;    0,045
743,993;25842,328;   -0,358;    1,500
744,563;25209,830;    0,097;   -0,864
745,133;25166,968;   -0,812;   -0,864
745,702;25896,924;   -0,267;    1,773
746,272;25101,517;   -0,176;    0,591
746,842;24868,382;   -1,358;   -0,591
747,411;25275,793;   -0,267;   -0,318
747,981;25478,931;    0,097;    0,500
748,551;25545,342;    2,278;   -1,045
749,120;25405,025;    0,642;   -0,227
749,690;25733,527;   -0,631;    2,409
750,259;26106,483;    1,369;    2,955
750,828;25948,803;    1,551;   -1,955
751,398;26277,941;    1,278;   -0,045
751,967;25734,079;    2,187;    0,409
752,536;25940,581;   -0,813;   -0,227
753,105;26372,719;    0,096;    0,227
753,675;26205,493;    0,096;    1,773
754,244;26187,086;   -0,904;    3,591
754,813;26144,315;    0,551;    1,227
755,382;25764,908;    0,460;    0,955
755,951;26315,409;    1,551;    3,682
756,520;25823,456;   -0,085;    1,864
757,089;26323,140;    0,278;    0,500
757,658;26475,551;    1,733;    1,227
758,227;26471,689;    1,096;    0,318
758,795;26815,554;    1,187;    1,136
759,364;27051,692;   -0,086;   -0,591
759,933;26049,103;   -1,176;   -0,045
760,501;25610,787;    0,733;   -1,318
761,070;26061,288;   -2,813;   -1,409
761,639;26764,154;   -1,904;    1,318
762,207;26064,837;    1,551;   -0,955
762,776;26005,248;    0,369;    0,864
763,344;25985,113;   -0,995;    0,591
763,913;25147,251;   -0,722;    1,409
764,481;25838,571;    1,005;   -0,136
765,049;25646,528;   -1,358;    1,409
765,618;25576,757;   -0,086;    0,318
766,186;25605,713;    0,278;    0,136
766,754;25814,214;    0,005;    1,864
767,322;24836,171;   -1,995;    0,409
767,890;24868,127;   -0,722;   -1,773
768,459;25296,174;   -2,177;   -0,318
769,027;25446,676;    1,641;    3,409
769,595;24451,087;    3,278;    2,591
770,163;24878,407;    3,823;    2,955
770,730;24619,636;    0,732;   -0,136
771,298;24529,046;    0,187;   -1,409
771,866;24534,366;   -1,541;    4,955
772,434;24890,050;   -0,631;   -1,864
773,002;25057,188;    0,005;    0,682
773,569;24704,144;    0,914;    1,682
774,137;24490,009;   -0,268;   -0,045
774,705;25285,511;    0,278;   -0,136
775,272;24820,104;    0,641;    0,682
775,840;24571,424;   -0,177;    2,682
776,407;24112,198;    0,277;    1,955
776,975;23731,336;   -0,632;    0,318
777,542;24755,929;   -1,086;   -0,045
778,110;24588,794;   -1,268;   -0,045
778,677;24277,478;   -2,359;   -0,864
779,244;24031,888;    2,186;    1,045
779,812;24123,026;    1,823;    0,864
780,379;23966,619;    0,005;    1,136
780,946;24186,575;    1,005;   -0,773
781,513;24525,713;   -1,450;    0,318
782,080;23927,670;   -0,086;    2,864
782,647;24635,262;   -0,268;    3,045
783,214;24200,673;   -0,177;    3,864
783,781;23872,629;   -0,723;   -0,682
784,348;23738,858;   -0,632;    1,500
784,915;24256,451;   -3,177;    0,318
785,482;23977,407;    1,368;    2,591
786,049;24427,182;    0,186;   -0,591
786,615;24565,138;    0,277;   -0,955
787,182;24331,730;    0,186;   -0,682
787,749;23976,232;   -2,814;    1,409
788,315;23252,825;   -1,632;   -0,409
788,882;23617,508;    1,550;   -1,227
789,448;24301,465;    1,732;   -0,955
790,015;24322,603;    1,095;    3,227
790,581;23890,650;    1,459;    0,227
791,148;23820,242;    0,641;    1,045
791,714;23976,199;   -0,541;    3,136
792,280;23659,337;    0,186;    1,591
792,847;23237,384;    0,550;    2,500
793,413;23805,522;   -0,269;   -0,318
793,979;23332,387;    3,459;   -1,318
794,545;23396,071;    4,459;    2,682
795,111;22804,573;    2,186;    1,318
795,678;23023,529;    0,731;   -1,682
796,244;22679,121;    3,368;    0,136
796,810;23261,896;    1,731;    0,773
797,375;22946,579;    0,549;   -2,136
797,941;22944,081;   -0,541;    0,591
798,507;23120,310;   -0,451;   -0,955
799,073;22716,721;   -0,360;    0,591
799,639;22753,404;   -2,632;    3,136
800,205;22793,724;    0,095;    2,682
800,770;22355,226;    0,640;    1,773
801,336;22426,273;    1,368;   -0,955
801,901;22097,411;    4,549;    3,136
802,467;22655,822;   -0,542;    2,045
803,033;22005,324;   -0,087;    0,864
803,598;22204,098;    1,913;   -1,045
804,163;22280,418;    1,095;   -0,318
804,729;22226,647;   -0,178;    1,136
805,294;22632,331;    0,822;    2,227
805,859;22382,287;    0,731;   -0,409
806,425;21864,516;    1,186;    2,682
806,990;21549,108;    2,186;    4,318
807,555;22073,337;   -1,451;    2,591
808,120;21942,930;    0,822;   -0,409
808,685;21973,250;    0,185;   -2,500
809,250;21483,388;    0,004;   -0,500
809,815;21840,799;    1,913;    0,682
810,380;22348,573;   -0,269;    1,591
810,945;22844,529;   -1,087;    2,045
811,510;22038,395;    2,094;    1,591
812,075;21770,078;   -0,633;   -1,409
812,640;21790,853;    2,003;    1,409
813,204;21843,627;    0,822;   -0,227
813,769;22379,493;    2,094;   -0,045
814,334;21753,267;    0,458;    0,864
814,898;21815,860;    0,367;    0,591
815,463;21720,179;    1,276;   -0,773
816,027;21649,772;   -0,724;   -2,318
816,592;21749,910;    0,640;   -2,045
817,156;21247,412;    2,094;    1,136
817,721;21086,732;    4,276;    2,318
818,285;21078,324;    2,912;    1,500
818,849;21737,553;   -1,451;    1,682
819,414;21590,328;   -0,269;    2,955
819,978;21185,830;   -1,269;    1,773
820,542;21775,149;    2,003;    0,500
821,106;21476,106;   -0,815;    0,682
821,670;21593,789;   -0,815;    2,591
822,234;21340,655;   -0,270;    1,409
822,798;20700,338;    0,003;    0,500
823,362;20632,385;   -0,633;    4,227
823,926;20011,978;    0,094;    1,136
824,490;20237,389;   -0,997;   -0,682
825,054;20713,436;   -0,088;   -1,136
825,618;20295,847;   -1,542;   -1,500
826,181;20210,076;    0,458;   -1,318
826,745;20146,577;    1,367;   -1,045
827,309;20483,079;    1,185;    1,318
827,872;19857,035;    1,367;    0,955
828,436;20878,173;    1,185;   -0,773
828,999;20934,766;   -0,997;    1,227
829,563;19741,722;   -0,179;    1,136
830,126;19542,406;   -0,179;   -0,591
830,690;19550,907;   -1,997;    2,864
831,253;19087,409;   -0,543;    2,227
831,816;19204,274;   -1,906;    0,500
832,380;19150,140;    0,185;    0,864
832,943;19377,460;   -1,361;   -0,500
833,506;18861,689;    2,639;   -1,227
834,069;19624,827;    3,912;   -0,955
834,632;19709,601;    1,730;    1,318
835,195;19639,285;    1,003;    0,955
835,758;18807,332;   -0,997;    1,955
836,321;18670,379;    0,730;   -1,045
836,884;18715,063;   -0,725;   -0,955
837,447;18782,382;   -2,816;    1,773
838,010;19052,430;    0,366;    3,227
838,573;19322,022;   -1,179;    0,773
839,135;19322,069;   -1,361;   -0,955
839,698;18787,026;    1,275;    0,409
840,261;18307,982;    1,003;   -0,227
840,823;18160,393;   -0,543;    0,864
841,386;18446,713;   -0,452;   -2,409
841,948;18341,669;   -1,361;    1,773
842,511;18073,080;    0,912;    1,682
843,073;18228,672;    1,912;    0,227
843,636;18045,447;   -0,361;   -0,227
844,198;17965,857;    0,911;    0,591
844,760;18066,541;    1,093;    1,955
845,322;17768,861;    0,548;    1,136
845,885;18134,363;    0,730;    0,591
846,447;18552,955;   -1,998;    0,227
847,009;18133,275;    1,911;   -0,682
847,571;18467,868;    0,820;   -2,045
848,133;18617,733;   -1,089;   -1,864
848,695;18432,689;   -0,543;    1,409
849,257;18000,373;   -1,089;   -1,682
849,819;18176,965;   -0,998;   -0,409
850,381;18212,013;   -0,725;   -0,864
850,942;18567,332;    1,093;   -0,591
851,504;18512,561;    1,184;    0,227
852,066;18552,336;    1,275;   -1,591
852,628;18077,474;   -0,180;    1,955
853,189;17639,430;    1,638;    2,682
853,751;17765,114;   -0,907;    1,409
854,312;17555,343;   -0,453;   -1,682
854,874;18049,935;   -2,089;   -0,773
855,435;18553,983;   -0,907;   -1,682
855,997;18744,484;   -1,816;   -0,136
856,558;18054,259;    0,366;    1,773
857,119;18134,397;    0,820;    2,864
857,681;17813,444;    0,002;    0,318
858,242;17844,218;    1,911;   -2,136
858,803;18275,447;    0,456;   -0,773
859,364;18872,404;    0,184;   -4,773
859,925;18214,542;   -2,453;   -0,955
860,486;18101,771;   -0,453;   -0,955
861,047;17827,727;   -0,544;   -1,227
861,608;17665,774;   -1,089;   -0,773
862,169;17776,912;    0,638;   -0,045
862,730;17563,777;    0,456;    1,409
863,291;17780,825;   -0,635;   -0,500
863,852;18141,781;   -0,635;    1,955
864,412;17658,010;   -0,271;   -0,864
864,973;16220,148;   -0,089;    0,500
865,534;16064,013;   -1,726;    0,227
866,094;17582,060;    1,820;    0,227
866,655;17244,380;    1,274;    3,318
867,215;17569,609;    0,274;    0,136
867,776;17396,838;    0,547;   -0,136
868,336;17466,249;   -1,453;    0,136
868,897;16944,387;    2,638;    1,682
869,457;16695,980;    1,365;    0,318
870,017;16923,209;    0,547;   -1,227
870,578;17432,256;   -0,817;    0,773
871,138;17137,303;   -2,089;   -0,955
871,698;16680,350;   -0,817;   -1,318
872,258;16507,306;   -0,453;   -2,864
872,818;16870,717;    2,729;    0,045
873,378;16879,128;    0,638;    1,045
873,938;16469,357;    0,547;    0,500
874,498;16790,950;    0,274;   -1,955
875,058;16665,360;    2,183;    1,773
875,618;16500,589;    1,910;   -2,682
876,177;16453,455;    1,274;    0,136
876,737;16114,956;   -0,090;    1,955
877,297;16090,640;    0,183;    1,955
877,856;16092,142;   -0,362;    0,318
878,416;16023,734;    1,183;   -0,136
878,976;16248,054;   -1,817;    0,409
879,535;16423,465;    0,092;    3,136
880,095;16192,058;   -0,544;    0,045
880,654;16282,014;   -1,090;    1,318
881,213;16349,697;    2,456;    1,500
881,773;15983,835;    2,637;    2,682
882,332;16312,155;    3,365;    5,136
882,891;16184,657;    3,092;    2,136
883,451;16643,886;   -1,272;    1,682
884,010;16118,297;   -2,908;   -0,409
884,569;16207,526;   -0,999;   -0,045
885,128;16379,391;    2,819;   -1,864
885,687;16413,711;    4,455;    0,682
886,246;16086,849;    1,455;    2,136
886,805;15852,078;    2,455;    2,045
887,364;16172,943;   -0,999;   -0,500
887,922;16510,536;   -1,181;    0,045
888,481;16010,947;   -1,545;    0,591
889,040;16331,358;    1,183;    2,136
889,599;17005,587;    2,455;    1,409
890,157;17057,997;    1,455;    2,409
890,716;16748,226;   -0,090;    0,227
891,274;16551,455;    0,092;   -1,136
891,833;16985,412;    1,546;    0,864
892,391;16854,641;   -0,454;    0,500
892,950;16912,779;    1,819;   -0,773
893,508;17305,371;    0,455;   -0,409
894,067;16673,509;    0,637;    0,136
894,625;16553,011;   -0,636;   -1,500
895,183;16787,786;   -0,363;   -0,682
895,741;16694,378;    1,728;   -1,773
896,299;16533,153;   -0,545;   -2,409
896,858;16705,745;    0,819;   -1,591
897,416;16849,611;    2,728;   -1,318
897,974;16608,203;    1,819;    0,318
898,532;16728,250;    6,091;    2,682
899,089;16625,661;    2,091;   -0,682
899,647;16653,708;   -1,454;    1,318
900,205;16354,665;    1,182;    1,045
900,763;16596,257;   -0,454;    0,227
901,321;16633,850;    2,364;   -1,409
901,878;16080,533;   -1,000;   -0,773
902,436;15916,580;   -1,363;    1,318
902,994;16291,082;    4,728;    3,682
903,551;15763,311;    0,728;    0,409
904,109;16177,722;    0,182;   -1,409
904,666;15745,678;    2,455;    1,045
905,224;15590,634;    0,182;   -0,409
905,781;15343,136;    0,727;   -0,318
906,338;15422,547;   -1,363;    1,045
906,895;15368,140;    0,637;    2,045
907,453;15265,278;    1,727;    1,136
908,010;15326,143;   -0,909;    0,409
908,567;14970,645;    1,273;    0,591
909,124;14477,328;    0,364;   -1,500
909,681;14557,648;   -2,909;    0,682
910,238;14726,241;    0,636;   -1,318
910,795;15032,924;   -0,273;   -1,136
911,352;14635,015;   -2,909;   -2,682
911,909;14060,197;   -1,364;   -0,864
912,466;14587,652;   -3,182;    1,500
913,022;14134,197;   -1,636;    0,500
913,579;14512,106;   -0,909;    2,045
914,136;14225,015;    1,636;    0,955
914,692;14534,470;    0,091;   -1,227
915,249;14148,288;    1,455;    0,409
915,806;14352,652;    0,182;    1,955
916,362;14093,924;    1,909;    1,864
916,918;13661,470;    2,000;    1,045
917,475;13644,015;   -1,182;    0,955
918,031;13732,652;    3,364;   -0,045
918,587;13182,561;   -0,909;   -0,318
919,144;13433,106;   -2,273;    0,227
919,700;13692,106;    1,727;    0,773
920,256;13289,106;    0,727;    0,045
920,812;12917,106;   -0,727;   -1,045
921,368;12912,470;   -1,727;   -1,045
921,924;12590,288;    0,182;   -0,136
922,480;12165,470;   -0,545;    1,227
923,036;12743,561;    1,273;    1,955
923,592;12715,015;    0,455;    0,318
924,148;12605,379;    0,455;   -0,955
924,704;11917,197;   -1,364;   -0,409
925,259;12231,742;   -0,273;    0,591
925,815;11971,106;    1,455;    0,500
926,371;11517,197;    2,909;    1,409
926,926;11413,924;    2,091;    0,591
927,482;11035,833;   -1,364;    0,773
928,037;10936,833;    0,909;    2,045
928,593;11204,015;    1,636;    1,045
929,148;11044,288;   -1,818;   -1,500
929,704;10560,197;   -1,455;   -0,500
930,259;10756,197;    0,091;   -0,136
930,814; 9857,197;   -0,818;    1,955
931,369; 9530,288;    1,091;   -0,773
931,925; 9392,470;   -0,091;    0,136
932,480; 9323,106;   -2,818;   -2,591
933,035; 9196,833;    0,545;   -0,318
933,590; 8973,106;    0,364;   -1,773
934,145; 8647,197;   -1,364;   -0,318
934,700; 8986,652;    0,455;   -0,591
935,255; 8787,197;   -0,091;    0,045
935,809; 8087,015;    3,182;    0,864
936,364; 7257,106;   -0,455;   -0,136
936,919; 7250,742;    0,455;   -1,773
937,474; 7140,470;    1,455;    0,136
938,028; 6871,561;   -1,636;    1,136
938,583; 6357,379;    1,818;    4,682
939,138; 6647,561;    2,091;    2,136
939,692; 6102,106;    1,636;   -1,136
940,247; 5794,742;   -0,727;   -1,045
940,801; 5378,379;   -0,636;    0,227
941,355; 5270,470;   -0,364;    2,591
941,910; 4927,561;   -0,273;   -2,136
942,464; 5037,106;   -0,818;   -0,318
943,018; 4836,288;    1,000;   -0,227
943,572; 4777,106;    2,545;   -0,682
944,126; 4226,470;    0,091;   -0,409
944,681; 4111,833;    3,091;    0,227
945,235; 4108,288;    1,000;   -0,591
945,789; 4042,197;    0,364;   -1,864
946,342; 4122,470;    0,455;   -0,591
946,896; 3950,106;   -2,273;    0,955
947,450; 3708,652;    1,545;   -0,227
948,004; 3894,742;    1,727;   -0,045
948,558; 3912,197;    0,273;   -0,864
949,111; 3814,652;   -0,273;   -0,318
949,665; 3849,742;    1,636;   -0,682
950,219; 3725,288;   -0,091;   -1,045
950,772; 3820,015;   -1,909;    1,864
951,326; 3721,106;    0,545;   -0,955
951,879; 3805,197;    0,727;   -2,318
952,433; 3832,652;    0,000;    2,227
952,986; 3670,197;    2,909;    0,682
953,539; 3639,924;   -0,273;    0,591
954,093; 3594,652;    0,545;   -1,318
954,646; 3692,924;    0,909;    1,318
955,199; 3489,015;    0,000;   -0,500
955,752; 3400,833;   -0,455;    1,773
956,305; 3363,197;   -0,091;    2,955
956,858; 3513,742;    0,818;   -0,318
957,411; 3675,652;   -0,545;    2,136
957,964; 3516,015;    1,364;    2,136
958,517; 3513,197;   -1,545;    3,136
959,070; 3357,924;   -0,455;    1,955
959,623; 3433,015;    1,091;    1,500
960,176; 3208,197;    1,727;    2,045
960,728; 3175,652;   -2,727;    0,773
961,281; 3233,106;    0,545;    0,500
961,834; 3280,742;   -0,909;    0,864
962,386; 3208,742;    1,727;    1,045
962,939; 3133,833;    0,364;   -0,318
963,491; 3263,106;    0,455;    1,136
964,043; 3146,742;    1,182;    2,409
964,596; 3264,924;   -1,000;    2,227
965,148; 3112,197;   -1,000;    1,773
965,700; 3034,379;    1,091;   -0,227
966,253; 3179,470;   -0,636;    0,318
966,805; 3022,288;   -2,273;    0,773
967,357; 3060,833;    1,091;   -1,500
967,909; 3006,470;    0,455;   -1,227
968,461; 3139,470;    0,545;    3,136
969,013; 3060,015;   -0,182;   -0,864
969,565; 3142,470;   -0,455;   -1,136
970,117; 3212,197;   -0,364;    1,045
970,669; 3036,833;    0,182;   -0,136
971,220; 2905,652;   -0,455;   -1,500
971,772; 2822,197;   -0,636;   -0,318
972,324; 2956,197;    0,091;   -0,500
972,876; 2915,197;    0,818;   -0,045
973,427; 3031,742;    1,909;   -1,045
973,979; 3009,288;   -0,727;   -2,500
974,530; 3031,470;    1,818;    1,318
975,082; 3051,833;   -0,545;    1,682
975,633; 2947,742;    1,091;    1,682
976,184; 3086,924;    0,909;    0,773
976,736; 2895,106;    0,091;    0,227
977,287; 2694,379;   -0,909;   -0,500
977,838; 2854,742;    0,909;   -0,318
978,389; 2905,015;   -1,000;   -0,500
978,940; 2794,561;    0,545;   -0,409
979,491; 2817,288;    0,091;   -0,500
980,042; 2800,833;    0,182;    3,045
980,593; 2846,197;   -2,545;    0,227
981,144; 2884,197;    2,545;   -0,500
981,695; 2843,015;    1,455;    1,500
982,246; 2819,470;   -0,273;    1,045
982,797; 2985,288;   -1,727;    0,682
983,347; 3081,833;    0,364;    0,591
983,898; 3244,833;    3,091;    0,409
984,449; 3069,197;    2,182;    0,773
984,999; 2985,288;    1,455;   -1,136
985,550; 2771,197;    0,182;   -0,318
986,100; 2803,924;   -0,455;   -0,318
986,651; 2855,197;   -0,818;    0,045
987,201; 2835,197;   -1,000;   -0,591
987,751; 2891,652;    0,818;    2,864
988,302; 2870,197;    2,636;    1,500
988,852; 2901,833;    0,455;   -1,136
989,402; 2956,197;    0,091;    0,682
989,952; 2868,833;   -2,182;    0,864
990,502; 2975,106;   -0,091;    0,682
991,052; 2928,742;   -0,727;    0,045
991,602; 2800,015;   -2,909;    1,318
992,152; 2788,197;    0,455;    0,682
992,702; 2778,561;    1,364;   -0,045
993,252; 2704,561;   -3,000;   -0,500
993,802; 2782,652;   -0,273;    1,318
994,352; 3020,924;   -1,545;    1,136
994,901; 3112,561;   -0,182;    3,227
995,451; 3026,288;   -0,182;    0,318
996,000; 3097,106;    1,636;    0,318
996,550; 2837,924;    2,273;    0,227
997,100; 2836,106;    1,273;   -0,045
997,649; 3099,379;    2,182;    0,955
998,198; 2761,833;    1,727;   -1,500
998,748; 2952,924;    1,091;   -2,318
999,297; 2870,652;   -0,818;   -0,409
999,846; 2924,197;    1,000;   -0,773
1000,395; 2963,106;   -0,818;    0,500
1000,945; 2914,015;    1,818;   -0,773
1001,494; 3013,833;    2,364;    0,682
1002,043; 2987,652;    4,636;    0,864
1002,592; 2840,106;   -1,091;    1,955
1003,141; 3003,288;   -0,455;   -0,682
1003,690; 2841,742;    1,727;    0,500
1004,238; 2912,652;    1,455;   -0,045
1004,787; 2577,652;    1,364;    1,227
1005,336; 2799,924;    0,364;    0,682
1005,885; 2938,561;    1,364;   -2,773
1006,433; 3073,379;    0,545;    0,955
1006,982; 3135,379;    0,455;    1,682
1007,531; 3027,561;   -1,818;   -0,227
1008,079; 2987,288;   -2,273;    0,500
1008,627; 3137,197;   -1,455;    0,409
1009,176; 2862,197;    0,000;   -1,955
1009,724; 2915,652;    1,091;    0,864
1010,273; 2983,924;    1,273;    0,500
1010,821; 3094,379;    0,091;    1,409
1011,369; 2832,742;   -1,364;    1,318
1011,917; 2803,470;   -1,364;   -0,591
1012,465; 3079,106;    1,273;   -1,591
1013,013; 3208,924;    2,091;   -1,682
1013,561; 3058,015;    0,455;   -0,773
1014,109; 3123,924;   -1,909;    1,682
1014,657; 2998,379;    0,364;    0,591
1015,205; 3130,742;    1,636;   -0,955
1015,753; 3164,924;   -0,545;   -1,409
1016,301; 3187,924;   -2,636;    3,045
1016,848; 3203,106;   -1,273;    0,409
1017,396; 3231,652;    2,545;    0,045
1017,944; 3364,379;    1,182;    1,864
1018,491; 3133,833;    0,273;    1,409
1019,039; 3281,197;    0,455;    0,591
1019,586; 3197,652;   -1,364;    1,682
1020,134; 3293,288;    0,455;    1,500
1020,681; 3306,379;    0,182;   -1,136
1021,228; 3327,561;    2,909;   -2,227
1021,776; 3161,742;    1,182;   -1,136
1022,323; 3388,288;    0,455;    0,773
1022,870; 3313,288;   -1,000;   -0,045
1023,417; 3201,288;    2,636;    1,864
1023,964; 3356,288;    2,636;    1,227
1024,511; 3211,015;    1,000;    0,773
1025,058; 2995,379;    3,182;   -0,045
1025,605; 3047,379;   -2,273;    3,136
1026,152; 3257,652;    1,727;   -0,591
1026,699; 3003,106;    1,818;    1,318
1027,245; 3163,470;   -0,091;    0,318
1027,792; 3365,924;   -1,000;    1,409
1028,339; 3251,742;    2,364;   -0,045
1028,885; 3129,742;    1,000;   -0,227
1029,432; 3056,379;   -0,091;    0,227
1029,978; 3129,470;   -1,000;   -1,591
1030,525; 3032,742;    1,000;    0,409
1031,071; 3279,106;   -1,364;    1,136
1031,618; 3371,742;    0,364;    1,682
1032,164; 3165,288;   -0,091;    3,045
1032,710; 3200,197;    1,636;   -1,500
1033,256; 3128,015;   -0,636;   -0,136
1033,803; 3095,470;   -0,545;    1,500
1034,349; 2846,652;   -1,364;    0,136
1034,895; 2990,288;    0,000;   -0,318
1035,441; 2965,833;   -0,818;    0,318
1035,987; 2976,197;   -2,364;   -0,682
1036,533; 2971,106;   -1,455;   -0,955
1037,078; 3160,379;    1,455;    1,682
1037,624; 2987,833;    2,455;   -0,955
1038,170; 3030,197;    0,455;   -0,318
1038,716; 2935,561;    1,636;   -0,409
1039,261; 2832,106;   -2,273;   -0,773
1039,807; 2793,470;   -0,091;    3,409
1040,352; 2856,924;   -1,909;   -0,318
1040,898; 2875,561;   -1,545;   -0,682
1041,443; 2805,742;   -1,455;   -2,591
1041,989; 2825,652;    1,091;    1,591
1042,534; 2717,833;   -0,364;    2,591
1043,079; 2834,015;    2,909;    0,955
1043,625; 2619,470;    1,818;    0,500
1044,170; 2664,106;   -1,364;    1,045
1044,715; 2924,561;    2,455;    0,955
1045,260; 2727,197;    2,182;   -0,955
1045,805; 2789,742;    1,182;   -0,591
1046,350; 2713,106;    1,364;   -0,409
1046,895; 2676,288;    2,909;    1,591
1047,440; 2612,833;    5,364;    0,409
1047,985; 2527,015;    2,818;   -0,955
1048,530; 2452,833;    1,545;    1,227
1049,074; 2514,924;    0,000;    0,318
1049,619; 2481,833;   -1,364;    1,955
1050,164; 2284,924;    0,455;    0,227
1050,708; 2328,833;   -0,455;    0,045
1051,253; 2697,833;    1,273;   -2,227
1051,797; 2410,833;    0,818;   -1,318
1052,342; 2417,015;   -1,182;    1,045
1052,886; 2399,833;    0,364;   -1,409
1053,430; 2298,197;   -1,364;    0,136
1053,975; 2313,561;   -0,818;   -0,318
1054,519; 2287,742;   -0,727;    3,227
1055,063; 2305,561;    0,909;    1,318
1055,607; 2214,288;   -0,182;    0,227
1056,151; 2226,924;    2,909;    1,682
1056,695; 2145,652;    2,273;   -1,136
1057,239; 2220,015;   -1,727;   -0,682
1057,783; 2232,379;    0,818;   -1,500
1058,327; 2165,197;    0,000;    1,409
1058,871; 2393,197;   -0,545;    1,318
1059,415; 2102,197;   -0,818;   -0,045
1059,958; 2363,924;    1,455;    2,591
1060,502; 2079,742;   -1,000;   -0,773
1061,046; 1999,379;    0,364;   -0,955
1061,589; 1977,742;   -3,000;   -1,136
1062,133; 1853,106;   -1,273;    1,864
1062,676; 1783,742;    1,182;    0,864
1063,220; 1797,288;    1,091;    0,500
1063,763; 1823,652;    0,909;    1,136
1064,306; 1903,833;   -0,909;    1,864
1064,849; 1785,924;   -0,909;    0,591
1065,393; 1783,924;    2,000;   -1,500
1065,936; 1912,561;    0,182;   -0,409
1066,479; 1782,652;   -1,455;    1,318
1067,022; 1809,197;   -0,273;   -0,227
1067,565; 1704,106;   -0,091;   -1,318
1068,108; 1743,924;    0,727;   -0,591
1068,651; 1719,197;   -0,636;    1,409
1069,194; 1655,379;   -0,455;   -1,682
1069,736; 1647,742;   -1,273;    0,955
1070,279; 1614,197;   -1,364;   -0,500
1070,822; 1669,561;   -2,000;   -0,318
1071,364; 1746,742;   -0,364;    1,318
1071,907; 1574,288;   -0,727;    3,227
1072,450; 1485,015;    0,000;   -0,045
1072,992; 1472,197;   -0,273;    3,136
1073,535; 1621,742;    2,091;    2,136
1074,077; 1425,470;   -0,727;    2,045
1074,619; 1376,288;   -1,364;    0,591
1075,161; 1406,833;   -1,091;    1,500
1075,704; 1591,652;    1,545;    1,227
1076,246; 1392,470;   -0,182;    0,682
1076,788; 1313,106;   -0,364;    1,773
1077,330; 1399,833;    1,273;    2,136
1077,872; 1352,470;    0,909;    0,955
1078,414; 1570,015;    2,727;    0,773
1078,956; 1310,833;    1,273;   -0,227
1079,498; 1573,924;    1,636;    0,318
1080,040; 1273,197;    1,909;   -1,318
1080,581; 1210,561;    1,636;   -0,318
1081,123; 1148,470;    0,091;   -0,773
1081,665; 1202,833;   -1,182;   -0,955
1082,206; 1495,015;    1,364;   -0,500
1082,748; 1359,924;    0,727;    2,045
1083,289; 1234,742;   -2,000;    1,318
1083,831; 1128,742;   -0,545;    0,227
1084,372; 1172,288;    0,000;    0,591
1084,913; 1171,742;    1,091;    0,864
1085,455; 1154,197;   -1,909;   -2,045
1085,996; 1118,379;   -2,273;    0,136
1086,537; 1127,015;   -0,091;    0,864
1087,078; 1163,288;   -0,909;   -2,136
1087,619; 1203,015;   -1,273;    0,227
1088,160; 1117,470;    0,000;    1,318
1088,701; 1115,106;   -1,091;    0,682
1089,242; 1052,197;    1,364;   -2,227
1089,783; 1150,288;   -0,273;    1,409
1090,324; 1116,742;    0,455;    0,682
1090,865;  993,742;    2,727;   -0,409
1091,405;  960,106;    0,727;    2,227
1091,946;  985,833;    0,182;   -0,955
1092,487;  912,561;    0,818;   -1,409
1093,027; 1073,924;   -1,364;   -1,500
1093,568;  936,652;   -0,364;    1,227
1094,108; 1041,652;    0,273;    1,773
1094,649;  981,015;   -1,182;    0,136
1095,189;  912,379;   -0,636;   -0,682
1095,729;  861,470;   -0,091;    0,955
1096,269;  862,742;    0,727;   -0,955
1096,810; 1168,833;   -1,364;    0,500
1097,350; 1007,288;    1,364;   -0,773
1097,890;  910,561;    0,364;    1,227
1098,430; 1155,288;    2,364;    2,864
1098,970; 1026,015;    2,182;    1,682
1099,510;  904,924;    0,545;   -2,318
1100,050;  815,288;    1,000;   -1,591
1100,589;  785,470;   -0,727;   -0,318
1101,129;  905,106;    0,818;   -0,955
1101,669; 1059,288;    1,727;    2,136
1102,209;  887,924;   -0,091;    2,227
1102,748;  843,379;    0,000;    0,955
1103,288;  830,015;    1,273;   -1,227
1103,827;  857,561;    3,091;   -2,227
1104,367;  745,652;   -0,091;   -2,409
1104,906;  708,652;    1,364;   -1,136
1105,445;  770,924;    0,636;   -1,136
1105,985;  720,652;   -0,727;    1,500
1106,524;  765,470;   -1,727;   -0,682
1107,063;  733,742;   -2,727;    1,409
1107,602;  712,470;   -1,909;   -1,500
1108,141;  632,833;   -1,909;    1,500
1108,680;  727,106;   -3,455;   -0,591
1109,219;  671,561;   -0,909;   -0,500
1109,758;  672,106;    0,455;    0,682
1110,297;  636,470;    1,000;   -0,682
1110,836;  599,197;   -0,727;    0,955
1111,375;  759,652;   -2,545;    0,409
1111,913;  768,015;   -1,000;    0,773
1112,452;  699,652;   -0,273;    0,136
1112,991;  588,742;    1,091;    1,955
1113,529;  550,742;   -0,818;   -0,045
1114,068;  614,288;   -0,273;    2,955
1114,606;  515,924;   -0,364;   -0,955
1115,144;  673,015;   -1,273;    1,045
1115,683;  615,197;   -0,727;    0,318
1116,221;  662,561;   -0,455;   -0,864
1116,759;  575,288;    0,636;   -0,864
1117,297;  767,470;    0,000;    1,864
1117,836;  575,106;   -2,182;   -1,227
1118,374;  587,470;    0,182;   -0,682
1118,912;  532,379;    0,909;    2,682
1119,450;  519,106;    1,000;    0,864
1119,988;  571,015;    1,545;    2,136
1120,525; 1021,288;    5,091;    3,318
1121,063;  733,288;    1,182;    1,864
1121,601;  531,652;   -0,909;   -1,227
1122,139;  488,924;   -0,727;   -2,045
1122,676;  680,833;   -0,727;    2,773
1123,214;  609,561;   -1,182;    4,409
1123,751;  422,015;    1,727;    2,227
1124,289;  554,197;   -0,091;   -0,409
1124,826;  419,470;    1,727;    0,227
1125,364;  349,470;    1,727;   -0,955
1125,901;  529,379;    1,182;    1,227
1126,438;  640,652;    0,818;    0,955
1126,975;  377,742;   -0,727;   -0,773
1127,513;  448,561;    0,273;    2,136
1128,050;  350,742;    1,636;   -0,682
1128,587;  447,288;    2,000;   -0,227
1129,124;  490,470;    0,091;    1,318
1129,661;  360,015;    0,273;    0,227
1130,198;  517,015;    1,636;    0,773
1130,734;  479,561;    0,182;    1,409
1131,271;  333,288;   -0,909;    0,864
1131,808;  506,924;    2,909;    3,045
1132,345;  371,379;    1,545;    0,318
1132,881;  246,561;   -1,545;   -1,864
1133,418;  383,015;    0,727;   -1,136
1133,954;  331,561;    2,455;   -2,682
1134,491;  398,288;    1,364;   -0,773
1135,027;  298,924;    2,364;    0,864
1135,564;  382,197;    0,273;    2,955
1136,100;  368,561;    0,364;    2,136
1136,636;  259,652;   -1,273;   -1,045
1137,172;  352,833;    0,000;   -1,045
1137,708;  272,833;   -1,364;   -1,045
1138,245;  283,833;    1,273;   -1,227
1138,781;  235,197;    1,091;   -3,318
1139,317;  304,470;    1,273;   -1,409
1139,852;  288,288;    3,091;    0,136
1140,388;  409,015;   -1,182;   -0,409
1140,924;  299,015;   -1,091;   -2,227
1141,460;  223,833;   -1,636;    0,136
1141,996;  159,106;   -1,364;    2,682
1142,531;  210,379;    1,364;    3,318
1143,067;  420,833;    1,182;    1,045
1143,602;  468,742;   -0,091;   -0,318
1144,138;  323,833;   -2,636;    1,045
1144,673;  196,561;   -1,455;    1,409
1145,209;  259,379;   -1,909;   -0,318
1145,744;  181,742;   -0,727;    0,864
1146,279;  311,561;    1,818;   -0,136
1146,815;  236,379;    1,545;   -2,682
1147,350;  274,288;   -1,364;    0,045
1147,885;  187,015;   -0,818;   -1,318
1148,420;  187,833;   -2,273;    0,773
1148,955;  172,470;   -1,727;    1,864
1149,490;  196,106;   -0,909;   -1,591
1150,025;  182,470;    0,455;   -1,773
1150,560;  281,742;    1,091;   -0,955
1151,094;  241,561;    1,455;   -0,591
1151,629;  248,561;    1,636;    0,864
1152,164;  184,833;    1,364;    1,318
1152,698;  147,652;   -0,182;   -0,136
1153,233;  111,924;    0,091;   -0,682
1153,767;  146,197;   -3,000;   -2,318
1154,302;  188,470;   -1,455;    1,773
1154,836;  190,924;   -0,455;   -2,136
1155,371;  255,833;   -1,364;    3,682
1155,905;  209,015;   -0,636;    1,682
1156,439;  174,742;   -0,636;   -0,500
1156,973;  200,924;    0,364;    0,318
1157,507;  144,015;   -0,364;    0,682
1158,042;  172,652;   -0,727;    1,045
1158,576;  221,470;    0,182;    1,773
1159,110;  202,833;   -0,818;    2,409
1159,643;  166,924;    0,636;   -0,045
1160,177;  113,106;   -1,545;    1,500

