
Integration time [ms]:   0,040
Averaging Nr. [scans]: 11
Smoothing Nr. [pixels]: 0
Data measured with spectrometer [name]: 7318044SP
Wave   ;Sample   ;Dark     ;Reference
[nm]   ;[counts] ;[counts] ;[counts] 

186,757;   20,900;   31,551;    1,318
187,357;   61,273;   22,551;    0,955
187,958;   36,518;   15,460;   -1,591
188,558;   70,808;    8,915;   -1,227
189,159;   39,912;    6,733;   -4,500
189,759;   14,971;    7,278;   -3,591
190,360;    6,906;    2,824;   -2,136
190,960;   47,598;    2,915;   -4,136
191,560;   55,277;    3,189;   -6,591
192,161;  286,236;    4,372;   -3,500
192,761;  135,264;    4,010;   -3,227
193,361;   88,098;    1,556;   -3,773
193,962;  141,216;    2,010;   -2,682
194,562;   71,269;    1,189;   -3,955
195,162;   93,553;   -2,448;   -2,227
195,762;  246,540;   -3,176;   -0,045
196,362;  199,458;    1,370;   -2,500
196,963;   67,502;    2,006;   -0,864
197,563;  132,081;    1,551;   -0,955
198,163;   90,413;    0,096;   -0,682
198,763;  111,157;    1,733;   -0,500
199,363;  198,947;    3,096;   -0,500
199,963;  164,063;    0,369;    0,409
200,563;  136,013;    2,823;   -1,409
201,163;  112,875;    3,277;   -0,227
201,763;  207,144;    3,732;    0,318
202,363;  141,484;    1,459;    1,500
202,963;  235,103;    1,459;    1,045
203,563;  353,125;    0,277;    0,500
204,162;  205,674;    2,096;   -1,864
204,762;  189,799;    0,550;    0,591
205,362;  167,664;    3,004;    1,955
205,962;  259,965;    3,096;    1,955
206,562;  261,415;    1,823;    2,318
207,161;  222,505;   -0,087;    0,318
207,761;  382,173;    1,277;    2,409
208,361;  258,948;   -0,268;    1,409
208,960;  348,290;    0,459;    1,500
209,560;  413,165;    1,277;    1,591
210,160;  391,336;    0,550;    1,864
210,759;  361,267;    4,186;    1,227
211,359;  371,359;    1,459;    1,045
211,958;  623,156;    1,277;    2,045
212,558;  699,697;    1,732;    1,864
213,157;  556,344;    1,822;    1,500
213,757;  983,909;    3,822;   -0,227
214,356;  679,109;    1,277;   -0,409
214,956;  991,237;    3,095;    0,409
215,555;  632,277;    2,095;    2,136
216,154;  569,307;   -2,723;   -0,591
216,754;  586,669;    0,277;    0,773
217,353;  709,895;   -0,268;   -1,045
217,952;  568,445;   -0,178;    0,318
218,552;  802,082;    1,368;   -0,773
219,151;  699,759;    0,277;    0,955
219,750;  694,198;    0,004;   -0,227
220,349;  797,510;   -0,451;    1,045
220,948;  880,158;   -1,360;    1,136
221,548;  872,350;    0,913;    1,227
222,147;  978,740;   -0,087;   -0,409
222,746; 1248,337;   -0,451;   -0,955
223,345; 1114,705;    0,731;    0,500
223,944; 1132,841;   -0,451;    0,773
224,543; 1285,194;    1,004;   -1,409
225,142; 1390,145;    0,094;    0,136
225,741; 1282,816;   -0,814;    1,045
226,340; 1300,759;   -0,451;   -0,955
226,939; 1707,193;   -0,996;   -0,136
227,538; 1605,026;   -0,360;   -0,773
228,137; 1764,338;   -0,814;    0,864
228,735; 1855,883;   -0,541;    1,227
229,334; 1624,699;   -0,905;   -0,227
229,933; 1996,762;    0,459;    0,591
230,532; 2087,480;    1,186;   -0,409
231,131; 2127,413;    1,732;    0,318
231,729; 2200,758;   -2,450;   -2,318
232,328; 2265,543;   -0,723;   -1,500
232,927; 2303,287;    1,004;   -0,500
233,525; 2407,078;    3,640;    0,045
234,124; 2590,358;    2,368;   -1,591
234,723; 2582,637;    0,913;   -1,045
235,321; 2694,801;    2,277;    0,136
235,920; 2887,486;    1,186;   -1,227
236,518; 3146,105;    3,459;    0,318
237,117; 3270,502;    0,004;   -0,227
237,715; 3426,579;    0,640;   -0,500
238,314; 3443,209;   -0,087;   -2,318
238,912; 3561,331;   -0,723;   -1,409
239,510; 3598,600;    0,459;   -1,227
240,109; 3746,129;    0,004;    3,773
240,707; 3802,466;   -0,996;    1,227
241,305; 4115,320;    0,550;    0,136
241,904; 4305,593;   -0,178;   -2,045
242,502; 4309,686;   -0,632;   -0,227
243,100; 4278,395;   -0,087;   -0,955
243,698; 4510,563;    0,732;    1,682
244,297; 4685,791;   -0,632;    0,682
244,895; 4577,345;   -0,269;   -2,318
245,493; 4880,050;    2,186;   -0,591
246,091; 4916,289;    1,368;   -1,318
246,689; 4899,743;    1,004;    0,591
247,287; 5056,802;    0,822;   -1,136
247,885; 5341,364;   -1,451;    1,227
248,483; 5445,316;    1,822;   -0,500
249,081; 5585,075;    0,185;    1,591
249,679; 5728,921;   -0,178;    1,682
250,277; 5978,994;   -1,723;    0,864
250,875; 5957,578;   -1,087;   -1,045
251,473; 5998,442;   -1,178;    0,500
252,071; 6205,862;    1,459;    1,045
252,669; 6332,113;   -1,814;    0,318
253,267; 6586,322;   -0,087;    0,773
253,864; 6550,620;   -0,360;    0,682
254,462; 6463,543;    1,640;    1,591
255,060; 6423,266;   -0,269;    1,318
255,658; 6723,295;    0,822;   -0,136
256,255; 7133,165;    0,186;   -2,045
256,853; 7002,818;   -0,269;    1,409
257,451; 7016,594;    0,822;    1,864
258,048; 7260,135;    1,822;    1,864
258,646; 7016,633;    1,731;   -1,045
259,243; 7202,818;   -0,087;    2,227
259,841; 7287,993;   -0,814;    0,318
260,438; 7157,425;   -0,087;    0,864
261,036; 7833,368;   -1,905;    1,409
261,633; 7753,933;   -0,087;    2,227
262,231; 7538,323;    2,731;   -0,045
262,828; 7621,544;   -0,905;    1,136
263,425; 7672,588;    0,913;   -0,591
264,023; 7918,903;    0,186;    0,045
264,620; 7477,450;   -0,360;   -0,318
265,217; 7810,751;   -2,087;    3,136
265,815; 7926,619;   -1,905;    2,136
266,412; 7731,116;    0,731;    0,136
267,009; 7770,866;   -1,451;    0,773
267,606; 7690,906;    0,822;   -0,955
268,203; 7653,674;   -0,269;   -0,591
268,801; 7931,143;    1,731;    0,591
269,398; 8206,942;   -0,360;    2,500
269,995; 8185,089;    0,277;    1,591
270,592; 7966,457;   -0,632;   -0,500
271,189; 8161,882;    0,186;    0,409
271,786; 8277,710;   -0,632;    1,227
272,383; 8133,551;   -1,087;    0,227
272,980; 8315,018;    0,277;    0,318
273,577; 8723,266;    0,004;    1,227
274,174; 8307,572;    0,822;    2,591
274,771; 8314,386;   -0,814;   -0,773
275,367; 8440,356;    2,277;    1,409
275,964; 8386,790;    0,731;   -0,500
276,561; 8534,843;    1,549;   -1,045
277,158; 8730,012;    0,095;   -1,773
277,755; 8815,712;    2,185;    0,409
278,351; 8266,814;   -0,451;   -1,500
278,948; 8566,317;   -0,815;    0,045
279,545; 8595,247;   -1,360;    2,318
280,141; 9198,409;   -1,723;   -2,045
280,738; 9099,839;   -0,451;   -0,136
281,334; 9274,760;   -1,633;    0,591
281,931; 8719,756;   -0,087;   -1,318
282,528; 8861,964;    0,822;   -0,500
283,124; 9552,997;   -1,087;   -0,500
283,721; 9476,025;   -0,451;    1,409
284,317; 9285,818;    0,185;    2,500
284,913; 9820,996;   -1,360;    0,591
285,510;10002,724;    0,640;   -0,318
286,106;10072,683;   -2,269;   -0,955
286,703; 9685,011;   -0,360;    1,955
287,299; 9884,902;   -1,451;   -0,591
287,895;10089,753;    0,822;   -1,045
288,491;10642,215;    0,186;    2,136
289,088;10414,646;   -2,360;    2,409
289,684;10481,659;   -1,723;    1,500
290,280;10493,861;    0,368;    0,682
290,876;10565,964;    1,822;    5,500
291,472;10488,133;    1,276;    2,227
292,068;10604,321;    1,367;    0,227
292,665;10310,265;    2,095;    0,773
293,261; 9987,520;    0,276;    2,136
293,857;10370,950;    2,913;    2,136
294,453;10300,852;    3,550;    0,955
295,049;10180,778;   -0,268;    1,955
295,644;10230,134;    0,095;    0,136
296,240;10155,090;   -0,905;   -0,136
296,836;10237,163;   -0,995;    0,318
297,432;10486,452;    1,096;   -0,500
298,028;10521,240;    0,732;    0,773
298,624;10941,529;    1,459;    1,864
299,220;11168,309;    2,368;    0,591
299,815;10825,835;    1,005;   -0,409
300,411;10660,596;    0,914;    1,773
301,007;10702,874;    1,368;    0,227
301,602;10723,316;   -0,541;   -2,318
302,198;10852,957;    0,732;   -0,773
302,794;11217,095;    1,187;   -0,500
303,389;11329,188;   -1,177;    1,045
303,985;11411,251;    0,550;    1,409
304,580;11381,276;    1,459;    1,591
305,176;11383,748;   -3,086;    0,136
305,771;11286,331;   -1,268;   -1,227
306,367;11123,579;    4,095;    0,136
306,962;11439,679;    0,641;    1,500
307,558;11162,800;   -0,450;    0,136
308,153;11051,567;    1,095;   -1,136
308,748;11330,713;   -0,814;    1,682
309,344;11269,882;   -0,632;   -1,318
309,939;11361,905;   -1,905;   -1,318
310,534;11655,485;   -0,086;   -1,682
311,130;11560,866;    0,459;   -2,500
311,725;11305,963;    1,004;   -0,500
312,320;11605,560;    2,459;    0,045
312,915;11412,122;    1,459;   -1,045
313,510;11496,995;    1,550;   -0,500
314,105;11993,605;    1,096;    1,409
314,700;11438,702;   -3,086;   -1,045
315,295;11079,003;   -0,904;    0,045
315,890;10662,496;    1,277;    0,864
316,485;11013,965;   -0,359;   -0,318
317,080;11145,317;   -3,086;    1,591
317,675;11692,833;    2,005;   -0,682
318,270;11073,052;    5,550;    3,318
318,865;11101,688;    3,278;    3,045
319,460;10950,922;   -0,904;    0,591
320,055;11219,104;   -0,541;   -1,227
320,650;10832,979;   -1,995;   -0,591
321,244;10901,290;   -0,177;   -1,409
321,839;11823,250;   -1,541;   -0,227
322,434;11693,741;   -1,086;   -1,591
323,029;11321,450;    1,732;    1,591
323,623;11184,350;    1,550;    0,773
324,218;10927,354;    2,368;    1,409
324,812;10830,823;    1,096;    1,591
325,407;10625,558;   -0,814;    2,045
326,002;10550,984;    0,277;   -0,409
326,596;10874,972;    0,914;    1,318
327,191;11061,616;    0,823;   -1,045
327,785;10676,609;   -0,813;   -0,227
328,379;10861,828;    1,368;    0,136
328,974;10675,950;    0,914;   -3,955
329,568;10919,672;    0,186;   -2,409
330,163;10730,391;    2,096;    1,045
330,757;11091,028;    2,459;    1,591
331,351;10466,140;    0,459;    0,682
331,945;10747,185;    0,914;    1,409
332,540;10372,596;   -1,723;   -0,591
333,134;10529,544;   -1,086;    0,773
333,728;10759,201;    0,005;    0,318
334,322;11099,585;   -1,177;   -0,864
334,916;10423,431;    0,277;    0,955
335,510;10750,624;   -0,450;   -0,136
336,105;10948,525;   -1,086;    1,591
336,699;10676,234;   -1,086;    0,591
337,293;10612,399;   -1,723;    0,318
337,887;10780,136;   -2,723;    1,955
338,481;10887,444;    0,459;    0,591
339,074;11042,794;   -0,359;    2,682
339,668;10862,942;   -1,632;    1,227
340,262;11100,848;    1,732;    3,227
340,856;10650,863;    1,822;   -0,682
341,450;10057,840;    1,004;    1,864
342,044;10927,672;    1,459;    0,136
342,637;10715,129;    0,913;   -2,136
343,231;10576,018;   -2,360;    0,682
343,825;10556,415;   -1,086;   -0,591
344,419;10514,099;   -1,995;    0,500
345,012;10303,667;    2,459;    4,045
345,606;10332,087;    4,641;    1,591
346,199;10192,198;   -1,813;   -0,227
346,793; 9735,709;    1,914;    2,045
347,386; 9914,428;   -0,813;   -1,136
347,980; 9903,184;   -0,268;   -0,045
348,573; 9713,686;    2,278;    0,409
349,167; 9388,914;    5,278;    4,773
349,760; 9726,128;    2,914;    2,682
350,354; 9739,576;   -0,813;    1,136
350,947; 9469,623;    1,096;    1,682
351,540; 9127,925;   -0,358;   -1,409
352,134; 9122,977;    1,096;    1,136
352,727; 9204,362;   -0,086;    1,136
353,320; 8964,193;    0,005;    0,591
353,913; 8833,501;   -1,995;    1,864
354,507; 9011,687;    0,823;   -1,227
355,100; 9012,773;    0,460;    0,864
355,693; 8270,471;    2,005;    2,409
356,286; 8310,976;    0,823;    2,773
356,879; 8688,402;   -0,722;    1,227
357,472; 8279,344;   -0,904;    1,500
358,065; 8468,028;   -0,722;    2,500
358,658; 8393,674;   -0,540;    2,318
359,251; 8084,312;   -1,631;   -0,591
359,844; 7575,935;   -1,904;   -1,136
360,437; 7737,290;   -2,995;    0,045
361,030; 7996,463;    1,369;   -0,682
361,623; 7622,563;    2,824;    0,318
362,215; 7651,238;   -0,086;    2,045
362,808; 7473,425;   -2,358;   -1,682
363,401; 7687,345;   -2,449;    0,136
363,994; 7454,034;   -0,631;   -1,500
364,586; 7355,314;    0,824;   -1,500
365,179; 7546,421;   -0,449;   -1,136
365,772; 7052,354;   -1,995;    2,045
366,364; 7327,914;    1,915;   -3,227
366,957; 7511,878;    2,279;   -0,045
367,549; 7544,353;    2,188;   -0,864
368,142; 7202,970;    1,825;   -1,500
368,734; 7405,233;    0,734;   -2,136
369,327; 7364,672;    1,643;   -0,500
369,919; 7286,979;   -1,538;    0,409
370,512; 7092,698;   -1,083;   -0,500
371,104; 6831,417;   -0,901;    1,591
371,696; 7026,457;    1,191;   -0,955
372,289; 7099,467;    0,373;    1,136
372,881; 7212,710;   -2,080;    1,318
373,473; 7154,181;   -2,170;    1,136
374,066; 6959,315;   -0,169;    0,500
374,658; 6823,860;    0,378;    1,136
375,250; 7172,232;    0,653;   -1,409
375,842; 6990,490;    0,473;   -0,045
376,434; 6882,759;   -0,435;   -0,409
377,026; 7436,274;    0,204;   -2,500
377,618; 7349,464;   -0,158;   -0,682
378,210; 7176,041;   -0,338;   -1,955
378,802; 7029,247;    0,754;   -0,591
379,394; 6989,355;    1,846;    0,682
379,986; 7552,064;    1,393;   -0,955
380,578; 7644,011;   -0,153;    0,773
381,170; 7003,847;   -0,972;    0,045
381,762; 6947,132;    0,755;    1,409
382,354; 7147,095;   -0,065;   -1,318
382,945; 7247,455;   -2,976;    0,318
383,537; 7422,165;   -2,705;   -1,955
384,129; 7432,112;   -2,160;   -1,136
384,721; 7596,673;   -0,252;    0,955
385,312; 7528,644;   -0,161;   -0,955
385,904; 7633,862;   -2,706;    1,591
386,496; 7022,744;   -0,979;    1,045
387,087; 7149,604;    1,022;    2,500
387,679; 7191,308;   -1,160;    0,045
388,270; 7319,017;    2,840;    2,045
388,862; 7433,515;    1,295;   -0,318
389,453; 7315,234;   -0,887;    1,045
390,045; 7563,385;   -0,705;   -2,682
390,636; 7506,333;    0,204;   -0,591
391,227; 7344,815;   -0,523;   -0,045
391,819; 7466,647;    0,204;    0,773
392,410; 7521,272;    1,022;    0,045
393,001; 7468,723;   -0,979;   -1,591
393,593; 7744,220;    1,930;   -0,045
394,184; 7586,633;    1,385;   -0,409
394,775; 7523,483;    1,839;    2,136
395,366; 7696,969;    1,385;    0,773
395,957; 7670,577;    0,113;    0,136
396,548; 7990,870;   -0,342;    2,682
397,139; 8290,565;   -2,433;    0,591
397,730; 8024,028;   -1,888;    0,955
398,321; 8104,411;   -1,252;    0,955
398,912; 8138,993;   -0,615;    0,136
399,503; 8214,295;   -3,524;   -1,409
400,094; 7643,793;    0,294;    1,682
400,685; 7525,074;   -0,433;    0,045
401,276; 7603,795;    0,930;   -0,955
401,867; 7890,174;   -0,888;    0,773
402,458; 7989,218;   -2,251;   -2,318
403,048; 7947,271;    1,112;    0,591
403,639; 7560,609;    0,840;    0,864
404,230; 7858,939;    2,476;    0,318
404,821; 7777,658;   -0,615;    0,045
405,411; 7881,249;    1,203;   -2,591
406,002; 7477,121;   -1,252;   -1,136
406,592; 7354,595;    2,294;    0,045
407,183; 7657,925;    0,566;   -1,500
407,774; 7561,520;    3,475;   -0,136
408,364; 7865,937;    0,930;    0,409
408,954; 7491,643;    0,384;    1,227
409,545; 7534,368;    1,021;    1,045
410,135; 7079,026;    1,293;    0,500
410,726; 7210,733;    1,838;    0,318
411,316; 7596,583;    0,111;    0,773
411,906; 7271,631;   -0,253;   -0,409
412,497; 6771,269;   -1,070;   -0,045
413,087; 7342,695;   -1,980;   -0,227
413,677; 7706,946;   -0,707;    3,864
414,267; 7554,003;    0,656;    1,409
414,857; 7547,189;   -2,980;    4,227
415,448; 7821,911;    0,839;    0,500
416,038; 7515,946;    0,020;   -0,591
416,628; 7470,489;   -0,889;    0,409
417,218; 6964,106;    0,565;    3,318
417,808; 7184,747;    0,202;   -0,409
418,398; 7640,505;    0,020;    2,682
418,988; 7632,388;    2,020;    0,591
419,578; 7870,374;   -0,707;    1,409
420,168; 8167,360;   -1,343;   -0,955
420,757; 7769,033;   -1,343;   -1,500
421,347; 7407,497;    0,111;   -0,227
421,937; 7585,616;    2,292;    1,409
422,527; 7535,535;    0,838;   -0,773
423,116; 7345,444;   -0,253;   -0,045
423,706; 7653,333;   -1,889;    0,318
424,296; 7621,059;    1,384;    0,682
424,885; 8040,513;   -0,071;   -3,045
425,475; 8278,525;    1,474;   -2,864
426,065; 8168,100;   -0,980;   -0,318
426,654; 7801,103;   -0,435;   -0,318
427,244; 7919,377;    0,020;    1,409
427,833; 7395,190;    1,383;   -0,500
428,423; 7803,791;   -0,526;    1,136
429,012; 8519,721;   -0,344;   -1,136
429,601; 8049,945;   -1,344;    0,136
430,191; 8263,137;    1,292;    4,318
430,780; 7910,944;   -0,344;   -0,409
431,369; 7815,491;    0,746;   -0,045
431,959; 8384,980;   -1,254;    0,500
432,548; 8180,468;   -1,163;   -0,045
433,137; 8253,478;   -1,254;   -1,318
433,726; 8764,925;    0,292;    0,500
434,315; 8173,811;   -0,526;    2,409
434,905; 8262,419;   -1,254;    1,409
435,494; 8177,524;    0,746;    0,955
436,083; 8569,080;   -0,981;   -0,955
436,672; 8402,908;    0,110;    0,500
437,261; 8014,259;    0,292;   -1,955
437,850; 8104,584;    1,383;    0,682
438,439; 8037,310;    3,291;    1,955
439,027; 7905,862;    3,655;    1,773
439,616; 8199,908;    2,927;    1,227
440,205; 8039,226;    0,200;   -2,136
440,794; 8085,912;    2,109;   -0,045
441,383; 8288,902;   -1,346;   -0,591
441,971; 8154,171;   -2,436;    0,591
442,560; 7989,676;    0,563;   -1,773
443,149; 7735,931;    0,379;   -1,318
443,737; 7838,130;   -0,074;   -2,318
444,326; 8082,769;    0,018;    0,318
444,915; 8117,704;   -1,982;    0,864
445,503; 8446,878;   -2,891;   -0,318
446,092; 7752,520;    0,382;    2,136
446,680; 8236,441;    0,382;    0,318
447,269; 8367,600;   -0,346;   -0,318
447,857; 8133,161;    0,018;   -1,773
448,445; 8228,743;    0,563;    1,318
449,034; 8432,132;   -1,528;   -1,136
449,622; 8514,406;   -1,073;    3,500
450,210; 7818,077;    2,017;    2,227
450,799; 8284,355;    0,290;   -0,591
451,387; 8218,574;    1,381;   -0,591
451,975; 7878,747;    2,654;    0,864
452,563; 7990,156;    3,472;    2,318
453,151; 7991,998;   -0,528;   -1,227
453,739; 7888,000;   -1,347;    0,136
454,328; 7733,050;    2,381;   -2,136
454,916; 7496,639;    2,562;   -0,136
455,504; 7646,748;    1,017;    1,227
456,092; 7791,041;    0,017;   -1,591
456,679; 7744,376;    1,472;    0,682
457,267; 7734,938;    4,017;    1,045
457,855; 7838,553;    1,017;    1,409
458,443; 7569,118;   -0,165;    1,682
459,031; 7731,651;    0,108;    2,409
459,619; 8170,429;   -1,801;    2,864
460,206; 8232,648;    0,835;    2,045
460,794; 8297,326;   -2,983;   -0,227
461,382; 8482,290;   -0,529;   -0,864
461,970; 8107,047;    1,198;    1,864
462,557; 8133,076;   -0,711;   -0,682
463,145; 8298,855;   -3,165;   -1,682
463,732; 8395,880;    2,016;   -1,045
464,320; 8324,112;   -0,075;   -3,045
464,907; 7996,438;    2,743;   -0,773
465,495; 7888,627;    0,743;   -1,227
466,082; 8034,685;   -1,984;   -0,045
466,670; 7960,052;   -2,529;    1,227
467,257; 8342,788;   -1,711;    2,045
467,844; 8482,371;   -0,075;    0,045
468,432; 8501,495;    0,834;    3,500
469,019; 8049,124;    0,925;   -1,773
469,606; 8399,898;    0,470;    3,682
470,193; 8248,169;   -1,439;    0,227
470,780; 7854,116;   -2,075;    0,864
471,368; 8170,524;   -1,257;   -0,773
471,955; 7948,063;    1,379;   -0,682
472,542; 7601,023;    0,652;   -1,136
473,129; 7833,219;   -0,166;    0,136
473,716; 7570,364;    1,470;    0,591
474,303; 7700,820;    0,652;   -0,864
474,890; 7947,070;   -1,439;   -0,500
475,477; 7987,959;   -1,621;    0,409
476,064; 7828,255;    1,106;   -1,591
476,650; 7736,325;    0,288;    0,318
477,237; 7582,416;   -0,258;    0,955
477,824; 7720,815;   -1,076;    0,864
478,411; 7682,903;   -1,894;   -0,318
478,997; 7821,649;    0,560;   -0,773
479,584; 7876,824;    1,196;   -0,409
480,171; 8458,269;   -0,440;   -0,773
480,757; 8141,048;    2,651;    0,773
481,344; 8365,512;    0,469;    0,409
481,931; 7889,001;    1,105;    1,045
482,517; 8701,247;   -1,258;    0,318
483,104; 9104,884;    1,106;    2,864
483,690; 9294,796;   -1,804;    0,045
484,276; 9589,935;   -0,895;    0,227
484,863; 9378,742;    2,469;    1,136
485,449; 9825,131;   -0,077;    0,318
486,035; 9806,528;   -1,986;   -0,136
486,622;10181,148;   -0,895;    0,045
487,208;10131,492;    1,378;    1,500
487,794; 9986,447;    0,741;    0,318
488,380;10088,999;    0,105;   -1,409
488,967;10191,212;   -1,168;   -0,409
489,553;10230,957;   -1,895;   -1,409
490,139;10404,564;    1,559;    0,773
490,725; 9965,386;    0,741;   -0,227
491,311; 9688,079;    3,287;    3,045
491,897; 9169,081;   -0,986;    1,500
492,483; 9099,300;    0,105;    1,227
493,069; 8991,327;    3,923;    0,864
493,655; 8991,918;    1,650;    0,682
494,241; 8933,702;    1,377;   -0,955
494,826; 9326,047;    0,287;   -1,045
495,412; 8875,623;    2,559;   -0,682
495,998; 9084,300;   -0,805;   -0,318
496,584; 9211,866;    0,377;    1,045
497,169; 9263,208;    1,014;   -0,682
497,755; 9320,478;    0,650;    1,227
498,341; 9878,025;    0,559;    0,318
498,926; 9547,643;    1,832;    1,955
499,512; 9790,646;    1,286;    2,955
500,097; 9928,528;    0,195;   -0,318
500,683; 9946,064;   -0,350;    2,136
501,268;10380,642;   -0,169;   -0,955
501,854;10231,621;   -0,169;    1,227
502,439;10215,643;   -0,624;   -1,773
503,024;10466,687;    0,195;    0,500
503,610;10604,534;   -0,078;   -0,682
504,195;10685,119;    0,558;    1,955
504,780;10878,736;    2,922;    1,227
505,366;10761,458;    3,013;    2,864
505,951;10590,360;    0,740;    1,045
506,536;10734,022;   -3,260;   -3,682
507,121;10777,770;    0,285;   -0,318
507,706;11354,500;    2,376;    1,045
508,291;11769,451;    2,649;    1,136
508,876;11316,890;   -0,988;    2,591
509,461;10870,691;   -0,169;   -0,773
510,046;11333,718;    0,194;    0,318
510,631;11630,523;   -0,351;   -0,773
511,216;11355,867;    2,467;   -0,500
511,801;11773,721;   -0,442;    2,591
512,386;12083,590;    0,740;    0,500
512,971;12070,521;   -2,988;    0,955
513,555;11669,657;   -0,897;   -1,500
514,140;12456,603;   -0,442;   -3,136
514,725;12519,234;   -0,715;   -1,136
515,309;12638,138;   -0,533;    0,318
515,894;12159,652;   -0,624;   -2,227
516,479;12659,297;   -0,624;   -0,955
517,063;12494,017;    0,376;    1,227
517,648;12672,384;    1,012;   -1,136
518,232;12320,544;   -0,261;   -1,409
518,817;12675,152;   -0,079;    1,682
519,401;12888,025;    2,194;    0,591
519,985;12422,746;    1,103;    1,136
520,570;12353,882;    0,830;   -1,955
521,154;12656,954;    2,102;    0,591
521,738;12793,794;   -2,352;    2,409
522,323;13385,312;   -0,170;    1,682
522,907;13130,579;    0,466;   -0,136
523,491;12872,127;    0,557;    0,955
524,075;12832,735;    2,284;    0,591
524,659;12965,024;    1,466;    0,591
525,243;12451,604;    1,739;    0,409
525,827;12724,341;    0,648;   -0,045
526,411;13554,479;   -1,989;   -0,136
526,995;13762,093;   -0,352;    1,409
527,579;13351,213;   -0,443;   -1,045
528,163;13650,984;    0,375;   -1,500
528,747;13556,889;    2,466;   -0,773
529,331;13867,006;   -0,080;   -1,409
529,915;14127,743;    1,738;    0,955
530,499;14093,440;   -0,807;    1,227
531,082;13795,302;   -0,534;    1,591
531,666;13259,762;    1,374;    0,773
532,250;13875,769;    1,284;    2,682
532,833;14205,091;    0,920;    2,773
533,417;14085,215;   -1,807;    0,864
534,001;14085,806;    1,647;   -0,318
534,584;14746,217;    0,374;    0,500
535,168;14564,124;    0,465;    1,409
535,751;14608,430;    0,647;    0,045
536,334;14115,165;   -0,898;   -0,409
536,918;14713,193;    0,011;    1,591
537,501;14803,477;   -0,899;    1,318
538,085;14807,028;   -0,444;    1,045
538,668;14915,362;    0,829;    2,409
539,251;15191,515;    1,829;    3,773
539,834;15240,876;    0,101;    0,773
540,418;15195,292;   -1,990;    4,318
541,001;15308,437;   -0,990;    1,773
541,584;15312,080;    2,101;    2,227
542,167;15011,326;    1,374;    2,955
542,750;15145,546;    1,919;   -0,773
543,333;14758,723;    0,555;    2,136
543,916;15531,100;    0,192;    2,500
544,499;16126,259;   -1,354;    0,227
545,082;16083,049;    1,374;    3,591
545,665;16223,164;    1,919;    1,500
546,248;16585,360;    1,010;   -0,318
546,830;16253,052;   -0,445;    1,955
547,413;16653,949;    1,010;   -0,773
547,996;17208,929;    0,555;    0,500
548,579;16995,276;    0,919;    0,955
549,161;16770,520;    1,828;    2,682
549,744;16527,594;   -0,809;    0,409
550,326;17079,596;   -0,809;   -1,136
550,909;16855,213;    2,737;    0,591
551,492;17239,955;   -0,263;    0,227
552,074;17027,613;   -0,173;   -1,318
552,657;17600,493;    2,373;    0,045
553,239;17340,678;   -0,173;   -0,773
553,821;17236,662;   -1,082;    1,045
554,404;16777,825;    1,282;    1,136
554,986;17136,653;    0,464;    1,045
555,568;17723,566;    1,191;   -0,955
556,151;16974,810;    1,191;   -0,227
556,733;17132,194;   -0,264;   -0,864
557,315;17617,311;    0,100;    0,500
557,897;17434,095;    0,554;   -0,500
558,479;17533,036;   -1,991;    1,318
559,061;17655,788;   -0,719;   -0,864
559,643;17975,655;   -0,264;    0,045
560,225;18346,810;    1,645;    2,864
560,807;18363,837;    0,918;    0,318
561,389;17902,447;    0,554;    2,318
561,971;18609,659;    0,463;    2,136
562,553;18412,546;   -1,628;    1,591
563,135;18527,120;   -0,537;    1,136
563,717;18134,725;    3,372;    1,136
564,298;18849,672;    3,645;   -0,045
564,880;18560,949;    0,645;   -1,409
565,462;18739,131;    0,645;    1,318
566,043;19883,044;   -0,446;    2,318
566,625;19403,771;    1,918;    1,227
567,207;19249,058;    1,099;    1,682
567,788;20350,880;   -1,264;    1,500
568,370;21129,506;    1,917;   -0,500
568,951;20936,673;    0,190;    0,227
569,533;21774,699;   -0,628;   -0,500
570,114;22227,173;   -0,446;    0,682
570,695;22657,295;   -0,174;   -1,318
571,277;23155,395;   -0,265;   -1,682
571,858;23838,327;    2,008;   -1,136
572,439;24734,559;    1,554;   -1,045
573,021;24866,995;    2,099;   -2,773
573,602;25375,167;   -1,265;    0,318
574,183;26275,874;   -2,083;    2,227
574,764;26370,386;   -1,629;    0,409
575,345;26880,304;    0,917;   -0,136
575,926;27493,466;   -0,356;    0,136
576,507;27487,802;    1,099;   -0,227
577,088;28563,954;    3,099;    1,682
577,669;28571,029;    0,735;    1,955
578,250;29224,237;    0,644;   -1,045
578,831;29858,780;   -1,356;   -2,227
579,412;30097,727;   -0,810;    0,955
579,993;31048,972;    1,008;    0,227
580,573;31398,549;   -0,629;   -0,955
581,154;30349,606;    0,735;   -0,591
581,735;31207,089;    0,644;    0,773
582,315;30674,725;   -0,629;    2,136
582,896;31049,114;   -0,174;    1,227
583,477;30557,769;    0,189;    1,227
584,057;30788,214;    0,553;    0,955
584,638;31009,699;    2,553;    2,318
585,218;30957,849;   -0,538;    2,682
585,799;31124,873;    0,281;   -0,227
586,379;31118,226;    0,372;    1,591
586,959;29958,480;    0,735;    0,318
587,540;29347,504;   -0,629;    2,227
588,120;28944,466;    1,007;   -0,045
588,700;27902,932;    2,553;    2,136
589,281;28182,397;    0,462;   -0,955
589,861;28076,341;    0,099;   -1,682
590,441;27994,853;    2,371;   -2,682
591,021;27026,789;   -0,265;   -2,591
591,601;27237,524;   -0,537;    0,500
592,181;27199,188;   -0,719;   -0,773
592,761;26551,393;    0,007;    1,409
593,341;26497,358;   -0,901;    0,045
593,921;26467,923;   -0,265;    1,591
594,501;26329,329;   -0,538;    1,318
595,081;26160,407;    0,917;   -0,318
595,661;26493,112;   -1,447;    0,955
596,240;27009,282;   -0,537;    0,136
596,820;26677,661;    0,372;    1,955
597,400;26878,595;    2,008;    0,773
597,980;27093,579;    2,008;    1,045
598,559;27097,047;    2,735;   -0,227
599,139;26836,506;   -0,174;   -1,227
599,718;26729,961;   -0,174;   -0,409
600,298;26979,623;    0,735;    0,682
600,877;27210,308;    2,917;    1,409
601,457;27466,778;    2,281;    1,136
602,036;27420,160;    0,190;    2,045
602,616;27549,305;    0,644;    1,682
603,195;27847,596;   -0,355;    3,500
603,774;27370,297;   -0,901;    2,045
604,354;27307,086;    0,826;   -0,500
604,933;26817,067;    0,463;    1,864
605,512;26972,058;    3,554;    0,591
606,091;27066,741;   -0,537;    3,773
606,671;27865,839;    0,281;    0,773
607,250;26955,296;    1,644;    3,136
607,829;27207,641;    2,372;    3,227
608,408;27019,436;    1,190;    2,591
608,987;26080,594;    1,281;    3,409
609,566;26316,022;   -1,265;   -2,500
610,145;26484,021;   -1,082;    0,682
610,723;26896,964;    4,372;    6,864
611,302;26157,859;   -0,446;    1,682
611,881;25675,320;    5,008;   11,227
612,460;26483,928;    1,645;    3,955
613,039;26960,034;   -0,082;    2,045
613,617;25682,947;    1,736;    4,773
614,196;25863,504;    1,099;    1,227
614,775;26234,911;    1,009;    2,409
615,353;26171,144;    0,736;    0,864
615,932;25914,025;    0,100;    2,409
616,510;26483,455;    0,554;    0,591
617,089;25999,724;    7,100;   17,591
617,667;25767,753;    2,372;    6,136
618,246;25650,683;   -1,537;    1,318
618,824;25857,837;   -3,355;   -0,955
619,402;25428,747;   -2,900;   -1,773
619,981;25869,646;   -0,173;   -1,045
620,559;25742,063;    0,009;    1,682
621,137;25289,310;   -0,718;    1,864
621,715;25272,344;   -1,173;   -0,682
622,293;25213,369;   -0,537;   -0,773
622,871;25727,947;   -0,718;    0,500
623,450;25303,110;    0,373;   -0,864
624,028;25170,274;    0,191;   -0,955
624,606;24797,296;   -1,718;    1,682
625,183;25218,164;   -1,536;   -1,136
625,761;24824,890;    1,009;    1,136
626,339;25103,542;    1,373;    2,591
626,917;25497,782;   -0,172;   -0,045
627,495;25548,815;   -0,354;    1,318
628,073;24962,016;   -0,263;    2,864
628,650;24658,913;    0,100;    2,136
629,228;25060,774;    0,373;    4,409
629,806;24555,370;    2,282;    1,136
630,383;24835,507;    1,464;   -0,318
630,961;24592,036;    2,555;   -0,955
631,539;24354,111;    2,464;    0,227
632,116;23660,036;   11,373;   15,409
632,694;24221,418;    2,555;    6,500
633,271;24579,332;    0,828;    2,682
633,848;24483,525;    1,828;    2,045
634,426;24510,293;   -1,081;    1,773
635,003;23644,780;    1,101;   -0,409
635,580;23954,958;    1,192;    3,682
636,158;24531,495;    3,737;    1,227
636,735;24487,635;    0,555;   -0,500
637,312;24621,589;   -0,809;   -0,682
637,889;24767,986;   -4,354;   -0,682
638,466;24171,499;   -3,990;   -0,409
639,043;24176,143;    2,101;   -1,136
639,620;24521,384;   -2,262;   -0,955
640,197;24830,071;    1,100;    1,682
640,774;25003,755;   -0,172;    1,136
641,351;25434,075;    0,737;    1,136
641,928;24838,122;   -0,627;    1,409
642,505;24463,078;    0,828;   -0,500
643,082;24569,580;   -1,718;    1,227
643,658;23638,446;   -0,718;    1,500
644,235;24427,038;    1,191;    2,500
644,812;24674,267;    1,918;    0,773
645,388;24463,587;   -0,991;    1,409
645,965;24530,453;   -0,809;    1,682
646,542;24625,045;   -1,445;   -0,227
647,118;24555,911;    1,009;   -0,955
647,695;24912,412;   -0,263;    1,136
648,271;24760,732;   -0,536;    0,500
648,848;25053,507;    0,736;    2,227
649,424;24916,736;    0,827;    1,318
650,000;24682,965;   -0,354;   -1,045
650,577;24464,649;   -0,627;   -0,955
651,153;24909,605;   -1,809;    0,955
651,729;25899,198;    1,191;    0,864
652,305;26018,972;    0,645;    2,773
652,881;30009,928;   -0,082;    1,136
653,458;36546,612;    1,100;    0,227
654,034;40340,114;    0,282;    1,591
654,610;41855,979;    0,554;    0,773
655,186;43187,026;    0,645;    3,045
655,762;42864,983;   -0,991;    0,409
656,338;42927,394;    0,100;    0,136
656,913;43960,986;   -0,082;    0,409
657,489;43205,943;    0,827;   -0,318
658,065;43190,081;   -0,173;   -1,591
658,641;43861,946;   -0,900;   -0,864
659,217;43226,902;   -0,991;    0,409
659,792;42577,040;    0,645;   -0,409
660,368;42803,179;   -2,173;   -0,682
660,944;42625,317;   -2,082;    1,227
661,519;38493,546;   -0,628;    0,409
662,095;32828,866;   -1,719;    0,591
662,670;28206,731;    1,281;   -0,136
663,246;26933,051;    1,009;   -0,409
663,821;26226,916;    0,281;    1,682
664,396;25683,782;    0,009;    1,864
664,972;25981,284;    0,009;   -0,500
665,547;26287,331;    1,372;    0,136
666,122;26298,014;   -1,082;    0,318
666,698;26566,971;   -0,173;    0,318
667,273;25900,745;   -0,173;    0,136
667,848;26770,702;    2,372;    1,500
668,423;26511,385;    2,190;    2,318
668,998;27055,341;    2,827;   -0,682
669,573;27617,298;   -3,264;   -1,500
670,148;27372,981;   -1,446;   -0,682
670,723;27190,574;   -1,810;    0,318
671,298;27631,439;    2,372;    1,045
671,873;27759,214;   -0,082;   -0,136
672,448;27702,534;    0,645;    0,136
673,023;28067,672;   -1,992;   -0,227
673,597;28358,174;    0,827;    2,318
674,172;28112,403;   -0,355;    0,318
674,747;27596,268;    0,372;   -1,045
675,321;27475,315;   -0,628;    3,318
675,896;27076,817;    0,645;    1,045
676,471;28022,319;    2,645;    1,591
677,045;27812,548;   -1,264;    0,682
677,620;27895,595;    0,190;    1,136
678,194;28184,733;   -2,628;    1,136
678,769;27683,781;   -1,083;   -0,318
679,343;27940,737;   -0,628;    1,773
679,917;27817,421;   -1,446;    1,955
680,492;27980,377;    0,826;    3,227
681,066;28137,151;    3,372;    0,409
681,640;28120,653;    1,463;   -0,318
682,214;28918,337;    0,735;    0,500
682,788;28447,293;   -1,356;   -0,773
683,363;28319,431;   -1,810;    1,682
683,937;28076,387;   -1,719;   -0,318
684,511;28866,798;    0,463;   -0,591
685,085;28539,027;   -1,356;    0,318
685,659;28315,711;   -2,538;    0,864
686,232;28499,394;   -0,356;   -0,318
686,806;28255,351;   -0,901;    0,409
687,380;28944,034;   -0,174;    0,591
687,954;29155,445;   -1,174;    1,136
688,528;28807,856;   -0,719;    1,955
689,101;29611,722;   -3,992;    1,045
689,675;29233,041;   -0,356;   -0,136
690,249;28592,452;   -0,719;    0,409
690,822;28892,772;    0,280;    0,318
691,396;28939,092;   -0,265;    1,227
691,969;28404,958;    1,280;    0,136
692,543;28873,641;   -0,447;   -1,955
693,116;28592,507;   -0,265;   -1,409
693,690;28478,554;    0,099;    0,500
694,263;29021,965;   -1,083;    2,955
694,836;29040,921;    1,371;    3,591
695,410;27663,150;   -0,265;    1,773
695,983;28149,106;    0,189;    0,591
696,556;28135,517;   -0,447;   -1,045
697,129;28509,019;   -0,356;    1,409
697,703;28136,157;   -1,629;    1,955
698,276;28169,568;    1,462;   -0,773
698,849;27961,433;    1,280;    1,409
699,422;28331,026;   -1,083;    0,591
699,995;28041,982;    0,007;    0,136
700,568;28492,575;   -0,629;    3,045
701,140;28540,895;   -2,811;    1,682
701,713;28286,124;   -0,174;    2,409
702,286;28033,262;   -0,538;    0,864
702,859;27950,855;   -0,902;   -0,591
703,432;27098,720;    0,825;    0,682
704,004;27594,313;    0,462;    0,318
704,577;27413,542;   -0,629;    0,136
705,150;28011,226;    0,189;    2,500
705,722;27790,182;   -0,356;   -3,227
706,295;27513,411;   -0,175;   -0,591
706,867;27382,185;   -0,175;    1,955
707,440;27623,233;   -1,720;   -0,409
708,012;27874,007;    0,462;    0,591
708,584;27808,963;    2,462;    0,227
709,157;28110,192;    1,825;   -0,591
709,729;27760,240;    2,280;    2,045
710,301;28622,014;    0,734;    0,045
710,874;28597,698;   -1,447;   -0,227
711,446;27508,927;    0,371;    0,864
712,018;27352,792;    0,098;    0,500
712,590;27132,930;   -1,993;    1,682
713,162;27655,887;    0,825;    1,318
713,734;27893,388;    1,825;   -2,045
714,306;27841,163;   -1,902;   -0,409
714,878;26541,937;    0,825;    0,864
715,450;27357,530;    0,643;    0,864
716,022;27609,759;    1,552;    1,318
716,593;27792,534;    0,189;    0,591
717,165;27697,944;   -3,175;   -1,227
717,737;27380,992;    0,280;    0,409
718,309;27045,493;    0,280;   -0,045
718,880;27006,632;   -0,539;   -1,409
719,452;27227,133;   -0,175;   -1,591
720,024;26830,635;    0,734;   -0,591
720,595;27368,682;   -2,902;    0,955
721,167;26903,730;    0,370;   -2,045
721,738;26436,868;   -0,812;   -1,045
722,309;26388,279;   -0,993;   -1,227
722,881;26196,326;   -1,357;    0,773
723,452;26858,464;   -2,630;    2,864
724,023;26991,147;   -0,721;    2,682
724,595;26811,467;    0,007;    0,682
725,166;26578,787;    0,007;   -0,409
725,737;26214,653;    1,734;    0,227
726,308;26324,700;   -0,266;    0,318
726,879;26724,111;   -1,630;    1,227
727,450;26574,249;    0,552;   -0,045
728,021;26563,114;    3,097;    0,682
728,592;26342,253;    0,734;    0,500
729,163;26668,754;    0,643;   -0,136
729,734;26661,074;    0,188;   -0,227
730,305;27017,212;    1,734;    0,136
730,876;27301,896;    0,188;    2,955
731,447;26990,307;    2,188;    2,682
732,017;27156,536;    1,097;    1,864
732,588;26658,310;    0,734;    1,227
733,159;26813,448;    0,643;   -1,045
733,729;26681,678;    0,006;    0,409
734,300;25920,361;    0,915;    0,864
734,870;26382,772;    3,461;    0,591
735,441;26948,092;    0,370;   -0,591
736,011;26733,503;    0,643;   -1,591
736,582;26649,823;   -0,812;    0,045
737,152;26146,415;   -1,721;   -2,045
737,722;26543,099;   -0,267;   -0,682
738,293;26298,237;   -1,358;    1,318
738,863;26173,193;    2,461;    2,318
739,433;25979,150;    5,279;    0,318
740,003;26634,742;   -0,994;   -0,682
740,573;26071,881;    2,097;   -1,591
741,143;26004,019;   -1,085;    0,318
741,713;26732,611;    1,188;   -0,500
742,283;26425,659;    0,915;    1,591
742,853;26263,433;    1,915;    1,591
743,423;25697,571;    1,733;    0,045
743,993;25806,800;   -0,358;    1,500
744,563;25192,938;    0,097;   -0,864
745,133;25202,986;   -0,812;   -0,864
745,702;25906,669;   -0,267;    1,773
746,272;25098,898;   -0,176;    0,591
746,842;24869,309;   -1,358;   -0,591
747,411;25316,902;   -0,267;   -0,318
747,981;25475,767;    0,097;    0,500
748,551;25544,996;    2,278;   -1,045
749,120;25371,407;    0,642;   -0,227
749,690;25750,272;   -0,631;    2,409
750,259;26034,411;    1,369;    2,955
750,828;25953,731;    1,551;   -1,955
751,398;26250,050;    1,278;   -0,045
751,967;25710,825;    2,187;    0,409
752,536;25983,872;   -0,813;   -0,227
753,105;26392,101;    0,096;    0,227
753,675;26232,603;    0,096;    1,773
754,244;26125,923;   -0,904;    3,591
754,813;26165,334;    0,551;    1,227
755,382;25733,472;    0,460;    0,955
755,951;26254,428;    1,551;    3,682
756,520;25819,475;   -0,085;    1,864
757,089;26443,704;    0,278;    0,500
757,658;26527,843;    1,733;    1,227
758,227;26570,072;    1,096;    0,318
758,795;26832,028;    1,187;    1,136
759,364;27076,984;   -0,086;   -0,591
759,933;26099,213;   -1,176;   -0,045
760,501;25606,806;    0,733;   -1,318
761,070;26107,126;   -2,813;   -1,409
761,639;26784,900;   -1,904;    1,318
762,207;26094,857;    1,551;   -0,955
762,776;25994,268;    0,369;    0,864
763,344;26002,860;   -0,995;    0,591
763,913;25159,089;   -0,722;    1,409
764,481;25836,955;    1,005;   -0,136
765,049;25598,638;   -1,358;    1,409
765,618;25541,049;   -0,086;    0,318
766,186;25661,187;    0,278;    0,136
766,754;25818,416;    0,005;    1,864
767,322;24796,464;   -1,995;    0,409
767,890;24902,784;   -0,722;   -1,773
768,459;25347,013;   -2,177;   -0,318
769,027;25444,423;    1,641;    3,409
769,595;24448,834;    3,278;    2,591
770,163;24846,700;    3,823;    2,955
770,730;24618,565;    0,732;   -0,136
771,298;24490,612;    0,187;   -1,409
771,866;24628,114;   -1,541;    4,955
772,434;24931,252;   -0,631;   -1,864
773,002;25063,663;    0,005;    0,682
773,569;24719,256;    0,914;    1,682
774,137;24519,303;   -0,268;   -0,045
774,705;25371,623;    0,278;   -0,136
775,272;24835,852;    0,641;    0,682
775,840;24571,445;   -0,177;    2,682
776,407;24134,674;    0,277;    1,955
776,975;23767,175;   -0,632;    0,318
777,542;24784,223;   -1,086;   -0,045
778,110;24606,815;   -1,268;   -0,045
778,677;24307,135;   -2,359;   -0,864
779,244;24033,819;    2,186;    1,045
779,812;24127,502;    1,823;    0,864
780,379;23968,459;    0,005;    1,136
780,946;24238,961;    1,005;   -0,773
781,513;24556,917;   -1,450;    0,318
782,080;23919,055;   -0,086;    2,864
782,647;24663,466;   -0,268;    3,045
783,214;24243,331;   -0,177;    3,864
783,781;23897,651;   -0,723;   -0,682
784,348;23758,971;   -0,632;    1,500
784,915;24229,927;   -3,177;    0,318
785,482;23970,429;    1,368;    2,591
786,049;24399,295;    0,186;   -0,591
786,615;24518,342;    0,277;   -0,955
787,182;24288,207;    0,186;   -0,682
787,749;24000,254;   -2,814;    1,409
788,315;23289,938;   -1,632;   -0,409
788,882;23595,167;    1,550;   -1,227
789,448;24311,578;    1,732;   -0,955
790,015;24336,443;    1,095;    3,227
790,581;23851,127;    1,459;    0,227
791,148;23706,992;    0,641;    1,045
791,714;24014,949;   -0,541;    3,136
792,280;23722,996;    0,186;    1,591
792,847;23236,043;    0,550;    2,500
793,413;23770,090;   -0,269;   -0,318
793,979;23349,138;    3,459;   -1,318
794,545;23423,548;    4,459;    2,682
795,111;22808,687;    2,186;    1,318
795,678;23009,734;    0,731;   -1,682
796,244;22656,690;    3,368;    0,136
796,810;23217,737;    1,731;    0,773
797,375;22937,603;    0,549;   -2,136
797,941;22953,650;   -0,541;    0,591
798,507;23098,788;   -0,451;   -0,955
799,073;22658,835;   -0,360;    0,591
799,639;22732,064;   -2,632;    3,136
800,205;22784,930;    0,095;    2,682
800,770;22286,977;    0,640;    1,773
801,336;22415,206;    1,368;   -0,955
801,901;22107,071;    4,549;    3,136
802,467;22680,846;   -0,542;    2,045
803,033;22048,529;   -0,087;    0,864
803,598;22248,758;    1,913;   -1,045
804,163;22227,351;    1,095;   -0,318
804,729;22241,853;   -0,178;    1,136
805,294;22647,718;    0,822;    2,227
805,859;22441,947;    0,731;   -0,409
806,425;21881,904;    1,186;    2,682
806,990;21549,951;    2,186;    4,318
807,555;22052,998;   -1,451;    2,591
808,120;21919,227;    0,822;   -0,409
808,685;21993,911;    0,185;   -2,500
809,250;21507,685;    0,004;   -0,500
809,815;21806,187;    1,913;    0,682
810,380;22324,780;   -0,269;    1,591
810,945;22842,009;   -1,087;    2,045
811,510;22035,874;    2,094;    1,591
812,075;21751,103;   -0,633;   -1,409
812,640;21748,787;    2,003;    1,409
813,204;21836,652;    0,822;   -0,227
813,769;22318,972;    2,094;   -0,045
814,334;21746,201;    0,458;    0,864
814,898;21822,067;    0,367;    0,591
815,463;21678,296;    1,276;   -0,773
816,027;21648,161;   -0,724;   -2,318
816,592;21774,299;    0,640;   -2,045
817,156;21275,710;    2,094;    1,136
817,721;21124,575;    4,276;    2,318
818,285;21068,895;    2,912;    1,500
818,849;21727,761;   -1,451;    1,682
819,414;21615,899;   -0,269;    2,955
819,978;21189,764;   -1,269;    1,773
820,542;21773,175;    2,003;    0,500
821,106;21471,677;   -0,815;    0,682
821,670;21593,906;   -0,815;    2,591
822,234;21335,226;   -0,270;    1,409
822,798;20669,819;    0,003;    0,500
823,362;20650,957;   -0,633;    4,227
823,926;19994,004;    0,094;    1,136
824,490;20216,597;   -0,997;   -0,682
825,054;20668,462;   -0,088;   -1,136
825,618;20287,600;   -1,542;   -1,500
826,181;20234,375;    0,458;   -1,318
826,745;20183,876;    1,367;   -1,045
827,309;20510,287;    1,185;    1,318
827,872;19891,607;    1,367;    0,955
828,436;20822,291;    1,185;   -0,773
828,999;20934,156;   -0,997;    1,227
829,563;19747,203;   -0,179;    1,136
830,126;19574,342;   -0,179;   -0,591
830,690;19596,752;   -1,997;    2,864
831,253;19115,800;   -0,543;    2,227
831,816;19239,301;   -1,906;    0,500
832,380;19185,167;    0,185;    0,864
832,943;19377,487;   -1,361;   -0,500
833,506;18865,352;    2,639;   -1,227
834,069;19674,581;    3,912;   -0,955
834,632;19718,447;    1,730;    1,318
835,195;19659,585;    1,003;    0,955
835,758;18850,996;   -0,997;    1,955
836,321;18681,497;    0,730;   -1,045
836,884;18808,635;   -0,725;   -0,955
837,447;18824,046;   -2,816;    1,773
838,010;19081,457;    0,366;    3,227
838,573;19363,141;   -1,179;    0,773
839,135;19299,461;   -1,361;   -0,955
839,698;18821,781;    1,275;    0,409
840,261;18308,464;    1,003;   -0,227
840,823;18156,875;   -0,543;    0,864
841,386;18499,559;   -0,452;   -2,409
841,948;18356,151;   -1,361;    1,773
842,511;18105,653;    0,912;    1,682
843,073;18220,519;    1,912;    0,227
843,636;18033,384;   -0,361;   -0,227
844,198;17979,158;    0,911;    0,591
844,760;18074,024;    1,093;    1,955
845,322;17725,798;    0,548;    1,136
845,885;18127,846;    0,730;    0,591
846,447;18582,438;   -1,998;    0,227
847,009;18162,576;    1,911;   -0,682
847,571;18513,260;    0,820;   -2,045
848,133;18574,125;   -1,089;   -1,864
848,695;18409,536;   -0,543;    1,409
849,257;17995,311;   -1,089;   -1,682
849,819;18156,812;   -0,998;   -0,409
850,381;18203,769;   -0,725;   -0,864
850,942;18534,998;    1,093;   -0,591
851,504;18511,318;    1,184;    0,227
852,066;18528,456;    1,275;   -1,591
852,628;18075,139;   -0,180;    1,955
853,189;17649,005;    1,638;    2,682
853,751;17802,688;   -0,907;    1,409
854,312;17594,645;   -0,453;   -1,682
854,874;18058,692;   -2,089;   -0,773
855,435;18564,194;   -0,907;   -1,682
855,997;18739,059;   -1,816;   -0,136
856,558;18011,834;    0,366;    1,773
857,119;18166,517;    0,820;    2,864
857,681;17870,564;    0,002;    0,318
858,242;17880,884;    1,911;   -2,136
858,803;18308,295;    0,456;   -0,773
859,364;18854,888;    0,184;   -4,773
859,925;18229,208;   -2,453;   -0,955
860,486;18113,346;   -0,453;   -0,955
861,047;17838,393;   -0,544;   -1,227
861,608;17667,622;   -1,089;   -0,773
862,169;17792,397;    0,638;   -0,045
862,730;17563,535;    0,456;    1,409
863,291;17784,309;   -0,635;   -0,500
863,852;18144,811;   -0,635;    1,955
864,412;17648,040;   -0,271;   -0,864
864,973;16233,542;   -0,089;    0,500
865,534;16097,771;   -1,726;    0,227
866,094;17599,636;    1,820;    0,227
866,655;17270,593;    1,274;    3,318
867,215;17526,913;    0,274;    0,136
867,776;17372,960;    0,547;   -0,136
868,336;17504,916;   -1,453;    0,136
868,897;16987,782;    2,638;    1,682
869,457;16719,829;    1,365;    0,318
870,017;16910,149;    0,547;   -1,227
870,578;17443,469;   -0,817;    0,773
871,138;17151,789;   -2,089;   -0,955
871,698;16730,745;   -0,817;   -1,318
872,258;16549,974;   -0,453;   -2,864
872,818;16903,476;    2,729;    0,045
873,378;16869,341;    0,638;    1,045
873,938;16418,207;    0,547;    0,500
874,498;16760,345;    0,274;   -1,955
875,058;16660,301;    2,183;    1,773
875,618;16510,257;    1,910;   -2,682
876,177;16441,668;    1,274;    0,136
876,737;16093,170;   -0,090;    1,955
877,297;16087,217;    0,183;    1,955
877,856;16076,446;   -0,362;    0,318
878,416;16010,584;    1,183;   -0,136
878,976;16250,177;   -1,817;    0,409
879,535;16397,952;    0,092;    3,136
880,095;16157,817;   -0,544;    0,045
880,654;16301,046;   -1,090;    1,318
881,213;16353,730;    2,456;    1,500
881,773;16011,322;    2,637;    2,682
882,332;16343,551;    3,365;    5,136
882,891;16187,689;    3,092;    2,136
883,451;16666,282;   -1,272;    1,682
884,010;16128,602;   -2,908;   -0,409
884,569;16218,013;   -0,999;   -0,045
885,128;16370,424;    2,819;   -1,864
885,687;16413,016;    4,455;    0,682
886,246;16111,609;    1,455;    2,136
886,805;15878,020;    2,455;    2,045
887,364;16166,885;   -0,999;   -0,500
887,922;16527,660;   -1,181;    0,045
888,481;16030,253;   -1,545;    0,591
889,040;16302,300;    1,183;    2,136
889,599;17033,620;    2,455;    1,409
890,157;17100,576;    1,455;    2,409
890,716;16727,351;   -0,090;    0,227
891,274;16552,489;    0,092;   -1,136
891,833;16989,718;    1,546;    0,864
892,391;16835,401;   -0,454;    0,500
892,950;16894,358;    1,819;   -0,773
893,508;17282,678;    0,455;   -0,409
894,067;16672,634;    0,637;    0,136
894,625;16542,317;   -0,636;   -1,500
895,183;16810,819;   -0,363;   -0,682
895,741;16682,866;    1,728;   -1,773
896,299;16552,095;   -0,545;   -2,409
896,858;16721,961;    0,819;   -1,591
897,416;16833,372;    2,728;   -1,318
897,974;16605,964;    1,819;    0,318
898,532;16727,739;    6,091;    2,682
899,089;16627,786;    2,091;   -0,682
899,647;16699,561;   -1,454;    1,318
900,205;16441,971;    1,182;    1,045
900,763;16628,837;   -0,454;    0,227
901,321;16632,611;    2,364;   -1,409
901,878;16098,022;   -1,000;   -0,773
902,436;15992,069;   -1,363;    1,318
902,994;16319,844;    4,728;    3,682
903,551;15772,437;    0,728;    0,409
904,109;16178,120;    0,182;   -1,409
904,666;15758,986;    2,455;    1,045
905,224;15588,760;    0,182;   -0,409
905,781;15290,989;    0,727;   -0,318
906,338;15378,309;   -1,363;    1,045
906,895;15342,993;    0,637;    2,045
907,453;15278,222;    1,727;    1,136
908,010;15318,905;   -0,909;    0,409
908,567;14956,316;    1,273;    0,591
909,124;14513,818;    0,364;   -1,500
909,681;14591,229;   -2,909;    0,682
910,238;14728,003;    0,636;   -1,318
910,795;15056,051;   -0,273;   -1,136
911,352;14678,141;   -2,909;   -2,682
911,909;14077,141;   -1,364;   -0,864
912,466;14575,778;   -3,182;    1,500
913,022;14151,141;   -1,636;    0,500
913,579;14529,596;   -0,909;    2,045
914,136;14218,687;    1,636;    0,955
914,692;14546,778;    0,091;   -1,227
915,249;14162,232;    1,455;    0,409
915,806;14395,232;    0,182;    1,955
916,362;14121,505;    1,909;    1,864
916,918;13672,232;    2,000;    1,045
917,475;13635,051;   -1,182;    0,955
918,031;13751,051;    3,364;   -0,045
918,587;13181,051;   -0,909;   -0,318
919,144;13420,505;   -2,273;    0,227
919,700;13718,778;    1,727;    0,773
920,256;13298,687;    0,727;    0,045
920,812;12916,323;   -0,727;   -1,045
921,368;12934,869;   -1,727;   -1,045
921,924;12580,778;    0,182;   -0,136
922,480;12154,414;   -0,545;    1,227
923,036;12757,505;    1,273;    1,955
923,592;12699,596;    0,455;    0,318
924,148;12609,414;    0,455;   -0,955
924,704;11931,960;   -1,364;   -0,409
925,259;12236,960;   -0,273;    0,591
925,815;11972,687;    1,455;    0,500
926,371;11524,051;    2,909;    1,409
926,926;11407,323;    2,091;    0,591
927,482;11041,141;   -1,364;    0,773
928,037;10919,596;    0,909;    2,045
928,593;11205,687;    1,636;    1,045
929,148;11036,869;   -1,818;   -1,500
929,704;10547,232;   -1,455;   -0,500
930,259;10796,141;    0,091;   -0,136
930,814; 9856,051;   -0,818;    1,955
931,369; 9551,414;    1,091;   -0,773
931,925; 9428,869;   -0,091;    0,136
932,480; 9333,232;   -2,818;   -2,591
933,035; 9207,232;    0,545;   -0,318
933,590; 9006,232;    0,364;   -1,773
934,145; 8664,414;   -1,364;   -0,318
934,700; 9009,232;    0,455;   -0,591
935,255; 8824,323;   -0,091;    0,045
935,809; 8110,505;    3,182;    0,864
936,364; 7249,323;   -0,455;   -0,136
936,919; 7220,323;    0,455;   -1,773
937,474; 7100,869;    1,455;    0,136
938,028; 6893,596;   -1,636;    1,136
938,583; 6370,687;    1,818;    4,682
939,138; 6657,414;    2,091;    2,136
939,692; 6089,414;    1,636;   -1,136
940,247; 5808,323;   -0,727;   -1,045
940,801; 5375,960;   -0,636;    0,227
941,355; 5275,596;   -0,364;    2,591
941,910; 4942,051;   -0,273;   -2,136
942,464; 5052,960;   -0,818;   -0,318
943,018; 4843,323;    1,000;   -0,227
943,572; 4777,505;    2,545;   -0,682
944,126; 4219,232;    0,091;   -0,409
944,681; 4102,232;    3,091;    0,227
945,235; 4072,869;    1,000;   -0,591
945,789; 4029,596;    0,364;   -1,864
946,342; 4118,505;    0,455;   -0,591
946,896; 3929,141;   -2,273;    0,955
947,450; 3703,232;    1,545;   -0,227
948,004; 3898,414;    1,727;   -0,045
948,558; 3887,414;    0,273;   -0,864
949,111; 3816,596;   -0,273;   -0,318
949,665; 3831,960;    1,636;   -0,682
950,219; 3728,414;   -0,091;   -1,045
950,772; 3813,596;   -1,909;    1,864
951,326; 3699,960;    0,545;   -0,955
951,879; 3810,778;    0,727;   -2,318
952,433; 3838,778;    0,000;    2,227
952,986; 3669,960;    2,909;    0,682
953,539; 3610,869;   -0,273;    0,591
954,093; 3550,141;    0,545;   -1,318
954,646; 3683,414;    0,909;    1,318
955,199; 3502,778;    0,000;   -0,500
955,752; 3400,505;   -0,455;    1,773
956,305; 3361,596;   -0,091;    2,955
956,858; 3511,141;    0,818;   -0,318
957,411; 3685,505;   -0,545;    2,136
957,964; 3511,051;    1,364;    2,136
958,517; 3506,687;   -1,545;    3,136
959,070; 3352,323;   -0,455;    1,955
959,623; 3424,869;    1,091;    1,500
960,176; 3186,687;    1,727;    2,045
960,728; 3176,323;   -2,727;    0,773
961,281; 3241,051;    0,545;    0,500
961,834; 3286,051;   -0,909;    0,864
962,386; 3194,232;    1,727;    1,045
962,939; 3120,596;    0,364;   -0,318
963,491; 3274,232;    0,455;    1,136
964,043; 3147,869;    1,182;    2,409
964,596; 3264,323;   -1,000;    2,227
965,148; 3103,778;   -1,000;    1,773
965,700; 3048,051;    1,091;   -0,227
966,253; 3174,323;   -0,636;    0,318
966,805; 3012,778;   -2,273;    0,773
967,357; 3066,869;    1,091;   -1,500
967,909; 3028,323;    0,455;   -1,227
968,461; 3142,505;    0,545;    3,136
969,013; 3069,414;   -0,182;   -0,864
969,565; 3138,960;   -0,455;   -1,136
970,117; 3205,051;   -0,364;    1,045
970,669; 3049,687;    0,182;   -0,136
971,220; 2932,141;   -0,455;   -1,500
971,772; 2846,596;   -0,636;   -0,318
972,324; 2946,232;    0,091;   -0,500
972,876; 2893,051;    0,818;   -0,045
973,427; 3039,687;    1,909;   -1,045
973,979; 3016,687;   -0,727;   -2,500
974,530; 3051,687;    1,818;    1,318
975,082; 3056,414;   -0,545;    1,682
975,633; 2950,051;    1,091;    1,682
976,184; 3086,687;    0,909;    0,773
976,736; 2902,323;    0,091;    0,227
977,287; 2705,687;   -0,909;   -0,500
977,838; 2862,869;    0,909;   -0,318
978,389; 2927,141;   -1,000;   -0,500
978,940; 2808,414;    0,545;   -0,409
979,491; 2829,596;    0,091;   -0,500
980,042; 2803,596;    0,182;    3,045
980,593; 2862,414;   -2,545;    0,227
981,144; 2886,869;    2,545;   -0,500
981,695; 2862,414;    1,455;    1,500
982,246; 2825,687;   -0,273;    1,045
982,797; 2979,414;   -1,727;    0,682
983,347; 3076,687;    0,364;    0,591
983,898; 3239,051;    3,091;    0,409
984,449; 3067,051;    2,182;    0,773
984,999; 2971,869;    1,455;   -1,136
985,550; 2754,778;    0,182;   -0,318
986,100; 2802,323;   -0,455;   -0,318
986,651; 2836,051;   -0,818;    0,045
987,201; 2807,778;   -1,000;   -0,591
987,751; 2873,414;    0,818;    2,864
988,302; 2871,687;    2,636;    1,500
988,852; 2914,141;    0,455;   -1,136
989,402; 2948,323;    0,091;    0,682
989,952; 2860,778;   -2,182;    0,864
990,502; 2959,505;   -0,091;    0,682
991,052; 2942,960;   -0,727;    0,045
991,602; 2800,323;   -2,909;    1,318
992,152; 2801,960;    0,455;    0,682
992,702; 2799,323;    1,364;   -0,045
993,252; 2717,778;   -3,000;   -0,500
993,802; 2786,505;   -0,273;    1,318
994,352; 3022,141;   -1,545;    1,136
994,901; 3119,141;   -0,182;    3,227
995,451; 3037,414;   -0,182;    0,318
996,000; 3103,960;    1,636;    0,318
996,550; 2830,051;    2,273;    0,227
997,100; 2836,960;    1,273;   -0,045
997,649; 3117,141;    2,182;    0,955
998,198; 2775,414;    1,727;   -1,500
998,748; 2943,414;    1,091;   -2,318
999,297; 2848,778;   -0,818;   -0,409
999,846; 2901,596;    1,000;   -0,773
1000,395; 2955,505;   -0,818;    0,500
1000,945; 2909,323;    1,818;   -0,773
1001,494; 2995,869;    2,364;    0,682
1002,043; 2997,505;    4,636;    0,864
1002,592; 2851,414;   -1,091;    1,955
1003,141; 2991,232;   -0,455;   -0,682
1003,690; 2847,960;    1,727;    0,500
1004,238; 2901,232;    1,455;   -0,045
1004,787; 2557,505;    1,364;    1,227
1005,336; 2802,232;    0,364;    0,682
1005,885; 2942,414;    1,364;   -2,773
1006,433; 3072,505;    0,545;    0,955
1006,982; 3133,869;    0,455;    1,682
1007,531; 3031,778;   -1,818;   -0,227
1008,079; 2992,505;   -2,273;    0,500
1008,627; 3138,596;   -1,455;    0,409
1009,176; 2885,869;    0,000;   -1,955
1009,724; 2931,414;    1,091;    0,864
1010,273; 2970,232;    1,273;    0,500
1010,821; 3105,141;    0,091;    1,409
1011,369; 2849,778;   -1,364;    1,318
1011,917; 2825,869;   -1,364;   -0,591
1012,465; 3088,778;    1,273;   -1,591
1013,013; 3184,869;    2,091;   -1,682
1013,561; 3065,596;    0,455;   -0,773
1014,109; 3107,232;   -1,909;    1,682
1014,657; 3007,778;    0,364;    0,591
1015,205; 3118,505;    1,636;   -0,955
1015,753; 3168,051;   -0,545;   -1,409
1016,301; 3206,960;   -2,636;    3,045
1016,848; 3189,141;   -1,273;    0,409
1017,396; 3247,778;    2,545;    0,045
1017,944; 3368,051;    1,182;    1,864
1018,491; 3127,960;    0,273;    1,409
1019,039; 3269,687;    0,455;    0,591
1019,586; 3192,414;   -1,364;    1,682
1020,134; 3306,687;    0,455;    1,500
1020,681; 3332,141;    0,182;   -1,136
1021,228; 3328,596;    2,909;   -2,227
1021,776; 3152,960;    1,182;   -1,136
1022,323; 3379,232;    0,455;    0,773
1022,870; 3318,596;   -1,000;   -0,045
1023,417; 3224,141;    2,636;    1,864
1023,964; 3351,323;    2,636;    1,227
1024,511; 3197,232;    1,000;    0,773
1025,058; 3009,687;    3,182;   -0,045
1025,605; 3044,869;   -2,273;    3,136
1026,152; 3258,414;    1,727;   -0,591
1026,699; 3010,414;    1,818;    1,318
1027,245; 3163,051;   -0,091;    0,318
1027,792; 3380,687;   -1,000;    1,409
1028,339; 3262,232;    2,364;   -0,045
1028,885; 3132,960;    1,000;   -0,227
1029,432; 3044,960;   -0,091;    0,227
1029,978; 3114,778;   -1,000;   -1,591
1030,525; 3033,960;    1,000;    0,409
1031,071; 3266,778;   -1,364;    1,136
1031,618; 3366,414;    0,364;    1,682
1032,164; 3156,414;   -0,091;    3,045
1032,710; 3201,505;    1,636;   -1,500
1033,256; 3108,232;   -0,636;   -0,136
1033,803; 3086,960;   -0,545;    1,500
1034,349; 2845,505;   -1,364;    0,136
1034,895; 2997,687;    0,000;   -0,318
1035,441; 2982,869;   -0,818;    0,318
1035,987; 2977,505;   -2,364;   -0,682
1036,533; 2955,869;   -1,455;   -0,955
1037,078; 3169,232;    1,455;    1,682
1037,624; 2991,323;    2,455;   -0,955
1038,170; 3006,960;    0,455;   -0,318
1038,716; 2907,960;    1,636;   -0,409
1039,261; 2839,051;   -2,273;   -0,773
1039,807; 2769,778;   -0,091;    3,409
1040,352; 2847,869;   -1,909;   -0,318
1040,898; 2891,778;   -1,545;   -0,682
1041,443; 2800,232;   -1,455;   -2,591
1041,989; 2813,232;    1,091;    1,591
1042,534; 2697,687;   -0,364;    2,591
1043,079; 2823,778;    2,909;    0,955
1043,625; 2622,960;    1,818;    0,500
1044,170; 2657,141;   -1,364;    1,045
1044,715; 2915,051;    2,455;    0,955
1045,260; 2728,141;    2,182;   -0,955
1045,805; 2791,960;    1,182;   -0,591
1046,350; 2720,960;    1,364;   -0,409
1046,895; 2669,869;    2,909;    1,591
1047,440; 2609,141;    5,364;    0,409
1047,985; 2523,141;    2,818;   -0,955
1048,530; 2441,232;    1,545;    1,227
1049,074; 2505,505;    0,000;    0,318
1049,619; 2487,323;   -1,364;    1,955
1050,164; 2301,414;    0,455;    0,227
1050,708; 2339,869;   -0,455;    0,045
1051,253; 2699,778;    1,273;   -2,227
1051,797; 2408,960;    0,818;   -1,318
1052,342; 2425,869;   -1,182;    1,045
1052,886; 2411,687;    0,364;   -1,409
1053,430; 2313,687;   -1,364;    0,136
1053,975; 2319,778;   -0,818;   -0,318
1054,519; 2299,414;   -0,727;    3,227
1055,063; 2312,596;    0,909;    1,318
1055,607; 2194,596;   -0,182;    0,227
1056,151; 2220,414;    2,909;    1,682
1056,695; 2133,051;    2,273;   -1,136
1057,239; 2211,596;   -1,727;   -0,682
1057,783; 2217,232;    0,818;   -1,500
1058,327; 2159,414;    0,000;    1,409
1058,871; 2392,505;   -0,545;    1,318
1059,415; 2096,687;   -0,818;   -0,045
1059,958; 2356,778;    1,455;    2,591
1060,502; 2091,141;   -1,000;   -0,773
1061,046; 1991,596;    0,364;   -0,955
1061,589; 1962,051;   -3,000;   -1,136
1062,133; 1871,869;   -1,273;    1,864
1062,676; 1800,051;    1,182;    0,864
1063,220; 1802,687;    1,091;    0,500
1063,763; 1823,141;    0,909;    1,136
1064,306; 1899,778;   -0,909;    1,864
1064,849; 1772,051;   -0,909;    0,591
1065,393; 1787,596;    2,000;   -1,500
1065,936; 1896,414;    0,182;   -0,409
1066,479; 1800,141;   -1,455;    1,318
1067,022; 1806,596;   -0,273;   -0,227
1067,565; 1698,596;   -0,091;   -1,318
1068,108; 1735,778;    0,727;   -0,591
1068,651; 1717,414;   -0,636;    1,409
1069,194; 1645,687;   -0,455;   -1,682
1069,736; 1622,869;   -1,273;    0,955
1070,279; 1622,323;   -1,364;   -0,500
1070,822; 1662,869;   -2,000;   -0,318
1071,364; 1754,141;   -0,364;    1,318
1071,907; 1579,323;   -0,727;    3,227
1072,450; 1476,687;    0,000;   -0,045
1072,992; 1467,141;   -0,273;    3,136
1073,535; 1626,051;    2,091;    2,136
1074,077; 1416,687;   -0,727;    2,045
1074,619; 1381,960;   -1,364;    0,591
1075,161; 1406,869;   -1,091;    1,500
1075,704; 1582,778;    1,545;    1,227
1076,246; 1390,141;   -0,182;    0,682
1076,788; 1311,414;   -0,364;    1,773
1077,330; 1392,778;    1,273;    2,136
1077,872; 1352,960;    0,909;    0,955
1078,414; 1574,778;    2,727;    0,773
1078,956; 1306,141;    1,273;   -0,227
1079,498; 1565,414;    1,636;    0,318
1080,040; 1282,051;    1,909;   -1,318
1080,581; 1222,869;    1,636;   -0,318
1081,123; 1155,869;    0,091;   -0,773
1081,665; 1204,687;   -1,182;   -0,955
1082,206; 1494,505;    1,364;   -0,500
1082,748; 1350,505;    0,727;    2,045
1083,289; 1229,141;   -2,000;    1,318
1083,831; 1138,960;   -0,545;    0,227
1084,372; 1182,960;    0,000;    0,591
1084,913; 1176,960;    1,091;    0,864
1085,455; 1141,232;   -1,909;   -2,045
1085,996; 1109,869;   -2,273;    0,136
1086,537; 1121,141;   -0,091;    0,864
1087,078; 1157,869;   -0,909;   -2,136
1087,619; 1208,596;   -1,273;    0,227
1088,160; 1129,596;    0,000;    1,318
1088,701; 1110,505;   -1,091;    0,682
1089,242; 1056,869;    1,364;   -2,227
1089,783; 1148,414;   -0,273;    1,409
1090,324; 1119,051;    0,455;    0,682
1090,865; 1006,141;    2,727;   -0,409
1091,405;  974,414;    0,727;    2,227
1091,946; 1000,051;    0,182;   -0,955
1092,487;  929,960;    0,818;   -1,409
1093,027; 1080,596;   -1,364;   -1,500
1093,568;  930,505;   -0,364;    1,227
1094,108; 1024,596;    0,273;    1,773
1094,649;  966,414;   -1,182;    0,136
1095,189;  922,232;   -0,636;   -0,682
1095,729;  860,596;   -0,091;    0,955
1096,269;  863,596;    0,727;   -0,955
1096,810; 1174,323;   -1,364;    0,500
1097,350; 1008,414;    1,364;   -0,773
1097,890;  907,051;    0,364;    1,227
1098,430; 1148,051;    2,364;    2,864
1098,970; 1024,778;    2,182;    1,682
1099,510;  898,505;    0,545;   -2,318
1100,050;  818,778;    1,000;   -1,591
1100,589;  791,778;   -0,727;   -0,318
1101,129;  909,596;    0,818;   -0,955
1101,669; 1055,778;    1,727;    2,136
1102,209;  885,596;   -0,091;    2,227
1102,748;  840,869;    0,000;    0,955
1103,288;  820,051;    1,273;   -1,227
1103,827;  844,414;    3,091;   -2,227
1104,367;  729,505;   -0,091;   -2,409
1104,906;  697,323;    1,364;   -1,136
1105,445;  767,323;    0,636;   -1,136
1105,985;  713,141;   -0,727;    1,500
1106,524;  755,051;   -1,727;   -0,682
1107,063;  746,414;   -2,727;    1,409
1107,602;  728,141;   -1,909;   -1,500
1108,141;  646,232;   -1,909;    1,500
1108,680;  736,778;   -3,455;   -0,591
1109,219;  661,778;   -0,909;   -0,500
1109,758;  667,778;    0,455;    0,682
1110,297;  645,960;    1,000;   -0,682
1110,836;  589,869;   -0,727;    0,955
1111,375;  753,778;   -2,545;    0,409
1111,913;  763,051;   -1,000;    0,773
1112,452;  708,505;   -0,273;    0,136
1112,991;  599,051;    1,091;    1,955
1113,529;  558,869;   -0,818;   -0,045
1114,068;  625,141;   -0,273;    2,955
1114,606;  521,051;   -0,364;   -0,955
1115,144;  682,414;   -1,273;    1,045
1115,683;  609,687;   -0,727;    0,318
1116,221;  660,869;   -0,455;   -0,864
1116,759;  583,141;    0,636;   -0,864
1117,297;  774,051;    0,000;    1,864
1117,836;  574,869;   -2,182;   -1,227
1118,374;  585,141;    0,182;   -0,682
1118,912;  530,778;    0,909;    2,682
1119,450;  511,232;    1,000;    0,864
1119,988;  561,596;    1,545;    2,136
1120,525; 1016,051;    5,091;    3,318
1121,063;  722,323;    1,182;    1,864
1121,601;  516,869;   -0,909;   -1,227
1122,139;  476,414;   -0,727;   -2,045
1122,676;  681,323;   -0,727;    2,773
1123,214;  609,505;   -1,182;    4,409
1123,751;  416,141;    1,727;    2,227
1124,289;  549,778;   -0,091;   -0,409
1124,826;  423,960;    1,727;    0,227
1125,364;  354,505;    1,727;   -0,955
1125,901;  535,505;    1,182;    1,227
1126,438;  647,414;    0,818;    0,955
1126,975;  372,505;   -0,727;   -0,773
1127,513;  440,778;    0,273;    2,136
1128,050;  351,414;    1,636;   -0,682
1128,587;  445,778;    2,000;   -0,227
1129,124;  481,232;    0,091;    1,318
1129,661;  353,232;    0,273;    0,227
1130,198;  527,960;    1,636;    0,773
1130,734;  472,687;    0,182;    1,409
1131,271;  331,596;   -0,909;    0,864
1131,808;  505,141;    2,909;    3,045
1132,345;  380,687;    1,545;    0,318
1132,881;  251,960;   -1,545;   -1,864
1133,418;  392,232;    0,727;   -1,136
1133,954;  321,051;    2,455;   -2,682
1134,491;  393,869;    1,364;   -0,773
1135,027;  300,323;    2,364;    0,864
1135,564;  393,778;    0,273;    2,955
1136,100;  363,596;    0,364;    2,136
1136,636;  255,323;   -1,273;   -1,045
1137,172;  348,141;    0,000;   -1,045
1137,708;  271,051;   -1,364;   -1,045
1138,245;  284,960;    1,273;   -1,227
1138,781;  235,869;    1,091;   -3,318
1139,317;  296,960;    1,273;   -1,409
1139,852;  277,596;    3,091;    0,136
1140,388;  406,232;   -1,182;   -0,409
1140,924;  284,051;   -1,091;   -2,227
1141,460;  222,960;   -1,636;    0,136
1141,996;  161,869;   -1,364;    2,682
1142,531;  206,141;    1,364;    3,318
1143,067;  413,051;    1,182;    1,045
1143,602;  471,687;   -0,091;   -0,318
1144,138;  325,687;   -2,636;    1,045
1144,673;  183,960;   -1,455;    1,409
1145,209;  256,051;   -1,909;   -0,318
1145,744;  186,778;   -0,727;    0,864
1146,279;  311,141;    1,818;   -0,136
1146,815;  224,414;    1,545;   -2,682
1147,350;  264,869;   -1,364;    0,045
1147,885;  181,778;   -0,818;   -1,318
1148,420;  181,778;   -2,273;    0,773
1148,955;  169,505;   -1,727;    1,864
1149,490;  195,323;   -0,909;   -1,591
1150,025;  173,323;    0,455;   -1,773
1150,560;  285,232;    1,091;   -0,955
1151,094;  256,232;    1,455;   -0,591
1151,629;  255,141;    1,636;    0,864
1152,164;  185,778;    1,364;    1,318
1152,698;  140,232;   -0,182;   -0,136
1153,233;  105,323;    0,091;   -0,682
1153,767;  150,323;   -3,000;   -2,318
1154,302;  202,778;   -1,455;    1,773
1154,836;  201,687;   -0,455;   -2,136
1155,371;  243,960;   -1,364;    3,682
1155,905;  195,596;   -0,636;    1,682
1156,439;  171,869;   -0,636;   -0,500
1156,973;  191,960;    0,364;    0,318
1157,507;  144,960;   -0,364;    0,682
1158,042;  160,141;   -0,727;    1,045
1158,576;  210,505;    0,182;    1,773
1159,110;  196,505;   -0,818;    2,409
1159,643;  180,141;    0,636;   -0,045
1160,177;  111,141;   -1,545;    1,500

