
Integration time [ms]:   0,040
Averaging Nr. [scans]: 11
Smoothing Nr. [pixels]: 0
Data measured with spectrometer [name]: 7318044SP
Wave   ;Sample   ;Dark     ;Reference
[nm]   ;[counts] ;[counts] ;[counts] 

186,757;    8,000;   31,551;    1,318
187,357;   23,184;   22,551;    0,955
187,958;    7,976;   15,460;   -1,591
188,558;   42,452;    8,915;   -1,227
189,159;   13,823;    6,733;   -4,500
189,759;   -5,117;    7,278;   -3,591
190,360;  -15,103;    2,824;   -2,136
190,960;    9,668;    2,915;   -4,136
191,560;    4,141;    3,189;   -6,591
192,161;  212,229;    4,372;   -3,500
192,761;   87,936;    4,010;   -3,227
193,361;   37,219;    1,556;   -3,773
193,962;   77,457;    2,010;   -2,682
194,562;    8,030;    1,189;   -3,955
195,162;   21,619;   -2,448;   -2,227
195,762;  117,984;   -3,176;   -0,045
196,362;   72,270;    1,370;   -2,500
196,963;    3,954;    2,006;   -0,864
197,563;   43,181;    1,551;   -0,955
198,163;    2,703;    0,096;   -0,682
198,763;    8,443;    1,733;   -0,500
199,363;   52,142;    3,096;   -0,500
199,963;   27,267;    0,369;    0,409
200,563;   15,493;    2,823;   -1,409
201,163;   -3,914;    3,277;   -0,227
201,763;   34,445;    3,732;    0,318
202,363;    3,151;    1,459;    1,500
202,963;   32,593;    1,459;    1,045
203,563;   78,521;    0,277;    0,500
204,162;   23,434;    2,096;   -1,864
204,762;   15,661;    0,550;    0,591
205,362;   -7,115;    3,004;    1,955
205,962;   12,994;    3,096;    1,955
206,562;   18,997;    1,823;    2,318
207,161;   -4,722;   -0,087;    0,318
207,761;   70,301;    1,277;    2,409
208,361;   11,527;   -0,268;    1,409
208,960;   30,235;    0,459;    1,500
209,560;   25,301;    1,277;    1,591
210,160;   34,468;    0,550;    1,864
210,759;    9,579;    4,186;    1,227
211,359;    7,589;    1,459;    1,045
211,958;   92,925;    1,277;    2,045
212,558;   99,465;    1,732;    1,864
213,157;   37,478;    1,822;    1,500
213,757;  169,686;    3,822;   -0,227
214,356;   55,518;    1,277;   -0,409
214,956;  149,003;    3,095;    0,409
215,555;   43,874;    2,095;    2,136
216,154;   10,722;   -2,723;   -0,591
216,754;   10,084;    0,277;    0,773
217,353;   22,849;   -0,268;   -1,045
217,952;  -20,317;   -0,178;    0,318
218,552;   38,139;    1,368;   -0,773
219,151;    9,182;    0,277;    0,955
219,750;    3,536;    0,004;   -0,227
220,349;   -3,523;   -0,451;    1,045
220,948;   48,674;   -1,360;    1,136
221,548;    1,496;    0,913;    1,227
222,147;   11,158;   -0,087;   -0,409
222,746;   80,489;   -0,451;   -0,955
223,345;   29,858;    0,731;    0,500
223,944;   36,534;   -0,451;    0,773
224,543;   37,157;    1,004;   -1,409
225,142;   22,212;    0,094;    0,136
225,741;   22,875;   -0,814;    1,045
226,340;   22,183;   -0,451;   -0,955
226,939;   68,792;   -0,996;   -0,136
227,538;    6,720;   -0,360;   -0,773
228,137;   66,480;   -0,814;    0,864
228,735;   45,752;   -0,541;    1,227
229,334;  -11,068;   -0,905;   -0,227
229,933;   70,995;    0,459;    0,591
230,532;   69,346;    1,186;   -0,409
231,131;   99,277;    1,732;    0,318
231,729;   45,990;   -2,450;   -2,318
232,328;   17,047;   -0,723;   -1,500
232,927;   24,059;    1,004;   -0,500
233,525;   28,497;    3,640;    0,045
234,124;   36,770;    2,368;   -1,591
234,723;    1,324;    0,913;   -1,045
235,321;   -6,599;    2,277;    0,136
235,920;    9,991;    1,186;   -1,227
236,518;   78,250;    3,459;    0,318
237,117;    6,557;    0,004;   -0,227
237,715;   15,084;    0,640;   -0,500
238,314;   19,895;   -0,087;   -2,318
238,912;   77,744;   -0,723;   -1,409
239,510;   41,285;    0,459;   -1,227
240,109;   85,990;    0,004;    3,773
240,707;   61,055;   -0,996;    1,227
241,305;    3,730;    0,550;    0,136
241,904;   40,730;   -0,178;   -2,045
242,502;  105,824;   -0,632;   -0,227
243,100;   51,809;   -0,087;   -0,955
243,698;    9,336;    0,732;    1,682
244,297;   17,387;   -0,632;    0,682
244,895;   21,035;   -0,269;   -2,318
245,493;   91,106;    2,186;   -0,591
246,091;   84,435;    1,368;   -1,318
246,689;   49,343;    1,004;    0,591
247,287;   39,038;    0,822;   -1,136
247,885;   24,241;   -1,451;    1,227
248,483;    9,643;    1,822;   -0,500
249,081;   50,594;    0,185;    1,591
249,679;   50,348;   -0,178;    1,682
250,277;    7,143;   -1,723;    0,864
250,875;   47,083;   -1,087;   -1,045
251,473;   11,953;   -1,178;    0,500
252,071;   55,734;    1,459;    1,045
252,669;   18,080;   -1,814;    0,318
253,267;    4,025;   -0,087;    0,773
253,864;   18,675;   -0,360;    0,682
254,462;   70,329;    1,640;    1,591
255,060;    5,051;   -0,269;    1,318
255,658;    1,989;    0,822;   -0,136
256,255;   17,037;    0,186;   -2,045
256,853;   32,878;   -0,269;    1,409
257,451;   16,740;    0,822;    1,864
258,048;  170,099;    1,822;    1,864
258,646;   68,237;    1,731;   -1,045
259,243;  106,787;   -0,087;    2,227
259,841;   55,868;   -0,814;    0,318
260,438;    4,666;   -0,087;    0,864
261,036;   39,419;   -1,905;    1,409
261,633;    7,809;   -0,087;    2,227
262,231;    0,380;    2,731;   -0,045
262,828;  -20,497;   -0,905;    1,136
263,425;    2,642;    0,913;   -0,591
264,023;    2,142;    0,186;    0,045
264,620;   52,053;   -0,360;   -0,318
265,217;   97,353;   -2,087;    3,136
265,815;   17,774;   -1,905;    2,136
266,412;   40,719;    0,731;    0,136
267,009;   37,376;   -1,451;    0,773
267,606;   65,783;    0,822;   -0,955
268,203;   17,545;   -0,269;   -0,591
268,801;   21,837;    1,731;    0,591
269,398;    7,275;   -0,360;    2,500
269,995;   43,139;    0,277;    1,591
270,592;   27,235;   -0,632;   -0,500
271,189;   -3,876;    0,186;    0,409
271,786;  -11,417;   -0,632;    1,227
272,383;   58,058;   -1,087;    0,227
272,980;   19,074;    0,277;    0,318
273,577;    1,404;    0,004;    1,227
274,174;   -2,924;    0,822;    2,591
274,771;   42,898;   -0,814;   -0,773
275,367;  199,130;    2,277;    1,409
275,964;  102,841;    0,731;   -0,500
276,561;   21,356;    1,549;   -1,045
277,158;  -17,288;    0,095;   -1,773
277,755;   72,776;    2,185;    0,409
278,351;   43,145;   -0,451;   -1,500
278,948;   56,290;   -0,815;    0,045
279,545;   47,217;   -1,360;    2,318
280,141;   82,100;   -1,723;   -2,045
280,738;   91,078;   -0,451;   -0,136
281,334;   25,548;   -1,633;    0,591
281,931;    7,916;   -0,087;   -1,318
282,528;   64,396;    0,822;   -0,500
283,124;   94,329;   -1,087;   -0,500
283,721;   86,457;   -0,451;    1,409
284,317;   31,160;    0,185;    2,500
284,913;   84,156;   -1,360;    0,591
285,510;  154,701;    0,640;   -0,318
286,106;  101,020;   -2,269;   -0,955
286,703;   49,438;   -0,360;    1,955
287,299;   24,686;   -1,451;   -0,591
287,895;   23,720;    0,822;   -1,045
288,491;   11,912;    0,186;    2,136
289,088;   45,072;   -2,360;    2,409
289,684;   62,171;   -1,723;    1,500
290,280;  112,551;    0,368;    0,682
290,876;   93,931;    1,822;    5,500
291,472;   75,651;    1,276;    2,227
292,068;   87,022;    1,367;    0,227
292,665;   47,414;    2,095;    0,773
293,261;   19,126;    0,276;    2,136
293,857;   89,367;    2,913;    2,136
294,453;   56,267;    3,550;    0,955
295,049;  160,179;   -0,268;    1,955
295,644;   90,178;    0,095;    0,136
296,240;   29,402;   -0,905;   -0,136
296,836;   80,015;   -0,995;    0,318
297,432;  138,027;    1,096;   -0,500
298,028;  160,270;    0,732;    0,773
298,624;  106,109;    1,459;    1,864
299,220;  105,888;    2,368;    0,591
299,815;  100,052;    1,005;   -0,409
300,411;  160,725;    0,914;    1,773
301,007;  220,540;    1,368;    0,227
301,602;  127,714;   -0,541;   -2,318
302,198;  233,438;    0,732;   -0,773
302,794;  142,217;    1,187;   -0,500
303,389;  102,766;   -1,177;    1,045
303,985;  131,102;    0,550;    1,409
304,580;  235,125;    1,459;    1,591
305,176;  166,058;   -3,086;    0,136
305,771;   80,643;   -1,268;   -1,227
306,367;  376,711;    4,095;    0,136
306,962;  214,532;    0,641;    1,500
307,558;  257,198;   -0,450;    0,136
308,153;  272,331;    1,095;   -1,136
308,748;  133,113;   -0,814;    1,682
309,344;  378,560;   -0,632;   -1,318
309,939;  378,399;   -1,905;   -1,318
310,534;  170,888;   -0,086;   -1,682
311,130;  144,357;    0,459;   -2,500
311,725;  125,002;    1,004;   -0,500
312,320;  152,322;    2,459;    0,045
312,915;  209,799;    1,459;   -1,045
313,510;  341,852;    1,550;   -0,500
314,105;  150,635;    1,096;    1,409
314,700;   75,189;   -3,086;   -1,045
315,295;  123,944;   -0,904;    0,045
315,890;   85,894;    1,277;    0,864
316,485;  147,095;   -0,359;   -0,318
317,080;   76,989;   -3,086;    1,591
317,675;  263,505;    2,005;   -0,682
318,270;  396,716;    5,550;    3,318
318,865;  291,352;    3,278;    3,045
319,460;  192,774;   -0,904;    0,591
320,055;   95,493;   -0,541;   -1,227
320,650;   88,821;   -1,995;   -0,591
321,244;   84,044;   -0,177;   -1,409
321,839;   77,828;   -1,541;   -0,227
322,434;  108,504;   -1,086;   -1,591
323,029;   69,207;    1,732;    1,591
323,623;   65,658;    1,550;    0,773
324,218;  170,290;    2,368;    1,409
324,812;  133,309;    1,096;    1,591
325,407;  121,774;   -0,814;    2,045
326,002;  210,291;    0,277;   -0,409
326,596;  173,731;    0,914;    1,318
327,191;   85,831;    0,823;   -1,045
327,785;   96,549;   -0,813;   -0,227
328,379;   89,044;    1,368;    0,136
328,974;  116,347;    0,914;   -3,955
329,568;  135,705;    0,186;   -2,409
330,163;  200,603;    2,096;    1,045
330,757;  103,794;    2,459;    1,591
331,351;   73,359;    0,459;    0,682
331,945;   73,580;    0,914;    1,409
332,540;  180,815;   -1,723;   -0,591
333,134;  190,130;   -1,086;    0,773
333,728;  207,238;    0,005;    0,318
334,322;  130,254;   -1,177;   -0,864
334,916;  146,020;    0,277;    0,955
335,510;  285,115;   -0,450;   -0,136
336,105;  299,377;   -1,086;    1,591
336,699;  229,454;   -1,086;    0,591
337,293;  282,169;   -1,723;    0,318
337,887;  242,989;   -2,723;    1,955
338,481;  403,390;    0,459;    0,591
339,074;  521,655;   -0,359;    2,682
339,668;  527,073;   -1,632;    1,227
340,262; 1114,707;    1,732;    3,227
340,856;  762,727;    1,822;   -0,682
341,450;  457,524;    1,004;    1,864
342,044;  550,987;    1,459;    0,136
342,637;  735,081;    0,913;   -2,136
343,231;  777,893;   -2,360;    0,682
343,825;  650,180;   -1,086;   -0,591
344,419;  662,495;   -1,995;    0,500
345,012; 1297,426;    2,459;    4,045
345,606; 1120,116;    4,641;    1,591
346,199;  798,496;   -1,813;   -0,227
346,793;  978,915;    1,914;    2,045
347,386;  824,368;   -0,813;   -1,136
347,980;  717,297;   -0,268;   -0,045
348,573;  878,522;    2,278;    0,409
349,167; 1207,018;    5,278;    4,773
349,760; 1189,687;    2,914;    2,682
350,354; 1135,032;   -0,813;    1,136
350,947; 1197,084;    1,096;    1,682
351,540; 1001,204;   -0,358;   -1,409
352,134;  866,990;    1,096;    1,136
352,727;  953,110;   -0,086;    1,136
353,320;  990,481;    0,005;    0,591
353,913;  889,972;   -1,995;    1,864
354,507; 1156,523;    0,823;   -1,227
355,100; 1052,335;    0,460;    0,864
355,693; 1477,205;    2,005;    2,409
356,286; 1196,080;    0,823;    2,773
356,879; 1026,598;   -0,722;    1,227
357,472;  963,723;   -0,904;    1,500
358,065; 1066,312;   -0,722;    2,500
358,658;  913,870;   -0,540;    2,318
359,251;  806,417;   -1,631;   -0,591
359,844; 1003,854;   -1,904;   -1,136
360,437; 1120,852;   -2,995;    0,045
361,030;  957,568;    1,369;   -0,682
361,623;  901,025;    2,824;    0,318
362,215; 1148,066;   -0,086;    2,045
362,808;  957,709;   -2,358;   -1,682
363,401;  877,532;   -2,449;    0,136
363,994; 1112,946;   -0,631;   -1,500
364,586;  836,582;    0,824;   -1,500
365,179;  766,594;   -0,449;   -1,136
365,772;  588,090;   -1,995;    2,045
366,364;  751,908;    1,915;   -3,227
366,957;  852,314;    2,279;   -0,045
367,549;  742,150;    2,188;   -0,864
368,142;  727,851;    1,825;   -1,500
368,734;  680,920;    0,734;   -2,136
369,327;  582,354;    1,643;   -0,500
369,919;  628,471;   -1,538;    0,409
370,512;  648,360;   -1,083;   -0,500
371,104;  920,148;   -0,901;    1,591
371,696;  962,798;    1,191;   -0,955
372,289;  781,974;    0,373;    1,136
372,881;  720,642;   -2,080;    1,318
373,473;  565,089;   -2,170;    1,136
374,066;  674,088;   -0,169;    0,500
374,658;  626,302;    0,378;    1,136
375,250;  553,982;    0,653;   -1,409
375,842;  592,723;    0,473;   -0,045
376,434;  547,033;   -0,435;   -0,409
377,026;  555,571;    0,204;   -2,500
377,618;  565,332;   -0,158;   -0,682
378,210;  474,034;   -0,338;   -1,955
378,802;  416,108;    0,754;   -0,591
379,394;  897,910;    1,846;    0,682
379,986;  624,412;    1,393;   -0,955
380,578;  516,898;   -0,153;    0,773
381,170;  782,940;   -0,972;    0,045
381,762;  659,985;    0,755;    1,409
382,354;  616,358;   -0,065;   -1,318
382,945;  522,675;   -2,976;    0,318
383,537;  476,528;   -2,705;   -1,955
384,129;  490,880;   -2,160;   -1,136
384,721;  624,182;   -0,252;    0,955
385,312;  525,981;   -0,161;   -0,955
385,904;  655,374;   -2,706;    1,591
386,496;  504,792;   -0,979;    1,045
387,087;  663,546;    1,022;    2,500
387,679;  596,425;   -1,160;    0,045
388,270;  579,401;    2,840;    2,045
388,862;  532,266;    1,295;   -0,318
389,453;  472,347;   -0,887;    1,045
390,045;  519,134;   -0,705;   -2,682
390,636;  411,166;    0,204;   -0,591
391,227;  477,020;   -0,523;   -0,045
391,819;  473,947;    0,204;    0,773
392,410;  752,669;    1,022;    0,045
393,001;  545,138;   -0,979;   -1,591
393,593;  643,275;    1,930;   -0,045
394,184;  690,322;    1,385;   -0,409
394,775;  503,263;    1,839;    2,136
395,366;  446,921;    1,385;    0,773
395,957;  682,247;    0,113;    0,136
396,548;  541,275;   -0,342;    2,682
397,139;  710,414;   -2,433;    0,591
397,730;  579,798;   -1,888;    0,955
398,321;  580,732;   -1,252;    0,955
398,912;  507,862;   -0,615;    0,136
399,503;  520,254;   -3,524;   -1,409
400,094;  562,575;    0,294;    1,682
400,685;  544,486;   -0,433;    0,045
401,276;  455,568;    0,930;   -0,955
401,867;  443,043;   -0,888;    0,773
402,458;  401,808;   -2,251;   -2,318
403,048;  583,232;    1,112;    0,591
403,639;  477,563;    0,840;    0,864
404,230;  665,992;    2,476;    0,318
404,821;  725,254;   -0,615;    0,045
405,411;  581,304;    1,203;   -2,591
406,002;  440,265;   -1,252;   -1,136
406,592;  726,655;    2,294;    0,045
407,183;  547,629;    0,566;   -1,500
407,774;  482,676;    3,475;   -0,136
408,364;  438,727;    0,930;    0,409
408,954;  580,162;    0,384;    1,227
409,545;  563,432;    1,021;    1,045
410,135;  480,461;    1,293;    0,500
410,726;  415,817;    1,838;    0,318
411,316;  614,567;    0,111;    0,773
411,906;  391,257;   -0,253;   -0,409
412,497;  378,431;   -1,070;   -0,045
413,087;  302,312;   -1,980;   -0,227
413,677;  224,394;   -0,707;    3,864
414,267;  195,995;    0,656;    1,409
414,857;  163,092;   -2,980;    4,227
415,448;  152,348;    0,839;    0,500
416,038;  180,839;    0,020;   -0,591
416,628;  221,936;   -0,889;    0,409
417,218;  275,284;    0,565;    3,318
417,808;  431,199;    0,202;   -0,409
418,398;  269,685;    0,020;    2,682
418,988;  127,569;    2,020;    0,591
419,578;  223,733;   -0,707;    1,409
420,168;  135,441;   -1,343;   -0,955
420,757;  280,288;   -1,343;   -1,500
421,347;  164,956;    0,111;   -0,227
421,937;  119,256;    2,292;    1,409
422,527;  250,088;    0,838;   -0,773
423,116;  383,897;   -0,253;   -0,045
423,706;   87,425;   -1,889;    0,318
424,296;   34,696;    1,384;    0,682
424,885;  152,150;   -0,071;   -3,045
425,475;  123,712;    1,474;   -2,864
426,065;   10,013;   -0,980;   -0,318
426,654;   -2,155;   -0,435;   -0,318
427,244;  245,201;    0,020;    1,409
427,833;  215,375;    1,383;   -0,500
428,423;   81,166;   -0,526;    1,136
429,012;   75,013;   -0,344;   -1,136
429,601;  186,785;   -1,344;    0,136
430,191;   77,607;    1,292;    4,318
430,780;   -8,590;   -0,344;   -0,409
431,369;  164,605;    0,746;   -0,045
431,959;   56,277;   -1,254;    0,500
432,548;    2,947;   -1,163;   -0,045
433,137;  -64,677;   -1,254;   -1,318
433,726;    1,950;    0,292;    0,500
434,315;   30,384;   -0,526;    2,409
434,905;  127,275;   -1,254;    1,409
435,494;  118,102;    0,746;    0,955
436,083;   -8,348;   -0,981;   -0,955
436,672;   76,029;    0,110;    0,500
437,261;   41,566;    0,292;   -1,955
437,850;  233,253;    1,383;    0,682
438,439;  288,170;    3,291;    1,955
439,027;  385,633;    3,655;    1,773
439,616;  307,867;    2,927;    1,227
440,205;  102,725;    0,200;   -2,136
440,794;   52,054;    2,109;   -0,045
441,383;    1,504;   -1,346;   -0,591
441,971;  -26,137;   -2,436;    0,591
442,560;  -11,172;    0,563;   -1,773
443,149;  -93,571;    0,379;   -1,318
443,737;  -65,970;   -0,074;   -2,318
444,326;  -39,987;    0,018;    0,318
444,915;    5,311;   -1,982;    0,864
445,503;    6,936;   -2,891;   -0,318
446,092;  246,036;    0,382;    2,136
446,680;  177,233;    0,382;    0,318
447,269;   98,303;   -0,346;   -0,318
447,857;   91,869;    0,018;   -1,773
448,445;   52,089;    0,563;    1,318
449,034;  -13,795;   -1,528;   -1,136
449,622;   -4,249;   -1,073;    3,500
450,210;  254,615;    2,017;    2,227
450,799;  176,622;    0,290;   -0,591
451,387;  143,752;    1,381;   -0,591
451,975;  120,195;    2,654;    0,864
452,563;  202,236;    3,472;    2,318
453,151;   41,812;   -0,528;   -1,227
453,739;   76,007;   -1,347;    0,136
454,328;  171,144;    2,381;   -2,136
454,916;  106,373;    2,562;   -0,136
455,504;  127,934;    1,017;    1,227
456,092;   21,678;    0,017;   -1,591
456,679;   -9,622;    1,472;    0,682
457,267;  375,399;    4,017;    1,045
457,855;   83,017;    1,017;    1,409
458,443;  -49,957;   -0,165;    1,682
459,031;   88,754;    0,108;    2,409
459,619;   49,982;   -1,801;    2,864
460,206;  -35,887;    0,835;    2,045
460,794;  -37,841;   -2,983;   -0,227
461,382;   11,312;   -0,529;   -0,864
461,970;   13,251;    1,198;    1,864
462,557;  -50,448;   -0,711;   -0,682
463,145;   55,782;   -3,165;   -1,682
463,732;  288,725;    2,016;   -1,045
464,320;   76,054;   -0,075;   -3,045
464,907;  201,105;    2,743;   -0,773
465,495;  115,397;    0,743;   -1,227
466,082;   46,263;   -1,984;   -0,045
466,670;   68,449;   -2,529;    1,227
467,257;  -26,813;   -1,711;    2,045
467,844;   66,318;   -0,075;    0,045
468,432;   38,717;    0,834;    3,500
469,019;    0,716;    0,925;   -1,773
469,606;   80,395;    0,470;    3,682
470,193;  109,221;   -1,439;    0,227
470,780;   65,160;   -2,075;    0,864
471,368;   -4,154;   -1,257;   -0,773
471,955;  103,109;    1,379;   -0,682
472,542;   65,803;    0,652;   -1,136
473,129;  -42,643;   -0,166;    0,136
473,716;  -28,044;    1,470;    0,591
474,303;    3,776;    0,652;   -0,864
474,890;    1,765;   -1,439;   -0,500
475,477;  107,021;   -1,621;    0,409
476,064;   19,324;    1,106;   -1,591
476,650;  128,206;    0,288;    0,318
477,237;   41,660;   -0,258;    0,955
477,824;   19,243;   -1,076;    0,864
478,411;  -57,216;   -1,894;   -0,318
478,997;  -54,010;    0,560;   -0,773
479,584; -100,100;    1,196;   -0,409
480,171;   52,615;   -0,440;   -0,773
480,757;  108,492;    2,651;    0,773
481,344;   15,132;    0,469;    0,409
481,931;  -67,632;    1,105;    1,045
482,517;   41,878;   -1,258;    0,318
483,104;  121,506;    1,106;    2,864
483,690;    1,236;   -1,804;    0,045
484,276;  -20,346;   -0,895;    0,227
484,863;  174,277;    2,469;    1,136
485,449;   37,764;   -0,077;    0,318
486,035;  -10,292;   -1,986;   -0,136
486,622;   69,776;   -0,895;    0,045
487,208;   -3,148;    1,378;    1,500
487,794;  -74,643;    0,741;    0,318
488,380;  -62,453;    0,105;   -1,409
488,967;  -65,594;   -1,168;   -0,409
489,553;  -40,398;   -1,895;   -1,409
490,139;   34,028;    1,559;    0,773
490,725;  -43,421;    0,741;   -0,227
491,311;    3,543;    3,287;    3,045
491,897;  -16,090;   -0,986;    1,500
492,483;   -5,597;    0,105;    1,227
493,069;  408,883;    3,923;    0,864
493,655;  130,752;    1,650;    0,682
494,241;   12,625;    1,377;   -0,955
494,826;   14,146;    0,287;   -1,045
495,412;   77,722;    2,559;   -0,682
495,998;   -7,769;   -0,805;   -0,318
496,584;   49,248;    0,377;    1,045
497,169;   68,320;    1,014;   -0,682
497,755;   18,781;    0,650;    1,227
498,341;  130,046;    0,559;    0,318
498,926;  236,668;    1,832;    1,955
499,512;    0,419;    1,286;    2,955
500,097;    0,019;    0,195;   -0,318
500,683;   23,643;   -0,350;    2,136
501,268;  -29,506;   -0,169;   -0,955
501,854;   -2,888;   -0,169;    1,227
502,439;  -10,495;   -0,624;   -1,773
503,024;   16,817;    0,195;    0,500
503,610;   43,754;   -0,078;   -0,682
504,195;  -12,749;    0,558;    1,955
504,780;   77,589;    2,922;    1,227
505,366;  158,946;    3,013;    2,864
505,951;   89,319;    0,740;    1,045
506,536;   12,616;   -3,260;   -3,682
507,121;   63,089;    0,285;   -0,318
507,706;   23,728;    2,376;    1,045
508,291;  -25,407;    2,649;    1,136
508,876;  -30,409;   -0,988;    2,591
509,461;   19,841;   -0,169;   -0,773
510,046;   65,050;    0,194;    0,318
510,631;   80,486;   -0,351;   -0,773
511,216;    8,198;    2,467;   -0,500
511,801;   69,225;   -0,442;    2,591
512,386;   94,009;    0,740;    0,500
512,971;  118,857;   -2,988;    0,955
513,555;  175,352;   -0,897;   -1,500
514,140;  147,026;   -0,442;   -3,136
514,725;  303,575;   -0,715;   -1,136
515,309;  239,750;   -0,533;    0,318
515,894;  163,082;   -0,624;   -2,227
516,479;  269,729;   -0,624;   -0,955
517,063;  337,356;    0,376;    1,227
517,648;  344,906;    1,012;   -1,136
518,232;  410,170;   -0,261;   -1,409
518,817;  622,141;   -0,079;    1,682
519,401;  938,650;    2,194;    0,591
519,985;  934,823;    1,103;    1,136
520,570;  942,691;    0,830;   -1,955
521,154; 1300,857;    2,102;    0,591
521,738; 1777,341;   -2,352;    2,409
522,323; 1976,396;   -0,170;    1,682
522,907; 2117,398;    0,466;   -0,136
523,491; 2328,401;    0,557;    0,955
524,075; 2637,736;    2,284;    0,591
524,659; 3101,931;    1,466;    0,591
525,243; 3291,602;    1,739;    0,409
525,827; 3747,070;    0,648;   -0,045
526,411; 4555,476;   -1,989;   -0,136
526,995; 5198,002;   -0,352;    1,409
527,579; 5368,859;   -0,443;   -1,045
528,163; 5994,997;    0,375;   -1,500
528,747; 6451,901;    2,466;   -0,773
529,331; 7053,472;   -0,080;   -1,409
529,915; 7560,121;    1,738;    0,955
530,499; 7954,909;   -0,807;    1,227
531,082; 8127,311;   -0,534;    1,591
531,666; 8137,055;    1,374;    0,773
532,250; 8942,236;    1,284;    2,682
532,833; 9536,474;    0,920;    2,773
533,417; 9774,325;   -1,807;    0,864
534,001;10014,194;    1,647;   -0,318
534,584;10897,610;    0,374;    0,500
535,168;10997,608;    0,465;    1,409
535,751;11315,905;    0,647;    0,045
536,334;11057,006;   -0,898;   -0,409
536,918;11815,215;    0,011;    1,591
537,501;12053,139;   -0,899;    1,318
538,085;12231,783;   -0,444;    1,045
538,668;12534,754;    0,829;    2,409
539,251;12986,271;    1,829;    3,773
539,834;13181,358;    0,101;    0,773
540,418;13286,054;   -1,990;    4,318
541,001;13498,470;   -0,990;    1,773
541,584;13620,943;    2,101;    2,227
542,167;13427,907;    1,374;    2,955
542,750;13684,766;    1,919;   -0,773
543,333;13332,770;    0,555;    2,136
543,916;14155,868;    0,192;    2,500
544,499;14766,212;   -1,354;    0,227
545,082;14855,821;    1,374;    3,591
545,665;15064,115;    1,919;    1,500
546,248;15437,224;    1,010;   -0,318
546,830;15221,643;   -0,445;    1,955
547,413;15657,364;    1,010;   -0,773
547,996;16260,347;    0,555;    0,500
548,579;16064,334;    0,919;    0,955
549,161;15912,125;    1,828;    2,682
549,744;15745,839;   -0,809;    0,409
550,326;16287,841;   -0,809;   -1,136
550,909;16095,280;    2,737;    0,591
551,492;16528,017;   -0,263;    0,227
552,074;16370,137;   -0,173;   -1,318
552,657;16913,108;    2,373;    0,045
553,239;16727,477;   -0,173;   -0,773
553,821;16664,365;   -1,082;    1,045
554,404;16185,440;    1,282;    1,136
554,986;16546,998;    0,464;    1,045
555,568;17174,003;    1,191;   -0,955
556,151;16399,702;    1,191;   -0,227
556,733;16670,174;   -0,264;   -0,864
557,315;17161,844;    0,100;    0,500
557,897;16954,082;    0,554;   -0,500
558,479;17065,388;   -1,991;    1,318
559,061;17200,601;   -0,719;   -0,864
559,643;17561,919;   -0,264;    0,045
560,225;17912,612;    1,645;    2,864
560,807;17980,374;    0,918;    0,318
561,389;17504,441;    0,554;    2,318
561,971;18234,026;    0,463;    2,136
562,553;18051,360;   -1,628;    1,591
563,135;18150,115;   -0,537;    1,136
563,717;17765,538;    3,372;    1,136
564,298;18481,125;    3,645;   -0,045
564,880;18217,412;    0,645;   -1,409
565,462;18387,321;    0,645;    1,318
566,043;19468,044;   -0,446;    2,318
566,625;19050,134;    1,918;    1,227
567,207;18918,698;    1,099;    1,682
567,788;20016,249;   -1,264;    1,500
568,370;20812,154;    1,917;   -0,500
568,951;20651,499;    0,190;    0,227
569,533;21471,078;   -0,628;   -0,500
570,114;21901,084;   -0,446;    0,682
570,695;22400,398;   -0,174;   -1,318
571,277;22854,502;   -0,265;   -1,682
571,858;23571,158;    2,008;   -1,136
572,439;24466,296;    1,554;   -1,045
573,021;24613,746;    2,099;   -2,773
573,602;25089,823;   -1,265;    0,318
574,183;26030,442;   -2,083;    2,227
574,764;26133,409;   -1,629;    0,409
575,345;26634,875;    0,917;   -0,136
575,926;27226,485;   -0,356;    0,136
576,507;27176,095;    1,099;   -0,227
577,088;28335,700;    3,099;    1,682
577,669;28322,781;    0,735;    1,955
578,250;29007,988;    0,644;   -1,045
578,831;29603,811;   -1,356;   -2,227
579,412;29922,661;   -0,810;    0,955
579,993;30838,816;    1,008;    0,227
580,573;31211,665;   -0,629;   -0,955
581,154;30206,449;    0,735;   -0,591
581,735;30989,294;    0,644;    0,773
582,315;30508,567;   -0,629;    2,136
582,896;30815,409;   -0,174;    1,227
583,477;30316,616;    0,189;    1,227
584,057;30526,512;    0,553;    0,955
584,638;30840,361;    2,553;    2,318
585,218;30795,419;   -0,538;    2,682
585,799;30987,896;    0,281;   -0,227
586,379;30998,428;    0,372;    1,591
586,959;29838,140;    0,735;    0,318
587,540;29199,716;   -0,629;    2,227
588,120;28733,595;    1,007;   -0,045
588,700;27757,601;    2,553;    2,136
589,281;28008,786;    0,462;   -0,955
589,861;27986,914;    0,099;   -1,682
590,441;27797,515;    2,371;   -2,682
591,021;26831,360;   -0,265;   -2,591
591,601;27121,724;   -0,537;    0,500
592,181;27096,477;   -0,719;   -0,773
592,761;26456,063;    0,007;    1,409
593,341;26402,563;   -0,901;    0,045
593,921;26331,579;   -0,265;    1,591
594,501;26250,080;   -0,538;    1,318
595,081;26130,698;    0,917;   -0,318
595,661;26441,952;   -1,447;    0,955
596,240;26931,936;   -0,537;    0,136
596,820;26573,038;    0,372;    1,955
597,400;26761,161;    2,008;    0,773
597,980;26957,049;    2,008;    1,045
598,559;27018,794;    2,735;   -0,227
599,139;26714,801;   -0,174;   -1,227
599,718;26676,074;   -0,174;   -0,409
600,298;26881,643;    0,735;    0,682
600,877;27100,780;    2,917;    1,409
601,457;27484,427;    2,281;    1,136
602,036;27347,541;    0,190;    2,045
602,616;27541,321;    0,644;    1,682
603,195;27834,698;   -0,355;    3,500
603,774;27351,856;   -0,901;    2,045
604,354;27267,464;    0,826;   -0,500
604,933;26778,266;    0,463;    1,864
605,512;26889,891;    3,554;    0,591
606,091;26957,115;   -0,537;    3,773
606,671;27787,943;    0,281;    0,773
607,250;26905,490;    1,644;    3,136
607,829;27084,375;    2,372;    3,227
608,408;27007,082;    1,190;    2,591
608,987;26070,868;    1,281;    3,409
609,566;26308,044;   -1,265;   -2,500
610,145;26427,568;   -1,082;    0,682
610,723;26877,967;    4,372;    6,864
611,302;26136,404;   -0,446;    1,682
611,881;25640,685;    5,008;   11,227
612,460;26499,203;    1,645;    3,955
613,039;26892,303;   -0,082;    2,045
613,617;25661,683;    1,736;    4,773
614,196;25842,233;    1,099;    1,227
614,775;26153,452;    1,009;    2,409
615,353;26142,501;    0,736;    0,864
615,932;25899,292;    0,100;    2,409
616,510;26437,724;    0,554;    0,591
617,089;25955,810;    7,100;   17,591
617,667;25741,838;    2,372;    6,136
618,246;25604,856;   -1,537;    1,318
618,824;25771,557;   -3,355;   -0,955
619,402;25420,013;   -2,900;   -1,773
619,981;25904,817;   -0,173;   -1,045
620,559;25779,686;    0,009;    1,682
621,137;25295,298;   -0,718;    1,864
621,715;25274,696;   -1,173;   -0,682
622,293;25223,084;   -0,537;   -0,773
622,871;25711,572;   -0,718;    0,500
623,450;25247,820;    0,373;   -0,864
624,028;25173,261;    0,191;   -0,955
624,606;24755,553;   -1,718;    1,682
625,183;25222,326;   -1,536;   -1,136
625,761;24835,961;    1,009;    1,136
626,339;25144,164;    1,373;    2,591
626,917;25524,939;   -0,172;   -0,045
627,495;25548,791;   -0,354;    1,318
628,073;25012,078;   -0,263;    2,864
628,650;24690,255;    0,100;    2,136
629,228;25072,574;    0,373;    4,409
629,806;24575,620;    2,282;    1,136
630,383;24828,845;    1,464;   -0,318
630,961;24625,469;    2,555;   -0,955
631,539;24358,630;    2,464;    0,227
632,116;23654,106;   11,373;   15,409
632,694;24235,665;    2,555;    6,500
633,271;24572,753;    0,828;    2,682
633,848;24491,858;    1,828;    2,045
634,426;24554,439;   -1,081;    1,773
635,003;23711,552;    1,101;   -0,409
635,580;23991,730;    1,192;    3,682
636,158;24566,910;    3,737;    1,227
636,735;24541,238;    0,555;   -0,500
637,312;24613,924;   -0,809;   -0,682
637,889;24748,130;   -4,354;   -0,682
638,466;24222,541;   -3,990;   -0,409
639,043;24270,178;    2,101;   -1,136
639,620;24614,783;   -2,262;   -0,955
640,197;24847,767;    1,100;    1,682
640,774;25019,633;   -0,172;    1,136
641,351;25380,045;    0,737;    1,136
641,928;24837,002;   -0,627;    1,409
642,505;24445,049;    0,828;   -0,500
643,082;24608,006;   -1,718;    1,227
643,658;23693,600;   -0,718;    1,500
644,235;24390,011;    1,191;    2,500
644,812;24670,514;    1,918;    0,773
645,388;24409,834;   -0,991;    1,409
645,965;24495,518;   -0,809;    1,682
646,542;24603,294;   -1,445;   -0,227
647,118;24544,341;    1,009;   -0,955
647,695;24867,389;   -0,263;    1,136
648,271;24766,710;   -0,536;    0,500
648,848;25097,394;    0,736;    2,227
649,424;24925,169;    0,827;    1,318
650,000;24675,035;   -0,354;   -1,045
650,577;24519,629;   -0,627;   -0,955
651,153;24973,495;   -1,809;    0,955
651,729;25905,542;    1,191;    0,864
652,305;26064,681;    0,645;    2,773
652,881;30111,093;   -0,082;    1,136
653,458;36682,959;    1,100;    0,227
654,034;40481,734;    0,282;    1,591
654,610;42081,055;    0,554;    0,773
655,186;43385,921;    0,645;    3,045
655,762;43077,150;   -0,991;    0,409
656,338;43060,925;    0,100;    0,136
656,913;44032,337;   -0,082;    0,409
657,489;43340,476;    0,827;   -0,318
658,065;43328,160;   -0,173;   -1,591
658,641;43944,935;   -0,900;   -0,864
659,217;43334,892;   -0,991;    0,409
659,792;42726,849;    0,645;   -0,409
660,368;42999,260;   -2,173;   -0,682
660,944;42720,672;   -2,082;    1,227
661,519;38565,629;   -0,628;    0,409
662,095;32887,404;   -1,719;    0,591
662,670;28233,906;    1,281;   -0,136
663,246;26963,318;    1,009;   -0,409
663,821;26266,548;    0,281;    1,682
664,396;25721,595;    0,009;    1,864
664,972;25970,280;    0,009;   -0,500
665,547;26296,146;    1,372;    0,136
666,122;26326,921;   -1,082;    0,318
666,698;26581,060;   -0,173;    0,318
667,273;25981,289;   -0,173;    0,136
667,848;26752,973;    2,372;    1,500
668,423;26545,839;    2,190;    2,318
668,998;27150,615;    2,827;   -0,682
669,573;27635,026;   -3,264;   -1,500
670,148;27444,983;   -1,446;   -0,682
670,723;27238,758;   -1,810;    0,318
671,298;27679,261;    2,372;    1,045
671,873;27789,763;   -0,082;   -0,136
672,448;27748,447;    0,645;    0,136
673,023;28100,950;   -1,992;   -0,227
673,597;28438,361;    0,827;    2,318
674,172;28223,227;   -0,355;    0,318
674,747;27687,911;    0,372;   -1,045
675,321;27557,505;   -0,628;    3,318
675,896;27096,189;    0,645;    1,045
676,471;28103,510;    2,645;    1,591
677,045;27821,285;   -1,264;    0,682
677,620;27910,605;    0,190;    1,136
678,194;28289,926;   -2,628;    1,136
678,769;27826,155;   -1,083;   -0,318
679,343;27986,567;   -0,628;    1,773
679,917;27882,433;   -1,446;    1,955
680,492;28038,390;    0,826;    3,227
681,066;28144,983;    3,372;    0,409
681,640;28163,486;    1,463;   -0,318
682,214;28956,715;    0,735;    0,500
682,788;28450,945;   -1,356;   -0,773
683,363;28395,720;   -1,810;    1,682
683,937;28107,859;   -1,719;   -0,318
684,511;28871,543;    0,463;   -0,591
685,085;28581,500;   -1,356;    0,318
685,659;28349,093;   -2,538;    0,864
686,232;28613,414;   -0,356;   -0,318
686,806;28361,098;   -0,901;    0,409
687,380;29003,964;   -0,174;    0,591
687,954;29216,103;   -1,174;    1,136
688,528;28896,060;   -0,719;    1,955
689,101;29669,108;   -3,992;    1,045
689,675;29247,156;   -0,356;   -0,136
690,249;28623,204;   -0,719;    0,409
690,822;28974,979;    0,280;    0,318
691,396;29026,027;   -0,265;    1,227
691,969;28448,711;    1,280;    0,136
692,543;28955,850;   -0,447;   -1,955
693,116;28623,534;   -0,265;   -1,409
693,690;28544,945;    0,099;    0,500
694,263;29074,084;   -1,083;    2,955
694,836;29062,041;    1,371;    3,591
695,410;27727,816;   -0,265;    1,773
695,983;28190,046;    0,189;    0,591
696,556;28219,457;   -0,447;   -1,045
697,129;28566,869;   -0,356;    1,409
697,703;28203,644;   -1,629;    1,955
698,276;28165,601;    1,462;   -0,773
698,849;28041,740;    1,280;    1,409
699,422;28369,697;   -1,083;    0,591
699,995;28065,472;    0,007;    0,136
700,568;28569,883;   -0,629;    3,045
701,140;28574,931;   -2,811;    1,682
701,713;28263,797;   -0,174;    2,409
702,286;28065,027;   -0,538;    0,864
702,859;28007,802;   -0,902;   -0,591
703,432;27160,123;    0,825;    0,682
704,004;27674,716;    0,462;    0,318
704,577;27499,855;   -0,629;    0,136
705,150;28066,812;    0,189;    2,500
705,722;27842,223;   -0,356;   -3,227
706,295;27654,725;   -0,175;   -0,591
706,867;27513,319;   -0,175;    1,955
707,440;27721,912;   -1,720;   -0,409
708,012;27988,869;    0,462;    0,591
708,584;27899,008;    2,462;    0,227
709,157;28176,783;    1,825;   -0,591
709,729;27827,922;    2,280;    2,045
710,301;28739,879;    0,734;    0,045
710,874;28659,836;   -1,447;   -0,227
711,446;27581,974;    0,371;    0,864
712,018;27466,659;    0,098;    0,500
712,590;27225,797;   -1,993;    1,682
713,162;27782,391;    0,825;    1,318
713,734;27998,711;    1,825;   -2,045
714,306;27913,577;   -1,902;   -0,409
714,878;26633,625;    0,825;    0,864
715,450;27393,491;    0,643;    0,864
716,022;27646,812;    1,552;    1,318
716,593;27817,496;    0,189;    0,591
717,165;27760,271;   -3,175;   -1,227
717,737;27441,501;    0,280;    0,409
718,309;27154,003;    0,280;   -0,045
718,880;27072,869;   -0,539;   -1,409
719,452;27301,099;   -0,175;   -1,591
720,024;26875,056;    0,734;   -0,591
720,595;27469,013;   -2,902;    0,955
721,167;27027,515;    0,370;   -2,045
721,738;26520,109;   -0,812;   -1,045
722,309;26485,429;   -0,993;   -1,227
722,881;26277,932;   -1,357;    0,773
723,452;26925,616;   -2,630;    2,864
724,023;27106,209;   -0,721;    2,682
724,595;26863,802;    0,007;    0,682
725,166;26621,396;    0,007;   -0,409
725,737;26244,716;    1,734;    0,227
726,308;26329,401;   -0,266;    0,318
726,879;26786,176;   -1,630;    1,227
727,450;26609,042;    0,552;   -0,045
728,021;26637,999;    3,097;    0,682
728,592;26431,319;    0,734;    0,500
729,163;26724,185;    0,643;   -0,136
729,734;26751,415;    0,188;   -0,227
730,305;27087,190;    1,734;    0,136
730,876;27463,329;    0,188;    2,955
731,447;27150,740;    2,188;    2,682
732,017;27225,334;    1,097;    1,864
732,588;26743,745;    0,734;    1,227
733,159;26896,702;    0,643;   -1,045
733,729;26757,386;    0,006;    0,409
734,300;26020,252;    0,915;    0,864
734,870;26410,391;    3,461;    0,591
735,441;27032,712;    0,370;   -0,591
736,011;26823,941;    0,643;   -1,591
736,582;26757,444;   -0,812;    0,045
737,152;26192,946;   -1,721;   -2,045
737,722;26623,449;   -0,267;   -0,682
738,293;26380,496;   -1,358;    1,318
738,863;26269,544;    2,461;    2,318
739,433;26019,865;    5,279;    0,318
740,003;26663,731;   -0,994;   -0,682
740,573;26066,142;    2,097;   -1,591
741,143;26106,009;   -1,085;    0,318
741,713;26840,147;    1,188;   -0,500
742,283;26517,741;    0,915;    1,591
742,853;26339,879;    1,915;    1,591
743,423;25768,927;    1,733;    0,045
743,993;25904,339;   -0,358;    1,500
744,563;25290,023;    0,097;   -0,864
745,133;25260,344;   -0,812;   -0,864
745,702;25920,846;   -0,267;    1,773
746,272;25143,439;   -0,176;    0,591
746,842;24929,033;   -1,358;   -0,591
747,411;25363,808;   -0,267;   -0,318
747,981;25561,401;    0,097;    0,500
748,551;25601,176;    2,278;   -1,045
749,120;25426,588;    0,642;   -0,227
749,690;25814,817;   -0,631;    2,409
750,259;26160,683;    1,369;    2,955
750,828;26090,731;    1,551;   -1,955
751,398;26325,415;    1,278;   -0,045
751,967;25817,645;    2,187;    0,409
752,536;26034,875;   -0,813;   -0,227
753,105;26424,832;    0,096;    0,227
753,675;26277,789;    0,096;    1,773
754,244;26213,837;   -0,904;    3,591
754,813;26258,975;    0,551;    1,227
755,382;25863,114;    0,460;    0,955
755,951;26389,162;    1,551;    3,682
756,520;25885,755;   -0,085;    1,864
757,089;26457,621;    0,278;    0,500
757,658;26621,033;    1,733;    1,227
758,227;26602,808;    1,096;    0,318
758,795;26954,856;    1,187;    1,136
759,364;27131,085;   -0,086;   -0,591
759,933;26163,133;   -1,176;   -0,045
760,501;25683,727;    0,733;   -1,318
761,070;26136,411;   -2,813;   -1,409
761,639;26836,641;   -1,904;    1,318
762,207;26142,143;    1,551;   -0,955
762,776;26101,009;    0,369;    0,864
763,344;26083,511;   -0,995;    0,591
763,913;25233,377;   -0,722;    1,409
764,481;25921,153;    1,005;   -0,136
765,049;25725,746;   -1,358;    1,409
765,618;25609,794;   -0,086;    0,318
766,186;25715,387;    0,278;    0,136
766,754;25939,526;    0,005;    1,864
767,322;24941,483;   -1,995;    0,409
767,890;24972,349;   -0,722;   -1,773
768,459;25359,578;   -2,177;   -0,318
769,027;25461,081;    1,641;    3,409
769,595;24491,492;    3,278;    2,591
770,163;24944,086;    3,823;    2,955
770,730;24696,224;    0,732;   -0,136
771,298;24523,091;    0,187;   -1,409
771,866;24702,866;   -1,541;    4,955
772,434;24983,004;   -0,631;   -1,864
773,002;25146,961;    0,005;    0,682
773,569;24825,918;    0,914;    1,682
774,137;24593,966;   -0,268;   -0,045
774,705;25428,014;    0,278;   -0,136
775,272;24932,244;    0,641;    0,682
775,840;24665,201;   -0,177;    2,682
776,407;24196,703;    0,277;    1,955
776,975;23801,387;   -0,632;    0,318
777,542;24849,981;   -1,086;   -0,045
778,110;24675,210;   -1,268;   -0,045
778,677;24374,167;   -2,359;   -0,864
779,244;24099,670;    2,186;    1,045
779,812;24207,808;    1,823;    0,864
780,379;24043,220;    0,005;    1,136
780,946;24328,540;    1,005;   -0,773
781,513;24643,316;   -1,450;    0,318
782,080;24025,909;   -0,086;    2,864
782,647;24728,048;   -0,268;    3,045
783,214;24272,641;   -0,177;    3,864
783,781;23952,598;   -0,723;   -0,682
784,348;23828,373;   -0,632;    1,500
784,915;24315,330;   -3,177;    0,318
785,482;24047,287;    1,368;    2,591
786,049;24511,244;    0,186;   -0,591
786,615;24649,019;    0,277;   -0,955
787,182;24411,703;    0,186;   -0,682
787,749;24034,024;   -2,814;    1,409
788,315;23330,072;   -1,632;   -0,409
788,882;23635,574;    1,550;   -1,227
789,448;24355,531;    1,732;   -0,955
790,015;24390,852;    1,095;    3,227
790,581;23921,172;    1,459;    0,227
791,148;23834,493;    0,641;    1,045
791,714;24088,632;   -0,541;    3,136
792,280;23791,407;    0,186;    1,591
792,847;23362,091;    0,550;    2,500
793,413;23920,957;   -0,269;   -0,318
793,979;23426,823;    3,459;   -1,318
794,545;23516,689;    4,459;    2,682
795,111;22877,192;    2,186;    1,318
795,678;23075,603;    0,731;   -1,682
796,244;22738,742;    3,368;    0,136
796,810;23290,699;    1,731;    0,773
797,375;22987,019;    0,549;   -2,136
797,941;23053,976;   -0,541;    0,591
798,507;23189,115;   -0,451;   -0,955
799,073;22729,981;   -0,360;    0,591
799,639;22782,574;   -2,632;    3,136
800,205;22833,350;    0,095;    2,682
800,770;22423,397;    0,640;    1,773
801,336;22491,445;    1,368;   -0,955
801,901;22179,584;    4,549;    3,136
802,467;22729,450;   -0,542;    2,045
803,033;22088,225;   -0,087;    0,864
803,598;22285,091;    1,913;   -1,045
804,163;22297,230;    1,095;   -0,318
804,729;22273,551;   -0,178;    1,136
805,294;22696,417;    0,822;    2,227
805,859;22495,555;    0,731;   -0,409
806,425;21955,058;    1,186;    2,682
806,990;21604,287;    2,186;    4,318
807,555;22115,881;   -1,451;    2,591
808,120;21984,020;    0,822;   -0,409
808,685;22020,067;    0,185;   -2,500
809,250;21564,024;    0,004;   -0,500
809,815;21860,981;    1,913;    0,682
810,380;22384,211;   -0,269;    1,591
810,945;22903,441;   -1,087;    2,045
811,510;22093,579;    2,094;    1,591
812,075;21799,445;   -0,633;   -1,409
812,640;21822,948;    2,003;    1,409
813,204;21895,814;    0,822;   -0,227
813,769;22382,771;    2,094;   -0,045
814,334;21810,001;    0,458;    0,864
814,898;21922,776;    0,367;    0,591
815,463;21758,460;    1,276;   -0,773
816,027;21731,326;   -0,724;   -2,318
816,592;21795,101;    0,640;   -2,045
817,156;21334,058;    2,094;    1,136
817,721;21146,288;    4,276;    2,318
818,285;21103,063;    2,912;    1,500
818,849;21758,383;   -1,451;    1,682
819,414;21710,249;   -0,269;    2,955
819,978;21288,934;   -1,269;    1,773
820,542;21857,982;    2,003;    0,500
821,106;21584,666;   -0,815;    0,682
821,670;21629,259;   -0,815;    2,591
822,234;21408,489;   -0,270;    1,409
822,798;20793,173;    0,003;    0,500
823,362;20728,948;   -0,633;    4,227
823,926;20015,905;    0,094;    1,136
824,490;20253,317;   -0,997;   -0,682
825,054;20721,273;   -0,088;   -1,136
825,618;20322,140;   -1,542;   -1,500
826,181;20244,551;    0,458;   -1,318
826,745;20193,508;    1,367;   -1,045
827,309;20504,829;    1,185;    1,318
827,872;19945,422;    1,367;    0,955
828,436;20948,652;    1,185;   -0,773
828,999;20995,699;   -0,997;    1,227
829,563;19786,020;   -0,179;    1,136
830,126;19615,613;   -0,179;   -0,591
830,690;19620,207;   -1,997;    2,864
831,253;19146,982;   -0,543;    2,227
831,816;19304,030;   -1,906;    0,500
832,380;19188,168;    0,185;    0,864
832,943;19421,762;   -1,361;   -0,500
833,506;18897,537;    2,639;   -1,227
834,069;19722,948;    3,912;   -0,955
834,632;19774,633;    1,730;    1,318
835,195;19674,044;    1,003;    0,955
835,758;18899,001;   -0,997;    1,955
836,321;18728,594;    0,730;   -1,045
836,884;18807,188;   -0,725;   -0,955
837,447;18881,508;   -2,816;    1,773
838,010;19082,374;    0,366;    3,227
838,573;19387,604;   -1,179;    0,773
839,135;19375,743;   -1,361;   -0,955
839,698;18858,881;    1,275;    0,409
840,261;18403,020;    1,003;   -0,227
840,823;18230,886;   -0,543;    0,864
841,386;18545,025;   -0,452;   -2,409
841,948;18396,527;   -1,361;    1,773
842,511;18128,666;    0,912;    1,682
843,073;18330,714;    1,912;    0,227
843,636;18085,126;   -0,361;   -0,227
844,198;17997,628;    0,911;    0,591
844,760;18088,949;    1,093;    1,955
845,322;17785,269;    0,548;    1,136
845,885;18163,499;    0,730;    0,591
846,447;18618,001;   -1,998;    0,227
847,009;18212,867;    1,911;   -0,682
847,571;18575,188;    0,820;   -2,045
848,133;18698,418;   -1,089;   -1,864
848,695;18532,011;   -0,543;    1,409
849,257;18051,241;   -1,089;   -1,682
849,819;18216,197;   -0,998;   -0,409
850,381;18273,154;   -0,725;   -0,864
850,942;18606,657;    1,093;   -0,591
851,504;18584,523;    1,184;    0,227
852,066;18572,389;    1,275;   -1,591
852,628;18154,710;   -0,180;    1,955
853,189;17739,030;    1,638;    2,682
853,751;17808,532;   -0,907;    1,409
854,312;17579,217;   -0,453;   -1,682
854,874;18101,719;   -2,089;   -0,773
855,435;18670,676;   -0,907;   -1,682
855,997;18823,542;   -1,816;   -0,136
856,558;18080,772;    0,366;    1,773
857,119;18198,001;    0,820;    2,864
857,681;17911,140;    0,002;    0,318
858,242;17889,006;    1,911;   -2,136
858,803;18324,145;    0,456;   -0,773
859,364;18932,647;    0,184;   -4,773
859,925;18278,786;   -2,453;   -0,955
860,486;18156,107;   -0,453;   -0,955
861,047;17909,246;   -0,544;   -1,227
861,608;17708,475;   -1,089;   -0,773
862,169;17820,705;    0,638;   -0,045
862,730;17606,571;    0,456;    1,409
863,291;17821,619;   -0,635;   -0,500
863,852;18187,485;   -0,635;    1,955
864,412;17691,805;   -0,271;   -0,864
864,973;16238,672;   -0,089;    0,500
865,534;16107,356;   -1,726;    0,227
866,094;17670,949;    1,820;    0,227
866,655;17323,270;    1,274;    3,318
867,215;17590,681;    0,274;    0,136
867,776;17424,002;    0,547;   -0,136
868,336;17529,777;   -1,453;    0,136
868,897;16981,643;    2,638;    1,682
869,457;16724,600;    1,365;    0,318
870,017;16943,375;    0,547;   -1,227
870,578;17461,877;   -0,817;    0,773
871,138;17180,016;   -2,089;   -0,955
871,698;16715,246;   -0,817;   -1,318
872,258;16577,294;   -0,453;   -2,864
872,818;16960,432;    2,729;    0,045
873,378;16951,389;    0,638;    1,045
873,938;16495,437;    0,547;    0,500
874,498;16829,394;    0,274;   -1,955
875,058;16718,715;    2,183;    1,773
875,618;16557,399;    1,910;   -2,682
876,177;16522,538;    1,274;    0,136
876,737;16136,767;   -0,090;    1,955
877,297;16116,270;    0,183;    1,955
877,856;16108,136;   -0,362;    0,318
878,416;16082,547;    1,183;   -0,136
878,976;16296,777;   -1,817;    0,409
879,535;16498,734;    0,092;    3,136
880,095;16208,782;   -0,544;    0,045
880,654;16321,012;   -1,090;    1,318
881,213;16379,605;    2,456;    1,500
881,773;16053,835;    2,637;    2,682
882,332;16433,519;    3,365;    5,136
882,891;16295,476;    3,092;    2,136
883,451;16684,887;   -1,272;    1,682
884,010;16173,117;   -2,908;   -0,409
884,569;16257,983;   -0,999;   -0,045
885,128;16337,485;    2,819;   -1,864
885,687;16410,260;    4,455;    0,682
886,246;16128,490;    1,455;    2,136
886,805;15917,174;    2,455;    2,045
887,364;16231,040;   -0,999;   -0,500
887,922;16596,088;   -1,181;    0,045
888,481;16099,500;   -1,545;    0,591
889,040;16375,366;    1,183;    2,136
889,599;17065,414;    2,455;    1,409
890,157;17152,280;    1,455;    2,409
890,716;16805,418;   -0,090;    0,227
891,274;16592,830;    0,092;   -1,136
891,833;16994,605;    1,546;    0,864
892,391;16921,289;   -0,454;    0,500
892,950;16998,974;    1,819;   -0,773
893,508;17358,749;    0,455;   -0,409
894,067;16705,160;    0,637;    0,136
894,625;16668,299;   -0,636;   -1,500
895,183;16892,529;   -0,363;   -0,682
895,741;16720,395;    1,728;   -1,773
896,299;16563,170;   -0,545;   -2,409
896,858;16781,399;    0,819;   -1,591
897,416;16855,902;    2,728;   -1,318
897,974;16633,768;    1,819;    0,318
898,532;16753,452;    6,091;    2,682
899,089;16665,045;    2,091;   -0,682
899,647;16715,639;   -1,454;    1,318
900,205;16468,232;    1,182;    1,045
900,763;16654,734;   -0,454;    0,227
901,321;16675,964;    2,364;   -1,409
901,878;16142,739;   -1,000;   -0,773
902,436;16000,151;   -1,363;    1,318
902,994;16380,290;    4,728;    3,682
903,551;15805,701;    0,728;    0,409
904,109;16217,749;    0,182;   -1,409
904,666;15832,342;    2,455;    1,045
905,224;15650,390;    0,182;   -0,409
905,781;15366,074;    0,727;   -0,318
906,338;15471,759;   -1,363;    1,045
906,895;15428,715;    0,637;    2,045
907,453;15344,400;    1,727;    1,136
908,010;15399,720;   -0,909;    0,409
908,567;15001,314;    1,273;    0,591
909,124;14540,998;    0,364;   -1,500
909,681;14590,864;   -2,909;    0,682
910,238;14789,912;    0,636;   -1,318
910,795;15078,414;   -0,273;   -1,136
911,352;14725,051;   -2,909;   -2,682
911,909;14144,687;   -1,364;   -0,864
912,466;14603,051;   -3,182;    1,500
913,022;14168,778;   -1,636;    0,500
913,579;14547,869;   -0,909;    2,045
914,136;14238,869;    1,636;    0,955
914,692;14581,232;    0,091;   -1,227
915,249;14190,505;    1,455;    0,409
915,806;14380,051;    0,182;    1,955
916,362;14147,323;    1,909;    1,864
916,918;13699,869;    2,000;    1,045
917,475;13711,505;   -1,182;    0,955
918,031;13772,323;    3,364;   -0,045
918,587;13215,687;   -0,909;   -0,318
919,144;13411,505;   -2,273;    0,227
919,700;13745,051;    1,727;    0,773
920,256;13343,141;    0,727;    0,045
920,812;12968,596;   -0,727;   -1,045
921,368;13003,869;   -1,727;   -1,045
921,924;12609,051;    0,182;   -0,136
922,480;12178,596;   -0,545;    1,227
923,036;12799,414;    1,273;    1,955
923,592;12748,051;    0,455;    0,318
924,148;12666,778;    0,455;   -0,955
924,704;11977,596;   -1,364;   -0,409
925,259;12217,960;   -0,273;    0,591
925,815;12012,778;    1,455;    0,500
926,371;11533,414;    2,909;    1,409
926,926;11438,778;    2,091;    0,591
927,482;11109,960;   -1,364;    0,773
928,037;10982,869;    0,909;    2,045
928,593;11235,323;    1,636;    1,045
929,148;11057,869;   -1,818;   -1,500
929,704;10568,051;   -1,455;   -0,500
930,259;10805,051;    0,091;   -0,136
930,814; 9882,141;   -0,818;    1,955
931,369; 9555,414;    1,091;   -0,773
931,925; 9447,505;   -0,091;    0,136
932,480; 9347,960;   -2,818;   -2,591
933,035; 9225,778;    0,545;   -0,318
933,590; 9013,869;    0,364;   -1,773
934,145; 8664,960;   -1,364;   -0,318
934,700; 9033,869;    0,455;   -0,591
935,255; 8830,505;   -0,091;    0,045
935,809; 8087,869;    3,182;    0,864
936,364; 7246,505;   -0,455;   -0,136
936,919; 7225,051;    0,455;   -1,773
937,474; 7134,960;    1,455;    0,136
938,028; 6892,960;   -1,636;    1,136
938,583; 6360,869;    1,818;    4,682
939,138; 6674,687;    2,091;    2,136
939,692; 6139,232;    1,636;   -1,136
940,247; 5844,505;   -0,727;   -1,045
940,801; 5406,596;   -0,636;    0,227
941,355; 5284,687;   -0,364;    2,591
941,910; 4955,414;   -0,273;   -2,136
942,464; 5070,869;   -0,818;   -0,318
943,018; 4843,051;    1,000;   -0,227
943,572; 4799,869;    2,545;   -0,682
944,126; 4230,687;    0,091;   -0,409
944,681; 4120,596;    3,091;    0,227
945,235; 4095,869;    1,000;   -0,591
945,789; 4051,323;    0,364;   -1,864
946,342; 4155,323;    0,455;   -0,591
946,896; 3943,232;   -2,273;    0,955
947,450; 3733,232;    1,545;   -0,227
948,004; 3905,141;    1,727;   -0,045
948,558; 3902,869;    0,273;   -0,864
949,111; 3834,323;   -0,273;   -0,318
949,665; 3879,687;    1,636;   -0,682
950,219; 3750,960;   -0,091;   -1,045
950,772; 3811,778;   -1,909;    1,864
951,326; 3722,323;    0,545;   -0,955
951,879; 3809,687;    0,727;   -2,318
952,433; 3836,141;    0,000;    2,227
952,986; 3679,051;    2,909;    0,682
953,539; 3631,596;   -0,273;    0,591
954,093; 3565,232;    0,545;   -1,318
954,646; 3695,596;    0,909;    1,318
955,199; 3511,323;    0,000;   -0,500
955,752; 3403,323;   -0,455;    1,773
956,305; 3354,505;   -0,091;    2,955
956,858; 3515,051;    0,818;   -0,318
957,411; 3699,141;   -0,545;    2,136
957,964; 3533,232;    1,364;    2,136
958,517; 3517,596;   -1,545;    3,136
959,070; 3365,687;   -0,455;    1,955
959,623; 3454,869;    1,091;    1,500
960,176; 3212,232;    1,727;    2,045
960,728; 3182,687;   -2,727;    0,773
961,281; 3246,232;    0,545;    0,500
961,834; 3285,505;   -0,909;    0,864
962,386; 3209,687;    1,727;    1,045
962,939; 3120,051;    0,364;   -0,318
963,491; 3262,778;    0,455;    1,136
964,043; 3149,778;    1,182;    2,409
964,596; 3273,960;   -1,000;    2,227
965,148; 3117,778;   -1,000;    1,773
965,700; 3041,505;    1,091;   -0,227
966,253; 3175,869;   -0,636;    0,318
966,805; 3024,687;   -2,273;    0,773
967,357; 3060,505;    1,091;   -1,500
967,909; 3011,869;    0,455;   -1,227
968,461; 3123,869;    0,545;    3,136
969,013; 3082,505;   -0,182;   -0,864
969,565; 3151,141;   -0,455;   -1,136
970,117; 3215,505;   -0,364;    1,045
970,669; 3050,869;    0,182;   -0,136
971,220; 2927,141;   -0,455;   -1,500
971,772; 2827,414;   -0,636;   -0,318
972,324; 2958,414;    0,091;   -0,500
972,876; 2904,414;    0,818;   -0,045
973,427; 3063,596;    1,909;   -1,045
973,979; 3013,596;   -0,727;   -2,500
974,530; 3046,960;    1,818;    1,318
975,082; 3064,232;   -0,545;    1,682
975,633; 2963,869;    1,091;    1,682
976,184; 3104,687;    0,909;    0,773
976,736; 2882,960;    0,091;    0,227
977,287; 2706,778;   -0,909;   -0,500
977,838; 2874,141;    0,909;   -0,318
978,389; 2927,141;   -1,000;   -0,500
978,940; 2811,414;    0,545;   -0,409
979,491; 2828,869;    0,091;   -0,500
980,042; 2793,414;    0,182;    3,045
980,593; 2852,778;   -2,545;    0,227
981,144; 2897,051;    2,545;   -0,500
981,695; 2872,323;    1,455;    1,500
982,246; 2829,960;   -0,273;    1,045
982,797; 2962,687;   -1,727;    0,682
983,347; 3085,414;    0,364;    0,591
983,898; 3253,960;    3,091;    0,409
984,449; 3080,778;    2,182;    0,773
984,999; 2989,232;    1,455;   -1,136
985,550; 2783,051;    0,182;   -0,318
986,100; 2806,414;   -0,455;   -0,318
986,651; 2860,051;   -0,818;    0,045
987,201; 2832,596;   -1,000;   -0,591
987,751; 2898,232;    0,818;    2,864
988,302; 2874,778;    2,636;    1,500
988,852; 2914,960;    0,455;   -1,136
989,402; 2963,505;    0,091;    0,682
989,952; 2877,323;   -2,182;    0,864
990,502; 2973,687;   -0,091;    0,682
991,052; 2922,687;   -0,727;    0,045
991,602; 2795,505;   -2,909;    1,318
992,152; 2806,687;    0,455;    0,682
992,702; 2802,505;    1,364;   -0,045
993,252; 2728,232;   -3,000;   -0,500
993,802; 2806,960;   -0,273;    1,318
994,352; 3034,323;   -1,545;    1,136
994,901; 3115,141;   -0,182;    3,227
995,451; 3032,141;   -0,182;    0,318
996,000; 3126,232;    1,636;    0,318
996,550; 2831,051;    2,273;    0,227
997,100; 2835,505;    1,273;   -0,045
997,649; 3116,141;    2,182;    0,955
998,198; 2746,687;    1,727;   -1,500
998,748; 2945,596;    1,091;   -2,318
999,297; 2877,778;   -0,818;   -0,409
999,846; 2934,687;    1,000;   -0,773
1000,395; 2953,960;   -0,818;    0,500
1000,945; 2920,323;    1,818;   -0,773
1001,494; 3006,323;    2,364;    0,682
1002,043; 2994,141;    4,636;    0,864
1002,592; 2863,687;   -1,091;    1,955
1003,141; 3010,414;   -0,455;   -0,682
1003,690; 2844,051;    1,727;    0,500
1004,238; 2936,687;    1,455;   -0,045
1004,787; 2598,596;    1,364;    1,227
1005,336; 2822,687;    0,364;    0,682
1005,885; 2956,051;    1,364;   -2,773
1006,433; 3081,414;    0,545;    0,955
1006,982; 3139,596;    0,455;    1,682
1007,531; 3033,687;   -1,818;   -0,227
1008,079; 2987,869;   -2,273;    0,500
1008,627; 3153,232;   -1,455;    0,409
1009,176; 2898,232;    0,000;   -1,955
1009,724; 2942,778;    1,091;    0,864
1010,273; 2988,869;    1,273;    0,500
1010,821; 3106,232;    0,091;    1,409
1011,369; 2824,596;   -1,364;    1,318
1011,917; 2811,778;   -1,364;   -0,591
1012,465; 3097,505;    1,273;   -1,591
1013,013; 3206,232;    2,091;   -1,682
1013,561; 3072,505;    0,455;   -0,773
1014,109; 3126,505;   -1,909;    1,682
1014,657; 3023,960;    0,364;    0,591
1015,205; 3152,778;    1,636;   -0,955
1015,753; 3170,869;   -0,545;   -1,409
1016,301; 3198,414;   -2,636;    3,045
1016,848; 3206,869;   -1,273;    0,409
1017,396; 3261,141;    2,545;    0,045
1017,944; 3362,141;    1,182;    1,864
1018,491; 3129,051;    0,273;    1,409
1019,039; 3297,323;    0,455;    0,591
1019,586; 3229,141;   -1,364;    1,682
1020,134; 3307,414;    0,455;    1,500
1020,681; 3331,232;    0,182;   -1,136
1021,228; 3335,960;    2,909;   -2,227
1021,776; 3173,596;    1,182;   -1,136
1022,323; 3383,414;    0,455;    0,773
1022,870; 3308,960;   -1,000;   -0,045
1023,417; 3215,869;    2,636;    1,864
1023,964; 3365,778;    2,636;    1,227
1024,511; 3206,051;    1,000;    0,773
1025,058; 3012,869;    3,182;   -0,045
1025,605; 3066,960;   -2,273;    3,136
1026,152; 3267,596;    1,727;   -0,591
1026,699; 2999,778;    1,818;    1,318
1027,245; 3174,869;   -0,091;    0,318
1027,792; 3378,596;   -1,000;    1,409
1028,339; 3261,687;    2,364;   -0,045
1028,885; 3114,414;    1,000;   -0,227
1029,432; 3058,232;   -0,091;    0,227
1029,978; 3129,414;   -1,000;   -1,591
1030,525; 3043,051;    1,000;    0,409
1031,071; 3269,869;   -1,364;    1,136
1031,618; 3363,051;    0,364;    1,682
1032,164; 3161,596;   -0,091;    3,045
1032,710; 3200,232;    1,636;   -1,500
1033,256; 3108,869;   -0,636;   -0,136
1033,803; 3124,960;   -0,545;    1,500
1034,349; 2837,323;   -1,364;    0,136
1034,895; 3016,687;    0,000;   -0,318
1035,441; 2990,232;   -0,818;    0,318
1035,987; 3002,323;   -2,364;   -0,682
1036,533; 2982,596;   -1,455;   -0,955
1037,078; 3178,414;    1,455;    1,682
1037,624; 3003,414;    2,455;   -0,955
1038,170; 3026,323;    0,455;   -0,318
1038,716; 2925,869;    1,636;   -0,409
1039,261; 2852,778;   -2,273;   -0,773
1039,807; 2796,778;   -0,091;    3,409
1040,352; 2862,869;   -1,909;   -0,318
1040,898; 2909,687;   -1,545;   -0,682
1041,443; 2809,323;   -1,455;   -2,591
1041,989; 2819,960;    1,091;    1,591
1042,534; 2702,323;   -0,364;    2,591
1043,079; 2824,323;    2,909;    0,955
1043,625; 2622,051;    1,818;    0,500
1044,170; 2668,778;   -1,364;    1,045
1044,715; 2909,414;    2,455;    0,955
1045,260; 2722,778;    2,182;   -0,955
1045,805; 2776,505;    1,182;   -0,591
1046,350; 2728,869;    1,364;   -0,409
1046,895; 2677,960;    2,909;    1,591
1047,440; 2621,141;    5,364;    0,409
1047,985; 2520,596;    2,818;   -0,955
1048,530; 2450,869;    1,545;    1,227
1049,074; 2521,232;    0,000;    0,318
1049,619; 2495,414;   -1,364;    1,955
1050,164; 2289,232;    0,455;    0,227
1050,708; 2351,960;   -0,455;    0,045
1051,253; 2705,414;    1,273;   -2,227
1051,797; 2417,323;    0,818;   -1,318
1052,342; 2437,323;   -1,182;    1,045
1052,886; 2435,232;    0,364;   -1,409
1053,430; 2303,869;   -1,364;    0,136
1053,975; 2314,960;   -0,818;   -0,318
1054,519; 2310,687;   -0,727;    3,227
1055,063; 2320,869;    0,909;    1,318
1055,607; 2204,232;   -0,182;    0,227
1056,151; 2235,869;    2,909;    1,682
1056,695; 2143,960;    2,273;   -1,136
1057,239; 2210,778;   -1,727;   -0,682
1057,783; 2216,687;    0,818;   -1,500
1058,327; 2153,778;    0,000;    1,409
1058,871; 2396,505;   -0,545;    1,318
1059,415; 2104,687;   -0,818;   -0,045
1059,958; 2354,141;    1,455;    2,591
1060,502; 2080,778;   -1,000;   -0,773
1061,046; 2002,960;    0,364;   -0,955
1061,589; 1972,687;   -3,000;   -1,136
1062,133; 1868,323;   -1,273;    1,864
1062,676; 1789,141;    1,182;    0,864
1063,220; 1788,960;    1,091;    0,500
1063,763; 1803,414;    0,909;    1,136
1064,306; 1913,687;   -0,909;    1,864
1064,849; 1801,778;   -0,909;    0,591
1065,393; 1799,960;    2,000;   -1,500
1065,936; 1898,960;    0,182;   -0,409
1066,479; 1802,960;   -1,455;    1,318
1067,022; 1819,778;   -0,273;   -0,227
1067,565; 1716,869;   -0,091;   -1,318
1068,108; 1748,323;    0,727;   -0,591
1068,651; 1721,869;   -0,636;    1,409
1069,194; 1654,869;   -0,455;   -1,682
1069,736; 1646,051;   -1,273;    0,955
1070,279; 1621,869;   -1,364;   -0,500
1070,822; 1672,141;   -2,000;   -0,318
1071,364; 1754,869;   -0,364;    1,318
1071,907; 1578,323;   -0,727;    3,227
1072,450; 1475,960;    0,000;   -0,045
1072,992; 1478,596;   -0,273;    3,136
1073,535; 1615,232;    2,091;    2,136
1074,077; 1424,414;   -0,727;    2,045
1074,619; 1392,505;   -1,364;    0,591
1075,161; 1422,051;   -1,091;    1,500
1075,704; 1592,505;    1,545;    1,227
1076,246; 1388,687;   -0,182;    0,682
1076,788; 1325,869;   -0,364;    1,773
1077,330; 1392,778;    1,273;    2,136
1077,872; 1357,141;    0,909;    0,955
1078,414; 1576,323;    2,727;    0,773
1078,956; 1316,960;    1,273;   -0,227
1079,498; 1574,141;    1,636;    0,318
1080,040; 1285,414;    1,909;   -1,318
1080,581; 1232,323;    1,636;   -0,318
1081,123; 1153,141;    0,091;   -0,773
1081,665; 1201,687;   -1,182;   -0,955
1082,206; 1482,960;    1,364;   -0,500
1082,748; 1335,687;    0,727;    2,045
1083,289; 1234,960;   -2,000;    1,318
1083,831; 1148,141;   -0,545;    0,227
1084,372; 1176,323;    0,000;    0,591
1084,913; 1189,505;    1,091;    0,864
1085,455; 1147,505;   -1,909;   -2,045
1085,996; 1126,414;   -2,273;    0,136
1086,537; 1130,323;   -0,091;    0,864
1087,078; 1169,232;   -0,909;   -2,136
1087,619; 1214,778;   -1,273;    0,227
1088,160; 1142,414;    0,000;    1,318
1088,701; 1120,596;   -1,091;    0,682
1089,242; 1052,778;    1,364;   -2,227
1089,783; 1158,687;   -0,273;    1,409
1090,324; 1112,778;    0,455;    0,682
1090,865; 1003,051;    2,727;   -0,409
1091,405;  977,232;    0,727;    2,227
1091,946;  998,051;    0,182;   -0,955
1092,487;  924,505;    0,818;   -1,409
1093,027; 1076,960;   -1,364;   -1,500
1093,568;  938,869;   -0,364;    1,227
1094,108; 1030,323;    0,273;    1,773
1094,649;  972,505;   -1,182;    0,136
1095,189;  915,141;   -0,636;   -0,682
1095,729;  862,051;   -0,091;    0,955
1096,269;  866,596;    0,727;   -0,955
1096,810; 1178,051;   -1,364;    0,500
1097,350;  999,505;    1,364;   -0,773
1097,890;  912,687;    0,364;    1,227
1098,430; 1143,414;    2,364;    2,864
1098,970; 1033,232;    2,182;    1,682
1099,510;  899,414;    0,545;   -2,318
1100,050;  818,869;    1,000;   -1,591
1100,589;  790,596;   -0,727;   -0,318
1101,129;  909,505;    0,818;   -0,955
1101,669; 1048,505;    1,727;    2,136
1102,209;  883,596;   -0,091;    2,227
1102,748;  851,687;    0,000;    0,955
1103,288;  839,869;    1,273;   -1,227
1103,827;  858,596;    3,091;   -2,227
1104,367;  736,596;   -0,091;   -2,409
1104,906;  707,323;    1,364;   -1,136
1105,445;  771,141;    0,636;   -1,136
1105,985;  714,596;   -0,727;    1,500
1106,524;  763,505;   -1,727;   -0,682
1107,063;  744,414;   -2,727;    1,409
1107,602;  719,323;   -1,909;   -1,500
1108,141;  638,778;   -1,909;    1,500
1108,680;  741,869;   -3,455;   -0,591
1109,219;  675,778;   -0,909;   -0,500
1109,758;  671,778;    0,455;    0,682
1110,297;  646,232;    1,000;   -0,682
1110,836;  602,778;   -0,727;    0,955
1111,375;  759,869;   -2,545;    0,409
1111,913;  767,869;   -1,000;    0,773
1112,452;  703,232;   -0,273;    0,136
1112,991;  595,323;    1,091;    1,955
1113,529;  537,232;   -0,818;   -0,045
1114,068;  609,778;   -0,273;    2,955
1114,606;  526,141;   -0,364;   -0,955
1115,144;  678,141;   -1,273;    1,045
1115,683;  617,323;   -0,727;    0,318
1116,221;  661,232;   -0,455;   -0,864
1116,759;  579,778;    0,636;   -0,864
1117,297;  768,960;    0,000;    1,864
1117,836;  579,960;   -2,182;   -1,227
1118,374;  580,505;    0,182;   -0,682
1118,912;  524,505;    0,909;    2,682
1119,450;  508,596;    1,000;    0,864
1119,988;  561,960;    1,545;    2,136
1120,525; 1014,051;    5,091;    3,318
1121,063;  720,051;    1,182;    1,864
1121,601;  524,687;   -0,909;   -1,227
1122,139;  483,505;   -0,727;   -2,045
1122,676;  677,323;   -0,727;    2,773
1123,214;  611,232;   -1,182;    4,409
1123,751;  434,505;    1,727;    2,227
1124,289;  556,778;   -0,091;   -0,409
1124,826;  426,232;    1,727;    0,227
1125,364;  350,869;    1,727;   -0,955
1125,901;  533,596;    1,182;    1,227
1126,438;  647,414;    0,818;    0,955
1126,975;  367,960;   -0,727;   -0,773
1127,513;  441,687;    0,273;    2,136
1128,050;  352,141;    1,636;   -0,682
1128,587;  448,960;    2,000;   -0,227
1129,124;  484,141;    0,091;    1,318
1129,661;  353,141;    0,273;    0,227
1130,198;  525,960;    1,636;    0,773
1130,734;  469,869;    0,182;    1,409
1131,271;  332,687;   -0,909;    0,864
1131,808;  499,141;    2,909;    3,045
1132,345;  367,596;    1,545;    0,318
1132,881;  245,596;   -1,545;   -1,864
1133,418;  390,960;    0,727;   -1,136
1133,954;  335,414;    2,455;   -2,682
1134,491;  400,687;    1,364;   -0,773
1135,027;  300,596;    2,364;    0,864
1135,564;  381,687;    0,273;    2,955
1136,100;  368,687;    0,364;    2,136
1136,636;  264,778;   -1,273;   -1,045
1137,172;  356,869;    0,000;   -1,045
1137,708;  272,596;   -1,364;   -1,045
1138,245;  269,778;    1,273;   -1,227
1138,781;  234,051;    1,091;   -3,318
1139,317;  300,505;    1,273;   -1,409
1139,852;  290,869;    3,091;    0,136
1140,388;  410,778;   -1,182;   -0,409
1140,924;  297,051;   -1,091;   -2,227
1141,460;  223,596;   -1,636;    0,136
1141,996;  161,687;   -1,364;    2,682
1142,531;  204,960;    1,364;    3,318
1143,067;  416,869;    1,182;    1,045
1143,602;  475,323;   -0,091;   -0,318
1144,138;  313,596;   -2,636;    1,045
1144,673;  197,596;   -1,455;    1,409
1145,209;  260,232;   -1,909;   -0,318
1145,744;  180,414;   -0,727;    0,864
1146,279;  310,960;    1,818;   -0,136
1146,815;  232,596;    1,545;   -2,682
1147,350;  265,596;   -1,364;    0,045
1147,885;  183,778;   -0,818;   -1,318
1148,420;  182,232;   -2,273;    0,773
1148,955;  171,051;   -1,727;    1,864
1149,490;  187,505;   -0,909;   -1,591
1150,025;  175,596;    0,455;   -1,773
1150,560;  290,232;    1,091;   -0,955
1151,094;  255,232;    1,455;   -0,591
1151,629;  261,596;    1,636;    0,864
1152,164;  189,051;    1,364;    1,318
1152,698;  146,414;   -0,182;   -0,136
1153,233;  106,141;    0,091;   -0,682
1153,767;  152,960;   -3,000;   -2,318
1154,302;  202,141;   -1,455;    1,773
1154,836;  197,778;   -0,455;   -2,136
1155,371;  247,141;   -1,364;    3,682
1155,905;  198,505;   -0,636;    1,682
1156,439;  168,232;   -0,636;   -0,500
1156,973;  202,505;    0,364;    0,318
1157,507;  125,323;   -0,364;    0,682
1158,042;  163,051;   -0,727;    1,045
1158,576;  209,869;    0,182;    1,773
1159,110;  210,596;   -0,818;    2,409
1159,643;  176,687;    0,636;   -0,045
1160,177;  115,687;   -1,545;    1,500

