
Integration time [ms]:   0,040
Averaging Nr. [scans]: 11
Smoothing Nr. [pixels]: 0
Data measured with spectrometer [name]: 7318044SP
Wave   ;Sample   ;Dark     ;Reference
[nm]   ;[counts] ;[counts] ;[counts] 

186,757;   25,080;   31,551;    1,318
187,357;   56,273;   22,551;    0,955
187,958;   23,609;   15,460;   -1,591
188,558;   77,624;    8,915;   -1,227
189,159;   42,820;    6,733;   -4,500
189,759;   12,880;    7,278;   -3,591
190,360;   10,909;    2,824;   -2,136
190,960;   48,876;    2,915;   -4,136
191,560;   61,379;    3,189;   -6,591
192,161;  289,442;    4,372;   -3,500
192,761;  137,210;    4,010;   -3,227
193,361;   93,772;    1,556;   -3,773
193,962;  146,610;    2,010;   -2,682
194,562;   68,647;    1,189;   -3,955
195,162;  104,195;   -2,448;   -2,227
195,762;  258,815;   -3,176;   -0,045
196,362;  202,005;    1,370;   -2,500
196,963;   75,048;    2,006;   -0,864
197,563;  149,079;    1,551;   -0,955
198,163;   98,954;    0,096;   -0,682
198,763;  116,881;    1,733;   -0,500
199,363;  215,307;    3,096;   -0,500
199,963;  176,058;    0,369;    0,409
200,563;  154,189;    2,823;   -1,409
201,163;  131,959;    3,277;   -0,227
201,763;  220,864;    3,732;    0,318
202,363;  158,931;    1,459;    1,500
202,963;  263,277;    1,459;    1,045
203,563;  379,572;    0,277;    0,500
204,162;  233,302;    2,096;   -1,864
204,762;  215,243;    0,550;    0,591
205,362;  184,836;    3,004;    1,955
205,962;  276,321;    3,096;    1,955
206,562;  267,133;    1,823;    2,318
207,161;  236,766;   -0,087;    0,318
207,761;  400,072;    1,277;    2,409
208,361;  278,394;   -0,268;    1,409
208,960;  375,372;    0,459;    1,500
209,560;  447,245;    1,277;    1,591
210,160;  425,780;    0,550;    1,864
210,759;  391,530;    4,186;    1,227
211,359;  394,801;    1,459;    1,045
211,958;  657,509;    1,277;    2,045
212,558;  732,232;    1,732;    1,864
213,157;  586,969;    1,822;    1,500
213,757; 1016,169;    3,822;   -0,227
214,356;  726,279;    1,277;   -0,409
214,956; 1058,136;    3,095;    0,409
215,555;  685,173;    2,095;    2,136
216,154;  632,113;   -2,723;   -0,591
216,754;  627,111;    0,277;    0,773
217,353;  760,429;   -0,268;   -1,045
217,952;  622,340;   -0,178;    0,318
218,552;  847,977;    1,368;   -0,773
219,151;  751,925;    0,277;    0,955
219,750;  754,728;    0,004;   -0,227
220,349;  872,132;   -0,451;    1,045
220,948;  935,415;   -1,360;    1,136
221,548;  954,154;    0,913;    1,227
222,147; 1058,908;   -0,087;   -0,409
222,746; 1328,504;   -0,451;   -0,955
223,345; 1214,507;    0,731;    0,500
223,944; 1224,099;   -0,451;    0,773
224,543; 1380,817;    1,004;   -1,409
225,142; 1504,764;    0,094;    0,136
225,741; 1413,346;   -0,814;    1,045
226,340; 1419,744;   -0,451;   -0,955
226,939; 1851,816;   -0,996;   -0,136
227,538; 1795,102;   -0,360;   -0,773
228,137; 1944,143;   -0,814;    0,864
228,735; 2056,324;   -0,541;    1,227
229,334; 1825,596;   -0,905;   -0,227
229,933; 2209,022;    0,459;    0,591
230,532; 2313,377;    1,186;   -0,409
231,131; 2359,765;    1,732;    0,318
231,729; 2448,473;   -2,450;   -2,318
232,328; 2554,804;   -0,723;   -1,500
232,927; 2613,457;    1,004;   -0,500
233,525; 2732,610;    3,640;    0,045
234,124; 2934,982;    2,368;   -1,591
234,723; 2937,170;    0,913;   -1,045
235,321; 3082,515;    2,277;    0,136
235,920; 3293,201;    1,186;   -1,227
236,518; 3536,909;    3,459;    0,318
237,117; 3696,761;    0,004;   -0,227
237,715; 3857,475;    0,640;   -0,500
238,314; 3883,924;   -0,087;   -2,318
238,912; 3984,046;   -0,723;   -1,409
239,510; 4012,952;    0,459;   -1,227
240,109; 4192,755;    0,004;    3,773
240,707; 4234,182;   -0,996;    1,227
241,305; 4580,854;    0,550;    0,136
241,904; 4782,854;   -0,178;   -2,045
242,502; 4758,129;   -0,632;   -0,227
243,100; 4717,564;   -0,087;   -0,955
243,698; 4968,733;    0,732;    1,682
244,297; 5143,051;   -0,632;    0,682
244,895; 4997,968;   -0,269;   -2,318
245,493; 5321,127;    2,186;   -0,591
246,091; 5346,457;    1,368;   -1,318
246,689; 5305,820;    1,004;    0,591
247,287; 5511,152;    0,822;   -1,136
247,885; 5781,712;   -1,451;    1,227
248,483; 5880,030;    1,822;   -0,500
249,081; 5997,787;    0,185;    1,591
249,679; 6190,178;   -0,178;    1,682
250,277; 6413,980;   -1,723;    0,864
250,875; 6414,383;   -1,087;   -1,045
251,473; 6460,247;   -1,178;    0,500
252,071; 6633,394;    1,459;    1,045
252,669; 6786,735;   -1,814;    0,318
253,267; 7064,306;   -0,087;    0,773
253,864; 6997,061;   -0,360;    0,682
254,462; 6887,437;    1,640;    1,591
255,060; 6857,525;   -0,269;    1,318
255,658; 7152,281;    0,822;   -0,136
256,255; 7563,606;    0,186;   -2,045
256,853; 7441,258;   -0,269;    1,409
257,451; 7429,852;    0,822;    1,864
258,048; 7699,212;    1,822;    1,864
258,646; 7463,618;    1,731;   -1,045
259,243; 7625,894;   -0,087;    2,227
259,841; 7694,524;   -0,814;    0,318
260,438; 7575,864;   -0,087;    0,864
261,036; 8292,264;   -1,905;    1,409
261,633; 8217,101;   -0,087;    2,227
262,231; 7981,764;    2,731;   -0,045
262,828; 8075,259;   -0,905;    1,136
263,425; 8117,029;    0,913;   -0,591
264,023; 8357,979;    0,186;    0,045
264,620; 7902,708;   -0,360;   -0,318
265,217; 8234,191;   -2,087;    3,136
265,815; 8389,421;   -1,905;    2,136
266,412; 8164,010;    0,731;    0,136
267,009; 8183,670;   -1,451;    0,773
267,606; 8097,527;    0,822;   -0,955
268,203; 8083,207;   -0,269;   -0,591
268,801; 8360,038;    1,731;    0,591
269,398; 8643,381;   -0,360;    2,500
269,995; 8616,532;    0,277;    1,591
270,592; 8428,172;   -0,632;   -0,500
271,189; 8584,866;    0,186;    0,409
271,786; 8708,788;   -0,632;    1,227
272,383; 8576,629;   -1,087;    0,227
272,980; 8754,823;    0,277;    0,318
273,577; 9215,617;    0,004;    1,227
274,174; 8766,924;    0,822;    2,591
274,771; 8728,008;   -0,814;   -0,773
275,367; 8889,344;    2,277;    1,409
275,964; 8822,323;    0,731;   -0,500
276,561; 8933,010;    1,549;   -1,045
277,158; 9150,905;    0,095;   -1,773
277,755; 9267,150;    2,185;    0,409
278,351; 8688,345;   -0,451;   -1,500
278,948; 8995,483;   -0,815;    0,045
279,545; 8997,322;   -1,360;    2,318
280,141; 9620,395;   -1,723;   -2,045
280,738; 9492,370;   -0,451;   -0,136
281,334; 9712,290;   -1,633;    0,591
281,931; 9143,466;   -0,087;   -1,318
282,528; 9241,311;    0,822;   -0,500
283,124; 9952,255;   -1,087;   -0,500
283,721; 9838,190;   -0,451;    1,409
284,317; 9674,801;    0,185;    2,500
284,913;10188,343;   -1,360;    0,591
285,510;10387,343;    0,640;   -0,318
286,106;10418,848;   -2,269;   -0,955
286,703;10039,904;   -0,360;    1,955
287,299;10228,251;   -1,451;   -0,591
287,895;10466,920;    0,822;   -1,045
288,491;11016,563;    0,186;    2,136
289,088;10743,085;   -2,360;    2,409
289,684;10794,099;   -1,723;    1,500
290,280;10791,120;    0,368;    0,682
290,876;10888,040;    1,822;    5,500
291,472;10798,572;    1,276;    2,227
292,068;10881,941;    1,367;    0,227
292,665;10636,251;    2,095;    0,773
293,261;10255,322;    0,276;    2,136
293,857;10626,300;    2,913;    2,136
294,453;10579,112;    3,550;    0,955
295,049;10435,042;   -0,268;    1,955
295,644;10464,850;    0,095;    0,136
296,240;10413,625;   -0,905;   -0,136
296,836;10480,336;   -0,995;    0,318
297,432;10737,081;    1,096;   -0,500
298,028;10759,324;    0,732;    0,773
298,624;11183,702;    1,459;    1,864
299,220;11434,756;    2,368;    0,591
299,815;11107,826;    1,005;   -0,409
300,411;10895,769;    0,914;    1,773
301,007;10906,776;    1,368;    0,227
301,602;10932,762;   -0,541;   -2,318
302,198;11101,587;    0,732;   -0,773
302,794;11482,814;    1,187;   -0,500
303,389;11587,634;   -1,177;    1,045
303,985;11669,242;    0,550;    1,409
304,580;11614,359;    1,459;    1,591
305,176;11606,648;   -3,086;    0,136
305,771;11514,594;   -1,268;   -1,227
306,367;11355,568;    4,095;    0,136
306,962;11710,307;    0,641;    1,500
307,558;11415,246;   -0,450;    0,136
308,153;11358,285;    1,095;   -1,136
308,748;11600,522;   -0,814;    1,682
309,344;11540,417;   -0,632;   -1,318
309,939;11612,350;   -1,905;   -1,318
310,534;11876,384;   -0,086;   -1,682
311,130;11815,675;    0,459;   -2,500
311,725;11566,045;    1,004;   -0,500
312,320;11912,914;    2,459;    0,045
312,915;11745,657;    1,459;   -1,045
313,510;11777,985;    1,550;   -0,500
314,105;12298,052;    1,096;    1,409
314,700;11706,512;   -3,086;   -1,045
315,295;11334,995;   -0,904;    0,045
315,890;10932,215;    1,277;    0,864
316,485;11283,410;   -0,359;   -0,318
317,080;11402,490;   -3,086;    1,591
317,675;11938,915;    2,005;   -0,682
318,270;11346,045;    5,550;    3,318
318,865;11365,863;    3,278;    3,045
319,460;11170,277;   -0,904;    0,591
320,055;11439,734;   -0,541;   -1,227
320,650;11100,609;   -1,995;   -0,591
321,244;11178,102;   -0,177;   -1,409
321,839;12122,878;   -1,541;   -0,227
322,434;11961,369;   -1,086;   -1,591
323,029;11587,352;    1,732;    1,591
323,623;11424,522;    1,550;    0,773
324,218;11172,620;    2,368;    1,409
324,812;11091,542;    1,096;    1,591
325,407;10888,458;   -0,814;    2,045
326,002;10788,793;    0,277;   -0,409
326,596;11110,055;    0,914;    1,318
327,191;11303,426;    0,823;   -1,045
327,785;10879,237;   -0,813;   -0,227
328,379;11110,002;    1,368;    0,136
328,974;10913,032;    0,914;   -3,955
329,568;11123,028;    0,186;   -2,409
330,163;10952,111;    2,096;    1,045
330,757;11305,018;    2,459;    1,591
331,351;10667,222;    0,459;    0,682
331,945;10958,177;    0,914;    1,409
332,540;10561,223;   -1,723;   -0,591
333,134;10724,898;   -1,086;    0,773
333,728;10962,192;    0,005;    0,318
334,322;11276,394;   -1,177;   -0,864
334,916;10572,603;    0,277;    0,955
335,510;10899,797;   -0,450;   -0,136
336,105;11149,789;   -1,086;    1,591
336,699;10854,861;   -1,086;    0,591
337,293;10813,480;   -1,723;    0,318
337,887;10975,945;   -2,723;    1,955
338,481;11084,434;    0,459;    0,591
339,074;11229,875;   -0,359;    2,682
339,668;11038,477;   -1,632;    1,227
340,262;11300,747;    1,732;    3,227
340,856;10809,398;    1,822;   -0,682
341,450;10202,101;    1,004;    1,864
342,044;11111,480;    1,459;    0,136
342,637;10857,027;    0,913;   -2,136
343,231;10738,186;   -2,360;    0,682
343,825;10717,224;   -1,086;   -0,591
344,419;10671,454;   -1,995;    0,500
345,012;10457,387;    2,459;    4,045
345,606;10439,352;    4,641;    1,591
346,199;10311,737;   -1,813;   -0,227
346,793; 9890,339;    1,914;    2,045
347,386;10064,874;   -0,813;   -1,136
347,980;10038,361;   -0,268;   -0,045
348,573; 9838,318;    2,278;    0,409
349,167; 9536,911;    5,278;    4,773
349,760; 9872,852;    2,914;    2,682
350,354; 9853,939;   -0,813;    1,136
350,947; 9573,257;    1,096;    1,682
351,540; 9270,832;   -0,358;   -1,409
352,134; 9232,792;    1,096;    1,136
352,727; 9277,811;   -0,086;    1,136
353,320; 9108,826;    0,005;    0,591
353,913; 8967,770;   -1,995;    1,864
354,507; 9145,683;    0,823;   -1,227
355,100; 9177,133;    0,460;    0,864
355,693; 8423,651;    2,005;    2,409
356,286; 8460,609;    0,823;    2,773
356,879; 8808,217;   -0,722;    1,227
357,472; 8436,886;   -0,904;    1,500
358,065; 8619,207;   -0,722;    2,500
358,658; 8543,580;   -0,540;    2,318
359,251; 8189,309;   -1,631;   -0,591
359,844; 7692,932;   -1,904;   -1,136
360,437; 7874,285;   -2,995;    0,045
361,030; 8131,369;    1,369;   -0,682
361,623; 7745,562;    2,824;    0,318
362,215; 7781,872;   -0,086;    2,045
362,808; 7614,877;   -2,358;   -1,682
363,401; 7802,616;   -2,449;    0,136
363,994; 7547,033;   -0,631;   -1,500
364,586; 7489,952;    0,824;   -1,500
365,179; 7687,787;   -0,449;   -1,136
365,772; 7180,625;   -1,995;    2,045
366,364; 7449,371;    1,915;   -3,227
366,957; 7636,700;    2,279;   -0,045
367,549; 7657,722;    2,188;   -0,864
368,142; 7327,522;    1,825;   -1,500
368,734; 7539,061;    0,734;   -2,136
369,327; 7497,411;    1,643;   -0,500
369,919; 7408,174;   -1,538;    0,409
370,512; 7211,442;   -1,083;   -0,500
371,104; 6960,712;   -0,901;    1,591
371,696; 7129,668;    1,191;   -0,955
372,289; 7203,863;    0,373;    1,136
372,881; 7355,841;   -2,080;    1,318
373,473; 7298,681;   -2,170;    1,136
374,066; 7097,917;   -0,169;    0,500
374,658; 6954,931;    0,378;    1,136
375,250; 7287,317;    0,653;   -1,409
375,842; 7162,227;    0,473;   -0,045
376,434; 7023,145;   -0,435;   -0,409
377,026; 7593,767;    0,204;   -2,500
377,618; 7493,429;   -0,158;   -0,682
378,210; 7341,657;   -0,338;   -1,955
378,802; 7190,146;    0,754;   -0,591
379,394; 7141,080;    1,846;    0,682
379,986; 7731,523;    1,393;   -0,955
380,578; 7812,835;   -0,153;    0,773
381,170; 7184,301;   -0,972;    0,045
381,762; 7140,305;    0,755;    1,409
382,354; 7311,802;   -0,065;   -1,318
382,945; 7426,605;   -2,976;    0,318
383,537; 7567,847;   -2,705;   -1,955
384,129; 7561,057;   -2,160;   -1,136
384,721; 7767,704;   -0,252;    0,955
385,312; 7693,036;   -0,161;   -0,955
385,904; 7763,984;   -2,706;    1,591
386,496; 7137,322;   -0,979;    1,045
387,087; 7310,732;    1,022;    2,500
387,679; 7329,165;   -1,160;    0,045
388,270; 7475,694;    2,840;    2,045
388,862; 7573,645;    1,295;   -0,318
389,453; 7491,638;   -0,887;    1,045
390,045; 7732,789;   -0,705;   -2,682
390,636; 7682,102;    0,204;   -0,591
391,227; 7531,946;   -0,523;   -0,045
391,819; 7648,140;    0,204;    0,773
392,410; 7691,309;    1,022;    0,045
393,001; 7633,573;   -0,979;   -1,591
393,593; 7921,888;    1,930;   -0,045
394,184; 7763,393;    1,385;   -0,409
394,775; 7685,970;    1,839;    2,136
395,366; 7889,185;    1,385;    0,773
395,957; 7849,341;    0,113;    0,136
396,548; 8150,905;   -0,342;    2,682
397,139; 8452,240;   -2,433;    0,591
397,730; 8192,063;   -1,888;    0,955
398,321; 8276,353;   -1,252;    0,955
398,912; 8277,571;   -0,615;    0,136
399,503; 8362,055;   -3,524;   -1,409
400,094; 7817,915;    0,294;    1,682
400,685; 7694,926;   -0,433;    0,045
401,276; 7801,284;    0,930;   -0,955
401,867; 8086,570;   -0,888;    0,773
402,458; 8193,252;   -2,251;   -2,318
403,048; 8140,666;    1,112;    0,591
403,639; 7782,280;    0,840;    0,864
404,230; 8036,244;    2,476;    0,318
404,821; 7973,055;   -0,615;    0,045
405,411; 8088,644;    1,203;   -2,591
406,002; 7665,426;   -1,252;   -1,136
406,592; 7530,535;    2,294;    0,045
407,183; 7820,863;    0,566;   -1,500
407,774; 7761,550;    3,475;   -0,136
408,364; 8051,604;    0,930;    0,409
408,954; 7661,763;    0,384;    1,227
409,545; 7738,397;    1,021;    1,045
410,135; 7282,781;    1,293;    0,500
410,726; 7427,667;    1,838;    0,318
411,316; 7808,155;    0,111;    0,773
411,906; 7484,747;   -0,253;   -0,409
412,497; 7000,205;   -1,070;   -0,045
413,087; 7574,450;   -1,980;   -0,227
413,677; 7948,243;   -0,707;    3,864
414,267; 7796,391;    0,656;    1,409
414,857; 7790,486;   -2,980;    4,227
415,448; 8071,575;    0,839;    0,500
416,038; 7788,609;    0,020;   -0,591
416,628; 7717,422;   -0,889;    0,409
417,218; 7195,948;    0,565;    3,318
417,808; 7445,134;    0,202;   -0,409
418,398; 7905,801;    0,020;    2,682
418,988; 7922,229;    2,020;    0,591
419,578; 8138,489;   -0,707;    1,409
420,168; 8474,658;   -1,343;   -0,955
420,757; 8070,878;   -1,343;   -1,500
421,347; 7750,882;    0,111;   -0,227
421,937; 7901,365;    2,292;    1,409
422,527; 7817,829;    0,838;   -0,773
423,116; 7678,559;   -0,253;   -0,045
423,706; 7999,992;   -1,889;    0,318
424,296; 7982,263;    1,384;    0,682
424,885; 8381,627;   -0,071;   -3,045
425,475; 8640,274;    1,474;   -2,864
426,065; 8538,213;   -0,980;   -0,318
426,654; 8212,213;   -0,435;   -0,318
427,244; 8309,490;    0,020;    1,409
427,833; 7748,666;    1,383;   -0,500
428,423; 8224,356;   -0,526;    1,136
429,012; 8970,830;   -0,344;   -1,136
429,601; 8477,780;   -1,344;    0,136
430,191; 8687,610;    1,292;    4,318
430,780; 8309,872;   -0,344;   -0,409
431,369; 8260,327;    0,746;   -0,045
431,959; 8840,997;   -1,254;    0,500
432,548; 8662,848;   -1,163;   -0,045
433,137; 8763,402;   -1,254;   -1,318
433,726; 9268,123;    0,292;    0,500
434,315; 8651,281;   -0,526;    2,409
434,905; 8740,977;   -1,254;    1,409
435,494; 8645,266;    0,746;    0,955
436,083; 9095,096;   -0,981;   -0,955
436,672; 8966,378;    0,110;    0,500
437,261; 8530,454;    0,292;   -1,955
437,850; 8641,144;    1,383;    0,682
438,439; 8608,595;    3,291;    1,955
439,027; 8451,146;    3,655;    1,773
439,616; 8803,010;    2,927;    1,227
440,205; 8661,329;    0,200;   -2,136
440,794; 8712,013;    2,109;   -0,045
441,383; 8951,547;   -1,346;   -0,591
441,971; 8794,635;   -2,436;    0,591
442,560; 8652,228;    0,563;   -1,773
443,149; 8402,284;    0,379;   -1,318
443,737; 8537,042;   -0,074;   -2,318
444,326; 8765,230;    0,018;    0,318
444,915; 8829,712;   -1,982;    0,864
445,503; 9164,795;   -2,891;   -0,318
446,092; 8461,346;    0,382;    2,136
446,680; 8977,812;    0,382;    0,318
447,269; 9131,333;   -0,346;   -0,318
447,857; 8909,348;    0,018;   -1,773
448,445; 9025,747;    0,563;    1,318
449,034; 9220,319;   -1,528;   -1,136
449,622; 9321,956;   -1,073;    3,500
450,210; 8593,169;    2,017;    2,227
450,799; 9110,629;    0,290;   -0,591
451,387; 9069,302;    1,381;   -0,591
451,975; 8735,657;    2,654;    0,864
452,563; 8807,432;    3,472;    2,318
453,151; 8845,180;   -0,528;   -1,227
453,739; 8778,543;   -1,347;    0,136
454,328; 8642,140;    2,381;   -2,136
454,916; 8346,637;    2,562;   -0,136
455,504; 8503,202;    1,017;    1,227
456,092; 8687,223;    0,017;   -1,591
456,679; 8659,740;    1,472;    0,682
457,267; 8587,754;    4,017;    1,045
457,855; 8733,278;    1,017;    1,409
458,443; 8498,841;   -0,165;    1,682
459,031; 8631,739;    0,108;    2,409
459,619; 9065,426;   -1,801;    2,864
460,206; 9162,100;    0,835;    2,045
460,794; 9259,232;   -2,983;   -0,227
461,382; 9427,830;   -0,529;   -0,864
461,970; 9051,860;    1,198;    1,864
462,557; 9105,616;   -0,711;   -0,682
463,145; 9267,032;   -3,165;   -1,682
463,732; 9410,965;    2,016;   -1,045
464,320; 9347,285;   -0,075;   -3,045
464,907; 9012,521;    2,743;   -0,773
465,495; 8919,798;    0,743;   -1,227
466,082; 9051,950;   -1,984;   -0,045
466,670; 8974,589;   -2,529;    1,227
467,257; 9366,779;   -1,711;    2,045
467,844; 9477,543;   -0,075;    0,045
468,432; 9523,940;    0,834;    3,500
469,019; 9030,657;    0,925;   -1,773
469,606; 9494,797;    0,470;    3,682
470,193; 9333,611;   -1,439;    0,227
470,780; 8890,923;   -2,075;    0,864
471,368; 9268,330;   -1,257;   -0,773
471,955; 9016,505;    1,379;   -0,682
472,542; 8667,737;    0,652;   -1,136
473,129; 8894,116;   -0,166;    0,136
473,716; 8645,625;    1,470;    0,591
474,303; 8808,263;    0,652;   -0,864
474,890; 9045,874;   -1,439;   -0,500
475,477; 9096,398;   -1,621;    0,409
476,064; 8958,511;    1,106;   -1,591
476,650; 8876,582;    0,288;    0,318
477,237; 8722,673;   -0,258;    0,955
477,824; 8908,708;   -1,076;    0,864
478,411; 8920,160;   -1,894;   -0,318
478,997; 9054,904;    0,560;   -0,773
479,584; 9096,168;    1,196;   -0,409
480,171; 9728,705;   -0,440;   -0,773
480,757; 9417,755;    2,651;    0,773
481,344; 9708,312;    0,469;    0,409
481,931; 9206,068;    1,105;    1,045
482,517;10097,225;   -1,258;    0,318
483,104;10568,592;    1,106;    2,864
483,690;10806,685;   -1,804;    0,045
484,276;11116,005;   -0,895;    0,227
484,863;10866,632;    2,469;    1,136
485,449;11427,836;   -0,077;    0,318
486,035;11442,961;   -1,986;   -0,136
486,622;11848,400;   -0,895;    0,045
487,208;11770,470;    1,378;    1,500
487,794;11638,151;    0,741;    0,318
488,380;11736,794;    0,105;   -1,409
488,967;11801,731;   -1,168;   -0,409
489,553;11849,477;   -1,895;   -1,409
490,139;12047,721;    1,559;    0,773
490,725;11560,997;    0,741;   -0,227
491,311;11207,327;    3,287;    3,045
491,897;10617,511;   -0,986;    1,500
492,483;10482,729;    0,105;    1,227
493,069;10296,210;    3,923;    0,864
493,655;10252,346;    1,650;    0,682
494,241;10210,130;    1,377;   -0,955
494,826;10633,749;    0,287;   -1,045
495,412;10107,962;    2,559;   -0,682
495,998;10292,454;   -0,805;   -0,318
496,584;10444,475;    0,377;    1,045
497,169;10439,816;    1,014;   -0,682
497,755;10428,721;    0,650;    1,227
498,341;10960,542;    0,559;    0,318
498,926;10574,160;    1,832;    1,955
499,512;10824,067;    1,286;    2,955
500,097;10983,315;    0,195;   -0,318
500,683;10983,669;   -0,350;    2,136
501,268;11348,065;   -0,169;   -0,955
501,854;11123,134;   -0,169;    1,227
502,439;11116,973;   -0,624;   -1,773
503,024;11292,928;    0,195;    0,500
503,610;11408,683;   -0,078;   -0,682
504,195;11465,995;    0,558;    1,955
504,780;11615,613;    2,922;    1,227
505,366;11463,609;    3,013;    2,864
505,951;11234,779;    0,740;    1,045
506,536;11285,714;   -3,260;   -3,682
507,121;11294,554;    0,285;   -0,318
507,706;11877,284;    2,376;    1,045
508,291;12264,871;    2,649;    1,136
508,876;11768,396;   -0,988;    2,591
509,461;11266,108;   -0,169;   -0,773
510,046;11705,136;    0,194;    0,318
510,631;11981,032;   -0,351;   -0,773
511,216;11689,376;    2,467;   -0,500
511,801;12057,050;   -0,442;    2,591
512,386;12352,826;    0,740;    0,500
512,971;12315,846;   -2,988;    0,955
513,555;11898,438;   -0,897;   -1,500
514,140;12720,565;   -0,442;   -3,136
514,725;12698,103;   -0,715;   -1,136
515,309;12856,099;   -0,533;    0,318
515,894;12348,613;   -0,624;   -2,227
516,479;12804,529;   -0,624;   -0,955
517,063;12634,341;    0,376;    1,227
517,648;12796,344;    1,012;   -1,136
518,232;12418,774;   -0,261;   -1,409
518,817;12752,109;   -0,079;    1,682
519,401;13001,165;    2,194;    0,591
519,985;12517,522;    1,103;    1,136
520,570;12440,021;    0,830;   -1,955
521,154;12715,819;    2,102;    0,591
521,738;12903,476;   -2,352;    2,409
522,323;13468,905;   -0,170;    1,682
522,907;13198,988;    0,466;   -0,136
523,491;12941,081;    0,557;    0,955
524,075;12934,871;    2,284;    0,591
524,659;13022,434;    1,466;    0,591
525,243;12484,286;    1,739;    0,409
525,827;12747,113;    0,648;   -0,045
526,411;13592,707;   -1,989;   -0,136
526,995;13774,774;   -0,352;    1,409
527,579;13366,802;   -0,443;   -1,045
528,163;13653,480;    0,375;   -1,500
528,747;13617,295;    2,466;   -0,773
529,331;13914,504;   -0,080;   -1,409
529,915;14117,603;    1,738;    0,955
530,499;14075,755;   -0,807;    1,227
531,082;13776,982;   -0,534;    1,591
531,666;13252,803;    1,374;    0,773
532,250;13890,629;    1,284;    2,682
532,833;14221,132;    0,920;    2,773
533,417;14082,982;   -1,807;    0,864
534,001;14055,300;    1,647;   -0,318
534,584;14766,800;    0,374;    0,500
535,168;14595,708;    0,465;    1,409
535,751;14617,289;    0,647;    0,045
536,334;14131,841;   -0,898;   -0,409
536,918;14683,596;    0,011;    1,591
537,501;14737,607;   -0,899;    1,318
538,085;14767,703;   -0,444;    1,045
538,668;14940,674;    0,829;    2,409
539,251;15240,190;    1,829;    3,773
539,834;15284,914;    0,101;    0,773
540,418;15229,056;   -1,990;    4,318
541,001;15290,656;   -0,990;    1,773
541,584;15274,115;    2,101;    2,227
542,167;14995,363;    1,374;    2,955
542,750;15180,491;    1,919;   -0,773
543,333;14763,030;    0,555;    2,136
543,916;15520,044;    0,192;    2,500
544,499;16123,930;   -1,354;    0,227
545,082;16103,174;    1,374;    3,591
545,665;16213,290;    1,919;    1,500
546,248;16569,484;    1,010;   -0,318
546,830;16245,541;   -0,445;    1,955
547,413;16665,618;    1,010;   -0,773
547,996;17182,415;    0,555;    0,500
548,579;16944,125;    0,919;    0,955
549,161;16764,733;    1,828;    2,682
549,744;16531,624;   -0,809;    0,409
550,326;17077,171;   -0,809;   -1,136
550,909;16851,423;    2,737;    0,591
551,492;17250,166;   -0,263;    0,227
552,074;17011,641;   -0,173;   -1,318
552,657;17569,702;    2,373;    0,045
553,239;17354,797;   -0,173;   -0,773
553,821;17260,237;   -1,082;    1,045
554,404;16772,035;    1,282;    1,136
554,986;17127,589;    0,464;    1,045
555,568;17686,684;    1,191;   -0,955
556,151;16917,746;    1,191;   -0,227
556,733;17176,404;   -0,264;   -0,864
557,315;17653,700;    0,100;    0,500
557,897;17433,757;    0,554;   -0,500
558,479;17501,244;   -1,991;    1,318
559,061;17673,448;   -0,719;   -0,864
559,643;17981,407;   -0,264;    0,045
560,225;18356,201;    1,645;    2,864
560,807;18359,407;    0,918;    0,318
561,389;17864,744;    0,554;    2,318
561,971;18573,863;    0,463;    2,136
562,553;18376,115;   -1,628;    1,591
563,135;18503,416;   -0,537;    1,136
563,717;18182,931;    3,372;    1,136
564,298;18840,332;    3,645;   -0,045
564,880;18549,697;    0,645;   -1,409
565,462;18728,697;    0,645;    1,318
566,043;19854,976;   -0,446;    2,318
566,625;19380,339;    1,918;    1,227
567,207;19200,261;    1,099;    1,682
567,788;20282,083;   -1,264;    1,500
568,370;21152,525;    1,917;   -0,500
568,951;20925,694;    0,190;    0,227
569,533;21743,627;   -0,628;   -0,500
570,114;22205,377;   -0,446;    0,682
570,695;22690,405;   -0,174;   -1,318
571,277;23125,960;   -0,265;   -1,682
571,858;23786,801;    2,008;   -1,136
572,439;24727,125;    1,554;   -1,045
573,021;24869,194;    2,099;   -2,773
573,602;25357,548;   -1,265;    0,318
574,183;26260,345;   -2,083;    2,227
574,764;26394,949;   -1,629;    0,409
575,345;26867,139;    0,917;   -0,136
575,926;27487,393;   -0,356;    0,136
576,507;27410,820;    1,099;   -0,227
577,088;28554,153;    3,099;    1,682
577,669;28500,955;    0,735;    1,955
578,250;29220,164;    0,644;   -1,045
578,831;29862,067;   -1,356;   -2,227
579,412;30091,744;   -0,810;    0,955
579,993;31042,534;    1,008;    0,227
580,573;31390,929;   -0,629;   -0,955
581,154;30366,350;    0,735;   -0,591
581,735;31229,287;    0,644;    0,773
582,315;30716,287;   -0,629;    2,136
582,896;31003,403;   -0,174;    1,227
583,477;30525,239;    0,189;    1,227
584,057;30659,412;    0,553;    0,955
584,638;30944,716;    2,553;    2,318
585,218;30937,502;   -0,538;    2,682
585,799;31153,799;    0,281;   -0,227
586,379;31137,335;    0,372;    1,591
586,959;30026,134;    0,735;    0,318
587,540;29345,428;   -0,629;    2,227
588,120;28870,570;    1,007;   -0,045
588,700;27838,402;    2,553;    2,136
589,281;28087,868;    0,462;   -0,955
589,861;28087,993;    0,099;   -1,682
590,441;27962,324;    2,371;   -2,682
591,021;26959,624;   -0,265;   -2,591
591,601;27189,179;   -0,537;    0,500
592,181;27170,752;   -0,719;   -0,773
592,761;26498,589;    0,007;    1,409
593,341;26453,648;   -0,901;    0,045
593,921;26426,850;   -0,265;    1,591
594,501;26304,892;   -0,538;    1,318
595,081;26178,243;    0,917;   -0,318
595,661;26493,584;   -1,447;    0,955
596,240;27036,118;   -0,537;    0,136
596,820;26634,862;    0,372;    1,955
597,400;26849,885;    2,008;    0,773
597,980;27046,052;    2,008;    1,045
598,559;27032,701;    2,735;   -0,227
599,139;26825,069;   -0,174;   -1,227
599,718;26714,978;   -0,174;   -0,409
600,298;27015,186;    0,735;    0,682
600,877;27217,781;    2,917;    1,409
601,457;27437,434;    2,281;    1,136
602,036;27316,632;    0,190;    2,045
602,616;27582,142;    0,644;    1,682
603,195;27866,434;   -0,355;    3,500
603,774;27445,408;   -0,901;    2,045
604,354;27337,288;    0,826;   -0,500
604,933;26817,086;    0,463;    1,864
605,512;26981,805;    3,554;    0,591
606,091;26995,307;   -0,537;    3,773
606,671;27787,041;    0,281;    0,773
607,250;26853,315;    1,644;    3,136
607,829;27138,116;    2,372;    3,227
608,408;27036,002;    1,190;    2,591
608,987;26092,707;    1,281;    3,409
609,566;26387,221;   -1,265;   -2,500
610,145;26506,406;   -1,082;    0,682
610,723;26912,349;    4,372;    6,864
611,302;26154,973;   -0,446;    1,682
611,881;25649,161;    5,008;   11,227
612,460;26493,132;    1,645;    3,955
613,039;26910,239;   -0,082;    2,045
613,617;25670,877;    1,736;    4,773
614,196;25890,708;    1,099;    1,227
614,775;26192,298;    1,009;    2,409
615,353;26142,350;    0,736;    0,864
615,932;25938,413;    0,100;    2,409
616,510;26494,661;    0,554;    0,591
617,089;26003,294;    7,100;   17,591
617,667;25775,232;    2,372;    6,136
618,246;25678,981;   -1,537;    1,318
618,824;25797,953;   -3,355;   -0,955
619,402;25427,408;   -2,900;   -1,773
619,981;25940,672;   -0,173;   -1,045
620,559;25739,907;    0,009;    1,682
621,137;25277,699;   -0,718;    1,864
621,715;25263,642;   -1,173;   -0,682
622,293;25241,031;   -0,537;   -0,773
622,871;25694,700;   -0,718;    0,500
623,450;25246,047;    0,373;   -0,864
624,028;25139,301;    0,191;   -0,955
624,606;24783,778;   -1,718;    1,682
625,183;25196,464;   -1,536;   -1,136
625,761;24837,736;    1,009;    1,136
626,339;25113,205;    1,373;    2,591
626,917;25515,357;   -0,172;   -0,045
627,495;25513,390;   -0,354;    1,318
628,073;24969,046;   -0,263;    2,864
628,650;24652,214;    0,100;    2,136
629,228;25087,983;    0,373;    4,409
629,806;24488,034;    2,282;    1,136
630,383;24767,355;    1,464;   -0,318
630,961;24541,156;    2,555;   -0,955
631,539;24307,686;    2,464;    0,227
632,116;23664,792;   11,373;   15,409
632,694;24236,902;    2,555;    6,500
633,271;24518,181;    0,828;    2,682
633,848;24449,464;    1,828;    2,045
634,426;24515,143;   -1,081;    1,773
635,003;23623,359;    1,101;   -0,409
635,580;23950,811;    1,192;    3,682
636,158;24486,801;    3,737;    1,227
636,735;24461,939;    0,555;   -0,500
637,312;24646,619;   -0,809;   -0,682
637,889;24731,291;   -4,354;   -0,682
638,466;24218,079;   -3,990;   -0,409
639,043;24214,634;    2,101;   -1,136
639,620;24541,875;   -2,262;   -0,955
640,197;24852,556;    1,100;    1,682
640,774;25005,331;   -0,172;    1,136
641,351;25406,651;    0,737;    1,136
641,928;24781,698;   -0,627;    1,409
642,505;24439,927;    0,828;   -0,500
643,082;24564,519;   -1,718;    1,227
643,658;23608,021;   -0,718;    1,500
644,235;24370,340;    1,191;    2,500
644,812;24625,933;    1,918;    0,773
645,388;24388,071;   -0,991;    1,409
645,965;24512,118;   -0,809;    1,682
646,542;24563,256;   -1,445;   -0,227
647,118;24514,121;    1,009;   -0,955
647,695;24829,077;   -0,263;    1,136
648,271;24761,579;   -0,536;    0,500
648,848;25062,717;    0,736;    2,227
649,424;24858,764;    0,827;    1,318
650,000;24658,720;   -0,354;   -1,045
650,577;24466,676;   -0,627;   -0,955
651,153;24918,360;   -1,809;    0,955
651,729;25924,498;    1,191;    0,864
652,305;26034,817;    0,645;    2,773
652,881;29986,137;   -0,082;    1,136
653,458;36527,003;    1,100;    0,227
654,034;40288,050;    0,282;    1,591
654,610;41839,551;    0,554;    0,773
655,186;43150,416;    0,645;    3,045
655,762;42842,827;   -0,991;    0,409
656,338;42854,783;    0,100;    0,136
656,913;43881,921;   -0,082;    0,409
657,489;43177,059;    0,827;   -0,318
658,065;43142,561;   -0,173;   -1,591
658,641;43812,608;   -0,900;   -0,864
659,217;43165,019;   -0,991;    0,409
659,792;42505,793;    0,645;   -0,409
660,368;42788,385;   -2,173;   -0,682
660,944;42530,796;   -2,082;    1,227
661,519;38404,934;   -0,628;    0,409
662,095;32787,890;   -1,719;    0,591
662,670;28147,665;    1,281;   -0,136
663,246;26937,803;    1,009;   -0,409
663,821;26206,122;    0,281;    1,682
664,396;25698,806;    0,009;    1,864
664,972;25914,307;    0,009;   -0,500
665,547;26233,991;    1,372;    0,136
666,122;26236,038;   -1,082;    0,318
666,698;26523,449;   -0,173;    0,318
667,273;25889,677;   -0,173;    0,136
667,848;26677,634;    2,372;    1,500
668,423;26476,135;    2,190;    2,318
668,998;26988,000;    2,827;   -0,682
669,573;27582,138;   -3,264;   -1,500
670,148;27369,913;   -1,446;   -0,682
670,723;27202,233;   -1,810;    0,318
671,298;27614,552;    2,372;    1,045
671,873;27709,781;   -0,082;   -0,136
672,448;27679,465;    0,645;    0,136
673,023;28008,330;   -1,992;   -0,227
673,597;28301,922;    0,827;    2,318
674,172;28114,879;   -0,355;    0,318
674,747;27603,380;    0,372;   -1,045
675,321;27485,973;   -0,628;    3,318
675,896;27071,656;    0,645;    1,045
676,471;28064,067;    2,645;    1,591
677,045;27794,114;   -1,264;    0,682
677,620;27874,615;    0,190;    1,136
678,194;28174,390;   -2,628;    1,136
678,769;27711,164;   -1,083;   -0,318
679,343;27936,575;   -0,628;    1,773
679,917;27790,895;   -1,446;    1,955
680,492;27916,396;    0,826;    3,227
681,066;28023,898;    3,372;    0,409
681,640;28037,854;    1,463;   -0,318
682,214;28876,083;    0,735;    0,500
682,788;28391,312;   -1,356;   -0,773
683,363;28296,813;   -1,810;    1,682
683,937;28040,951;   -1,719;   -0,318
684,511;28833,817;    0,463;   -0,591
685,085;28530,136;   -1,356;    0,318
685,659;28337,547;   -2,538;    0,864
686,232;28542,412;   -0,356;   -0,318
686,806;28263,914;   -0,901;    0,409
687,380;28919,234;   -0,174;    0,591
687,954;29167,099;   -1,174;    1,136
688,528;28797,964;   -0,719;    1,955
689,101;29562,557;   -3,992;    1,045
689,675;29163,331;   -0,356;   -0,136
690,249;28544,287;   -0,719;    0,409
690,822;28886,516;    0,280;    0,318
691,396;28952,109;   -0,265;    1,227
691,969;28426,247;    1,280;    0,136
692,543;28878,839;   -0,447;   -1,955
693,116;28570,432;   -0,265;   -1,409
693,690;28400,024;    0,099;    0,500
694,263;28901,798;   -1,083;    2,955
694,836;28999,664;    1,371;    3,591
695,410;27594,620;   -0,265;    1,773
695,983;28068,031;    0,189;    0,591
696,556;28100,350;   -0,447;   -1,045
697,129;28492,761;   -0,356;    1,409
697,703;28134,717;   -1,629;    1,955
698,276;28132,946;    1,462;   -0,773
698,849;27978,811;    1,280;    1,409
699,422;28306,040;   -1,083;    0,591
699,995;27977,905;    0,007;    0,136
700,568;28471,498;   -0,629;    3,045
701,140;28524,636;   -2,811;    1,682
701,713;28218,410;   -0,174;    2,409
702,286;28004,003;   -0,538;    0,864
702,859;27907,504;   -0,902;   -0,591
703,432;27099,006;    0,825;    0,682
704,004;27599,326;    0,462;    0,318
704,577;27456,009;   -0,629;    0,136
705,150;27997,784;    0,189;    2,500
705,722;27820,467;   -0,356;   -3,227
706,295;27576,423;   -0,175;   -0,591
706,867;27368,925;   -0,175;    1,955
707,440;27580,608;   -1,720;   -0,409
708,012;27879,019;    0,462;    0,591
708,584;27820,066;    2,462;    0,227
709,157;28135,749;    1,825;   -0,591
709,729;27769,342;    2,280;    2,045
710,301;28604,116;    0,734;    0,045
710,874;28593,163;   -1,447;   -0,227
711,446;27501,665;    0,371;    0,864
712,018;27347,530;    0,098;    0,500
712,590;27107,850;   -1,993;    1,682
713,162;27627,170;    0,825;    1,318
713,734;27855,308;    1,825;   -2,045
714,306;27790,355;   -1,902;   -0,409
714,878;26504,129;    0,825;    0,864
715,450;27296,903;    0,643;    0,864
716,022;27561,769;    1,552;    1,318
716,593;27739,816;    0,189;    0,591
717,165;27711,045;   -3,175;   -1,227
717,737;27378,092;    0,280;    0,409
718,309;27062,684;    0,280;   -0,045
718,880;27003,913;   -0,539;   -1,409
719,452;27235,415;   -0,175;   -1,591
720,024;26781,916;    0,734;   -0,591
720,595;27425,963;   -2,902;    0,955
721,167;26923,919;    0,370;   -2,045
721,738;26437,603;   -0,812;   -1,045
722,309;26378,650;   -0,993;   -1,227
722,881;26152,242;   -1,357;    0,773
723,452;26825,108;   -2,630;    2,864
724,023;26996,337;   -0,721;    2,682
724,595;26783,020;    0,007;    0,682
725,166;26565,794;    0,007;   -0,409
725,737;26197,569;    1,734;    0,227
726,308;26248,798;   -0,266;    0,318
726,879;26683,936;   -1,630;    1,227
727,450;26479,619;    0,552;   -0,045
728,021;26495,666;    3,097;    0,682
728,592;26377,440;    0,734;    0,500
729,163;26624,760;    0,643;   -0,136
729,734;26664,262;    0,188;   -0,227
730,305;26975,763;    1,734;    0,136
730,876;27297,992;    0,188;    2,955
731,447;26993,494;    2,188;    2,682
732,017;27114,723;    1,097;    1,864
732,588;26637,952;    0,734;    1,227
733,159;26811,362;    0,643;   -1,045
733,729;26610,228;    0,006;    0,409
734,300;25916,820;    0,915;    0,864
734,870;26348,231;    3,461;    0,591
735,441;26892,914;    0,370;   -0,591
736,011;26698,870;    0,643;   -1,591
736,582;26672,554;   -0,812;    0,045
737,152;26105,783;   -1,721;   -2,045
737,722;26566,739;   -0,267;   -0,682
738,293;26281,150;   -1,358;    1,318
738,863;26157,742;    2,461;    2,318
739,433;25917,425;    5,279;    0,318
740,003;26551,291;   -0,994;   -0,682
740,573;25988,611;    2,097;   -1,591
741,143;25954,748;   -1,085;    0,318
741,713;26693,341;    1,188;   -0,500
742,283;26437,297;    0,915;    1,591
742,853;26217,890;    1,915;    1,591
743,423;25704,028;    1,733;    0,045
743,993;25805,802;   -0,358;    1,500
744,563;25194,758;    0,097;   -0,864
745,133;25124,714;   -0,812;   -0,864
745,702;25859,489;   -0,267;    1,773
746,272;25042,263;   -0,176;    0,591
746,842;24854,492;   -1,358;   -0,591
747,411;25300,993;   -0,267;   -0,318
747,981;25521,859;    0,097;    0,500
748,551;25510,088;    2,278;   -1,045
749,120;25353,135;    0,642;   -0,227
749,690;25678,909;   -0,631;    2,409
750,259;26047,683;    1,369;    2,955
750,828;25996,912;    1,551;   -1,955
751,398;26242,505;    1,278;   -0,045
751,967;25735,188;    2,187;    0,409
752,536;26025,781;   -0,813;   -0,227
753,105;26363,464;    0,096;    0,227
753,675;26146,602;    0,096;    1,773
754,244;26099,195;   -0,904;    3,591
754,813;26146,605;    0,551;    1,227
755,382;25738,470;    0,460;    0,955
755,951;26252,063;    1,551;    3,682
756,520;25806,656;   -0,085;    1,864
757,089;26363,157;    0,278;    0,500
757,658;26527,295;    1,733;    1,227
758,227;26508,706;    1,096;    0,318
758,795;26766,753;    1,187;    1,136
759,364;27016,073;   -0,086;   -0,591
759,933;26041,392;   -1,176;   -0,045
760,501;25607,985;    0,733;   -1,318
761,070;26065,577;   -2,813;   -1,409
761,639;26802,715;   -1,904;    1,318
762,207;26096,762;    1,551;   -0,955
762,776;25985,173;    0,369;    0,864
763,344;25969,493;   -0,995;    0,591
763,913;25127,086;   -0,722;    1,409
764,481;25818,951;    1,005;   -0,136
765,049;25656,543;   -1,358;    1,409
765,618;25572,409;   -0,086;    0,318
766,186;25655,274;    0,278;    0,136
766,754;25812,957;    0,005;    1,864
767,322;24838,368;   -1,995;    0,409
767,890;24866,869;   -0,722;   -1,773
768,459;25244,462;   -2,177;   -0,318
769,027;25362,691;    1,641;    3,409
769,595;24359,647;    3,278;    2,591
770,163;24812,149;    3,823;    2,955
770,730;24637,832;    0,732;   -0,136
771,298;24470,879;    0,187;   -1,409
771,866;24603,381;   -1,541;    4,955
772,434;24909,701;   -0,631;   -1,864
773,002;25082,475;    0,005;    0,682
773,569;24702,704;    0,914;    1,682
774,137;24528,478;   -0,268;   -0,045
774,705;25306,434;    0,278;   -0,136
775,272;24818,390;    0,641;    0,682
775,840;24607,347;   -0,177;    2,682
776,407;24110,121;    0,277;    1,955
776,975;23747,168;   -0,632;    0,318
777,542;24725,851;   -1,086;   -0,045
778,110;24563,262;   -1,268;   -0,045
778,677;24283,491;   -2,359;   -0,864
779,244;23983,538;    2,186;    1,045
779,812;24106,949;    1,823;    0,864
780,379;23951,905;    0,005;    1,136
780,946;24194,316;    1,005;   -0,773
781,513;24545,908;   -1,450;    0,318
782,080;23910,046;   -0,086;    2,864
782,647;24657,820;   -0,268;    3,045
783,214;24215,140;   -0,177;    3,864
783,781;23848,278;   -0,723;   -0,682
784,348;23763,780;   -0,632;    1,500
784,915;24206,100;   -3,177;    0,318
785,482;23942,692;    1,368;    2,591
786,049;24349,739;    0,186;   -0,591
786,615;24557,968;    0,277;   -0,955
787,182;24278,470;    0,186;   -0,682
787,749;23959,062;   -2,814;    1,409
788,315;23297,836;   -1,632;   -0,409
788,882;23583,702;    1,550;   -1,227
789,448;24294,294;    1,732;   -0,955
790,015;24299,432;    1,095;    3,227
790,581;23882,752;    1,459;    0,227
791,148;23771,617;    0,641;    1,045
791,714;23992,664;   -0,541;    3,136
792,280;23662,166;    0,186;    1,591
792,847;23244,213;    0,550;    2,500
793,413;23808,442;   -0,269;   -0,318
793,979;23328,398;    3,459;   -1,318
794,545;23401,081;    4,459;    2,682
795,111;22821,947;    2,186;    1,318
795,678;23023,448;    0,731;   -1,682
796,244;22636,495;    3,368;    0,136
796,810;23173,633;    1,731;    0,773
797,375;22891,317;    0,549;   -2,136
797,941;22984,364;   -0,541;    0,591
798,507;23109,774;   -0,451;   -0,955
799,073;22666,731;   -0,360;    0,591
799,639;22729,050;   -2,632;    3,136
800,205;22770,461;    0,095;    2,682
800,770;22305,599;    0,640;    1,773
801,336;22420,101;    1,368;   -0,955
801,901;22121,602;    4,549;    3,136
802,467;22675,740;   -0,542;    2,045
803,033;22027,333;   -0,087;    0,864
803,598;22246,562;    1,913;   -1,045
804,163;22235,245;    1,095;   -0,318
804,729;22220,474;   -0,178;    1,136
805,294;22614,521;    0,822;    2,227
805,859;22358,023;    0,731;   -0,409
806,425;21847,433;    1,186;    2,682
806,990;21585,299;    2,186;    4,318
807,555;22062,800;   -1,451;    2,591
808,120;21919,029;    0,822;   -0,409
808,685;21969,258;    0,185;   -2,500
809,250;21491,669;    0,004;   -0,500
809,815;21844,625;    1,913;    0,682
810,380;22333,945;   -0,269;    1,591
810,945;22872,083;   -1,087;    2,045
811,510;22044,766;    2,094;    1,591
812,075;21712,359;   -0,633;   -1,409
812,640;21726,315;    2,003;    1,409
813,204;21821,725;    0,822;   -0,227
813,769;22330,045;    2,094;   -0,045
814,334;21740,547;    0,458;    0,864
814,898;21806,048;    0,367;    0,591
815,463;21682,914;    1,276;   -0,773
816,027;21628,324;   -0,724;   -2,318
816,592;21708,371;    0,640;   -2,045
817,156;21235,328;    2,094;    1,136
817,721;21098,556;    4,276;    2,318
818,285;21074,603;    2,912;    1,500
818,849;21717,923;   -1,451;    1,682
819,414;21608,061;   -0,269;    2,955
819,978;21204,290;   -1,269;    1,773
820,542;21756,519;    2,003;    0,500
821,106;21458,839;   -0,815;    0,682
821,670;21563,068;   -0,815;    2,591
822,234;21307,751;   -0,270;    1,409
822,798;20684,344;    0,003;    0,500
823,362;20650,391;   -0,633;    4,227
823,926;19950,620;    0,094;    1,136
824,490;20159,303;   -0,997;   -0,682
825,054;20645,259;   -0,088;   -1,136
825,618;20240,579;   -1,542;   -1,500
826,181;20175,899;    0,458;   -1,318
826,745;20100,582;    1,367;   -1,045
827,309;20457,084;    1,185;    1,318
827,872;19890,404;    1,367;    0,955
828,436;20838,996;    1,185;   -0,773
828,999;20875,225;   -0,997;    1,227
829,563;19758,908;   -0,179;    1,136
830,126;19556,046;   -0,179;   -0,591
830,690;19568,275;   -1,997;    2,864
831,253;19081,231;   -0,543;    2,227
831,816;19216,733;   -1,906;    0,500
832,380;19121,507;    0,185;    0,864
832,943;19400,282;   -1,361;   -0,500
833,506;18876,692;    2,639;   -1,227
834,069;19633,194;    3,912;   -0,955
834,632;19702,877;    1,730;    1,318
835,195;19596,833;    1,003;    0,955
835,758;18797,244;   -0,997;    1,955
836,321;18717,837;    0,730;   -1,045
836,884;18807,884;   -0,725;   -0,955
837,447;18836,294;   -2,816;    1,773
838,010;19060,432;    0,366;    3,227
838,573;19350,480;   -1,179;    0,773
839,135;19322,072;   -1,361;   -0,955
839,698;18793,210;    1,275;    0,409
840,261;18309,348;    1,003;   -0,227
840,823;18169,486;   -0,543;    0,864
841,386;18477,533;   -0,452;   -2,409
841,948;18308,853;   -1,361;    1,773
842,511;18069,173;    0,912;    1,682
843,073;18190,674;    1,912;    0,227
843,636;18057,539;   -0,361;   -0,227
844,198;17955,405;    0,911;    0,591
844,760;18097,088;    1,093;    1,955
845,322;17739,408;    0,548;    1,136
845,885;18154,909;    0,730;    0,591
846,447;18577,957;   -1,998;    0,227
847,009;18136,276;    1,911;   -0,682
847,571;18424,960;    0,820;   -2,045
848,133;18583,916;   -1,089;   -1,864
848,695;18376,963;   -0,543;    1,409
849,257;17959,646;   -1,089;   -1,682
849,819;18110,330;   -0,998;   -0,409
850,381;18167,922;   -0,725;   -0,864
850,942;18528,697;    1,093;   -0,591
851,504;18520,380;    1,184;    0,227
852,066;18539,882;    1,275;   -1,591
852,628;18074,838;   -0,180;    1,955
853,189;17637,067;    1,638;    2,682
853,751;17765,114;   -0,907;    1,409
854,312;17565,979;   -0,453;   -1,682
854,874;18022,299;   -2,089;   -0,773
855,435;18579,710;   -0,907;   -1,682
855,997;18784,575;   -1,816;   -0,136
856,558;18004,531;    0,366;    1,773
857,119;18131,396;    0,820;    2,864
857,681;17835,080;    0,002;    0,318
858,242;17822,490;    1,911;   -2,136
858,803;18282,992;    0,456;   -0,773
859,364;18876,494;    0,184;   -4,773
859,925;18204,995;   -2,453;   -0,955
860,486;18095,406;   -0,453;   -0,955
861,047;17853,180;   -0,544;   -1,227
861,608;17662,318;   -1,089;   -0,773
862,169;17767,365;    0,638;   -0,045
862,730;17545,867;    0,456;    1,409
863,291;17755,096;   -0,635;   -0,500
863,852;18145,597;   -0,635;    1,955
864,412;17638,099;   -0,271;   -0,864
864,973;16237,873;   -0,089;    0,500
865,534;16078,102;   -1,726;    0,227
866,094;17578,604;    1,820;    0,227
866,655;17228,196;    1,274;    3,318
867,215;17520,061;    0,274;    0,136
867,776;17396,745;    0,547;   -0,136
868,336;17485,701;   -1,453;    0,136
868,897;16924,112;    2,638;    1,682
869,457;16659,432;    1,365;    0,318
870,017;16912,842;    0,547;   -1,227
870,578;17477,889;   -0,817;    0,773
871,138;17089,664;   -2,089;   -0,955
871,698;16638,620;   -0,817;   -1,318
872,258;16542,849;   -0,453;   -2,864
872,818;16892,987;    2,729;    0,045
873,378;16861,943;    0,638;    1,045
873,938;16416,717;    0,547;    0,500
874,498;16757,582;    0,274;   -1,955
875,058;16624,175;    2,183;    1,773
875,618;16490,677;    1,910;   -2,682
876,177;16396,360;    1,274;    0,136
876,737;16023,043;   -0,090;    1,955
877,297;16079,909;    0,183;    1,955
877,856;16081,319;   -0,362;    0,318
878,416;16030,821;    1,183;   -0,136
878,976;16214,595;   -1,817;    0,409
879,535;16399,006;    0,092;    3,136
880,095;16135,598;   -0,544;    0,045
880,654;16217,191;   -1,090;    1,318
881,213;16344,602;    2,456;    1,500
881,773;16005,467;    2,637;    2,682
882,332;16313,423;    3,365;    5,136
882,891;16209,016;    3,092;    2,136
883,451;16679,154;   -1,272;    1,682
884,010;16120,382;   -2,908;   -0,409
884,569;16197,702;   -0,999;   -0,045
885,128;16341,840;    2,819;   -1,864
885,687;16404,705;    4,455;    0,682
886,246;16119,571;    1,455;    2,136
886,805;15862,345;    2,455;    2,045
887,364;16155,574;   -0,999;   -0,500
887,922;16535,348;   -1,181;    0,045
888,481;16018,577;   -1,545;    0,591
889,040;16297,533;    1,183;    2,136
889,599;17024,944;    2,455;    1,409
890,157;17104,536;    1,455;    2,409
890,716;16713,220;   -0,090;    0,227
891,274;16568,994;    0,092;   -1,136
891,833;16965,496;    1,546;    0,864
892,391;16850,452;   -0,454;    0,500
892,950;16893,590;    1,819;   -0,773
893,508;17302,092;    0,455;   -0,409
894,067;16677,502;    0,637;    0,136
894,625;16602,004;   -0,636;   -1,500
895,183;16814,324;   -0,363;   -0,682
895,741;16660,371;    1,728;   -1,773
896,299;16530,600;   -0,545;   -2,409
896,858;16715,919;    0,819;   -1,591
897,416;16798,330;    2,728;   -1,318
897,974;16532,195;    1,819;    0,318
898,532;16671,697;    6,091;    2,682
899,089;16572,471;    2,091;   -0,682
899,647;16677,427;   -1,454;    1,318
900,205;16392,020;    1,182;    1,045
900,763;16573,885;   -0,454;    0,227
901,321;16550,660;    2,364;   -1,409
901,878;16071,979;   -1,000;   -0,773
902,436;15922,845;   -1,363;    1,318
902,994;16305,892;    4,728;    3,682
903,551;15776,211;    0,728;    0,409
904,109;16172,804;    0,182;   -1,409
904,666;15751,306;    2,455;    1,045
905,224;15607,807;    0,182;   -0,409
905,781;15356,581;    0,727;   -0,318
906,338;15400,083;   -1,363;    1,045
906,895;15356,948;    0,637;    2,045
907,453;15247,814;    1,727;    1,136
908,010;15296,042;   -0,909;    0,409
908,567;14971,362;    1,273;    0,591
909,124;14483,228;    0,364;   -1,500
909,681;14535,547;   -2,909;    0,682
910,238;14697,776;    0,636;   -1,318
910,795;15040,005;   -0,273;   -1,136
911,352;14642,551;   -2,909;   -2,682
911,909;14075,278;   -1,364;   -0,864
912,466;14595,005;   -3,182;    1,500
913,022;14137,914;   -1,636;    0,500
913,579;14467,096;   -0,909;    2,045
914,136;14186,278;    1,636;    0,955
914,692;14531,460;    0,091;   -1,227
915,249;14149,460;    1,455;    0,409
915,806;14337,732;    0,182;    1,955
916,362;14094,641;    1,909;    1,864
916,918;13687,551;    2,000;    1,045
917,475;13662,005;   -1,182;    0,955
918,031;13713,460;    3,364;   -0,045
918,587;13167,187;   -0,909;   -0,318
919,144;13401,096;   -2,273;    0,227
919,700;13716,278;    1,727;    0,773
920,256;13287,187;    0,727;    0,045
920,812;12931,460;   -0,727;   -1,045
921,368;12935,278;   -1,727;   -1,045
921,924;12538,551;    0,182;   -0,136
922,480;12146,914;   -0,545;    1,227
923,036;12741,551;    1,273;    1,955
923,592;12691,005;    0,455;    0,318
924,148;12587,551;    0,455;   -0,955
924,704;11938,823;   -1,364;   -0,409
925,259;12217,096;   -0,273;    0,591
925,815;11973,005;    1,455;    0,500
926,371;11512,278;    2,909;    1,409
926,926;11402,278;    2,091;    0,591
927,482;11032,005;   -1,364;    0,773
928,037;10914,096;    0,909;    2,045
928,593;11185,732;    1,636;    1,045
929,148;11039,187;   -1,818;   -1,500
929,704;10573,551;   -1,455;   -0,500
930,259;10765,005;    0,091;   -0,136
930,814; 9848,369;   -0,818;    1,955
931,369; 9536,369;    1,091;   -0,773
931,925; 9419,551;   -0,091;    0,136
932,480; 9336,641;   -2,818;   -2,591
933,035; 9206,096;    0,545;   -0,318
933,590; 8970,005;    0,364;   -1,773
934,145; 8673,369;   -1,364;   -0,318
934,700; 9029,460;    0,455;   -0,591
935,255; 8809,732;   -0,091;    0,045
935,809; 8075,914;    3,182;    0,864
936,364; 7233,005;   -0,455;   -0,136
936,919; 7199,096;    0,455;   -1,773
937,474; 7103,460;    1,455;    0,136
938,028; 6855,914;   -1,636;    1,136
938,583; 6358,914;    1,818;    4,682
939,138; 6659,460;    2,091;    2,136
939,692; 6107,278;    1,636;   -1,136
940,247; 5803,278;   -0,727;   -1,045
940,801; 5370,369;   -0,636;    0,227
941,355; 5293,369;   -0,364;    2,591
941,910; 4947,005;   -0,273;   -2,136
942,464; 5040,096;   -0,818;   -0,318
943,018; 4842,823;    1,000;   -0,227
943,572; 4794,096;    2,545;   -0,682
944,126; 4223,369;    0,091;   -0,409
944,681; 4124,278;    3,091;    0,227
945,235; 4105,460;    1,000;   -0,591
945,789; 4046,732;    0,364;   -1,864
946,342; 4139,460;    0,455;   -0,591
946,896; 3942,096;   -2,273;    0,955
947,450; 3705,823;    1,545;   -0,227
948,004; 3882,914;    1,727;   -0,045
948,558; 3892,187;    0,273;   -0,864
949,111; 3810,369;   -0,273;   -0,318
949,665; 3842,187;    1,636;   -0,682
950,219; 3724,823;   -0,091;   -1,045
950,772; 3799,823;   -1,909;    1,864
951,326; 3701,551;    0,545;   -0,955
951,879; 3788,641;    0,727;   -2,318
952,433; 3829,369;    0,000;    2,227
952,986; 3678,732;    2,909;    0,682
953,539; 3632,914;   -0,273;    0,591
954,093; 3590,369;    0,545;   -1,318
954,646; 3700,732;    0,909;    1,318
955,199; 3504,914;    0,000;   -0,500
955,752; 3383,641;   -0,455;    1,773
956,305; 3343,641;   -0,091;    2,955
956,858; 3513,278;    0,818;   -0,318
957,411; 3690,641;   -0,545;    2,136
957,964; 3528,005;    1,364;    2,136
958,517; 3506,551;   -1,545;    3,136
959,070; 3328,096;   -0,455;    1,955
959,623; 3428,278;    1,091;    1,500
960,176; 3210,369;    1,727;    2,045
960,728; 3165,914;   -2,727;    0,773
961,281; 3228,278;    0,545;    0,500
961,834; 3277,551;   -0,909;    0,864
962,386; 3191,096;    1,727;    1,045
962,939; 3137,369;    0,364;   -0,318
963,491; 3269,732;    0,455;    1,136
964,043; 3144,551;    1,182;    2,409
964,596; 3258,005;   -1,000;    2,227
965,148; 3098,914;   -1,000;    1,773
965,700; 3040,278;    1,091;   -0,227
966,253; 3173,187;   -0,636;    0,318
966,805; 3030,278;   -2,273;    0,773
967,357; 3083,187;    1,091;   -1,500
967,909; 3030,096;    0,455;   -1,227
968,461; 3144,187;    0,545;    3,136
969,013; 3062,460;   -0,182;   -0,864
969,565; 3121,641;   -0,455;   -1,136
970,117; 3186,187;   -0,364;    1,045
970,669; 3028,369;    0,182;   -0,136
971,220; 2916,823;   -0,455;   -1,500
971,772; 2827,278;   -0,636;   -0,318
972,324; 2950,460;    0,091;   -0,500
972,876; 2899,732;    0,818;   -0,045
973,427; 3038,096;    1,909;   -1,045
973,979; 2998,732;   -0,727;   -2,500
974,530; 3036,732;    1,818;    1,318
975,082; 3047,005;   -0,545;    1,682
975,633; 2945,005;    1,091;    1,682
976,184; 3080,187;    0,909;    0,773
976,736; 2886,460;    0,091;    0,227
977,287; 2705,551;   -0,909;   -0,500
977,838; 2879,187;    0,909;   -0,318
978,389; 2917,823;   -1,000;   -0,500
978,940; 2789,096;    0,545;   -0,409
979,491; 2826,732;    0,091;   -0,500
980,042; 2792,732;    0,182;    3,045
980,593; 2846,369;   -2,545;    0,227
981,144; 2891,005;    2,545;   -0,500
981,695; 2855,369;    1,455;    1,500
982,246; 2812,005;   -0,273;    1,045
982,797; 2977,096;   -1,727;    0,682
983,347; 3076,096;    0,364;    0,591
983,898; 3248,278;    3,091;    0,409
984,449; 3067,641;    2,182;    0,773
984,999; 2982,005;    1,455;   -1,136
985,550; 2784,369;    0,182;   -0,318
986,100; 2802,460;   -0,455;   -0,318
986,651; 2825,369;   -0,818;    0,045
987,201; 2824,278;   -1,000;   -0,591
987,751; 2903,551;    0,818;    2,864
988,302; 2864,278;    2,636;    1,500
988,852; 2885,914;    0,455;   -1,136
989,402; 2934,096;    0,091;    0,682
989,952; 2851,187;   -2,182;    0,864
990,502; 2953,460;   -0,091;    0,682
991,052; 2936,914;   -0,727;    0,045
991,602; 2810,551;   -2,909;    1,318
992,152; 2789,732;    0,455;    0,682
992,702; 2778,278;    1,364;   -0,045
993,252; 2705,005;   -3,000;   -0,500
993,802; 2796,278;   -0,273;    1,318
994,352; 3031,278;   -1,545;    1,136
994,901; 3114,460;   -0,182;    3,227
995,451; 3028,823;   -0,182;    0,318
996,000; 3096,914;    1,636;    0,318
996,550; 2823,914;    2,273;    0,227
997,100; 2834,460;    1,273;   -0,045
997,649; 3092,369;    2,182;    0,955
998,198; 2750,551;    1,727;   -1,500
998,748; 2947,005;    1,091;   -2,318
999,297; 2851,641;   -0,818;   -0,409
999,846; 2915,551;    1,000;   -0,773
1000,395; 2966,551;   -0,818;    0,500
1000,945; 2914,187;    1,818;   -0,773
1001,494; 3003,823;    2,364;    0,682
1002,043; 2974,187;    4,636;    0,864
1002,592; 2832,187;   -1,091;    1,955
1003,141; 2986,551;   -0,455;   -0,682
1003,690; 2842,732;    1,727;    0,500
1004,238; 2910,551;    1,455;   -0,045
1004,787; 2561,278;    1,364;    1,227
1005,336; 2802,641;    0,364;    0,682
1005,885; 2925,096;    1,364;   -2,773
1006,433; 3071,187;    0,545;    0,955
1006,982; 3122,187;    0,455;    1,682
1007,531; 3042,278;   -1,818;   -0,227
1008,079; 2978,005;   -2,273;    0,500
1008,627; 3143,187;   -1,455;    0,409
1009,176; 2895,005;    0,000;   -1,955
1009,724; 2919,187;    1,091;    0,864
1010,273; 2979,096;    1,273;    0,500
1010,821; 3096,278;    0,091;    1,409
1011,369; 2840,369;   -1,364;    1,318
1011,917; 2821,096;   -1,364;   -0,591
1012,465; 3100,187;    1,273;   -1,591
1013,013; 3188,278;    2,091;   -1,682
1013,561; 3078,823;    0,455;   -0,773
1014,109; 3129,914;   -1,909;    1,682
1014,657; 3017,369;    0,364;    0,591
1015,205; 3132,823;    1,636;   -0,955
1015,753; 3166,460;   -0,545;   -1,409
1016,301; 3190,732;   -2,636;    3,045
1016,848; 3203,641;   -1,273;    0,409
1017,396; 3242,641;    2,545;    0,045
1017,944; 3376,732;    1,182;    1,864
1018,491; 3132,914;    0,273;    1,409
1019,039; 3266,005;    0,455;    0,591
1019,586; 3194,732;   -1,364;    1,682
1020,134; 3291,005;    0,455;    1,500
1020,681; 3319,823;    0,182;   -1,136
1021,228; 3334,732;    2,909;   -2,227
1021,776; 3155,732;    1,182;   -1,136
1022,323; 3358,369;    0,455;    0,773
1022,870; 3286,369;   -1,000;   -0,045
1023,417; 3209,005;    2,636;    1,864
1023,964; 3377,914;    2,636;    1,227
1024,511; 3206,551;    1,000;    0,773
1025,058; 2973,369;    3,182;   -0,045
1025,605; 3060,096;   -2,273;    3,136
1026,152; 3265,914;    1,727;   -0,591
1026,699; 2996,096;    1,818;    1,318
1027,245; 3143,914;   -0,091;    0,318
1027,792; 3382,187;   -1,000;    1,409
1028,339; 3254,823;    2,364;   -0,045
1028,885; 3104,914;    1,000;   -0,227
1029,432; 3043,732;   -0,091;    0,227
1029,978; 3099,551;   -1,000;   -1,591
1030,525; 3017,914;    1,000;    0,409
1031,071; 3251,096;   -1,364;    1,136
1031,618; 3365,641;    0,364;    1,682
1032,164; 3165,823;   -0,091;    3,045
1032,710; 3189,278;    1,636;   -1,500
1033,256; 3110,187;   -0,636;   -0,136
1033,803; 3100,278;   -0,545;    1,500
1034,349; 2850,369;   -1,364;    0,136
1034,895; 2985,096;    0,000;   -0,318
1035,441; 2955,823;   -0,818;    0,318
1035,987; 2978,460;   -2,364;   -0,682
1036,533; 2960,823;   -1,455;   -0,955
1037,078; 3170,096;    1,455;    1,682
1037,624; 2994,278;    2,455;   -0,955
1038,170; 3019,096;    0,455;   -0,318
1038,716; 2925,914;    1,636;   -0,409
1039,261; 2837,732;   -2,273;   -0,773
1039,807; 2772,369;   -0,091;    3,409
1040,352; 2848,278;   -1,909;   -0,318
1040,898; 2891,914;   -1,545;   -0,682
1041,443; 2800,187;   -1,455;   -2,591
1041,989; 2819,732;    1,091;    1,591
1042,534; 2693,641;   -0,364;    2,591
1043,079; 2814,005;    2,909;    0,955
1043,625; 2613,551;    1,818;    0,500
1044,170; 2680,005;   -1,364;    1,045
1044,715; 2917,551;    2,455;    0,955
1045,260; 2724,460;    2,182;   -0,955
1045,805; 2774,005;    1,182;   -0,591
1046,350; 2717,278;    1,364;   -0,409
1046,895; 2667,914;    2,909;    1,591
1047,440; 2626,187;    5,364;    0,409
1047,985; 2522,823;    2,818;   -0,955
1048,530; 2435,823;    1,545;    1,227
1049,074; 2495,823;    0,000;    0,318
1049,619; 2495,823;   -1,364;    1,955
1050,164; 2292,096;    0,455;    0,227
1050,708; 2342,096;   -0,455;    0,045
1051,253; 2701,914;    1,273;   -2,227
1051,797; 2410,641;    0,818;   -1,318
1052,342; 2412,641;   -1,182;    1,045
1052,886; 2403,460;    0,364;   -1,409
1053,430; 2281,641;   -1,364;    0,136
1053,975; 2308,823;   -0,818;   -0,318
1054,519; 2289,460;   -0,727;    3,227
1055,063; 2309,460;    0,909;    1,318
1055,607; 2192,096;   -0,182;    0,227
1056,151; 2228,823;    2,909;    1,682
1056,695; 2148,641;    2,273;   -1,136
1057,239; 2212,732;   -1,727;   -0,682
1057,783; 2219,278;    0,818;   -1,500
1058,327; 2158,096;    0,000;    1,409
1058,871; 2378,460;   -0,545;    1,318
1059,415; 2095,732;   -0,818;   -0,045
1059,958; 2347,641;    1,455;    2,591
1060,502; 2074,369;   -1,000;   -0,773
1061,046; 1987,914;    0,364;   -0,955
1061,589; 1970,187;   -3,000;   -1,136
1062,133; 1846,551;   -1,273;    1,864
1062,676; 1797,369;    1,182;    0,864
1063,220; 1806,278;    1,091;    0,500
1063,763; 1821,460;    0,909;    1,136
1064,306; 1902,914;   -0,909;    1,864
1064,849; 1780,914;   -0,909;    0,591
1065,393; 1788,187;    2,000;   -1,500
1065,936; 1901,460;    0,182;   -0,409
1066,479; 1790,732;   -1,455;    1,318
1067,022; 1814,096;   -0,273;   -0,227
1067,565; 1714,096;   -0,091;   -1,318
1068,108; 1742,369;    0,727;   -0,591
1068,651; 1719,823;   -0,636;    1,409
1069,194; 1642,096;   -0,455;   -1,682
1069,736; 1626,732;   -1,273;    0,955
1070,279; 1617,278;   -1,364;   -0,500
1070,822; 1661,460;   -2,000;   -0,318
1071,364; 1753,732;   -0,364;    1,318
1071,907; 1571,914;   -0,727;    3,227
1072,450; 1484,096;    0,000;   -0,045
1072,992; 1465,732;   -0,273;    3,136
1073,535; 1614,914;    2,091;    2,136
1074,077; 1401,823;   -0,727;    2,045
1074,619; 1384,096;   -1,364;    0,591
1075,161; 1398,732;   -1,091;    1,500
1075,704; 1580,914;    1,545;    1,227
1076,246; 1395,732;   -0,182;    0,682
1076,788; 1324,641;   -0,364;    1,773
1077,330; 1407,005;    1,273;    2,136
1077,872; 1349,641;    0,909;    0,955
1078,414; 1568,187;    2,727;    0,773
1078,956; 1315,278;    1,273;   -0,227
1079,498; 1571,914;    1,636;    0,318
1080,040; 1269,278;    1,909;   -1,318
1080,581; 1217,732;    1,636;   -0,318
1081,123; 1153,914;    0,091;   -0,773
1081,665; 1202,732;   -1,182;   -0,955
1082,206; 1480,914;    1,364;   -0,500
1082,748; 1342,551;    0,727;    2,045
1083,289; 1233,551;   -2,000;    1,318
1083,831; 1149,641;   -0,545;    0,227
1084,372; 1173,369;    0,000;    0,591
1084,913; 1176,005;    1,091;    0,864
1085,455; 1150,369;   -1,909;   -2,045
1085,996; 1120,096;   -2,273;    0,136
1086,537; 1132,551;   -0,091;    0,864
1087,078; 1162,369;   -0,909;   -2,136
1087,619; 1210,096;   -1,273;    0,227
1088,160; 1122,823;    0,000;    1,318
1088,701; 1118,005;   -1,091;    0,682
1089,242; 1056,914;    1,364;   -2,227
1089,783; 1136,005;   -0,273;    1,409
1090,324; 1113,460;    0,455;    0,682
1090,865;  983,914;    2,727;   -0,409
1091,405;  959,369;    0,727;    2,227
1091,946;  996,096;    0,182;   -0,955
1092,487;  924,005;    0,818;   -1,409
1093,027; 1078,823;   -1,364;   -1,500
1093,568;  927,641;   -0,364;    1,227
1094,108; 1011,278;    0,273;    1,773
1094,649;  967,369;   -1,182;    0,136
1095,189;  921,460;   -0,636;   -0,682
1095,729;  863,369;   -0,091;    0,955
1096,269;  874,278;    0,727;   -0,955
1096,810; 1177,641;   -1,364;    0,500
1097,350;  997,005;    1,364;   -0,773
1097,890;  897,369;    0,364;    1,227
1098,430; 1157,914;    2,364;    2,864
1098,970; 1031,187;    2,182;    1,682
1099,510;  898,823;    0,545;   -2,318
1100,050;  815,369;    1,000;   -1,591
1100,589;  786,823;   -0,727;   -0,318
1101,129;  911,914;    0,818;   -0,955
1101,669; 1068,278;    1,727;    2,136
1102,209;  884,187;   -0,091;    2,227
1102,748;  831,278;    0,000;    0,955
1103,288;  825,551;    1,273;   -1,227
1103,827;  849,914;    3,091;   -2,227
1104,367;  727,187;   -0,091;   -2,409
1104,906;  701,187;    1,364;   -1,136
1105,445;  767,823;    0,636;   -1,136
1105,985;  715,551;   -0,727;    1,500
1106,524;  757,278;   -1,727;   -0,682
1107,063;  745,460;   -2,727;    1,409
1107,602;  722,005;   -1,909;   -1,500
1108,141;  629,369;   -1,909;    1,500
1108,680;  732,732;   -3,455;   -0,591
1109,219;  669,096;   -0,909;   -0,500
1109,758;  670,460;    0,455;    0,682
1110,297;  645,005;    1,000;   -0,682
1110,836;  606,914;   -0,727;    0,955
1111,375;  749,096;   -2,545;    0,409
1111,913;  767,823;   -1,000;    0,773
1112,452;  700,551;   -0,273;    0,136
1112,991;  593,460;    1,091;    1,955
1113,529;  551,823;   -0,818;   -0,045
1114,068;  621,914;   -0,273;    2,955
1114,606;  521,914;   -0,364;   -0,955
1115,144;  680,914;   -1,273;    1,045
1115,683;  617,096;   -0,727;    0,318
1116,221;  664,551;   -0,455;   -0,864
1116,759;  570,551;    0,636;   -0,864
1117,297;  771,823;    0,000;    1,864
1117,836;  575,278;   -2,182;   -1,227
1118,374;  583,278;    0,182;   -0,682
1118,912;  526,278;    0,909;    2,682
1119,450;  504,005;    1,000;    0,864
1119,988;  566,641;    1,545;    2,136
1120,525; 1017,641;    5,091;    3,318
1121,063;  719,278;    1,182;    1,864
1121,601;  522,551;   -0,909;   -1,227
1122,139;  471,641;   -0,727;   -2,045
1122,676;  673,732;   -0,727;    2,773
1123,214;  604,369;   -1,182;    4,409
1123,751;  433,187;    1,727;    2,227
1124,289;  558,278;   -0,091;   -0,409
1124,826;  423,551;    1,727;    0,227
1125,364;  346,732;    1,727;   -0,955
1125,901;  529,914;    1,182;    1,227
1126,438;  643,096;    0,818;    0,955
1126,975;  380,914;   -0,727;   -0,773
1127,513;  441,005;    0,273;    2,136
1128,050;  353,732;    1,636;   -0,682
1128,587;  458,914;    2,000;   -0,227
1129,124;  492,187;    0,091;    1,318
1129,661;  363,369;    0,273;    0,227
1130,198;  529,005;    1,636;    0,773
1130,734;  479,187;    0,182;    1,409
1131,271;  339,278;   -0,909;    0,864
1131,808;  503,732;    2,909;    3,045
1132,345;  363,278;    1,545;    0,318
1132,881;  240,823;   -1,545;   -1,864
1133,418;  388,187;    0,727;   -1,136
1133,954;  326,551;    2,455;   -2,682
1134,491;  390,278;    1,364;   -0,773
1135,027;  287,732;    2,364;    0,864
1135,564;  384,823;    0,273;    2,955
1136,100;  372,278;    0,364;    2,136
1136,636;  252,732;   -1,273;   -1,045
1137,172;  361,096;    0,000;   -1,045
1137,708;  278,551;   -1,364;   -1,045
1138,245;  277,278;    1,273;   -1,227
1138,781;  232,278;    1,091;   -3,318
1139,317;  295,823;    1,273;   -1,409
1139,852;  286,096;    3,091;    0,136
1140,388;  404,096;   -1,182;   -0,409
1140,924;  288,369;   -1,091;   -2,227
1141,460;  224,278;   -1,636;    0,136
1141,996;  154,005;   -1,364;    2,682
1142,531;  212,460;    1,364;    3,318
1143,067;  423,641;    1,182;    1,045
1143,602;  470,096;   -0,091;   -0,318
1144,138;  313,823;   -2,636;    1,045
1144,673;  192,278;   -1,455;    1,409
1145,209;  257,278;   -1,909;   -0,318
1145,744;  180,641;   -0,727;    0,864
1146,279;  309,914;    1,818;   -0,136
1146,815;  227,096;    1,545;   -2,682
1147,350;  267,278;   -1,364;    0,045
1147,885;  182,551;   -0,818;   -1,318
1148,420;  181,187;   -2,273;    0,773
1148,955;  166,732;   -1,727;    1,864
1149,490;  187,460;   -0,909;   -1,591
1150,025;  170,914;    0,455;   -1,773
1150,560;  282,460;    1,091;   -0,955
1151,094;  259,823;    1,455;   -0,591
1151,629;  256,005;    1,636;    0,864
1152,164;  189,641;    1,364;    1,318
1152,698;  152,096;   -0,182;   -0,136
1153,233;  110,460;    0,091;   -0,682
1153,767;  149,732;   -3,000;   -2,318
1154,302;  195,914;   -1,455;    1,773
1154,836;  191,551;   -0,455;   -2,136
1155,371;  257,641;   -1,364;    3,682
1155,905;  210,096;   -0,636;    1,682
1156,439;  169,551;   -0,636;   -0,500
1156,973;  207,096;    0,364;    0,318
1157,507;  140,187;   -0,364;    0,682
1158,042;  162,096;   -0,727;    1,045
1158,576;  208,005;    0,182;    1,773
1159,110;  198,460;   -0,818;    2,409
1159,643;  175,005;    0,636;   -0,045
1160,177;  111,460;   -1,545;    1,500

