
Integration time [ms]:   0,040
Averaging Nr. [scans]: 11
Smoothing Nr. [pixels]: 0
Data measured with spectrometer [name]: 7318044SP
Wave   ;Sample   ;Dark     ;Reference
[nm]   ;[counts] ;[counts] ;[counts] 

186,757;   16,526;   31,551;    1,318
187,357;   35,547;   22,551;    0,955
187,958;   14,785;   15,460;   -1,591
188,558;   34,264;    8,915;   -1,227
189,159;   15,849;    6,733;   -4,500
189,759;    4,432;    7,278;   -3,591
190,360;    2,330;    2,824;   -2,136
190,960;   14,889;    2,915;   -4,136
191,560;   18,152;    3,189;   -6,591
192,161;  166,073;    4,372;   -3,500
192,761;   78,643;    4,010;   -3,227
193,361;   40,895;    1,556;   -3,773
193,962;   70,957;    2,010;   -2,682
194,562;   18,695;    1,189;   -3,955
195,162;   13,881;   -2,448;   -2,227
195,762;   89,806;   -3,176;   -0,045
196,362;   58,651;    1,370;   -2,500
196,963;    1,165;    2,006;   -0,864
197,563;   30,122;    1,551;   -0,955
198,163;   -0,733;    0,096;   -0,682
198,763;    4,689;    1,733;   -0,500
199,363;   40,978;    3,096;   -0,500
199,963;   20,262;    0,369;    0,409
200,563;   11,070;    2,823;   -1,409
201,163;    1,997;    3,277;   -0,227
201,763;   20,615;    3,732;    0,318
202,363;    5,417;    1,459;    1,500
202,963;   20,450;    1,459;    1,045
203,563;   53,203;    0,277;    0,500
204,162;    8,728;    2,096;   -1,864
204,762;    3,725;    0,550;    0,591
205,362;   -7,243;    3,004;    1,955
205,962;   13,412;    3,096;    1,955
206,562;   12,591;    1,823;    2,318
207,161;    3,517;   -0,087;    0,318
207,761;   50,968;    1,277;    2,409
208,361;    4,899;   -0,268;    1,409
208,960;   16,599;    0,459;    1,500
209,560;    7,209;    1,277;    1,591
210,160;   20,829;    0,550;    1,864
210,759;    7,442;    4,186;    1,227
211,359;   -2,371;    1,459;    1,045
211,958;   67,859;    1,277;    2,045
212,558;   68,345;    1,732;    1,864
213,157;   26,776;    1,822;    1,500
213,757;  120,052;    3,822;   -0,227
214,356;   41,060;    1,277;   -0,409
214,956;   99,428;    3,095;    0,409
215,555;   27,707;    2,095;    2,136
216,154;    2,720;   -2,723;   -0,591
216,754;    8,095;    0,277;    0,773
217,353;   14,875;   -0,268;   -1,045
217,952;   -9,919;   -0,178;    0,318
218,552;   24,576;    1,368;   -0,773
219,151;   -1,929;    0,277;    0,955
219,750;   -3,504;    0,004;   -0,227
220,349;   -8,964;   -0,451;    1,045
220,948;   29,052;   -1,360;    1,136
221,548;    3,517;    0,913;    1,227
222,147;    5,603;   -0,087;   -0,409
222,746;   44,023;   -0,451;   -0,955
223,345;   17,405;    0,731;    0,500
223,944;   16,902;   -0,451;    0,773
224,543;   15,199;    1,004;   -1,409
225,142;    2,376;    0,094;    0,136
225,741;   10,352;   -0,814;    1,045
226,340;    5,202;   -0,451;   -0,955
226,939;   36,341;   -0,996;   -0,136
227,538;    1,063;   -0,360;   -0,773
228,137;   44,461;   -0,814;    0,864
228,735;   32,421;   -0,541;    1,227
229,334;   -6,569;   -0,905;   -0,227
229,933;   45,448;    0,459;    0,591
230,532;   41,693;    1,186;   -0,409
231,131;   70,022;    1,732;    0,318
231,729;   21,701;   -2,450;   -2,318
232,328;    3,568;   -0,723;   -1,500
232,927;   11,041;    1,004;   -0,500
233,525;    9,648;    3,640;    0,045
234,124;   18,862;    2,368;   -1,591
234,723;   -0,090;    0,913;   -1,045
235,321;   -5,280;    2,277;    0,136
235,920;   -0,258;    1,186;   -1,227
236,518;   49,006;    3,459;    0,318
237,117;    9,089;    0,004;   -0,227
237,715;   19,276;    0,640;   -0,500
238,314;    8,632;   -0,087;   -2,318
238,912;   45,463;   -0,723;   -1,409
239,510;   22,758;    0,459;   -1,227
240,109;   55,370;    0,004;    3,773
240,707;   39,284;   -0,996;    1,227
241,305;   -1,331;    0,550;    0,136
241,904;   18,306;   -0,178;   -2,045
242,502;   63,062;   -0,632;   -0,227
243,100;   27,014;   -0,087;   -0,955
243,698;    1,110;    0,732;    1,682
244,297;   11,562;   -0,632;    0,682
244,895;    6,913;   -0,269;   -2,318
245,493;   53,937;    2,186;   -0,591
246,091;   60,218;    1,368;   -1,318
246,689;   28,268;    1,004;    0,591
247,287;   26,488;    0,822;   -1,136
247,885;   13,017;   -1,451;    1,227
248,483;    4,162;    1,822;   -0,500
249,081;   28,130;    0,185;    1,591
249,679;   30,437;   -0,178;    1,682
250,277;   -4,900;   -1,723;    0,864
250,875;   27,327;   -1,087;   -1,045
251,473;    6,870;   -1,178;    0,500
252,071;   37,798;    1,459;    1,045
252,669;   10,084;   -1,814;    0,318
253,267;   -1,370;   -0,087;    0,773
253,864;    7,488;   -0,360;    0,682
254,462;   36,806;    1,640;    1,591
255,060;   -1,213;   -0,269;    1,318
255,658;   -6,461;    0,822;   -0,136
256,255;    7,993;    0,186;   -2,045
256,853;   21,836;   -0,269;    1,409
257,451;    4,129;    0,822;    1,864
258,048;  119,565;    1,822;    1,864
258,646;   48,857;    1,731;   -1,045
259,243;   67,654;   -0,087;    2,227
259,841;   30,020;   -0,814;    0,318
260,438;   -0,501;   -0,087;    0,864
261,036;   21,707;   -1,905;    1,409
261,633;    1,255;   -0,087;    2,227
262,231;   -7,659;    2,731;   -0,045
262,828;   -9,483;   -0,905;    1,136
263,425;   -2,151;    0,913;   -0,591
264,023;   -2,667;    0,186;    0,045
264,620;   23,686;   -0,360;   -0,318
265,217;   53,851;   -2,087;    3,136
265,815;    7,595;   -1,905;    2,136
266,412;   20,023;    0,731;    0,136
267,009;   16,271;   -1,451;    0,773
267,606;   41,675;    0,822;   -0,955
268,203;    6,244;   -0,269;   -0,591
268,801;    9,512;    1,731;    0,591
269,398;   -8,122;   -0,360;    2,500
269,995;   22,153;    0,277;    1,591
270,592;   10,899;   -0,632;   -0,500
271,189;   -2,654;    0,186;    0,409
271,786;   -9,280;   -0,632;    1,227
272,383;   28,333;   -1,087;    0,227
272,980;    6,338;    0,277;    0,318
273,577;   -4,309;    0,004;    1,227
274,174;   -2,772;    0,822;    2,591
274,771;   21,084;   -0,814;   -0,773
275,367;  123,560;    2,277;    1,409
275,964;   50,431;    0,731;   -0,500
276,561;    4,841;    1,549;   -1,045
277,158;   -7,563;    0,095;   -1,773
277,755;   44,039;    2,185;    0,409
278,351;   25,089;   -0,451;   -1,500
278,948;   28,167;   -0,815;    0,045
279,545;   19,336;   -1,360;    2,318
280,141;   42,969;   -1,723;   -2,045
280,738;   47,549;   -0,451;   -0,136
281,334;    8,697;   -1,633;    0,591
281,931;    5,280;   -0,087;   -1,318
282,528;   30,547;    0,822;   -0,500
283,124;   43,442;   -1,087;   -0,500
283,721;   37,483;   -0,451;    1,409
284,317;   11,619;    0,185;    2,500
284,913;   46,550;   -1,360;    0,591
285,510;   71,186;    0,640;   -0,318
286,106;   49,288;   -2,269;   -0,955
286,703;   20,124;   -0,360;    1,955
287,299;    5,474;   -1,451;   -0,591
287,895;    4,881;    0,822;   -1,045
288,491;    3,242;    0,186;    2,136
289,088;   21,499;   -2,360;    2,409
289,684;   20,811;   -1,723;    1,500
290,280;   57,030;    0,368;    0,682
290,876;   38,723;    1,822;    5,500
291,472;   30,814;    1,276;    2,227
292,068;   37,004;    1,367;    0,227
292,665;   15,747;    2,095;    0,773
293,261;   -8,664;    0,276;    2,136
293,857;   28,950;    2,913;    2,136
294,453;   12,771;    3,550;    0,955
295,049;   60,319;   -0,268;    1,955
295,644;   27,974;    0,095;    0,136
296,240;   -0,449;   -0,905;   -0,136
296,836;   15,123;   -0,995;    0,318
297,432;   42,687;    1,096;   -0,500
298,028;   43,441;    0,732;    0,773
298,624;   19,971;    1,459;    1,864
299,220;   11,597;    2,368;    0,591
299,815;   11,559;    1,005;   -0,409
300,411;   31,773;    0,914;    1,773
301,007;   43,594;    1,368;    0,227
301,602;   12,645;   -0,541;   -2,318
302,198;   44,920;    0,732;   -0,773
302,794;   12,281;    1,187;   -0,500
303,389;   -2,599;   -1,177;    1,045
303,985;    0,054;    0,550;    1,409
304,580;   40,968;    1,459;    1,591
305,176;   18,123;   -3,086;    0,136
305,771;  -12,229;   -1,268;   -1,227
306,367;   92,765;    4,095;    0,136
306,962;   29,645;    0,641;    1,500
307,558;   47,527;   -0,450;    0,136
308,153;   23,709;    1,095;   -1,136
308,748;   -0,636;   -0,814;    1,682
309,344;   77,870;   -0,632;   -1,318
309,939;   62,249;   -1,905;   -1,318
310,534;   12,696;   -0,086;   -1,682
311,130;    8,976;    0,459;   -2,500
311,725;    4,752;    1,004;   -0,500
312,320;    7,803;    2,459;    0,045
312,915;   30,281;    1,459;   -1,045
313,510;   76,442;    1,550;   -0,500
314,105;   15,936;    1,096;    1,409
314,700;   -2,379;   -3,086;   -1,045
315,295;    9,150;   -0,904;    0,045
315,890;   -1,163;    1,277;    0,864
316,485;   19,287;   -0,359;   -0,318
317,080;   -1,002;   -3,086;    1,591
317,675;   77,479;    2,005;   -0,682
318,270;  153,575;    5,550;    3,318
318,865;   90,989;    3,278;    3,045
319,460;   44,086;   -0,904;    0,591
320,055;    4,706;   -0,541;   -1,227
320,650;   13,856;   -1,995;   -0,591
321,244;   17,179;   -0,177;   -1,409
321,839;   10,105;   -1,541;   -0,227
322,434;   13,984;   -1,086;   -1,591
323,029;    1,698;    1,732;    1,591
323,623;   -4,363;    1,550;    0,773
324,218;   54,417;    2,368;    1,409
324,812;   30,139;    1,096;    1,591
325,407;   20,722;   -0,814;    2,045
326,002;   73,153;    0,277;   -0,409
326,596;   47,955;    0,914;    1,318
327,191;   12,861;    0,823;   -1,045
327,785;   16,682;   -0,813;   -0,227
328,379;    6,147;    1,368;    0,136
328,974;    9,706;    0,914;   -3,955
329,568;   23,920;    0,186;   -2,409
330,163;   46,428;    2,096;    1,045
330,757;   13,939;    2,459;    1,591
331,351;    1,148;    0,459;    0,682
331,945;   -4,395;    0,914;    1,409
332,540;   16,642;   -1,723;   -0,591
333,134;   13,097;   -1,086;    0,773
333,728;   26,902;    0,005;    0,318
334,322;    3,808;   -1,177;   -0,864
334,916;   -0,112;    0,277;    0,955
335,510;   35,081;   -0,450;   -0,136
336,105;   20,952;   -1,086;    1,591
336,699;   -3,237;   -1,086;    0,591
337,293;   18,613;   -1,723;    0,318
337,887;    0,270;   -2,723;    1,955
338,481;   26,525;    0,459;    0,591
339,074;   52,576;   -0,359;    2,682
339,668;   49,362;   -1,632;    1,227
340,262;  225,241;    1,732;    3,227
340,856;   78,094;    1,822;   -0,682
341,450;    5,806;    1,004;    1,864
342,044;   22,795;    1,459;    0,136
342,637;   41,824;    0,913;   -2,136
343,231;    6,247;   -2,360;    0,682
343,825;    5,450;   -1,086;   -0,591
344,419;   17,391;   -1,995;    0,500
345,012;  182,498;    2,459;    4,045
345,606;  100,243;    4,641;    1,591
346,199;   19,463;   -1,813;   -0,227
346,793;   40,885;    1,914;    2,045
347,386;    3,540;   -0,813;   -1,136
347,980;  -15,128;   -0,268;   -0,045
348,573;    0,580;    2,278;    0,409
349,167;  116,026;    5,278;    4,773
349,760;   54,029;    2,914;    2,682
350,354;   33,793;   -0,813;    1,136
350,947;   42,922;    1,096;    1,682
351,540;   21,037;   -0,358;   -1,409
352,134;   -3,412;    1,096;    1,136
352,727;   -1,329;   -0,086;    1,136
353,320;    2,802;    0,005;    0,591
353,913;  -14,308;   -1,995;    1,864
354,507;   32,711;    0,823;   -1,227
355,100;    3,379;    0,460;    0,864
355,693;  153,168;    2,005;    2,409
356,286;   56,820;    0,823;    2,773
356,879;   17,018;   -0,722;    1,227
357,472;   21,697;   -0,904;    1,500
358,065;   21,679;   -0,722;    2,500
358,658;   -5,931;   -0,540;    2,318
359,251;  -10,214;   -1,631;   -0,591
359,844;   32,467;   -1,904;   -1,136
360,437;   50,628;   -2,995;    0,045
361,030;    6,227;    1,369;   -0,682
361,623;    4,157;    2,824;    0,318
362,215;   76,844;   -0,086;    2,045
362,808;   26,267;   -2,358;   -1,682
363,401;   15,096;   -2,449;    0,136
363,994;   84,994;   -0,631;   -1,500
364,586;   25,662;    0,824;   -1,500
365,179;   18,499;   -0,449;   -1,136
365,772;  -20,514;   -1,995;    2,045
366,364;   14,913;    1,915;   -3,227
366,957;   20,977;    2,279;   -0,045
367,549;    6,600;    2,188;   -0,864
368,142;   15,961;    1,825;   -1,500
368,734;    3,332;    0,734;   -2,136
369,327;  -11,249;    1,643;   -0,500
369,919;    1,414;   -1,538;    0,409
370,512;   10,138;   -1,083;   -0,500
371,104;  129,220;   -0,901;    1,591
371,696;  132,233;    1,191;   -0,955
372,289;   68,056;    0,373;    1,136
372,881;   51,600;   -2,080;    1,318
373,473;    3,324;   -2,170;    1,136
374,066;   35,616;   -0,169;    0,500
374,658;   34,288;    0,378;    1,136
375,250;    2,583;    0,653;   -1,409
375,842;   20,078;    0,473;   -0,045
376,434;    1,191;   -0,435;   -0,409
377,026;   -6,844;    0,204;   -2,500
377,618;   28,122;   -0,158;   -0,682
378,210;   -6,022;   -0,338;   -1,955
378,802;   -2,868;    0,754;   -0,591
379,394;  245,253;    1,846;    0,682
379,986;   76,945;    1,393;   -0,955
380,578;    9,717;   -0,153;    0,773
381,170;  177,986;   -0,972;    0,045
381,762;  119,161;    0,755;    1,409
382,354;   83,553;   -0,065;   -1,318
382,945;   37,715;   -2,976;    0,318
383,537;   -3,152;   -2,705;   -1,955
384,129;   -2,471;   -2,160;   -1,136
384,721;   70,256;   -0,252;    0,955
385,312;   36,743;   -0,161;   -0,955
385,904;   76,981;   -2,706;    1,591
386,496;   41,526;   -0,979;    1,045
387,087;  129,352;    1,022;    2,500
387,679;   83,279;   -1,160;    0,045
388,270;   57,993;    2,840;    2,045
388,862;   45,467;    1,295;   -0,318
389,453;   41,156;   -0,887;    1,045
390,045;   39,688;   -0,705;   -2,682
390,636;  -26,590;    0,204;   -0,591
391,227;   14,683;   -0,523;   -0,045
391,819;   -3,635;    0,204;    0,773
392,410;  160,587;    1,022;    0,045
393,001;   30,540;   -0,979;   -1,591
393,593;   65,973;    1,930;   -0,045
394,184;   89,438;    1,385;   -0,409
394,775;   25,583;    1,839;    2,136
395,366;  -19,511;    1,385;    0,773
395,957;   75,590;    0,113;    0,136
396,548;    8,633;   -0,342;    2,682
397,139;   82,210;   -2,433;    0,591
397,730;   26,031;   -1,888;    0,955
398,321;   34,358;   -1,252;    0,955
398,912;    8,510;   -0,615;    0,136
399,503;    6,534;   -3,524;   -1,409
400,094;   32,008;    0,294;    1,682
400,685;   22,483;   -0,433;    0,045
401,276;    2,617;    0,930;   -0,955
401,867;  -15,621;   -0,888;    0,773
402,458;  -36,204;   -2,251;   -2,318
403,048;   43,751;    1,112;    0,591
403,639;   18,326;    0,840;    0,864
404,230;   82,481;    2,476;    0,318
404,821;  113,443;   -0,615;    0,045
405,411;   56,724;    1,203;   -2,591
406,002;    5,390;   -1,252;   -1,136
406,592;  154,302;    2,294;    0,045
407,183;   64,639;    0,566;   -1,500
407,774;   52,013;    3,475;   -0,136
408,364;   18,094;    0,930;    0,409
408,954;   90,158;    0,384;    1,227
409,545;   93,310;    1,021;    1,045
410,135;   67,979;    1,293;    0,500
410,726;   31,634;    1,838;    0,318
411,316;  144,722;    0,111;    0,773
411,906;   46,982;   -0,253;   -0,409
412,497;   56,056;   -1,070;   -0,045
413,087;   25,527;   -1,980;   -0,227
413,677;  -15,807;   -0,707;    3,864
414,267;  -15,981;    0,656;    1,409
414,857;  -30,103;   -2,980;    4,227
415,448;  -25,168;    0,839;    0,500
416,038;   -6,681;    0,020;   -0,591
416,628;   17,164;   -0,889;    0,409
417,218;   46,258;    0,565;    3,318
417,808;  147,316;    0,202;   -0,409
418,398;   70,006;    0,020;    2,682
418,988;    2,012;    2,020;    0,591
419,578;   65,330;   -0,707;    1,409
420,168;    8,971;   -1,343;   -0,955
420,757;   95,027;   -1,343;   -1,500
421,347;   27,349;    0,111;   -0,227
421,937;   17,424;    2,292;    1,409
422,527;  100,582;    0,838;   -0,773
423,116;  194,343;   -0,253;   -0,045
423,706;   24,942;   -1,889;    0,318
424,296;   -6,683;    1,384;    0,682
424,885;   64,498;   -0,071;   -3,045
425,475;   45,555;    1,474;   -2,864
426,065;  -10,694;   -0,980;   -0,318
426,654;  -22,204;   -0,435;   -0,318
427,244;  137,819;    0,020;    1,409
427,833;  113,357;    1,383;   -0,500
428,423;   35,887;   -0,526;    1,136
429,012;   32,788;   -0,344;   -1,136
429,601;  116,908;   -1,344;    0,136
430,191;   42,788;    1,292;    4,318
430,780;   -3,501;   -0,344;   -0,409
431,369;  104,312;    0,746;   -0,045
431,959;   30,344;   -1,254;    0,500
432,548;   -3,977;   -1,163;   -0,045
433,137;  -37,859;   -1,254;   -1,318
433,726;    5,326;    0,292;    0,500
434,315;   25,219;   -0,526;    2,409
434,905;   91,473;   -1,254;    1,409
435,494;   83,593;    0,746;    0,955
436,083;    4,785;   -0,981;   -0,955
436,672;   68,176;    0,110;    0,500
437,261;   26,772;    0,292;   -1,955
437,850;  170,358;    1,383;    0,682
438,439;  210,465;    3,291;    1,955
439,027;  290,241;    3,655;    1,773
439,616;  216,965;    2,927;    1,227
440,205;   74,099;    0,200;   -2,136
440,794;   45,984;    2,109;   -0,045
441,383;    9,610;   -1,346;   -0,591
441,971;   -1,096;   -2,436;    0,591
442,560;    4,426;    0,563;   -1,773
443,149;  -57,521;    0,379;   -1,318
443,737;  -31,967;   -0,074;   -2,318
444,326;   -9,454;    0,018;    0,318
444,915;   16,177;   -1,982;    0,864
445,503;   19,918;   -2,891;   -0,318
446,092;  210,693;    0,382;    2,136
446,680;  155,022;    0,382;    0,318
447,269;   83,370;   -0,346;   -0,318
447,857;   75,899;    0,018;   -1,773
448,445;   40,830;    0,563;    1,318
449,034;    2,784;   -1,528;   -1,136
449,622;   20,552;   -1,073;    3,500
450,210;  188,640;    2,017;    2,227
450,799;  129,376;    0,290;   -0,591
451,387;  111,437;    1,381;   -0,591
451,975;   96,905;    2,654;    0,864
452,563;  145,352;    3,472;    2,318
453,151;   31,060;   -0,528;   -1,227
453,739;   55,055;   -1,347;    0,136
454,328;  124,248;    2,381;   -2,136
454,916;   80,267;    2,562;   -0,136
455,504;  100,224;    1,017;    1,227
456,092;   28,807;    0,017;   -1,591
456,679;    7,459;    1,472;    0,682
457,267;  290,989;    4,017;    1,045
457,855;   70,548;    1,017;    1,409
458,443;  -21,035;   -0,165;    1,682
459,031;   65,090;    0,108;    2,409
459,619;   45,556;   -1,801;    2,864
460,206;   -9,525;    0,835;    2,045
460,794;   -9,586;   -2,983;   -0,227
461,382;   15,358;   -0,529;   -0,864
461,970;   24,877;    1,198;    1,864
462,557;  -19,281;   -0,711;   -0,682
463,145;   44,264;   -3,165;   -1,682
463,732;  215,639;    2,016;   -1,045
464,320;   63,433;   -0,075;   -3,045
464,907;  148,150;    2,743;   -0,773
465,495;   81,517;    0,743;   -1,227
466,082;   32,690;   -1,984;   -0,045
466,670;   59,669;   -2,529;    1,227
467,257;   -2,294;   -1,711;    2,045
467,844;   63,444;   -0,075;    0,045
468,432;   36,164;    0,834;    3,500
469,019;   12,910;    0,925;   -1,773
469,606;   72,527;    0,470;    3,682
470,193;   85,867;   -1,439;    0,227
470,780;   45,145;   -2,075;    0,864
471,368;    5,881;   -1,257;   -0,773
471,955;   81,701;    1,379;   -0,682
472,542;   54,303;    0,652;   -1,136
473,129;   -6,799;   -0,166;    0,136
473,716;   -6,638;    1,470;    0,591
474,303;    9,896;    0,652;   -0,864
474,890;    8,159;   -1,439;   -0,500
475,477;   81,122;   -1,621;    0,409
476,064;   18,558;    1,106;   -1,591
476,650;   99,606;    0,288;    0,318
477,237;   34,969;   -0,258;    0,955
477,824;   20,132;   -1,076;    0,864
478,411;  -22,483;   -1,894;   -0,318
478,997;  -32,742;    0,560;   -0,773
479,584;  -55,915;    1,196;   -0,409
480,171;   36,785;   -0,440;   -0,773
480,757;   70,973;    2,651;    0,773
481,344;   15,307;    0,469;    0,409
481,931;  -39,548;    1,105;    1,045
482,517;   39,815;   -1,258;    0,318
483,104;   98,344;    1,106;    2,864
483,690;   14,919;   -1,804;    0,045
484,276;    0,451;   -0,895;    0,227
484,863;  132,839;    2,469;    1,136
485,449;   37,810;   -0,077;    0,318
486,035;    6,347;   -1,986;   -0,136
486,622;   60,050;   -0,895;    0,045
487,208;   10,689;    1,378;    1,500
487,794;  -34,990;    0,741;    0,318
488,380;  -31,578;    0,105;   -1,409
488,967;  -33,377;   -1,168;   -0,409
489,553;  -22,642;   -1,895;   -1,409
490,139;   26,334;    1,559;    0,773
490,725;  -12,465;    0,741;   -0,227
491,311;    4,321;    3,287;    3,045
491,897;   -5,013;   -0,986;    1,500
492,483;    0,230;    0,105;    1,227
493,069;  298,134;    3,923;    0,864
493,655;  105,273;    1,650;    0,682
494,241;   18,786;    1,377;   -0,955
494,826;   19,318;    0,287;   -1,045
495,412;   53,968;    2,559;   -0,682
495,998;    8,741;   -0,805;   -0,318
496,584;   39,688;    0,377;    1,045
497,169;   53,479;    1,014;   -0,682
497,755;   12,637;    0,650;    1,227
498,341;   90,348;    0,559;    0,318
498,926;  177,249;    1,832;    1,955
499,512;    8,432;    1,286;    2,955
500,097;   -0,750;    0,195;   -0,318
500,683;   16,859;   -0,350;    2,136
501,268;  -12,229;   -0,169;   -0,955
501,854;    7,057;   -0,169;    1,227
502,439;    7,817;   -0,624;   -1,773
503,024;    2,910;    0,195;    0,500
503,610;   18,894;   -0,078;   -0,682
504,195;   -3,197;    0,558;    1,955
504,780;   57,932;    2,922;    1,227
505,366;  114,873;    3,013;    2,864
505,951;   59,261;    0,740;    1,045
506,536;   10,306;   -3,260;   -3,682
507,121;   41,293;    0,285;   -0,318
507,706;   17,868;    2,376;    1,045
508,291;   -8,699;    2,649;    1,136
508,876;  -12,752;   -0,988;    2,591
509,461;   11,315;   -0,169;   -0,773
510,046;   35,804;    0,194;    0,318
510,631;   41,213;   -0,351;   -0,773
511,216;   -8,512;    2,467;   -0,500
511,801;   26,413;   -0,442;    2,591
512,386;   33,339;    0,740;    0,500
512,971;   35,007;   -2,988;    0,955
513,555;   48,686;   -0,897;   -1,500
514,140;   26,162;   -0,442;   -3,136
514,725;  109,978;   -0,715;   -1,136
515,309;   55,919;   -0,533;    0,318
515,894;    1,139;   -0,624;   -2,227
516,479;   25,358;   -0,624;   -0,955
517,063;   22,088;    0,376;    1,227
517,648;   -4,752;    1,012;   -1,136
518,232;  -20,955;   -0,261;   -1,409
518,817;   22,385;   -0,079;    1,682
519,401;   82,222;    2,194;    0,591
519,985;   83,719;    1,103;    1,136
520,570;    5,273;    0,830;   -1,955
521,154;   55,367;    2,102;    0,591
521,738;  136,217;   -2,352;    2,409
522,323;   52,762;   -0,170;    1,682
522,907;   63,720;    0,466;   -0,136
523,491;   31,385;    0,557;    0,955
524,075;   35,180;    2,284;    0,591
524,659;  179,511;    1,466;    0,591
525,243;  166,412;    1,739;    0,409
525,827;  158,297;    0,648;   -0,045
526,411;  186,329;   -1,989;   -0,136
526,995;  308,717;   -0,352;    1,409
527,579;  412,383;   -0,443;   -1,045
528,163;  408,311;    0,375;   -1,500
528,747;  585,110;    2,466;   -0,773
529,331;  588,105;   -0,080;   -1,409
529,915;  460,768;    1,738;    0,955
530,499;  671,119;   -0,807;    1,227
531,082;  933,667;   -0,534;    1,591
531,666; 1098,458;    1,374;    0,773
532,250; 1100,268;    1,284;    2,682
532,833; 1360,335;    0,920;    2,773
533,417; 1236,338;   -1,807;    0,864
534,001; 1488,114;    1,647;   -0,318
534,584; 1584,333;    0,374;    0,500
535,168; 1543,526;    0,465;    1,409
535,751; 2072,785;    0,647;    0,045
536,334; 1839,600;   -0,898;   -0,409
536,918; 2080,311;    0,011;    1,591
537,501; 2235,237;   -0,899;    1,318
538,085; 2417,336;   -0,444;    1,045
538,668; 2554,493;    0,829;    2,409
539,251; 3056,288;    1,829;    3,773
539,834; 3118,309;    0,101;    0,773
540,418; 3309,809;   -1,990;    4,318
541,001; 3511,384;   -0,990;    1,773
541,584; 3538,256;    2,101;    2,227
542,167; 3553,438;    1,374;    2,955
542,750; 3693,812;    1,919;   -0,773
543,333; 3512,850;    0,555;    2,136
543,916; 4068,071;    0,192;    2,500
544,499; 4299,732;   -1,354;    0,227
545,082; 4462,384;    1,374;    3,591
545,665; 4601,986;    1,919;    1,500
546,248; 4813,577;    1,010;   -0,318
546,830; 4772,545;   -0,445;    1,955
547,413; 5071,454;    1,010;   -0,773
547,996; 5452,871;    0,555;    0,500
548,579; 5268,722;    0,919;    0,955
549,161; 5285,829;    1,828;    2,682
549,744; 5218,406;   -0,809;    0,409
550,326; 5572,941;   -0,809;   -1,136
550,909; 5613,490;    2,737;    0,591
551,492; 5874,973;   -0,263;    0,227
552,074; 5774,460;   -0,173;   -1,318
552,657; 6149,214;    2,373;    0,045
553,239; 6073,960;   -0,173;   -0,773
553,821; 6079,522;   -1,082;    1,045
554,404; 5821,524;    1,282;    1,136
554,986; 6112,733;    0,464;    1,045
555,568; 6408,388;    1,191;   -0,955
556,151; 6104,000;    1,191;   -0,227
556,733; 6231,442;   -0,264;   -0,864
557,315; 6478,998;    0,100;    0,500
557,897; 6228,642;    0,554;   -0,500
558,479; 6375,736;   -1,991;    1,318
559,061; 6548,667;   -0,719;   -0,864
559,643; 6754,819;   -0,264;    0,045
560,225; 6910,404;    1,645;    2,864
560,807; 6953,183;    0,918;    0,318
561,389; 6737,137;    0,554;    2,318
561,971; 7023,480;    0,463;    2,136
562,553; 7031,357;   -1,628;    1,591
563,135; 7128,431;   -0,537;    1,136
563,717; 6917,287;    3,372;    1,136
564,298; 7266,156;    3,645;   -0,045
564,880; 7017,322;    0,645;   -1,409
565,462; 7107,050;    0,645;    1,318
566,043; 7822,921;   -0,446;    2,318
566,625; 7508,517;    1,918;    1,227
567,207; 7374,421;    1,099;    1,682
567,788; 7960,258;   -1,264;    1,500
568,370; 8397,338;    1,917;   -0,500
568,951; 8125,071;    0,190;    0,227
569,533; 8631,264;   -0,628;   -0,500
570,114; 8915,841;   -0,446;    0,682
570,695; 9111,769;   -0,174;   -1,318
571,277; 9162,523;   -0,265;   -1,682
571,858; 9590,772;    2,008;   -1,136
572,439;10016,237;    1,554;   -1,045
573,021; 9991,194;    2,099;   -2,773
573,602;10267,673;   -1,265;    0,318
574,183;10742,727;   -2,083;    2,227
574,764;10677,684;   -1,629;    0,409
575,345;10862,216;    0,917;   -0,136
575,926;11184,849;   -0,356;    0,136
576,507;11185,633;    1,099;   -0,227
577,088;11794,801;    3,099;    1,682
577,669;11824,277;    0,735;    1,955
578,250;12253,363;    0,644;   -1,045
578,831;12408,895;   -1,356;   -2,227
579,412;12430,072;   -0,810;    0,955
579,993;13116,542;    1,008;    0,227
580,573;13299,141;   -0,629;   -0,955
581,154;12475,876;    0,735;   -0,591
581,735;13143,588;    0,644;    0,773
582,315;12726,224;   -0,629;    2,136
582,896;13024,775;   -0,174;    1,227
583,477;12706,283;    0,189;    1,227
584,057;12875,711;    0,553;    0,955
584,638;13047,088;    2,553;    2,318
585,218;13114,358;   -0,538;    2,682
585,799;13174,505;    0,281;   -0,227
586,379;13233,529;    0,372;    1,591
586,959;12576,753;    0,735;    0,318
587,540;12259,826;   -0,629;    2,227
588,120;12036,417;    1,007;   -0,045
588,700;11584,962;    2,553;    2,136
589,281;11881,023;    0,462;   -0,955
589,861;11796,459;    0,099;   -1,682
590,441;11712,558;    2,371;   -2,682
591,021;11060,047;   -0,265;   -2,591
591,601;11365,443;   -0,537;    0,500
592,181;11537,932;   -0,719;   -0,773
592,761;11031,788;    0,007;    1,409
593,341;11092,700;   -0,901;    0,045
593,921;11079,970;   -0,265;    1,591
594,501;11016,858;   -0,538;    1,318
595,081;10871,448;    0,917;   -0,318
595,661;11184,422;   -1,447;    0,955
596,240;11576,002;   -0,537;    0,136
596,820;11220,344;    0,372;    1,955
597,400;11180,769;    2,008;    0,773
597,980;11384,421;    2,008;    1,045
598,559;11444,831;    2,735;   -0,227
599,139;11358,435;   -0,174;   -1,227
599,718;11219,708;   -0,174;   -0,409
600,298;11434,844;    0,735;    0,682
600,877;11703,542;    2,917;    1,409
601,457;11856,429;    2,281;    1,136
602,036;11769,857;    0,190;    2,045
602,616;11815,927;    0,644;    1,682
603,195;12051,753;   -0,355;    3,500
603,774;11661,253;   -0,901;    2,045
604,354;11610,774;    0,826;   -0,500
604,933;11415,868;    0,463;    1,864
605,512;11544,609;    3,554;    0,591
606,091;11632,004;   -0,537;    3,773
606,671;12143,365;    0,281;    0,773
607,250;11587,536;    1,644;    3,136
607,829;11737,886;    2,372;    3,227
608,408;11661,820;    1,190;    2,591
608,987;11061,031;    1,281;    3,409
609,566;11175,735;   -1,265;   -2,500
610,145;11358,359;   -1,082;    0,682
610,723;11704,170;    4,372;    6,864
611,302;11140,851;   -0,446;    1,682
611,881;10773,081;    5,008;   11,227
612,460;11350,552;    1,645;    3,955
613,039;11680,763;   -0,082;    2,045
613,617;10810,242;    1,736;    4,773
614,196;10916,565;    1,099;    1,227
614,775;11232,578;    1,009;    2,409
615,353;11150,397;    0,736;    0,864
615,932;11035,594;    0,100;    2,409
616,510;11487,447;    0,554;    0,591
617,089;11259,611;    7,100;   17,591
617,667;11179,635;    2,372;    6,136
618,246;11018,076;   -1,537;    1,318
618,824;11116,223;   -3,355;   -0,955
619,402;10796,263;   -2,900;   -1,773
619,981;11148,196;   -0,173;   -1,045
620,559;11126,276;    0,009;    1,682
621,137;10910,412;   -0,718;    1,864
621,715;10741,495;   -1,173;   -0,682
622,293;10725,995;   -0,537;   -0,773
622,871;11203,089;   -0,718;    0,500
623,450;10906,439;    0,373;   -0,864
624,028;10857,340;    0,191;   -0,955
624,606;10574,003;   -1,718;    1,682
625,183;10815,246;   -1,536;   -1,136
625,761;10672,479;    1,009;    1,136
626,339;10913,009;    1,373;    2,591
626,917;11103,000;   -0,172;   -0,045
627,495;11178,861;   -0,354;    1,318
628,073;10794,091;   -0,263;    2,864
628,650;10563,677;    0,100;    2,136
629,228;10880,110;    0,373;    4,409
629,806;10435,484;    2,282;    1,136
630,383;10674,243;    1,464;   -0,318
630,961;10597,225;    2,555;   -0,955
631,539;10383,877;    2,464;    0,227
632,116;10087,679;   11,373;   15,409
632,694;10439,596;    2,555;    6,500
633,271;10447,962;    0,828;    2,682
633,848;10519,979;    1,828;    2,045
634,426;10558,457;   -1,081;    1,773
635,003;10043,545;    1,101;   -0,409
635,580;10219,112;    1,192;    3,682
636,158;10566,676;    3,737;    1,227
636,735;10556,249;    0,555;   -0,500
637,312;10555,620;   -0,809;   -0,682
637,889;10612,970;   -4,354;   -0,682
638,466;10353,144;   -3,990;   -0,409
639,043;10344,539;    2,101;   -1,136
639,620;10516,849;   -2,262;   -0,955
640,197;10760,326;    1,100;    1,682
640,774;10941,971;   -0,172;    1,136
641,351;11135,708;    0,737;    1,136
641,928;10806,444;   -0,627;    1,409
642,505;10575,454;    0,828;   -0,500
643,082;10736,008;   -1,718;    1,227
643,658;10081,745;   -0,718;    1,500
644,235;10524,391;    1,191;    2,500
644,812;10592,491;    1,918;    0,773
645,388;10461,864;   -0,991;    1,409
645,965;10486,782;   -0,809;    1,682
646,542;10564,700;   -1,445;   -0,227
647,118;10700,982;    1,009;   -0,955
647,695;10818,264;   -0,263;    1,136
648,271;10762,456;   -0,536;    0,500
648,848;10885,283;    0,736;    2,227
649,424;10851,838;    0,827;    1,318
650,000;10565,938;   -0,354;   -1,045
650,577;10531,493;   -0,627;   -0,955
651,153;10755,320;   -1,809;    0,955
651,729;11344,784;    1,191;    0,864
652,305;11380,793;    0,645;    2,773
652,881;13212,712;   -0,082;    1,136
653,458;16375,721;    1,100;    0,227
654,034;18159,548;    0,282;    1,591
654,610;18769,376;    0,554;    0,773
655,186;19550,385;    0,645;    3,045
655,762;19222,213;   -0,991;    0,409
656,338;19217,949;    0,100;    0,136
656,913;19905,140;   -0,082;    0,409
657,489;19355,059;    0,827;   -0,318
658,065;19362,522;   -0,173;   -1,591
658,641;19914,168;   -0,900;   -0,864
659,217;19441,995;   -0,991;    0,409
659,792;18960,550;    0,645;   -0,409
660,368;19215,378;   -2,173;   -0,682
660,944;19395,842;   -2,082;    1,227
661,519;17342,760;   -0,628;    0,409
662,095;14642,315;   -1,719;    0,591
662,670;12417,051;    1,281;   -0,136
663,246;11948,970;    1,009;   -0,409
663,821;11599,979;    0,281;    1,682
664,396;11115,715;    0,009;    1,864
664,972;11285,816;    0,009;   -0,500
665,547;11543,279;    1,372;    0,136
666,122;11530,289;   -1,082;    0,318
666,698;11703,662;   -0,173;    0,318
667,273;11163,580;   -0,173;    0,136
667,848;11739,498;    2,372;    1,500
668,423;11577,962;    2,190;    2,318
668,998;11798,971;    2,827;   -0,682
669,573;12171,981;   -3,264;   -1,500
670,148;12102,172;   -1,446;   -0,682
670,723;11836,999;   -1,810;    0,318
671,298;12177,281;    2,372;    1,045
671,873;12145,291;   -0,082;   -0,136
672,448;12131,754;    0,645;    0,136
673,023;12379,764;   -1,992;   -0,227
673,597;12590,682;    0,827;    2,318
674,172;12451,600;   -0,355;    0,318
674,747;12105,155;    0,372;   -1,045
675,321;11908,074;   -0,628;    3,318
675,896;11641,356;    0,645;    1,045
676,471;12256,819;    2,645;    1,591
677,045;12075,101;   -1,264;    0,682
677,620;12037,929;    0,190;    1,136
678,194;12334,574;   -2,628;    1,136
678,769;12124,584;   -1,083;   -0,318
679,343;12309,684;   -0,628;    1,773
679,917;12210,330;   -1,446;    1,955
680,492;12154,066;    0,826;    3,227
681,066;12222,348;    3,372;    0,409
681,640;12309,267;    1,463;   -0,318
682,214;12846,912;    0,735;    0,500
682,788;12482,649;   -1,356;   -0,773
683,363;12378,294;   -1,810;    1,682
683,937;12153,031;   -1,719;   -0,318
684,511;12672,495;    0,463;   -0,591
685,085;12491,777;   -1,356;    0,318
685,659;12302,331;   -2,538;    0,864
686,232;12498,068;   -0,356;   -0,318
686,806;12323,623;   -0,901;    0,409
687,380;12737,359;   -0,174;    0,591
687,954;12933,914;   -1,174;    1,136
688,528;12680,196;   -0,719;    1,955
689,101;13242,660;   -3,992;    1,045
689,675;12875,851;   -0,356;   -0,136
690,249;12435,860;   -0,719;    0,409
690,822;12730,324;    0,280;    0,318
691,396;12818,788;   -0,265;    1,227
691,969;12412,252;    1,280;    0,136
692,543;12829,897;   -0,447;   -1,955
693,116;12548,998;   -0,265;   -1,409
693,690;12451,552;    0,099;    0,500
694,263;12852,471;   -1,083;    2,955
694,836;12864,844;    1,371;    3,591
695,410;11955,217;   -0,265;    1,773
695,983;12214,226;    0,189;    0,591
696,556;12267,508;   -0,447;   -1,045
697,129;12536,517;   -0,356;    1,409
697,703;12258,345;   -1,629;    1,955
698,276;12306,081;    1,462;   -0,773
698,849;12157,818;    1,280;    1,409
699,422;12431,827;   -1,083;    0,591
699,995;12280,836;    0,007;    0,136
700,568;12599,755;   -0,629;    3,045
701,140;12584,128;   -2,811;    1,682
701,713;12479,137;   -0,174;    2,409
702,286;12322,601;   -0,538;    0,864
702,859;12144,155;   -0,902;   -0,591
703,432;11701,528;    0,825;    0,682
704,004;11932,901;    0,462;    0,318
704,577;11820,001;   -0,629;    0,136
705,150;12224,374;    0,189;    2,500
705,722;12098,474;   -0,356;   -3,227
706,295;11996,484;   -0,175;   -0,591
706,867;11871,402;   -0,175;    1,955
707,440;12071,502;   -1,720;   -0,409
708,012;12256,330;    0,462;    0,591
708,584;12145,521;    2,462;    0,227
709,157;12372,803;    1,825;   -0,591
709,729;12227,903;    2,280;    2,045
710,301;12823,731;    0,734;    0,045
710,874;12813,194;   -1,447;   -0,227
711,446;11899,113;    0,371;    0,864
712,018;11853,758;    0,098;    0,500
712,590;11657,859;   -1,993;    1,682
713,162;12049,141;    0,825;    1,318
713,734;12243,877;    1,825;   -2,045
714,306;12188,159;   -1,902;   -0,409
714,878;11304,987;    0,825;    0,864
715,450;11965,178;    0,643;    0,864
716,022;12169,823;    1,552;    1,318
716,593;12303,196;    0,189;    0,591
717,165;12226,660;   -3,175;   -1,227
717,737;12079,488;    0,280;    0,409
718,309;11896,406;    0,280;   -0,045
718,880;11845,779;   -0,539;   -1,409
719,452;12022,970;   -0,175;   -1,591
720,024;11784,979;    0,734;   -0,591
720,595;12151,807;   -2,902;    0,955
721,167;11825,634;    0,370;   -2,045
721,738;11474,734;   -0,812;   -1,045
722,309;11537,289;   -0,993;   -1,227
722,881;11377,935;   -1,357;    0,773
723,452;11819,580;   -2,630;    2,864
724,023;11989,044;   -0,721;    2,682
724,595;11874,326;    0,007;    0,682
725,166;11659,426;    0,007;   -0,409
725,737;11401,436;    1,734;    0,227
726,308;11530,809;   -0,266;    0,318
726,879;11761,545;   -1,630;    1,227
727,450;11645,100;    0,552;   -0,045
728,021;11571,018;    3,097;    0,682
728,592;11512,209;    0,734;    0,500
729,163;11796,764;    0,643;   -0,136
729,734;11710,137;    0,188;   -0,227
730,305;11970,874;    1,734;    0,136
730,876;12129,246;    0,188;    2,955
731,447;12010,801;    2,188;    2,682
732,017;12069,447;    1,097;    1,864
732,588;11817,911;    0,734;    1,227
733,159;11864,738;    0,643;   -1,045
733,729;11695,020;    0,006;    0,409
734,300;11249,666;    0,915;    0,864
734,870;11536,675;    3,461;    0,591
735,441;11902,230;    0,370;   -0,591
736,011;11723,875;    0,643;   -1,591
736,582;11699,067;   -0,812;    0,045
737,152;11252,439;   -1,721;   -2,045
737,722;11668,267;   -0,267;   -0,682
738,293;11438,731;   -1,358;    1,318
738,863;11403,104;    2,461;    2,318
739,433;11374,295;    5,279;    0,318
740,003;11821,486;   -0,994;   -0,682
740,573;11394,495;    2,097;   -1,591
741,143;11454,959;   -1,085;    0,318
741,713;11888,968;    1,188;   -0,500
742,283;11714,887;    0,915;    1,591
742,853;11590,441;    1,915;    1,591
743,423;11237,360;    1,733;    0,045
743,993;11264,824;   -0,358;    1,500
744,563;10830,287;    0,097;   -0,864
745,133;10859,933;   -0,812;   -0,864
745,702;11393,670;   -0,267;    1,773
746,272;10799,588;   -0,176;    0,591
746,842;10745,052;   -1,358;   -0,591
747,411;11066,152;   -0,267;   -0,318
747,981;11113,252;    0,097;    0,500
748,551;11184,080;    2,278;   -1,045
749,120;11072,725;    0,642;   -0,227
749,690;11355,007;   -0,631;    2,409
750,259;11581,744;    1,369;    2,955
750,828;11436,662;    1,551;   -1,955
751,398;11597,399;    1,278;   -0,045
751,967;11302,226;    2,187;    0,409
752,536;11442,145;   -0,813;   -0,227
753,105;11793,336;    0,096;    0,227
753,675;11523,709;    0,096;    1,773
754,244;11433,809;   -0,904;    3,591
754,813;11521,636;    0,551;    1,227
755,382;11193,827;    0,460;    0,955
755,951;11464,473;    1,551;    3,682
756,520;11265,664;   -0,085;    1,864
757,089;11642,128;    0,278;    0,500
757,658;11659,410;    1,733;    1,227
758,227;11699,419;    1,096;    0,318
758,795;11849,519;    1,187;    1,136
759,364;12143,256;   -0,086;   -0,591
759,933;11364,720;   -1,176;   -0,045
760,501;11107,820;    0,733;   -1,318
761,070;11399,647;   -2,813;   -1,409
761,639;11984,657;   -1,904;    1,318
762,207;11389,211;    1,551;   -0,955
762,776;11369,584;    0,369;    0,864
763,344;11388,412;   -0,995;    0,591
763,913;10634,239;   -0,722;    1,409
764,481;11280,885;    1,005;   -0,136
765,049;11250,440;   -1,358;    1,409
765,618;11160,449;   -0,086;    0,318
766,186;11251,095;    0,278;    0,136
766,754;11403,831;    0,005;    1,864
767,322;10701,295;   -1,995;    0,409
767,890;10644,032;   -0,722;   -1,773
768,459;11059,677;   -2,177;   -0,318
769,027;11166,232;    1,641;    3,409
769,595;10467,605;    3,278;    2,591
770,163;10748,432;    3,823;    2,955
770,730;10672,442;    0,732;   -0,136
771,298;10597,360;    0,187;   -1,409
771,866;10684,733;   -1,541;    4,955
772,434;10859,833;   -0,631;   -1,864
773,002;11028,933;    0,005;    0,682
773,569;10850,124;    0,914;    1,682
774,137;10692,497;   -0,268;   -0,045
774,705;11256,052;    0,278;   -0,136
775,272;10909,970;    0,641;    0,682
775,840;10868,889;   -0,177;    2,682
776,407;10444,989;    0,277;    1,955
776,975;10108,453;   -0,632;    0,318
777,542;10883,098;   -1,086;   -0,045
778,110;10794,926;   -1,268;   -0,045
778,677;10591,662;   -2,359;   -0,864
779,244;10411,490;    2,186;    1,045
779,812;10486,681;    1,823;    0,864
780,379;10386,418;    0,005;    1,136
780,946;10546,790;    1,005;   -0,773
781,513;10772,072;   -1,450;    0,318
782,080;10309,718;   -0,086;    2,864
782,647;10839,273;   -0,268;    3,045
783,214;10589,464;   -0,177;    3,864
783,781;10318,291;   -0,723;   -0,682
784,348;10289,573;   -0,632;    1,500
784,915;10567,855;   -3,177;    0,318
785,482;10415,501;    1,368;    2,591
786,049;10827,874;    0,186;   -0,591
786,615;10888,792;    0,277;   -0,955
787,182;10677,620;    0,186;   -0,682
787,749;10486,538;   -2,814;    1,409
788,315; 9974,366;   -1,632;   -0,409
788,882;10234,193;    1,550;   -1,227
789,448;10727,475;    1,732;   -0,955
790,015;10719,939;    1,095;    3,227
790,581;10414,312;    1,459;    0,227
791,148;10284,867;    0,641;    1,045
791,714;10479,240;   -0,541;    3,136
792,280;10330,794;    0,186;    1,591
792,847;10113,349;    0,550;    2,500
793,413;10405,176;   -0,269;   -0,318
793,979;10160,368;    3,459;   -1,318
794,545;10261,650;    4,459;    2,682
795,111; 9850,750;    2,186;    1,318
795,678; 9941,850;    0,731;   -1,682
796,244; 9772,041;    3,368;    0,136
796,810;10172,687;    1,731;    0,773
797,375; 9977,151;    0,549;   -2,136
797,941; 9915,614;   -0,541;    0,591
798,507; 9997,351;   -0,451;   -0,955
799,073; 9721,997;   -0,360;    0,591
799,639; 9847,915;   -2,632;    3,136
800,205; 9847,288;    0,095;    2,682
800,770; 9580,570;    0,640;    1,773
801,336; 9543,670;    1,368;   -0,955
801,901; 9464,134;    4,549;    3,136
802,467; 9912,961;   -0,542;    2,045
803,033; 9380,152;   -0,087;    0,864
803,598; 9492,889;    1,913;   -1,045
804,163; 9592,444;    1,095;   -0,318
804,729; 9578,908;   -0,178;    1,136
805,294; 9763,735;    0,822;    2,227
805,859; 9626,562;    0,731;   -0,409
806,425; 9457,844;    1,186;    2,682
806,990; 9186,126;    2,186;    4,318
807,555; 9421,772;   -1,451;    2,591
808,120; 9415,145;    0,822;   -0,409
808,685; 9419,700;    0,185;   -2,500
809,250; 9108,436;    0,004;   -0,500
809,815; 9317,082;    1,913;    0,682
810,380; 9673,000;   -0,269;    1,591
810,945; 9972,828;   -1,087;    2,045
811,510; 9534,928;    2,094;    1,591
812,075; 9277,483;   -0,633;   -1,409
812,640; 9341,310;    2,003;    1,409
813,204; 9429,229;    0,822;   -0,227
813,769; 9815,238;    2,094;   -0,045
814,334; 9402,338;    0,458;    0,864
814,898; 9452,166;    0,367;    0,591
815,463; 9268,538;    1,276;   -0,773
816,027; 9282,184;   -0,724;   -2,318
816,592; 9440,921;    0,640;   -2,045
817,156; 9096,021;    2,094;    1,136
817,721; 9004,394;    4,276;    2,318
818,285; 9037,312;    2,912;    1,500
818,849; 9486,412;   -1,451;    1,682
819,414; 9338,876;   -0,269;    2,955
819,978; 9046,885;   -1,269;    1,773
820,542; 9512,986;    2,003;    0,500
821,106; 9373,086;   -0,815;    0,682
821,670; 9400,004;   -0,815;    2,591
822,234; 9185,286;   -0,270;    1,409
822,798; 8851,568;    0,003;    0,500
823,362; 8962,305;   -0,633;    4,227
823,926; 8515,678;    0,094;    1,136
824,490; 8624,778;   -0,997;   -0,682
825,054; 8908,787;   -0,088;   -1,136
825,618; 8708,524;   -1,542;   -1,500
826,181; 8660,442;    0,458;   -1,318
826,745; 8560,724;    1,367;   -1,045
827,309; 8865,733;    1,185;    1,318
827,872; 8514,197;    1,367;    0,955
828,436; 9182,388;    1,185;   -0,773
828,999; 9342,125;   -0,997;    1,227
829,563; 8604,680;   -0,179;    1,136
830,126; 8436,962;   -0,179;   -0,591
830,690; 8452,334;   -1,997;    2,864
831,253; 8061,798;   -0,543;    2,227
831,816; 8201,898;   -1,906;    0,500
832,380; 8160,090;    0,185;    0,864
832,943; 8328,372;   -1,361;   -0,500
833,506; 8020,563;    2,639;   -1,227
834,069; 8577,663;    3,912;   -0,955
834,632; 8665,218;    1,730;    1,318
835,195; 8578,136;    1,003;    0,955
835,758; 8100,600;   -0,997;    1,955
836,321; 7955,064;    0,730;   -1,045
836,884; 8029,164;   -0,725;   -0,955
837,447; 8137,628;   -2,816;    1,773
838,010; 8271,091;    0,366;    3,227
838,573; 8481,555;   -1,179;    0,773
839,135; 8499,110;   -1,361;   -0,955
839,698; 8095,756;    1,275;    0,409
840,261; 7798,765;    1,003;   -0,227
840,823; 7730,956;   -0,543;    0,864
841,386; 7931,784;   -0,452;   -2,409
841,948; 7914,156;   -1,361;    1,773
842,511; 7697,893;    0,912;    1,682
843,073; 7814,902;    1,912;    0,227
843,636; 7686,184;   -0,361;   -0,227
844,198; 7645,921;    0,911;    0,591
844,760; 7754,476;    1,093;    1,955
845,322; 7472,848;    0,548;    1,136
845,885; 7777,494;    0,730;    0,591
846,447; 8133,413;   -1,998;    0,227
847,009; 7904,149;    1,911;   -0,682
847,571; 8000,704;    0,820;   -2,045
848,133; 8056,349;   -1,089;   -1,864
848,695; 7947,177;   -0,543;    1,409
849,257; 7687,277;   -1,089;   -1,682
849,819; 7861,923;   -0,998;   -0,409
850,381; 7808,477;   -0,725;   -0,864
850,942; 7995,941;    1,093;   -0,591
851,504; 7899,678;    1,184;    0,227
852,066; 7977,596;    1,275;   -1,591
852,628; 7813,878;   -0,180;    1,955
853,189; 7418,888;    1,638;    2,682
853,751; 7587,260;   -0,907;    1,409
854,312; 7445,815;   -0,453;   -1,682
854,874; 7796,643;   -2,089;   -0,773
855,435; 8092,652;   -0,907;   -1,682
855,997; 8199,298;   -1,816;   -0,136
856,558; 7701,670;    0,366;    1,773
857,119; 7765,407;    0,820;    2,864
857,681; 7564,689;    0,002;    0,318
858,242; 7583,516;    1,911;   -2,136
858,803; 7936,162;    0,456;   -0,773
859,364; 8350,717;    0,184;   -4,773
859,925; 7927,908;   -2,453;   -0,955
860,486; 7858,099;   -0,453;   -0,955
861,047; 7642,472;   -0,544;   -1,227
861,608; 7541,663;   -1,089;   -0,773
862,169; 7733,218;    0,638;   -0,045
862,730; 7503,500;    0,456;    1,409
863,291; 7735,145;   -0,635;   -0,500
863,852; 7899,882;   -0,635;    1,955
864,412; 7556,891;   -0,271;   -0,864
864,973; 6718,355;   -0,089;    0,500
865,534; 6667,092;   -1,726;    0,227
866,094; 7568,556;    1,820;    0,227
866,655; 7330,292;    1,274;    3,318
867,215; 7582,392;    0,274;    0,136
867,776; 7513,583;    0,547;   -0,136
868,336; 7537,774;   -1,453;    0,136
868,897; 7326,329;    2,638;    1,682
869,457; 7193,884;    1,365;    0,318
870,017; 7371,711;    0,547;   -1,227
870,578; 7670,448;   -0,817;    0,773
871,138; 7278,003;   -2,089;   -0,955
871,698; 6999,921;   -0,817;   -1,318
872,258; 6902,567;   -0,453;   -2,864
872,818; 7261,485;    2,729;    0,045
873,378; 7270,222;    0,638;    1,045
873,938; 6992,504;    0,547;    0,500
874,498; 7148,149;    0,274;   -1,955
875,058; 7089,886;    2,183;    1,773
875,618; 6983,350;    1,910;   -2,682
876,177; 6975,723;    1,274;    0,136
876,737; 6700,641;   -0,090;    1,955
877,297; 6813,377;    0,183;    1,955
877,856; 6843,387;   -0,362;    0,318
878,416; 6773,669;    1,183;   -0,136
878,976; 6884,860;   -1,817;    0,409
879,535; 7086,869;    0,092;    3,136
880,095; 6953,515;   -0,544;    0,045
880,654; 6934,342;   -1,090;    1,318
881,213; 7075,715;    2,456;    1,500
881,773; 6792,179;    2,637;    2,682
882,332; 7164,916;    3,365;    5,136
882,891; 6985,652;    3,092;    2,136
883,451; 7212,843;   -1,272;    1,682
884,010; 6850,307;   -2,908;   -0,409
884,569; 6959,953;   -0,999;   -0,045
885,128; 7060,507;    2,819;   -1,864
885,687; 7170,608;    4,455;    0,682
886,246; 7027,981;    1,455;    2,136
886,805; 6732,444;    2,455;    2,045
887,364; 6838,908;   -0,999;   -0,500
887,922; 7102,190;   -1,181;    0,045
888,481; 6722,745;   -1,545;    0,591
889,040; 6959,936;    1,183;    2,136
889,599; 7318,491;    2,455;    1,409
890,157; 7402,136;    1,455;    2,409
890,716; 7043,691;   -0,090;    0,227
891,274; 6943,428;    0,092;   -1,136
891,833; 7238,346;    1,546;    0,864
892,391; 7067,446;   -0,454;    0,500
892,950; 7154,365;    1,819;   -0,773
893,508; 7393,738;    0,455;   -0,409
894,067; 6937,110;    0,637;    0,136
894,625; 6913,029;   -0,636;   -1,500
895,183; 7016,493;   -0,363;   -0,682
895,741; 7068,502;    1,728;   -1,773
896,299; 6926,329;   -0,545;   -2,409
896,858; 7004,611;    0,819;   -1,591
897,416; 7123,166;    2,728;   -1,318
897,974; 6999,630;    1,819;    0,318
898,532; 7159,003;    6,091;    2,682
899,089; 7052,467;    2,091;   -0,682
899,647; 7073,658;   -1,454;    1,318
900,205; 7034,576;    1,182;    1,045
900,763; 7127,676;   -0,454;    0,227
901,321; 7185,777;    2,364;   -1,409
901,878; 6775,604;   -1,000;   -0,773
902,436; 6712,977;   -1,363;    1,318
902,994; 7171,077;    4,728;    3,682
903,551; 6733,814;    0,728;    0,409
904,109; 6992,278;    0,182;   -1,409
904,666; 6769,923;    2,455;    1,045
905,224; 6656,932;    0,182;   -0,409
905,781; 6538,942;    0,727;   -0,318
906,338; 6545,406;   -1,363;    1,045
906,895; 6531,778;    0,637;    2,045
907,453; 6514,060;    1,727;    1,136
908,010; 6509,161;   -0,909;    0,409
908,567; 6314,897;    1,273;    0,591
909,124; 5978,907;    0,364;   -1,500
909,681; 6006,825;   -2,909;    0,682
910,238; 6245,107;    0,636;   -1,318
910,795; 6494,480;   -0,273;   -1,136
911,352; 6272,571;   -2,909;   -2,682
911,909; 5906,298;   -1,364;   -0,864
912,466; 6256,571;   -3,182;    1,500
913,022; 5907,843;   -1,636;    0,500
913,579; 6186,389;   -0,909;    2,045
914,136; 6030,753;    1,636;    0,955
914,692; 6281,025;    0,091;   -1,227
915,249; 5953,934;    1,455;    0,409
915,806; 6070,389;    0,182;    1,955
916,362; 6032,298;    1,909;    1,864
916,918; 5695,662;    2,000;    1,045
917,475; 5764,389;   -1,182;    0,955
918,031; 5768,662;    3,364;   -0,045
918,587; 5541,571;   -0,909;   -0,318
919,144; 5736,298;   -2,273;    0,227
919,700; 5859,480;    1,727;    0,773
920,256; 5616,025;    0,727;    0,045
920,812; 5429,662;   -0,727;   -1,045
921,368; 5500,116;   -1,727;   -1,045
921,924; 5269,207;    0,182;   -0,136
922,480; 5033,480;   -0,545;    1,227
923,036; 5426,480;    1,273;    1,955
923,592; 5409,753;    0,455;    0,318
924,148; 5396,298;    0,455;   -0,955
924,704; 5069,934;   -1,364;   -0,409
925,259; 5300,753;   -0,273;    0,591
925,815; 5108,480;    1,455;    0,500
926,371; 4834,843;    2,909;    1,409
926,926; 4819,480;    2,091;    0,591
927,482; 4653,298;   -1,364;    0,773
928,037; 4620,480;    0,909;    2,045
928,593; 4879,843;    1,636;    1,045
929,148; 4738,480;   -1,818;   -1,500
929,704; 4462,389;   -1,455;   -0,500
930,259; 4544,116;    0,091;   -0,136
930,814; 4138,662;   -0,818;    1,955
931,369; 4000,389;    1,091;   -0,773
931,925; 3922,480;   -0,091;    0,136
932,480; 3890,389;   -2,818;   -2,591
933,035; 4053,207;    0,545;   -0,318
933,590; 3883,480;    0,364;   -1,773
934,145; 3609,207;   -1,364;   -0,318
934,700; 3809,298;    0,455;   -0,591
935,255; 3745,116;   -0,091;    0,045
935,809; 3548,116;    3,182;    0,864
936,364; 2991,116;   -0,455;   -0,136
936,919; 3084,571;    0,455;   -1,773
937,474; 3013,753;    1,455;    0,136
938,028; 2927,753;   -1,636;    1,136
938,583; 2892,480;    1,818;    4,682
939,138; 2881,389;    2,091;    2,136
939,692; 2558,116;    1,636;   -1,136
940,247; 2421,298;   -0,727;   -1,045
940,801; 2346,662;   -0,636;    0,227
941,355; 2297,298;   -0,364;    2,591
941,910; 2058,662;   -0,273;   -2,136
942,464; 2163,025;   -0,818;   -0,318
943,018; 2270,298;    1,000;   -0,227
943,572; 2131,025;    2,545;   -0,682
944,126; 1938,116;    0,091;   -0,409
944,681; 1804,934;    3,091;    0,227
945,235; 1765,389;    1,000;   -0,591
945,789; 1727,934;    0,364;   -1,864
946,342; 2021,480;    0,455;   -0,591
946,896; 1724,753;   -2,273;    0,955
947,450; 1601,389;    1,545;   -0,227
948,004; 1899,116;    1,727;   -0,045
948,558; 1757,480;    0,273;   -0,864
949,111; 1699,025;   -0,273;   -0,318
949,665; 1922,753;    1,636;   -0,682
950,219; 1831,298;   -0,091;   -1,045
950,772; 1772,753;   -1,909;    1,864
951,326; 1755,116;    0,545;   -0,955
951,879; 1690,480;    0,727;   -2,318
952,433; 1823,389;    0,000;    2,227
952,986; 1636,298;    2,909;    0,682
953,539; 1564,116;   -0,273;    0,591
954,093; 1532,116;    0,545;   -1,318
954,646; 1684,753;    0,909;    1,318
955,199; 1529,116;    0,000;   -0,500
955,752; 1664,480;   -0,455;    1,773
956,305; 1539,480;   -0,091;    2,955
956,858; 1637,571;    0,818;   -0,318
957,411; 1752,662;   -0,545;    2,136
957,964; 1574,480;    1,364;    2,136
958,517; 1525,025;   -1,545;    3,136
959,070; 1459,843;   -0,455;    1,955
959,623; 1738,662;    1,091;    1,500
960,176; 1595,298;    1,727;    2,045
960,728; 1553,934;   -2,727;    0,773
961,281; 1549,116;    0,545;    0,500
961,834; 1499,389;   -0,909;    0,864
962,386; 1465,843;    1,727;    1,045
962,939; 1398,843;    0,364;   -0,318
963,491; 1485,116;    0,455;    1,136
964,043; 1390,116;    1,182;    2,409
964,596; 1581,662;   -1,000;    2,227
965,148; 1439,934;   -1,000;    1,773
965,700; 1359,662;    1,091;   -0,227
966,253; 1526,298;   -0,636;    0,318
966,805; 1451,480;   -2,273;    0,773
967,357; 1405,207;    1,091;   -1,500
967,909; 1483,934;    0,455;   -1,227
968,461; 1409,753;    0,545;    3,136
969,013; 1361,571;   -0,182;   -0,864
969,565; 1485,480;   -0,455;   -1,136
970,117; 1796,843;   -0,364;    1,045
970,669; 1472,298;    0,182;   -0,136
971,220; 1265,207;   -0,455;   -1,500
971,772; 1291,207;   -0,636;   -0,318
972,324; 1426,480;    0,091;   -0,500
972,876; 1336,843;    0,818;   -0,045
973,427; 1509,662;    1,909;   -1,045
973,979; 1542,843;   -0,727;   -2,500
974,530; 1360,662;    1,818;    1,318
975,082; 1403,389;   -0,545;    1,682
975,633; 1348,934;    1,091;    1,682
976,184; 1489,480;    0,909;    0,773
976,736; 1412,934;    0,091;    0,227
977,287; 1322,571;   -0,909;   -0,500
977,838; 1382,116;    0,909;   -0,318
978,389; 1390,298;   -1,000;   -0,500
978,940; 1226,571;    0,545;   -0,409
979,491; 1247,934;    0,091;   -0,500
980,042; 1309,207;    0,182;    3,045
980,593; 1296,934;   -2,545;    0,227
981,144; 1426,207;    2,545;   -0,500
981,695; 1505,389;    1,455;    1,500
982,246; 1424,298;   -0,273;    1,045
982,797; 1342,298;   -1,727;    0,682
983,347; 1514,025;    0,364;    0,591
983,898; 1735,389;    3,091;    0,409
984,449; 1631,662;    2,182;    0,773
984,999; 1405,298;    1,455;   -1,136
985,550; 1333,934;    0,182;   -0,318
986,100; 1220,934;   -0,455;   -0,318
986,651; 1233,662;   -0,818;    0,045
987,201; 1273,753;   -1,000;   -0,591
987,751; 1307,207;    0,818;    2,864
988,302; 1346,480;    2,636;    1,500
988,852; 1365,116;    0,455;   -1,136
989,402; 1480,934;    0,091;    0,682
989,952; 1461,934;   -2,182;    0,864
990,502; 1363,389;   -0,091;    0,682
991,052; 1257,298;   -0,727;    0,045
991,602; 1240,662;   -2,909;    1,318
992,152; 1307,480;    0,455;    0,682
992,702; 1309,116;    1,364;   -0,045
993,252; 1247,207;   -3,000;   -0,500
993,802; 1369,934;   -0,273;    1,318
994,352; 1417,843;   -1,545;    1,136
994,901; 1370,298;   -0,182;    3,227
995,451; 1351,207;   -0,182;    0,318
996,000; 1390,934;    1,636;    0,318
996,550; 1274,116;    2,273;    0,227
997,100; 1307,207;    1,273;   -0,045
997,649; 1537,843;    2,182;    0,955
998,198; 1276,753;    1,727;   -1,500
998,748; 1461,571;    1,091;   -2,318
999,297; 1343,389;   -0,818;   -0,409
999,846; 1491,934;    1,000;   -0,773
1000,395; 1409,389;   -0,818;    0,500
1000,945; 1514,662;    1,818;   -0,773
1001,494; 1542,843;    2,364;    0,682
1002,043; 1501,298;    4,636;    0,864
1002,592; 1287,298;   -1,091;    1,955
1003,141; 1371,934;   -0,455;   -0,682
1003,690; 1432,389;    1,727;    0,500
1004,238; 1338,298;    1,455;   -0,045
1004,787; 1137,480;    1,364;    1,227
1005,336; 1429,753;    0,364;    0,682
1005,885; 1396,298;    1,364;   -2,773
1006,433; 1417,389;    0,545;    0,955
1006,982; 1673,662;    0,455;    1,682
1007,531; 1481,389;   -1,818;   -0,227
1008,079; 1374,934;   -2,273;    0,500
1008,627; 1399,843;   -1,455;    0,409
1009,176; 1299,934;    0,000;   -1,955
1009,724; 1291,934;    1,091;    0,864
1010,273; 1473,934;    1,273;    0,500
1010,821; 1412,116;    0,091;    1,409
1011,369; 1253,571;   -1,364;    1,318
1011,917; 1268,843;   -1,364;   -0,591
1012,465; 1470,843;    1,273;   -1,591
1013,013; 1471,843;    2,091;   -1,682
1013,561; 1520,662;    0,455;   -0,773
1014,109; 1627,480;   -1,909;    1,682
1014,657; 1486,662;    0,364;    0,591
1015,205; 1423,934;    1,636;   -0,955
1015,753; 1387,207;   -0,545;   -1,409
1016,301; 1471,025;   -2,636;    3,045
1016,848; 1524,480;   -1,273;    0,409
1017,396; 1559,571;    2,545;    0,045
1017,944; 1601,662;    1,182;    1,864
1018,491; 1386,298;    0,273;    1,409
1019,039; 1781,753;    0,455;    0,591
1019,586; 1509,571;   -1,364;    1,682
1020,134; 1521,934;    0,455;    1,500
1020,681; 1581,753;    0,182;   -1,136
1021,228; 1479,753;    2,909;   -2,227
1021,776; 1412,753;    1,182;   -1,136
1022,323; 1698,025;    0,455;    0,773
1022,870; 1605,207;   -1,000;   -0,045
1023,417; 1636,662;    2,636;    1,864
1023,964; 1521,934;    2,636;    1,227
1024,511; 1495,571;    1,000;    0,773
1025,058; 1391,207;    3,182;   -0,045
1025,605; 1385,934;   -2,273;    3,136
1026,152; 1668,753;    1,727;   -0,591
1026,699; 1429,116;    1,818;    1,318
1027,245; 1476,934;   -0,091;    0,318
1027,792; 1505,662;   -1,000;    1,409
1028,339; 1643,753;    2,364;   -0,045
1028,885; 1476,025;    1,000;   -0,227
1029,432; 1414,025;   -0,091;    0,227
1029,978; 1541,116;   -1,000;   -1,591
1030,525; 1461,480;    1,000;    0,409
1031,071; 1467,753;   -1,364;    1,136
1031,618; 1777,480;    0,364;    1,682
1032,164; 1537,662;   -0,091;    3,045
1032,710; 1587,571;    1,636;   -1,500
1033,256; 1500,480;   -0,636;   -0,136
1033,803; 1361,662;   -0,545;    1,500
1034,349; 1181,571;   -1,364;    0,136
1034,895; 1295,116;    0,000;   -0,318
1035,441; 1326,480;   -0,818;    0,318
1035,987; 1385,480;   -2,364;   -0,682
1036,533; 1458,571;   -1,455;   -0,955
1037,078; 1685,662;    1,455;    1,682
1037,624; 1492,662;    2,455;   -0,955
1038,170; 1392,298;    0,455;   -0,318
1038,716; 1430,207;    1,636;   -0,409
1039,261; 1289,207;   -2,273;   -0,773
1039,807; 1287,571;   -0,091;    3,409
1040,352; 1365,025;   -1,909;   -0,318
1040,898; 1365,753;   -1,545;   -0,682
1041,443; 1255,843;   -1,455;   -2,591
1041,989; 1530,843;    1,091;    1,591
1042,534; 1298,116;   -0,364;    2,591
1043,079; 1240,207;    2,909;    0,955
1043,625; 1261,116;    1,818;    0,500
1044,170; 1310,116;   -1,364;    1,045
1044,715; 1571,753;    2,455;    0,955
1045,260; 1407,298;    2,182;   -0,955
1045,805; 1305,753;    1,182;   -0,591
1046,350; 1243,389;    1,364;   -0,409
1046,895; 1405,025;    2,909;    1,591
1047,440; 1403,662;    5,364;    0,409
1047,985; 1244,480;    2,818;   -0,955
1048,530; 1164,025;    1,545;    1,227
1049,074; 1246,480;    0,000;    0,318
1049,619; 1175,389;   -1,364;    1,955
1050,164; 1097,843;    0,455;    0,227
1050,708; 1166,662;   -0,455;    0,045
1051,253; 1556,753;    1,273;   -2,227
1051,797; 1274,298;    0,818;   -1,318
1052,342; 1133,025;   -1,182;    1,045
1052,886; 1206,025;    0,364;   -1,409
1053,430; 1052,207;   -1,364;    0,136
1053,975; 1121,389;   -0,818;   -0,318
1054,519; 1152,934;   -0,727;    3,227
1055,063; 1241,389;    0,909;    1,318
1055,607; 1182,389;   -0,182;    0,227
1056,151; 1180,934;    2,909;    1,682
1056,695; 1051,025;    2,273;   -1,136
1057,239; 1083,843;   -1,727;   -0,682
1057,783; 1134,571;    0,818;   -1,500
1058,327; 1183,389;    0,000;    1,409
1058,871; 1392,389;   -0,545;    1,318
1059,415; 1162,843;   -0,818;   -0,045
1059,958; 1422,025;    1,455;    2,591
1060,502; 1131,480;   -1,000;   -0,773
1061,046;  983,662;    0,364;   -0,955
1061,589;  932,753;   -3,000;   -1,136
1062,133;  871,298;   -1,273;    1,864
1062,676;  898,571;    1,182;    0,864
1063,220;  947,025;    1,091;    0,500
1063,763;  974,662;    0,909;    1,136
1064,306; 1039,025;   -0,909;    1,864
1064,849;  980,025;   -0,909;    0,591
1065,393;  967,025;    2,000;   -1,500
1065,936; 1004,116;    0,182;   -0,409
1066,479;  877,662;   -1,455;    1,318
1067,022;  918,843;   -0,273;   -0,227
1067,565;  853,753;   -0,091;   -1,318
1068,108;  843,389;    0,727;   -0,591
1068,651;  800,753;   -0,636;    1,409
1069,194;  776,116;   -0,455;   -1,682
1069,736;  816,934;   -1,273;    0,955
1070,279;  766,753;   -1,364;   -0,500
1070,822;  880,662;   -2,000;   -0,318
1071,364; 1028,207;   -0,364;    1,318
1071,907;  831,843;   -0,727;    3,227
1072,450;  665,116;    0,000;   -0,045
1072,992;  734,571;   -0,273;    3,136
1073,535;  875,934;    2,091;    2,136
1074,077;  707,116;   -0,727;    2,045
1074,619;  699,934;   -1,364;    0,591
1075,161;  735,298;   -1,091;    1,500
1075,704;  915,843;    1,545;    1,227
1076,246;  701,207;   -0,182;    0,682
1076,788;  612,389;   -0,364;    1,773
1077,330;  651,662;    1,273;    2,136
1077,872;  679,753;    0,909;    0,955
1078,414;  929,753;    2,727;    0,773
1078,956;  697,116;    1,273;   -0,227
1079,498;  936,389;    1,636;    0,318
1080,040;  691,843;    1,909;   -1,318
1080,581;  623,298;    1,636;   -0,318
1081,123;  536,116;    0,091;   -0,773
1081,665;  567,662;   -1,182;   -0,955
1082,206;  855,934;    1,364;   -0,500
1082,748;  741,753;    0,727;    2,045
1083,289;  609,571;   -2,000;    1,318
1083,831;  571,389;   -0,545;    0,227
1084,372;  628,116;    0,000;    0,591
1084,913;  631,025;    1,091;    0,864
1085,455;  558,934;   -1,909;   -2,045
1085,996;  568,934;   -2,273;    0,136
1086,537;  622,389;   -0,091;    0,864
1087,078;  627,207;   -0,909;   -2,136
1087,619;  679,389;   -1,273;    0,227
1088,160;  601,389;    0,000;    1,318
1088,701;  576,571;   -1,091;    0,682
1089,242;  545,207;    1,364;   -2,227
1089,783;  641,025;   -0,273;    1,409
1090,324;  606,843;    0,455;    0,682
1090,865;  500,753;    2,727;   -0,409
1091,405;  457,934;    0,727;    2,227
1091,946;  504,934;    0,182;   -0,955
1092,487;  433,571;    0,818;   -1,409
1093,027;  605,571;   -1,364;   -1,500
1093,568;  494,934;   -0,364;    1,227
1094,108;  575,025;    0,273;    1,773
1094,649;  501,934;   -1,182;    0,136
1095,189;  451,662;   -0,636;   -0,682
1095,729;  445,753;   -0,091;    0,955
1096,269;  425,116;    0,727;   -0,955
1096,810;  691,025;   -1,364;    0,500
1097,350;  569,298;    1,364;   -0,773
1097,890;  482,662;    0,364;    1,227
1098,430;  720,843;    2,364;    2,864
1098,970;  621,298;    2,182;    1,682
1099,510;  461,753;    0,545;   -2,318
1100,050;  424,934;    1,000;   -1,591
1100,589;  423,662;   -0,727;   -0,318
1101,129;  511,753;    0,818;   -0,955
1101,669;  650,843;    1,727;    2,136
1102,209;  509,480;   -0,091;    2,227
1102,748;  466,116;    0,000;    0,955
1103,288;  463,025;    1,273;   -1,227
1103,827;  462,389;    3,091;   -2,227
1104,367;  385,934;   -0,091;   -2,409
1104,906;  365,662;    1,364;   -1,136
1105,445;  432,116;    0,636;   -1,136
1105,985;  394,116;   -0,727;    1,500
1106,524;  427,389;   -1,727;   -0,682
1107,063;  409,662;   -2,727;    1,409
1107,602;  376,025;   -1,909;   -1,500
1108,141;  328,207;   -1,909;    1,500
1108,680;  432,116;   -3,455;   -0,591
1109,219;  369,934;   -0,909;   -0,500
1109,758;  363,298;    0,455;    0,682
1110,297;  353,298;    1,000;   -0,682
1110,836;  305,207;   -0,727;    0,955
1111,375;  428,662;   -2,545;    0,409
1111,913;  453,934;   -1,000;    0,773
1112,452;  399,571;   -0,273;    0,136
1112,991;  305,298;    1,091;    1,955
1113,529;  294,662;   -0,818;   -0,045
1114,068;  342,843;   -0,273;    2,955
1114,606;  268,843;   -0,364;   -0,955
1115,144;  391,116;   -1,273;    1,045
1115,683;  343,571;   -0,727;    0,318
1116,221;  389,025;   -0,455;   -0,864
1116,759;  311,207;    0,636;   -0,864
1117,297;  466,389;    0,000;    1,864
1117,836;  313,934;   -2,182;   -1,227
1118,374;  323,389;    0,182;   -0,682
1118,912;  298,753;    0,909;    2,682
1119,450;  287,207;    1,000;    0,864
1119,988;  311,480;    1,545;    2,136
1120,525;  710,843;    5,091;    3,318
1121,063;  457,025;    1,182;    1,864
1121,601;  302,116;   -0,909;   -1,227
1122,139;  265,389;   -0,727;   -2,045
1122,676;  433,298;   -0,727;    2,773
1123,214;  385,298;   -1,182;    4,409
1123,751;  235,843;    1,727;    2,227
1124,289;  324,389;   -0,091;   -0,409
1124,826;  243,843;    1,727;    0,227
1125,364;  179,025;    1,727;   -0,955
1125,901;  337,662;    1,182;    1,227
1126,438;  403,207;    0,818;    0,955
1126,975;  189,025;   -0,727;   -0,773
1127,513;  243,662;    0,273;    2,136
1128,050;  177,571;    1,636;   -0,682
1128,587;  252,843;    2,000;   -0,227
1129,124;  294,207;    0,091;    1,318
1129,661;  196,298;    0,273;    0,227
1130,198;  321,934;    1,636;    0,773
1130,734;  275,025;    0,182;    1,409
1131,271;  166,025;   -0,909;    0,864
1131,808;  302,571;    2,909;    3,045
1132,345;  215,298;    1,545;    0,318
1132,881;  110,843;   -1,545;   -1,864
1133,418;  221,571;    0,727;   -1,136
1133,954;  171,934;    2,455;   -2,682
1134,491;  229,934;    1,364;   -0,773
1135,027;  152,025;    2,364;    0,864
1135,564;  227,480;    0,273;    2,955
1136,100;  212,025;    0,364;    2,136
1136,636;  132,662;   -1,273;   -1,045
1137,172;  197,116;    0,000;   -1,045
1137,708;  148,025;   -1,364;   -1,045
1138,245;  147,207;    1,273;   -1,227
1138,781;  110,934;    1,091;   -3,318
1139,317;  165,753;    1,273;   -1,409
1139,852;  168,025;    3,091;    0,136
1140,388;  246,843;   -1,182;   -0,409
1140,924;  160,753;   -1,091;   -2,227
1141,460;  119,843;   -1,636;    0,136
1141,996;   83,025;   -1,364;    2,682
1142,531;  109,298;    1,364;    3,318
1143,067;  254,662;    1,182;    1,045
1143,602;  303,934;   -0,091;   -0,318
1144,138;  188,298;   -2,636;    1,045
1144,673;  104,934;   -1,455;    1,409
1145,209;  150,025;   -1,909;   -0,318
1145,744;   85,389;   -0,727;    0,864
1146,279;  178,934;    1,818;   -0,136
1146,815;  129,934;    1,545;   -2,682
1147,350;  159,480;   -1,364;    0,045
1147,885;   96,298;   -0,818;   -1,318
1148,420;   94,298;   -2,273;    0,773
1148,955;   86,207;   -1,727;    1,864
1149,490;  102,934;   -0,909;   -1,591
1150,025;   86,934;    0,455;   -1,773
1150,560;  170,025;    1,091;   -0,955
1151,094;  145,662;    1,455;   -0,591
1151,629;  142,662;    1,636;    0,864
1152,164;   95,025;    1,364;    1,318
1152,698;   71,753;   -0,182;   -0,136
1153,233;   41,480;    0,091;   -0,682
1153,767;   75,207;   -3,000;   -2,318
1154,302;  106,116;   -1,455;    1,773
1154,836;  107,389;   -0,455;   -2,136
1155,371;  139,934;   -1,364;    3,682
1155,905;  102,480;   -0,636;    1,682
1156,439;   85,934;   -0,636;   -0,500
1156,973;  111,571;    0,364;    0,318
1157,507;   68,480;   -0,364;    0,682
1158,042;   89,116;   -0,727;    1,045
1158,576;  121,571;    0,182;    1,773
1159,110;  116,025;   -0,818;    2,409
1159,643;   98,207;    0,636;   -0,045
1160,177;   51,843;   -1,545;    1,500

