
Integration time [ms]:   0,040
Averaging Nr. [scans]: 11
Smoothing Nr. [pixels]: 0
Data measured with spectrometer [name]: 7318044SP
Wave   ;Sample   ;Dark     ;Reference
[nm]   ;[counts] ;[counts] ;[counts] 

186,757;   28,606;   31,551;    1,318
187,357;   57,565;   22,551;    0,955
187,958;   39,648;   15,460;   -1,591
188,558;   83,776;    8,915;   -1,227
189,159;   37,674;    6,733;   -4,500
189,759;   21,726;    7,278;   -3,591
190,360;   17,249;    2,824;   -2,136
190,960;   61,974;    2,915;   -4,136
191,560;   67,680;    3,189;   -6,591
192,161;  303,920;    4,372;   -3,500
192,761;  153,564;    4,010;   -3,227
193,361;  107,480;    1,556;   -3,773
193,962;  153,730;    2,010;   -2,682
194,562;   74,873;    1,189;   -3,955
195,162;  105,559;   -2,448;   -2,227
195,762;  269,861;   -3,176;   -0,045
196,362;  213,480;    1,370;   -2,500
196,963;   78,889;    2,006;   -0,864
197,563;  153,146;    1,551;   -0,955
198,163;  106,847;    0,096;   -0,682
198,763;  123,411;    1,733;   -0,500
199,363;  225,034;    3,096;   -0,500
199,963;  185,775;    0,369;    0,409
200,563;  152,159;    2,823;   -1,409
201,163;  129,108;    3,277;   -0,227
201,763;  226,804;    3,732;    0,318
202,363;  166,282;    1,459;    1,500
202,963;  288,444;    1,459;    1,045
203,563;  390,591;    0,277;    0,500
204,162;  235,707;    2,096;   -1,864
204,762;  225,878;    0,550;    0,591
205,362;  196,651;    3,004;    1,955
205,962;  290,374;    3,096;    1,955
206,562;  289,265;    1,823;    2,318
207,161;  265,368;   -0,087;    0,318
207,761;  414,934;    1,277;    2,409
208,361;  294,173;   -0,268;    1,409
208,960;  399,117;    0,459;    1,500
209,560;  462,533;    1,277;    1,591
210,160;  444,720;    0,550;    1,864
210,759;  419,873;    4,186;    1,227
211,359;  420,898;    1,459;    1,045
211,958;  684,648;    1,277;    2,045
212,558;  768,975;    1,732;    1,864
213,157;  612,327;    1,822;    1,500
213,757; 1059,571;    3,822;   -0,227
214,356;  752,596;    1,277;   -0,409
214,956; 1083,659;    3,095;    0,409
215,555;  717,419;    2,095;    2,136
216,154;  662,815;   -2,723;   -0,591
216,754;  675,803;    0,277;    0,773
217,353;  809,006;   -0,268;   -1,045
217,952;  663,606;   -0,178;    0,318
218,552;  899,431;    1,368;   -0,773
219,151;  810,264;    0,277;    0,955
219,750;  818,263;    0,004;   -0,227
220,349;  954,520;   -0,451;    1,045
220,948; 1006,515;   -1,360;    1,136
221,548; 1039,394;    0,913;    1,227
222,147; 1149,214;   -0,087;   -0,409
222,746; 1446,769;   -0,451;   -0,955
223,345; 1322,709;    0,731;    0,500
223,944; 1325,106;   -0,451;    0,773
224,543; 1497,390;    1,004;   -1,409
225,142; 1602,526;    0,094;    0,136
225,741; 1515,661;   -0,814;    1,045
226,340; 1554,815;   -0,451;   -0,955
226,939; 1999,656;   -0,996;   -0,136
227,538; 1965,130;   -0,360;   -0,773
228,137; 2099,939;   -0,814;    0,864
228,735; 2263,114;   -0,541;    1,227
229,334; 2024,193;   -0,905;   -0,227
229,933; 2404,179;    0,459;    0,591
230,532; 2517,015;    1,186;   -0,409
231,131; 2561,271;    1,732;    0,318
231,729; 2703,694;   -2,450;   -2,318
232,328; 2845,643;   -0,723;   -1,500
232,927; 2935,566;    1,004;   -0,500
233,525; 3075,127;    3,640;    0,045
234,124; 3268,619;    2,368;   -1,591
234,723; 3295,304;    0,913;   -1,045
235,321; 3443,642;    2,277;    0,136
235,920; 3703,427;    1,186;   -1,227
236,518; 3954,947;    3,459;    0,318
237,117; 4151,095;    0,004;   -0,227
237,715; 4319,985;    0,640;   -0,500
238,314; 4349,124;   -0,087;   -2,318
238,912; 4424,247;   -0,723;   -1,409
239,510; 4475,496;    0,459;   -1,227
240,109; 4657,094;    0,004;    3,773
240,707; 4705,911;   -0,996;    1,227
241,305; 5078,168;    0,550;    0,136
241,904; 5290,895;   -0,178;   -2,045
242,502; 5261,641;   -0,632;   -0,227
243,100; 5224,882;   -0,087;   -0,955
243,698; 5460,772;    0,732;    1,682
244,297; 5656,199;   -0,632;    0,682
244,895; 5479,903;   -0,269;   -2,318
245,493; 5822,750;    2,186;   -0,591
246,091; 5865,693;    1,368;   -1,318
246,689; 5874,141;    1,004;    0,591
247,287; 6052,921;    0,822;   -1,136
247,885; 6340,498;   -1,451;    1,227
248,483; 6464,974;    1,822;   -0,500
249,081; 6583,400;    0,185;    1,591
249,679; 6721,499;   -0,178;    1,682
250,277; 6977,001;   -1,723;    0,864
250,875; 6988,070;   -1,087;   -1,045
251,473; 7009,588;   -1,178;    0,500
252,071; 7204,792;    1,459;    1,045
252,669; 7371,742;   -1,814;    0,318
253,267; 7667,041;   -0,087;    0,773
253,864; 7634,012;   -0,360;    0,682
254,462; 7464,571;    1,640;    1,591
255,060; 7441,631;   -0,269;    1,318
255,658; 7804,015;    0,822;   -0,136
256,255; 8198,460;    0,186;   -2,045
256,853; 8041,589;   -0,269;    1,409
257,451; 8066,556;    0,822;    1,864
258,048; 8316,707;    1,822;    1,864
258,646; 8095,292;    1,731;   -1,045
259,243; 8279,680;   -0,087;    2,227
259,841; 8338,534;   -0,814;    0,318
260,438; 8225,744;   -0,087;    0,864
261,036; 8968,692;   -1,905;    1,409
261,633; 8901,118;   -0,087;    2,227
262,231; 8654,120;    2,731;   -0,045
262,828; 8711,013;   -0,905;    1,136
263,425; 8775,695;    0,913;   -0,591
264,023; 9055,085;    0,186;    0,045
264,620; 8585,098;   -0,360;   -0,318
265,217; 8935,930;   -2,087;    3,136
265,815; 9060,660;   -1,905;    2,136
266,412; 8815,033;    0,731;    0,136
267,009; 8840,459;   -1,451;    0,773
267,606; 8729,201;    0,822;   -0,955
268,203; 8748,749;   -0,269;   -0,591
268,801; 9070,404;    1,731;    0,591
269,398; 9394,640;   -0,360;    2,500
269,995; 9332,195;    0,277;    1,591
270,592; 9091,953;   -0,632;   -0,500
271,189; 9324,399;    0,186;    0,409
271,786; 9440,188;   -0,632;    1,227
272,383; 9248,886;   -1,087;    0,227
272,980; 9444,802;    0,277;    0,318
273,577; 9956,243;    0,004;    1,227
274,174; 9502,845;    0,822;    2,591
274,771; 9483,560;   -0,814;   -0,773
275,367; 9610,873;    2,277;    1,409
275,964; 9571,920;    0,731;   -0,500
276,561; 9696,851;    1,549;   -1,045
277,158; 9923,771;    0,095;   -1,773
277,755;10016,945;    2,185;    0,409
278,351; 9414,467;   -0,451;   -1,500
278,948; 9758,089;   -0,815;    0,045
279,545; 9814,048;   -1,360;    2,318
280,141;10412,804;   -1,723;   -2,045
280,738;10254,002;   -0,451;   -0,136
281,334;10530,730;   -1,633;    0,591
281,931; 9907,627;   -0,087;   -1,318
282,528; 9967,811;    0,822;   -0,500
283,124;10696,389;   -1,087;   -0,500
283,721;10639,875;   -0,451;    1,409
284,317;10460,880;    0,185;    2,500
284,913;10982,583;   -1,360;    0,591
285,510;11168,310;    0,640;   -0,318
286,106;11210,743;   -2,269;   -0,955
286,703;10791,856;   -0,360;    1,955
287,299;11053,988;   -1,451;   -0,591
287,895;11243,494;    0,822;   -1,045
288,491;11813,730;    0,186;    2,136
289,088;11542,662;   -2,360;    2,409
289,684;11594,106;   -1,723;    1,500
290,280;11601,513;    0,368;    0,682
290,876;11680,150;    1,822;    5,500
291,472;11583,713;    1,276;    2,227
292,068;11644,483;    1,367;    0,227
292,665;11366,443;    2,095;    0,773
293,261;11003,684;    0,276;    2,136
293,857;11416,683;    2,913;    2,136
294,453;11358,809;    3,550;    0,955
295,049;11214,901;   -0,268;    1,955
295,644;11245,949;    0,095;    0,136
296,240;11153,722;   -0,905;   -0,136
296,836;11214,224;   -0,995;    0,318
297,432;11469,601;    1,096;   -0,500
298,028;11490,029;    0,732;    0,773
298,624;11888,333;    1,459;    1,864
299,220;12202,155;    2,368;    0,591
299,815;11841,475;    1,005;   -0,409
300,411;11649,538;    0,914;    1,773
301,007;11649,193;    1,368;    0,227
301,602;11721,931;   -0,541;   -2,318
302,198;11904,222;    0,732;   -0,773
302,794;12249,468;    1,187;   -0,500
303,389;12363,577;   -1,177;    1,045
303,985;12411,200;    0,550;    1,409
304,580;12372,644;    1,459;    1,591
305,176;12366,233;   -3,086;    0,136
305,771;12302,502;   -1,268;   -1,227
306,367;12141,694;    4,095;    0,136
306,962;12494,113;    0,641;    1,500
307,558;12196,139;   -0,450;    0,136
308,153;12132,421;    1,095;   -1,136
308,748;12382,170;   -0,814;    1,682
309,344;12343,636;   -0,632;   -1,318
309,939;12446,886;   -1,905;   -1,318
310,534;12731,124;   -0,086;   -1,682
311,130;12692,059;    0,459;   -2,500
311,725;12396,471;    1,004;   -0,500
312,320;12742,911;    2,459;    0,045
312,915;12565,403;    1,459;   -1,045
313,510;12629,873;    1,550;   -0,500
314,105;13144,581;    1,096;    1,409
314,700;12561,084;   -3,086;   -1,045
315,295;12190,735;   -0,904;    0,045
315,890;11763,464;    1,277;    0,864
316,485;12101,938;   -0,359;   -0,318
317,080;12257,762;   -3,086;    1,591
317,675;12816,008;    2,005;   -0,682
318,270;12211,980;    5,550;    3,318
318,865;12222,883;    3,278;    3,045
319,460;12045,444;   -0,904;    0,591
320,055;12311,796;   -0,541;   -1,227
320,650;11965,460;   -1,995;   -0,591
321,244;12031,645;   -0,177;   -1,409
321,839;13020,193;   -1,541;   -0,227
322,434;12866,366;   -1,086;   -1,591
323,029;12479,407;    1,732;    1,591
323,623;12316,897;    1,550;    0,773
324,218;12035,728;    2,368;    1,409
324,812;11904,747;    1,096;    1,591
325,407;11714,353;   -0,814;    2,045
326,002;11631,970;    0,277;   -0,409
326,596;11952,975;    0,914;    1,318
327,191;12164,030;    0,823;   -1,045
327,785;11735,429;   -0,813;   -0,227
328,379;11958,335;    1,368;    0,136
328,974;11760,458;    0,914;   -3,955
329,568;11975,512;    0,186;   -2,409
330,163;11795,724;    2,096;    1,045
330,757;12167,469;    2,459;    1,591
331,351;11472,344;    0,459;    0,682
331,945;11772,280;    0,914;    1,409
332,540;11391,441;   -1,723;   -0,591
333,134;11536,631;   -1,086;    0,773
333,728;11791,863;    0,005;    0,318
334,322;12103,355;   -1,177;   -0,864
334,916;11393,121;    0,277;    0,955
335,510;11721,182;   -0,450;   -0,136
336,105;11985,666;   -1,086;    1,591
336,699;11716,641;   -1,086;    0,591
337,293;11630,985;   -1,723;    0,318
337,887;11783,125;   -2,723;    1,955
338,481;11894,285;    0,459;    0,591
339,074;12031,296;   -0,359;    2,682
339,668;11837,324;   -1,632;    1,227
340,262;12067,942;    1,732;    3,227
340,856;11621,695;    1,822;   -0,682
341,450;11008,718;    1,004;    1,864
342,044;11911,349;    1,459;    0,136
342,637;11678,731;    0,913;   -2,136
343,231;11500,257;   -2,360;    0,682
343,825;11480,453;   -1,086;   -0,591
344,419;11461,498;   -1,995;    0,500
345,012;11176,385;    2,459;    4,045
345,606;11231,498;    4,641;    1,591
346,199;11065,632;   -1,813;   -0,227
346,793;10580,660;    1,914;    2,045
347,386;10781,345;   -0,813;   -1,136
347,980;10817,437;   -0,268;   -0,045
348,573;10581,489;    2,278;    0,409
349,167;10245,074;    5,278;    4,773
349,760;10601,391;    2,914;    2,682
350,354;10608,682;   -0,813;    1,136
350,947;10315,024;    1,096;    1,682
351,540;10000,681;   -0,358;   -1,409
352,134; 9947,969;    1,096;    1,136
352,727;10008,589;   -0,086;    1,136
353,320; 9819,032;    0,005;    0,591
353,913; 9677,010;   -1,995;    1,864
354,507; 9864,041;    0,823;   -1,227
355,100; 9835,913;    0,460;    0,864
355,693; 9055,141;    2,005;    2,409
356,286; 9106,054;    0,823;    2,773
356,879; 9485,858;   -0,722;    1,227
357,472; 9090,636;   -0,904;    1,500
358,065; 9285,506;   -0,722;    2,500
358,658; 9200,852;   -0,540;    2,318
359,251; 8850,773;   -1,631;   -0,591
359,844; 8313,851;   -1,904;   -1,136
360,437; 8475,075;   -2,995;    0,045
361,030; 8763,741;    1,369;   -0,682
361,623; 8349,517;    2,824;    0,318
362,215; 8396,429;   -0,086;    2,045
362,808; 8237,284;   -2,358;   -1,682
363,401; 8434,072;   -2,449;    0,136
363,994; 8141,076;   -0,631;   -1,500
364,586; 8094,476;    0,824;   -1,500
365,179; 8287,762;   -0,449;   -1,136
365,772; 7761,328;   -1,995;    2,045
366,364; 8068,038;    1,915;   -3,227
366,957; 8280,847;    2,279;   -0,045
367,549; 8304,988;    2,188;   -0,864
368,142; 7951,472;    1,825;   -1,500
368,734; 8160,016;    0,734;   -2,136
369,327; 8119,991;    1,643;   -0,500
369,919; 8034,303;   -1,538;    0,409
370,512; 7813,041;   -1,083;   -0,500
371,104; 7559,665;   -0,901;    1,591
371,696; 7751,528;    1,191;   -0,955
372,289; 7808,565;    0,373;    1,136
372,881; 7965,933;   -2,080;    1,318
373,473; 7912,001;   -2,170;    1,136
374,066; 7703,664;   -0,169;    0,500
374,658; 7573,725;    0,378;    1,136
375,250; 7918,853;    0,653;   -1,409
375,842; 7764,076;    0,473;   -0,045
376,434; 7636,130;   -0,435;   -0,409
377,026; 8220,686;    0,204;   -2,500
377,618; 8115,704;   -0,158;   -0,682
378,210; 7958,264;   -0,338;   -1,955
378,802; 7795,260;    0,754;   -0,591
379,394; 7763,400;    1,846;    0,682
379,986; 8405,951;    1,393;   -0,955
380,578; 8466,020;   -0,153;    0,773
381,170; 7797,554;   -0,972;    0,045
381,762; 7766,343;    0,755;    1,409
382,354; 7936,910;   -0,065;   -1,318
382,945; 8054,801;   -2,976;    0,318
383,537; 8226,872;   -2,705;   -1,955
384,129; 8248,226;   -2,160;   -1,136
384,721; 8421,179;   -0,252;    0,955
385,312; 8358,904;   -0,161;   -0,955
385,904; 8451,143;   -2,706;    1,591
386,496; 7811,481;   -0,979;    1,045
387,087; 7949,017;    1,022;    2,500
387,679; 8009,930;   -1,160;    0,045
388,270; 8141,335;    2,840;    2,045
388,862; 8249,284;    1,295;   -0,318
389,453; 8141,677;   -0,887;    1,045
390,045; 8404,917;   -0,705;   -2,682
390,636; 8367,902;    0,204;   -0,591
391,227; 8201,292;   -0,523;   -0,045
391,819; 8304,395;    0,204;    0,773
392,410; 8367,601;    1,022;    0,045
393,001; 8303,431;   -0,979;   -1,591
393,593; 8593,646;    1,930;   -0,045
394,184; 8432,898;    1,385;   -0,409
394,775; 8372,391;    1,839;    2,136
395,366; 8578,229;    1,385;    0,773
395,957; 8584,645;    0,113;    0,136
396,548; 8877,986;   -0,342;    2,682
397,139; 9192,651;   -2,433;    0,591
397,730; 8922,457;   -1,888;    0,955
398,321; 8945,331;   -1,252;    0,955
398,912; 9036,503;   -0,615;    0,136
399,503; 9127,887;   -3,524;   -1,409
400,094; 8520,381;    0,294;    1,682
400,685; 8384,248;   -0,433;    0,045
401,276; 8483,654;    0,930;   -0,955
401,867; 8810,134;   -0,888;    0,773
402,458; 8900,973;   -2,251;   -2,318
403,048; 8865,540;    1,112;    0,591
403,639; 8469,078;    0,840;    0,864
404,230; 8749,494;    2,476;    0,318
404,821; 8640,705;   -0,615;    0,045
405,411; 8781,393;    1,203;   -2,591
406,002; 8364,857;   -1,252;   -1,136
406,592; 8192,919;    2,294;    0,045
407,183; 8540,426;    0,566;   -1,500
407,774; 8447,951;    3,475;   -0,136
408,364; 8777,409;    0,930;    0,409
408,954; 8367,989;    0,384;    1,227
409,545; 8430,698;    1,021;    1,045
410,135; 7977,324;    1,293;    0,500
410,726; 8129,753;    1,838;    0,318
411,316; 8506,500;    0,111;    0,773
411,906; 8192,667;   -0,253;   -0,409
412,497; 7659,110;   -1,070;   -0,045
413,087; 8303,550;   -1,980;   -0,227
413,677; 8705,694;   -0,707;    3,864
414,267; 8535,728;    0,656;    1,409
414,857; 8532,856;   -2,980;    4,227
415,448; 8830,886;    0,839;    0,500
416,038; 8512,040;    0,020;   -0,591
416,628; 8495,949;   -0,889;    0,409
417,218; 7937,002;    0,565;    3,318
417,808; 8200,129;    0,202;   -0,409
418,398; 8661,713;    0,020;    2,682
418,988; 8667,348;    2,020;    0,591
419,578; 8949,517;   -0,707;    1,409
420,168; 9298,952;   -1,343;   -0,955
420,757; 8875,464;   -1,343;   -1,500
421,347; 8562,028;    0,111;   -0,227
421,937; 8743,224;    2,292;    1,409
422,527; 8663,485;    0,838;   -0,773
423,116; 8468,194;   -0,253;   -0,045
423,706; 8864,150;   -1,889;    0,318
424,296; 8864,684;    1,384;    0,682
424,885; 9250,320;   -0,071;   -3,045
425,475; 9550,866;    1,474;   -2,864
426,065; 9468,432;   -0,980;   -0,318
426,654; 9082,474;   -0,435;   -0,318
427,244; 9185,923;    0,020;    1,409
427,833; 8629,335;    1,383;   -0,500
428,423; 9161,466;   -0,526;    1,136
429,012; 9943,994;   -0,344;   -1,136
429,601; 9402,294;   -1,344;    0,136
430,191; 9655,713;    1,292;    4,318
430,780; 9285,809;   -0,344;   -0,409
431,369; 9191,028;    0,746;   -0,045
431,959; 9831,727;   -1,254;    0,500
432,548; 9616,959;   -1,163;   -0,045
433,137; 9786,669;   -1,254;   -1,318
433,726;10311,614;    0,292;    0,500
434,315; 9649,364;   -0,526;    2,409
434,905; 9749,459;   -1,254;    1,409
435,494; 9615,642;    0,746;    0,955
436,083;10097,249;   -0,981;   -0,955
436,672; 9967,049;    0,110;    0,500
437,261; 9531,515;    0,292;   -1,955
437,850; 9636,149;    1,383;    0,682
438,439; 9623,070;    3,291;    1,955
439,027; 9454,937;    3,655;    1,773
439,616; 9835,728;    2,927;    1,227
440,205; 9731,670;    0,200;   -2,136
440,794; 9815,759;    2,109;   -0,045
441,383;10092,697;   -1,346;   -0,591
441,971; 9970,764;   -2,436;    0,591
442,560; 9820,670;    0,563;   -1,773
443,149; 9556,063;    0,379;   -1,318
443,737; 9703,440;   -0,074;   -2,318
444,326; 9982,507;    0,018;    0,318
444,915;10019,508;   -1,982;    0,864
445,503;10405,350;   -2,891;   -0,318
446,092; 9657,854;    0,382;    2,136
446,680;10236,036;    0,382;    0,318
447,269;10433,423;   -0,346;   -0,318
447,857;10193,363;    0,018;   -1,773
448,445;10315,347;    0,563;    1,318
449,034;10551,525;   -1,528;   -1,136
449,622;10682,622;   -1,073;    3,500
450,210; 9847,430;    2,017;    2,227
450,799;10419,473;    0,290;   -0,591
451,387;10375,282;    1,381;   -0,591
451,975; 9995,214;    2,654;    0,864
452,563;10055,345;    3,472;    2,318
453,151;10136,249;   -0,528;   -1,227
453,739;10031,377;   -1,347;    0,136
454,328; 9881,265;    2,381;   -2,136
454,916; 9617,122;    2,562;   -0,136
455,504; 9826,972;    1,017;    1,227
456,092; 9996,834;    0,017;   -1,591
456,679; 9997,456;    1,472;    0,682
457,267; 9872,306;    4,017;    1,045
457,855;10068,983;    1,017;    1,409
458,443; 9849,675;   -0,165;    1,682
459,031; 9961,402;    0,108;    2,409
459,619;10453,926;   -1,801;    2,864
460,206;10618,014;    0,835;    2,045
460,794;10680,041;   -2,983;   -0,227
461,382;10873,438;   -0,529;   -0,864
461,970;10479,737;    1,198;    1,864
462,557;10538,485;   -0,711;   -0,682
463,145;10707,567;   -3,165;   -1,682
463,732;10843,672;    2,016;   -1,045
464,320;10771,214;   -0,075;   -3,045
464,907;10456,763;    2,743;   -0,773
465,495;10362,115;    0,743;   -1,227
466,082;10506,865;   -1,984;   -0,045
466,670;10434,526;   -2,529;    1,227
467,257;10865,132;   -1,711;    2,045
467,844;10980,947;   -0,075;    0,045
468,432;11032,549;    0,834;    3,500
469,019;10518,233;    0,925;   -1,773
469,606;10988,467;    0,470;    3,682
470,193;10828,018;   -1,439;    0,227
470,780;10327,990;   -2,075;    0,864
471,368;10730,678;   -1,257;   -0,773
471,955;10524,078;    1,379;   -0,682
472,542;10148,451;    0,652;   -1,136
473,129;10371,173;   -0,166;    0,136
473,716;10093,007;    1,470;    0,591
474,303;10335,656;    0,652;   -0,864
474,890;10628,975;   -1,439;   -0,500
475,477;10614,659;   -1,621;    0,409
476,064;10533,109;    1,106;   -1,591
476,650;10469,768;    0,288;    0,318
477,237;10353,859;   -0,258;    0,955
477,824;10482,928;   -1,076;    0,864
478,411;10531,540;   -1,894;   -0,318
478,997;10732,771;    0,560;   -0,773
479,584;10814,468;    1,196;   -0,409
480,171;11500,304;   -0,440;   -0,773
480,757;11152,865;    2,651;    0,773
481,344;11490,465;    0,469;    0,409
481,931;10999,201;    1,105;    1,045
482,517;12013,539;   -1,258;    0,318
483,104;12574,526;    1,106;    2,864
483,690;12891,454;   -1,804;    0,045
484,276;13353,621;   -0,895;    0,227
484,863;13057,723;    2,469;    1,136
485,449;13672,549;   -0,077;    0,318
486,035;13672,606;   -1,986;   -0,136
486,622;14102,932;   -0,895;    0,045
487,208;14071,985;    1,378;    1,500
487,794;13929,406;    0,741;    0,318
488,380;14044,092;    0,105;   -1,409
488,967;14094,057;   -1,168;   -0,409
489,553;14149,447;   -1,895;   -1,409
490,139;14346,699;    1,559;    0,773
490,725;13783,093;    0,741;   -0,227
491,311;13332,121;    3,287;    3,045
491,897;12647,321;   -0,986;    1,500
492,483;12471,766;    0,105;    1,227
493,069;12109,132;    3,923;    0,864
493,655;12111,917;    1,650;    0,682
494,241;12034,036;    1,377;   -0,955
494,826;12503,077;    0,287;   -1,045
495,412;11943,836;    2,559;   -0,682
495,998;12084,603;   -0,805;   -0,318
496,584;12218,647;    0,377;    1,045
497,169;12210,227;    1,014;   -0,682
497,755;12172,778;    0,650;    1,227
498,341;12738,493;    0,559;    0,318
498,926;12277,468;    1,832;    1,955
499,512;12486,892;    1,286;    2,955
500,097;12653,048;    0,195;   -0,318
500,683;12601,429;   -0,350;    2,136
501,268;12967,747;   -0,169;   -0,955
501,854;12681,333;   -0,169;    1,227
502,439;12572,595;   -0,624;   -1,773
503,024;12788,895;    0,195;    0,500
503,610;12851,455;   -0,078;   -0,682
504,195;12930,100;    0,558;    1,955
504,780;12996,953;    2,922;    1,227
505,366;12801,553;    3,013;    2,864
505,951;12521,352;    0,740;    1,045
506,536;12552,439;   -3,260;   -3,682
507,121;12544,943;    0,285;   -0,318
507,706;13101,507;    2,376;    1,045
508,291;13503,086;    2,649;    1,136
508,876;12962,091;   -0,988;    2,591
509,461;12424,962;   -0,169;   -0,773
510,046;12855,879;    0,194;    0,318
510,631;13060,593;   -0,351;   -0,773
511,216;12745,828;    2,467;   -0,500
511,801;13086,152;   -0,442;    2,591
512,386;13399,337;    0,740;    0,500
512,971;13344,690;   -2,988;    0,955
513,555;12914,814;   -0,897;   -1,500
514,140;13734,344;   -0,442;   -3,136
514,725;13726,689;   -0,715;   -1,136
515,309;13852,289;   -0,533;    0,318
515,894;13312,432;   -0,624;   -2,227
516,479;13750,130;   -0,624;   -0,955
517,063;13554,893;    0,376;    1,227
517,648;13723,463;    1,012;   -1,136
518,232;13402,158;   -0,261;   -1,409
518,817;13709,502;   -0,079;    1,682
519,401;13923,887;    2,194;    0,591
519,985;13449,929;    1,103;    1,136
520,570;13332,981;    0,830;   -1,955
521,154;13625,580;    2,102;    0,591
521,738;13785,478;   -2,352;    2,409
522,323;14368,816;   -0,170;    1,682
522,907;14110,700;    0,466;   -0,136
523,491;13851,809;    0,557;    0,955
524,075;13809,335;    2,284;    0,591
524,659;13893,263;    1,466;    0,591
525,243;13331,956;    1,739;    0,409
525,827;13610,218;    0,648;   -0,045
526,411;14451,990;   -1,989;   -0,136
526,995;14655,474;   -0,352;    1,409
527,579;14237,882;   -0,443;   -1,045
528,163;14550,194;    0,375;   -1,500
528,747;14480,072;    2,466;   -0,773
529,331;14786,620;   -0,080;   -1,409
529,915;15012,057;    1,738;    0,955
530,499;14972,297;   -0,807;    1,227
531,082;14680,688;   -0,534;    1,591
531,666;14090,294;    1,374;    0,773
532,250;14763,143;    1,284;    2,682
532,833;15111,049;    0,920;    2,773
533,417;14979,185;   -1,807;    0,864
534,001;14929,061;    1,647;   -0,318
534,584;15666,131;    0,374;    0,500
535,168;15490,391;    0,465;    1,409
535,751;15571,151;    0,647;    0,045
536,334;15003,569;   -0,898;   -0,409
536,918;15615,947;    0,011;    1,591
537,501;15713,760;   -0,899;    1,318
538,085;15738,621;   -0,444;    1,045
538,668;15893,692;    0,829;    2,409
539,251;16188,763;    1,829;    3,773
539,834;16244,647;    0,101;    0,773
540,418;16113,942;   -1,990;    4,318
541,001;16230,042;   -0,990;    1,773
541,584;16273,024;    2,101;    2,227
542,167;15952,271;    1,374;    2,955
542,750;16138,995;    1,919;   -0,773
543,333;15699,982;    0,555;    2,136
543,916;16496,608;    0,192;    2,500
544,499;17121,364;   -1,354;    0,227
545,082;17120,168;    1,374;    3,591
545,665;17256,333;    1,919;    1,500
546,248;17592,982;    1,010;   -0,318
546,830;17268,374;   -0,445;    1,955
547,413;17671,119;    1,010;   -0,773
547,996;18248,620;    0,555;    0,500
548,579;18009,419;    0,919;    0,955
549,161;17814,678;    1,828;    2,682
549,744;17634,931;   -0,809;    0,409
550,326;18148,398;   -0,809;   -1,136
550,909;17892,815;    2,737;    0,591
551,492;18276,271;   -0,263;    0,227
552,074;18075,987;   -0,173;   -1,318
552,657;18625,597;    2,373;    0,045
553,239;18400,446;   -0,173;   -0,773
553,821;18326,142;   -1,082;    1,045
554,404;17824,832;    1,282;    1,136
554,986;18227,723;    0,464;    1,045
555,568;18807,117;    1,191;   -0,955
556,151;18000,188;    1,191;   -0,227
556,733;18203,238;   -0,264;   -0,864
557,315;18671,343;    0,100;    0,500
557,897;18496,922;    0,554;   -0,500
558,479;18629,512;   -1,991;    1,318
559,061;18768,423;   -0,719;   -0,864
559,643;19099,578;   -0,264;    0,045
560,225;19460,013;    1,645;    2,864
560,807;19481,942;    0,918;    0,318
561,389;19027,582;    0,554;    2,318
561,971;19750,815;    0,463;    2,136
562,553;19520,371;   -1,628;    1,591
563,135;19649,930;   -0,537;    1,136
563,717;19271,437;    3,372;    1,136
564,298;20033,349;    3,645;   -0,045
564,880;19720,398;    0,645;   -1,409
565,462;19925,852;    0,645;    1,318
566,043;21062,774;   -0,446;    2,318
566,625;20604,767;    1,918;    1,227
567,207;20475,787;    1,099;    1,682
567,788;21601,999;   -1,264;    1,500
568,370;22442,029;    1,917;   -0,500
568,951;22273,919;    0,190;    0,227
569,533;23130,932;   -0,628;   -0,500
570,114;23596,406;   -0,446;    0,682
570,695;24108,918;   -0,174;   -1,318
571,277;24637,536;   -0,265;   -1,682
571,858;25393,235;    2,008;   -1,136
572,439;26346,396;    1,554;   -1,045
573,021;26544,207;    2,099;   -2,773
573,602;27039,127;   -1,265;    0,318
574,183;28032,174;   -2,083;    2,227
574,764;28132,851;   -1,629;    0,409
575,345;28685,555;    0,917;   -0,136
575,926;29407,947;   -0,356;    0,136
576,507;29359,757;    1,099;   -0,227
577,088;30476,543;    3,099;    1,682
577,669;30509,173;    0,735;    1,955
578,250;31229,356;    0,644;   -1,045
578,831;31936,350;   -1,356;   -2,227
579,412;32245,152;   -0,810;    0,955
579,993;33171,411;    1,008;    0,227
580,573;33571,086;   -0,629;   -0,955
581,154;32508,847;    0,735;   -0,591
581,735;33300,952;    0,644;    0,773
582,315;32835,498;   -0,629;    2,136
582,896;33136,942;   -0,174;    1,227
583,477;32583,270;    0,189;    1,227
584,057;32791,106;    0,553;    0,955
584,638;33098,684;    2,553;    2,318
585,218;33062,821;   -0,538;    2,682
585,799;33197,805;    0,281;   -0,227
586,379;33204,543;    0,372;    1,591
586,959;31993,421;    0,735;    0,318
587,540;31288,780;   -0,629;    2,227
588,120;30863,347;    1,007;   -0,045
588,700;29793,966;    2,553;    2,136
589,281;30055,840;    0,462;   -0,955
589,861;30053,363;    0,099;   -1,682
590,441;29856,397;    2,371;   -2,682
591,021;28770,587;   -0,265;   -2,591
591,601;29017,624;   -0,537;    0,500
592,181;28982,995;   -0,719;   -0,773
592,761;28299,463;    0,007;    1,409
593,341;28216,382;   -0,901;    0,045
593,921;28190,875;   -0,265;    1,591
594,501;28060,817;   -0,538;    1,318
595,081;27946,713;    0,917;   -0,318
595,661;28229,930;   -1,447;    0,955
596,240;28781,656;   -0,537;    0,136
596,820;28411,754;    0,372;    1,955
597,400;28593,216;    2,008;    0,773
597,980;28850,367;    2,008;    1,045
598,559;28881,562;    2,735;   -0,227
599,139;28585,053;   -0,174;   -1,227
599,718;28505,326;   -0,174;   -0,409
600,298;28717,503;    0,735;    0,682
600,877;28935,840;    2,917;    1,409
601,457;29202,847;    2,281;    1,136
602,036;29099,527;    0,190;    2,045
602,616;29395,361;    0,644;    1,682
603,195;29673,659;   -0,355;    3,500
603,774;29198,572;   -0,901;    2,045
604,354;29125,189;    0,826;   -0,500
604,933;28568,333;    0,463;    1,864
605,512;28704,993;    3,554;    0,591
606,091;28823,493;   -0,537;    3,773
606,671;29607,002;    0,281;    0,773
607,250;28633,015;    1,644;    3,136
607,829;28932,601;    2,372;    3,227
608,408;28773,085;    1,190;    2,591
608,987;27751,531;    1,281;    3,409
609,566;28100,936;   -1,265;   -2,500
610,145;28147,524;   -1,082;    0,682
610,723;28582,399;    4,372;    6,864
611,302;27843,476;   -0,446;    1,682
611,881;27287,434;    5,008;   11,227
612,460;28195,966;    1,645;    3,955
613,039;28644,240;   -0,082;    2,045
613,617;27316,567;    1,736;    4,773
614,196;27516,089;    1,099;    1,227
614,775;27821,740;    1,009;    2,409
615,353;27796,004;    0,736;    0,864
615,932;27502,263;    0,100;    2,409
616,510;28112,007;    0,554;    0,591
617,089;27605,522;    7,100;   17,591
617,667;27359,906;    2,372;    6,136
618,246;27195,228;   -1,537;    1,318
618,824;27388,039;   -3,355;   -0,955
619,402;26963,954;   -2,900;   -1,773
619,981;27466,329;   -0,173;   -1,045
620,559;27356,060;    0,009;    1,682
621,137;26881,791;   -0,718;    1,864
621,715;26828,939;   -1,173;   -0,682
622,293;26784,935;   -0,537;   -0,773
622,871;27227,616;   -0,718;    0,500
623,450;26760,202;    0,373;   -0,864
624,028;26657,450;    0,191;   -0,955
624,606;26305,596;   -1,718;    1,682
625,183;26699,115;   -1,536;   -1,136
625,761;26307,745;    1,009;    1,136
626,339;26631,686;    1,373;    2,591
626,917;27025,162;   -0,172;   -0,045
627,495;27073,758;   -0,354;    1,318
628,073;26464,517;   -0,263;    2,864
628,650;26188,722;    0,100;    2,136
629,228;26615,119;    0,373;    4,409
629,806;26024,098;    2,282;    1,136
630,383;26282,144;    1,464;   -0,318
630,961;26068,676;    2,555;   -0,955
631,539;25792,008;    2,464;    0,227
632,116;25063,494;   11,373;   15,409
632,694;25658,065;    2,555;    6,500
633,271;26013,629;    0,828;    2,682
633,848;25910,351;    1,828;    2,045
634,426;25966,627;   -1,081;    1,773
635,003;25082,829;    1,101;   -0,409
635,580;25401,895;    1,192;    3,682
636,158;25970,852;    3,737;    1,227
636,735;25952,934;    0,555;   -0,500
637,312;26089,622;   -0,809;   -0,682
637,889;26212,291;   -4,354;   -0,682
638,466;25613,586;   -3,990;   -0,409
639,043;25638,895;    2,101;   -1,136
639,620;25989,130;   -2,262;   -0,955
640,197;26297,689;    1,100;    1,682
640,774;26413,659;   -0,172;    1,136
641,351;26885,992;    0,737;    1,136
641,928;26209,507;   -0,627;    1,409
642,505;25854,022;    0,828;   -0,500
643,082;25999,446;   -1,718;    1,227
643,658;25032,325;   -0,718;    1,500
644,235;25773,022;    1,191;    2,500
644,812;26110,173;    1,918;    0,773
645,388;25832,416;   -0,991;    1,409
645,965;25954,022;   -0,809;    1,682
646,542;26011,446;   -1,445;   -0,227
647,118;25938,597;    1,009;   -0,955
647,695;26272,021;   -0,263;    1,136
648,271;26208,627;   -0,536;    0,500
648,848;26502,415;    0,736;    2,227
649,424;26256,294;    0,827;    1,318
650,000;26097,809;   -0,354;   -1,045
650,577;25909,505;   -0,627;   -0,955
651,153;26359,384;   -1,809;    0,955
651,729;27406,263;    1,191;    0,864
652,305;27610,142;    0,645;    2,773
652,881;32010,929;   -0,082;    1,136
653,458;39018,172;    1,100;    0,227
654,034;43135,596;    0,282;    1,591
654,610;44809,293;    0,554;    0,773
655,186;46291,535;    0,645;    3,045
655,762;46001,050;   -0,991;    0,409
656,338;45933,838;    0,100;    0,136
656,913;46985,171;   -0,082;    0,409
657,489;46289,050;    0,827;   -0,318
658,065;46224,474;   -0,173;   -1,591
658,641;46874,716;   -0,900;   -0,864
659,217;46154,958;   -0,991;    0,409
659,792;45578,928;    0,645;   -0,409
660,368;45794,170;   -2,173;   -0,682
660,944;45479,594;   -2,082;    1,227
661,519;40916,746;   -0,628;    0,409
662,095;34822,988;   -1,719;    0,591
662,670;29889,685;    1,281;   -0,136
663,246;28485,927;    1,009;   -0,409
663,821;27720,806;    0,281;    1,682
664,396;27171,594;    0,009;    1,864
664,972;27418,927;    0,009;   -0,500
665,547;27781,260;    1,372;    0,136
666,122;27727,593;   -1,082;    0,318
666,698;28039,563;   -0,173;    0,318
667,273;27416,260;   -0,173;    0,136
667,848;28268,229;    2,372;    1,500
668,423;28051,654;    2,190;    2,318
668,998;28646,623;    2,827;   -0,682
669,573;29161,956;   -3,264;   -1,500
670,148;28970,653;   -1,446;   -0,682
670,723;28784,986;   -1,810;    0,318
671,298;29173,138;    2,372;    1,045
671,873;29346,926;   -0,082;   -0,136
672,448;29323,168;    0,645;    0,136
673,023;29681,047;   -1,992;   -0,227
673,597;29999,562;    0,827;    2,318
674,172;29728,622;   -0,355;    0,318
674,747;29179,955;    0,372;   -1,045
675,321;29080,834;   -0,628;    3,318
675,896;28656,531;    0,645;    1,045
676,471;29676,046;    2,645;    1,591
677,045;29408,016;   -1,264;    0,682
677,620;29514,440;    0,190;    1,136
678,194;29775,591;   -2,628;    1,136
678,769;29298,015;   -1,083;   -0,318
679,343;29545,167;   -0,628;    1,773
679,917;29467,227;   -1,446;    1,955
680,492;29564,288;    0,826;    3,227
681,066;29677,075;    3,372;    0,409
681,640;29732,499;    1,463;   -0,318
682,214;30543,924;    0,735;    0,500
682,788;30042,075;   -1,356;   -0,773
683,363;30006,226;   -1,810;    1,682
683,937;29744,287;   -1,719;   -0,318
684,511;30504,984;    0,463;   -0,591
685,085;30211,590;   -1,356;    0,318
685,659;29949,559;   -2,538;    0,864
686,232;30238,983;   -0,356;   -0,318
686,806;29937,862;   -0,901;    0,409
687,380;30576,650;   -0,174;    0,591
687,954;30770,892;   -1,174;    1,136
688,528;30501,407;   -0,719;    1,955
689,101;31316,377;   -3,992;    1,045
689,675;30886,983;   -0,356;   -0,136
690,249;30276,498;   -0,719;    0,409
690,822;30604,377;    0,280;    0,318
691,396;30701,982;   -0,265;    1,227
691,969;30141,134;    1,280;    0,136
692,543;30608,649;   -0,447;   -1,955
693,116;30251,255;   -0,265;   -1,409
693,690;30104,134;    0,099;    0,500
694,263;30606,649;   -1,083;    2,955
694,836;30653,618;    1,371;    3,591
695,410;29290,588;   -0,265;    1,773
695,983;29776,921;    0,189;    0,591
696,556;29751,163;   -0,447;   -1,045
697,129;30167,678;   -0,356;    1,409
697,703;29779,102;   -1,629;    1,955
698,276;29783,072;    1,462;   -0,773
698,849;29587,678;    1,280;    1,409
699,422;29967,466;   -1,083;    0,591
699,995;29614,890;    0,007;    0,136
700,568;30135,223;   -0,629;    3,045
701,140;30163,920;   -2,811;    1,682
701,713;29878,799;   -0,174;    2,409
702,286;29654,677;   -0,538;    0,864
702,859;29521,920;   -0,902;   -0,591
703,432;28621,435;    0,825;    0,682
704,004;29121,950;    0,462;    0,318
704,577;29012,919;   -0,629;    0,136
705,150;29637,162;    0,189;    2,500
705,722;29406,222;   -0,356;   -3,227
706,295;29148,101;   -0,175;   -0,591
706,867;29014,889;   -0,175;    1,955
707,440;29215,313;   -1,720;   -0,409
708,012;29526,191;    0,462;    0,591
708,584;29437,343;    2,462;    0,227
709,157;29701,767;    1,825;   -0,591
709,729;29341,736;    2,280;    2,045
710,301;30246,615;    0,734;    0,045
710,874;30252,585;   -1,447;   -0,227
711,446;29091,736;    0,371;    0,864
712,018;28959,706;    0,098;    0,500
712,590;28738,403;   -1,993;    1,682
713,162;29281,554;    0,825;    1,318
713,734;29532,614;    1,825;   -2,045
714,306;29372,220;   -1,902;   -0,409
714,878;28096,281;    0,825;    0,864
715,450;28942,887;    0,643;    0,864
716,022;29161,038;    1,552;    1,318
716,593;29284,372;    0,189;    0,591
717,165;29275,977;   -3,175;   -1,227
717,737;28928,493;    0,280;    0,409
718,309;28649,826;    0,280;   -0,045
718,880;28583,977;   -0,539;   -1,409
719,452;28861,947;   -0,175;   -1,591
720,024;28397,825;    0,734;   -0,591
720,595;28968,886;   -2,902;    0,955
721,167;28479,128;    0,370;   -2,045
721,738;28028,825;   -0,812;   -1,045
722,309;27947,976;   -0,993;   -1,227
722,881;27704,673;   -1,357;    0,773
723,452;28373,552;   -2,630;    2,864
724,023;28607,249;   -0,721;    2,682
724,595;28342,946;    0,007;    0,682
725,166;28102,552;    0,007;   -0,409
725,737;27727,339;    1,734;    0,227
726,308;27818,400;   -0,266;    0,318
726,879;28277,279;   -1,630;    1,227
727,450;28123,885;    0,552;   -0,045
728,021;28115,672;    3,097;    0,682
728,592;27858,278;    0,734;    0,500
729,163;28193,884;    0,643;   -0,136
729,734;28197,217;    0,188;   -0,227
730,305;28588,732;    1,734;    0,136
730,876;28930,157;    0,188;    2,955
731,447;28595,399;    2,188;    2,682
732,017;28735,641;    1,097;    1,864
732,588;28190,065;    0,734;    1,227
733,159;28415,944;    0,643;   -1,045
733,729;28231,005;    0,006;    0,409
734,300;27506,792;    0,915;    0,864
734,870;27930,762;    3,461;    0,591
735,441;28475,004;    0,370;   -0,591
736,011;28256,883;    0,643;   -1,591
736,582;28263,398;   -0,812;    0,045
737,152;27708,822;   -1,721;   -2,045
737,722;28123,155;   -0,267;   -0,682
738,293;27853,216;   -1,358;    1,318
738,863;27748,549;    2,461;    2,318
739,433;27536,519;    5,279;    0,318
740,003;28165,397;   -0,994;   -0,682
740,573;27535,549;    2,097;   -1,591
741,143;27517,882;   -1,085;    0,318
741,713;28297,306;    1,188;   -0,500
742,283;27991,276;    0,915;    1,591
742,853;27735,427;    1,915;    1,591
743,423;27200,578;    1,733;    0,045
743,993;27361,275;   -0,358;    1,500
744,563;26702,518;    0,097;   -0,864
745,133;26675,487;   -0,812;   -0,864
745,702;27378,548;   -0,267;    1,773
746,272;26579,790;   -0,176;    0,591
746,842;26329,487;   -1,358;   -0,591
747,411;26779,366;   -0,267;   -0,318
747,981;26978,335;    0,097;    0,500
748,551;27005,032;    2,278;   -1,045
749,120;26851,729;    0,642;   -0,227
749,690;27183,608;   -0,631;    2,409
750,259;27554,759;    1,369;    2,955
750,828;27453,910;    1,551;   -1,955
751,398;27734,425;    1,278;   -0,045
751,967;27227,486;    2,187;    0,409
752,536;27481,183;   -0,813;   -0,227
753,105;27867,789;    0,096;    0,227
753,675;27717,395;    0,096;    1,773
754,244;27623,273;   -0,904;    3,591
754,813;27650,425;    0,551;    1,227
755,382;27285,485;    0,460;    0,955
755,951;27845,909;    1,551;    3,682
756,520;27329,424;   -0,085;    1,864
757,089;27886,758;    0,278;    0,500
757,658;28097,636;    1,733;    1,227
758,227;28031,151;    1,096;    0,318
758,795;28374,030;    1,187;    1,136
759,364;28619,090;   -0,086;   -0,591
759,933;27658,787;   -1,176;   -0,045
760,501;27152,575;    0,733;   -1,318
761,070;27668,090;   -2,813;   -1,409
761,639;28352,787;   -1,904;    1,318
762,207;27690,666;    1,551;   -0,955
762,776;27589,363;    0,369;    0,864
763,344;27571,787;   -0,995;    0,591
763,913;26721,302;   -0,722;    1,409
764,481;27430,726;    1,005;   -0,136
765,049;27200,423;   -1,358;    1,409
765,618;27111,029;   -0,086;    0,318
766,186;27244,544;    0,278;    0,136
766,754;27388,422;    0,005;    1,864
767,322;26366,028;   -1,995;    0,409
767,890;26419,634;   -0,722;   -1,773
768,459;26834,240;   -2,177;   -0,318
769,027;26954,664;    1,641;    3,409
769,595;25878,816;    3,278;    2,591
770,163;26346,876;    3,823;    2,955
770,730;26130,937;    0,732;   -0,136
771,298;25983,452;    0,187;   -1,409
771,866;26009,330;   -1,541;    4,955
772,434;26362,300;   -0,631;   -1,864
773,002;26525,361;    0,005;    0,682
773,569;26150,512;    0,914;    1,682
774,137;26010,118;   -0,268;   -0,045
774,705;26821,906;    0,278;   -0,136
775,272;26295,148;    0,641;    0,682
775,840;26000,572;   -0,177;    2,682
776,407;25582,269;    0,277;    1,955
776,975;25239,329;   -0,632;    0,318
777,542;26228,663;   -1,086;   -0,045
778,110;25969,632;   -1,268;   -0,045
778,677;25692,511;   -2,359;   -0,864
779,244;25456,753;    2,186;    1,045
779,812;25539,814;    1,823;    0,864
780,379;25447,329;    0,005;    1,136
780,946;25693,935;    1,005;   -0,773
781,513;25988,359;   -1,450;    0,318
782,080;25352,783;   -0,086;    2,864
782,647;26127,843;   -0,268;    3,045
783,214;25695,359;   -0,177;    3,864
783,781;25252,874;   -0,723;   -0,682
784,348;25170,298;   -0,632;    1,500
784,915;25663,176;   -3,177;    0,318
785,482;25405,146;    1,368;    2,591
786,049;25815,934;    0,186;   -0,591
786,615;25962,085;    0,277;   -0,955
787,182;25721,237;    0,186;   -0,682
787,749;25379,297;   -2,814;    1,409
788,315;24631,812;   -1,632;   -0,409
788,882;24970,782;    1,550;   -1,227
789,448;25644,842;    1,732;   -0,955
790,015;25699,994;    1,095;    3,227
790,581;25300,418;    1,459;    0,227
791,148;25218,660;    0,641;    1,045
791,714;25422,720;   -0,541;    3,136
792,280;25058,508;    0,186;    1,591
792,847;24613,478;    0,550;    2,500
793,413;25216,811;   -0,269;   -0,318
793,979;24665,417;    3,459;   -1,318
794,545;24793,750;    4,459;    2,682
795,111;24186,356;    2,186;    1,318
795,678;24387,326;    0,731;   -1,682
796,244;24076,659;    3,368;    0,136
796,810;24596,447;    1,731;    0,773
797,375;24269,598;    0,549;   -2,136
797,941;24283,295;   -0,541;    0,591
798,507;24494,083;   -0,451;   -0,955
799,073;24030,871;   -0,360;    0,591
799,639;24053,567;   -2,632;    3,136
800,205;24103,082;    0,095;    2,682
800,770;23646,598;    0,640;    1,773
801,336;23762,840;    1,368;   -0,955
801,901;23405,446;    4,549;    3,136
802,467;23960,870;   -0,542;    2,045
803,033;23317,112;   -0,087;    0,864
803,598;23560,173;    1,913;   -1,045
804,163;23573,688;    1,095;   -0,318
804,729;23493,385;   -0,178;    1,136
805,294;23940,354;    0,822;    2,227
805,859;23728,687;    0,731;   -0,409
806,425;23167,566;    1,186;    2,682
806,990;22839,627;    2,186;    4,318
807,555;23361,960;   -1,451;    2,591
808,120;23222,020;    0,822;   -0,409
808,685;23302,990;    0,185;   -2,500
809,250;22817,505;    0,004;   -0,500
809,815;23094,747;    1,913;    0,682
810,380;23643,444;   -0,269;    1,591
810,945;24189,414;   -1,087;    2,045
811,510;23357,292;    2,094;    1,591
812,075;23065,444;   -0,633;   -1,409
812,640;23082,959;    2,003;    1,409
813,204;23157,565;    0,822;   -0,227
813,769;23649,443;    2,094;   -0,045
814,334;23062,504;    0,458;    0,864
814,898;23116,564;    0,367;    0,591
815,463;22995,079;    1,276;   -0,773
816,027;22907,685;   -0,724;   -2,318
816,592;22983,291;    0,640;   -2,045
817,156;22501,988;    2,094;    1,136
817,721;22351,594;    4,276;    2,318
818,285;22311,927;    2,912;    1,500
818,849;22936,442;   -1,451;    1,682
819,414;22874,685;   -0,269;    2,955
819,978;22512,382;   -1,269;    1,773
820,542;23069,624;    2,003;    0,500
821,106;22717,412;   -0,815;    0,682
821,670;22832,018;   -0,815;    2,591
822,234;22627,169;   -0,270;    1,409
822,798;21947,866;    0,003;    0,500
823,362;21858,563;   -0,633;    4,227
823,926;21135,351;    0,094;    1,136
824,490;21374,320;   -0,997;   -0,682
825,054;21868,926;   -0,088;   -1,136
825,618;21464,987;   -1,542;   -1,500
826,181;21421,593;    0,458;   -1,318
826,745;21336,744;    1,367;   -1,045
827,309;21663,259;    1,185;    1,318
827,872;21019,138;    1,367;    0,955
828,436;22013,925;    1,185;   -0,773
828,999;22074,986;   -0,997;    1,227
829,563;20890,955;   -0,179;    1,136
830,126;20698,925;   -0,179;   -0,591
830,690;20697,440;   -1,997;    2,864
831,253;20209,864;   -0,543;    2,227
831,816;20356,834;   -1,906;    0,500
832,380;20285,167;    0,185;    0,864
832,943;20547,228;   -1,361;   -0,500
833,506;19955,106;    2,639;   -1,227
834,069;20752,985;    3,912;   -0,955
834,632;20858,409;    1,730;    1,318
835,195;20752,833;    1,003;    0,955
835,758;19948,894;   -0,997;    1,955
836,321;19789,954;    0,730;   -1,045
836,884;19877,378;   -0,725;   -0,955
837,447;19935,439;   -2,816;    1,773
838,010;20158,772;    0,366;    3,227
838,573;20487,287;   -1,179;    0,773
839,135;20446,438;   -1,361;   -0,955
839,698;19879,044;    1,275;    0,409
840,261;19407,741;    1,003;   -0,227
840,823;19261,620;   -0,543;    0,864
841,386;19501,135;   -0,452;   -2,409
841,948;19400,559;   -1,361;    1,773
842,511;19172,801;    0,912;    1,682
843,073;19265,135;    1,912;    0,227
843,636;19094,468;   -0,361;   -0,227
844,198;19044,256;    0,911;    0,591
844,760;19129,680;    1,093;    1,955
845,322;18783,286;    0,548;    1,136
845,885;19179,892;    0,730;    0,591
846,447;19630,043;   -1,998;    0,227
847,009;19212,194;    1,911;   -0,682
847,571;19535,619;    0,820;   -2,045
848,133;19647,952;   -1,089;   -1,864
848,695;19499,376;   -0,543;    1,409
849,257;19024,346;   -1,089;   -1,682
849,819;19188,497;   -0,998;   -0,409
850,381;19256,012;   -0,725;   -0,864
850,942;19617,618;    1,093;   -0,591
851,504;19548,951;    1,184;    0,227
852,066;19627,375;    1,275;   -1,591
852,628;19156,436;   -0,180;    1,955
853,189;18714,224;    1,638;    2,682
853,751;18827,920;   -0,907;    1,409
854,312;18602,617;   -0,453;   -1,682
854,874;19117,860;   -2,089;   -0,773
855,435;19625,284;   -0,907;   -1,682
855,997;19813,799;   -1,816;   -0,136
856,558;19118,950;    0,366;    1,773
857,119;19209,556;    0,820;    2,864
857,681;18903,708;    0,002;    0,318
858,242;18919,495;    1,911;   -2,136
858,803;19386,283;    0,456;   -0,773
859,364;19932,707;    0,184;   -4,773
859,925;19250,859;   -2,453;   -0,955
860,486;19136,101;   -0,453;   -0,955
861,047;18870,070;   -0,544;   -1,227
861,608;18653,313;   -1,089;   -0,773
862,169;18804,010;    0,638;   -0,045
862,730;18562,979;    0,456;    1,409
863,291;18821,767;   -0,635;   -0,500
863,852;19177,009;   -0,635;    1,955
864,412;18649,524;   -0,271;   -0,864
864,973;17222,130;   -0,089;    0,500
865,534;17095,282;   -1,726;    0,227
866,094;18634,524;    1,820;    0,227
866,655;18280,585;    1,274;    3,318
867,215;18528,190;    0,274;    0,136
867,776;18372,251;    0,547;   -0,136
868,336;18471,857;   -1,453;    0,136
868,897;17943,645;    2,638;    1,682
869,457;17689,069;    1,365;    0,318
870,017;17892,857;    0,547;   -1,227
870,578;18469,281;   -0,817;    0,773
871,138;18116,614;   -2,089;   -0,955
871,698;17640,765;   -0,817;   -1,318
872,258;17539,280;   -0,453;   -2,864
872,818;17884,795;    2,729;    0,045
873,378;17845,038;    0,638;    1,045
873,938;17419,916;    0,547;    0,500
874,498;17788,704;    0,274;   -1,955
875,058;17668,674;    2,183;    1,773
875,618;17504,098;    1,910;   -2,682
876,177;17442,613;    1,274;    0,136
876,737;17049,037;   -0,090;    1,955
877,297;17010,098;    0,183;    1,955
877,856;17023,067;   -0,362;    0,318
878,416;16933,219;    1,183;   -0,136
878,976;17216,825;   -1,817;    0,409
879,535;17369,976;    0,092;    3,136
880,095;17102,491;   -0,544;    0,045
880,654;17236,551;   -1,090;    1,318
881,213;17338,430;    2,456;    1,500
881,773;16950,582;    2,637;    2,682
882,332;17288,642;    3,365;    5,136
882,891;17175,612;    3,092;    2,136
883,451;17636,945;   -1,272;    1,682
884,010;17088,460;   -2,908;   -0,409
884,569;17143,339;   -0,999;   -0,045
885,128;17275,672;    2,819;   -1,864
885,687;17338,823;    4,455;    0,682
886,246;17014,156;    1,455;    2,136
886,805;16817,126;    2,455;    2,045
887,364;17120,914;   -0,999;   -0,500
887,922;17488,792;   -1,181;    0,045
888,481;16970,762;   -1,545;    0,591
889,040;17267,368;    1,183;    2,136
889,599;18014,701;    2,455;    1,409
890,157;18039,398;    1,455;    2,409
890,716;17732,368;   -0,090;    0,227
891,274;17551,701;    0,092;   -1,136
891,833;17956,580;    1,546;    0,864
892,391;17882,640;   -0,454;    0,500
892,950;17930,882;    1,819;   -0,773
893,508;18313,397;    0,455;   -0,409
894,067;17630,185;    0,637;    0,136
894,625;17573,427;   -0,636;   -1,500
895,183;17828,033;   -0,363;   -0,682
895,741;17676,548;    1,728;   -1,773
896,299;17498,973;   -0,545;   -2,409
896,858;17693,669;    0,819;   -1,591
897,416;17813,548;    2,728;   -1,318
897,974;17568,700;    1,819;    0,318
898,532;17698,851;    6,091;    2,682
899,089;17588,366;    2,091;   -0,682
899,647;17643,790;   -1,454;    1,318
900,205;17307,032;    1,182;    1,045
900,763;17567,002;   -0,454;    0,227
901,321;17571,426;    2,364;   -1,409
901,878;17070,487;   -1,000;   -0,773
902,436;16920,365;   -1,363;    1,318
902,994;17263,789;    4,728;    3,682
903,551;16669,214;    0,728;    0,409
904,109;17089,365;    0,182;   -1,409
904,666;16652,425;    2,455;    1,045
905,224;16497,122;    0,182;   -0,409
905,781;16251,910;    0,727;   -0,318
906,338;16308,425;   -1,363;    1,045
906,895;16274,031;    0,637;    2,045
907,453;16198,546;    1,727;    1,136
908,010;16207,516;   -0,909;    0,409
908,567;15864,303;    1,273;    0,591
909,124;15373,637;    0,364;   -1,500
909,681;15432,970;   -2,909;    0,682
910,238;15565,121;    0,636;   -1,318
910,795;15863,182;   -0,273;   -1,136
911,352;15464,091;   -2,909;   -2,682
911,909;14903,182;   -1,364;   -0,864
912,466;15401,818;   -3,182;    1,500
913,022;14970,727;   -1,636;    0,500
913,579;15316,000;   -0,909;    2,045
914,136;14987,182;    1,636;    0,955
914,692;15371,727;    0,091;   -1,227
915,249;14938,000;    1,455;    0,409
915,806;15172,091;    0,182;    1,955
916,362;14882,545;    1,909;    1,864
916,918;14443,818;    2,000;    1,045
917,475;14435,364;   -1,182;    0,955
918,031;14527,182;    3,364;   -0,045
918,587;13965,636;   -0,909;   -0,318
919,144;14171,818;   -2,273;    0,227
919,700;14500,000;    1,727;    0,773
920,256;14110,636;    0,727;    0,045
920,812;13709,909;   -0,727;   -1,045
921,368;13706,909;   -1,727;   -1,045
921,924;13342,909;    0,182;   -0,136
922,480;12906,091;   -0,545;    1,227
923,036;13521,000;    1,273;    1,955
923,592;13462,364;    0,455;    0,318
924,148;13329,727;    0,455;   -0,955
924,704;12657,182;   -1,364;   -0,409
925,259;12972,636;   -0,273;    0,591
925,815;12692,091;    1,455;    0,500
926,371;12182,909;    2,909;    1,409
926,926;12044,000;    2,091;    0,591
927,482;11665,727;   -1,364;    0,773
928,037;11564,000;    0,909;    2,045
928,593;11832,545;    1,636;    1,045
929,148;11665,818;   -1,818;   -1,500
929,704;11184,364;   -1,455;   -0,500
930,259;11376,091;    0,091;   -0,136
930,814;10443,909;   -0,818;    1,955
931,369;10097,364;    1,091;   -0,773
931,925;10018,273;   -0,091;    0,136
932,480; 9890,455;   -2,818;   -2,591
933,035; 9761,909;    0,545;   -0,318
933,590; 9534,636;    0,364;   -1,773
934,145; 9170,545;   -1,364;   -0,318
934,700; 9543,091;    0,455;   -0,591
935,255; 9336,545;   -0,091;    0,045
935,809; 8579,455;    3,182;    0,864
936,364; 7704,091;   -0,455;   -0,136
936,919; 7651,091;    0,455;   -1,773
937,474; 7525,273;    1,455;    0,136
938,028; 7264,545;   -1,636;    1,136
938,583; 6743,545;    1,818;    4,682
939,138; 7035,545;    2,091;    2,136
939,692; 6451,727;    1,636;   -1,136
940,247; 6159,545;   -0,727;   -1,045
940,801; 5707,273;   -0,636;    0,227
941,355; 5571,545;   -0,364;    2,591
941,910; 5214,909;   -0,273;   -2,136
942,464; 5319,545;   -0,818;   -0,318
943,018; 5106,091;    1,000;   -0,227
943,572; 5069,364;    2,545;   -0,682
944,126; 4450,909;    0,091;   -0,409
944,681; 4361,182;    3,091;    0,227
945,235; 4331,182;    1,000;   -0,591
945,789; 4287,091;    0,364;   -1,864
946,342; 4373,909;    0,455;   -0,591
946,896; 4177,000;   -2,273;    0,955
947,450; 3923,636;    1,545;   -0,227
948,004; 4107,455;    1,727;   -0,045
948,558; 4117,273;    0,273;   -0,864
949,111; 4048,273;   -0,273;   -0,318
949,665; 4066,273;    1,636;   -0,682
950,219; 3933,364;   -0,091;   -1,045
950,772; 4040,364;   -1,909;    1,864
951,326; 3910,909;    0,545;   -0,955
951,879; 4027,000;    0,727;   -2,318
952,433; 4030,091;    0,000;    2,227
952,986; 3881,636;    2,909;    0,682
953,539; 3840,727;   -0,273;    0,591
954,093; 3777,727;    0,545;   -1,318
954,646; 3903,273;    0,909;    1,318
955,199; 3710,091;    0,000;   -0,500
955,752; 3591,273;   -0,455;    1,773
956,305; 3552,909;   -0,091;    2,955
956,858; 3736,636;    0,818;   -0,318
957,411; 3901,455;   -0,545;    2,136
957,964; 3737,636;    1,364;    2,136
958,517; 3739,091;   -1,545;    3,136
959,070; 3567,909;   -0,455;    1,955
959,623; 3619,091;    1,091;    1,500
960,176; 3389,818;    1,727;    2,045
960,728; 3357,818;   -2,727;    0,773
961,281; 3419,727;    0,545;    0,500
961,834; 3464,818;   -0,909;    0,864
962,386; 3384,818;    1,727;    1,045
962,939; 3284,455;    0,364;   -0,318
963,491; 3441,455;    0,455;    1,136
964,043; 3320,182;    1,182;    2,409
964,596; 3451,091;   -1,000;    2,227
965,148; 3287,818;   -1,000;    1,773
965,700; 3206,364;    1,091;   -0,227
966,253; 3346,455;   -0,636;    0,318
966,805; 3187,727;   -2,273;    0,773
967,357; 3251,909;    1,091;   -1,500
967,909; 3200,000;    0,455;   -1,227
968,461; 3308,909;    0,545;    3,136
969,013; 3256,182;   -0,182;   -0,864
969,565; 3325,364;   -0,455;   -1,136
970,117; 3357,182;   -0,364;    1,045
970,669; 3214,818;    0,182;   -0,136
971,220; 3085,273;   -0,455;   -1,500
971,772; 3018,455;   -0,636;   -0,318
972,324; 3110,182;    0,091;   -0,500
972,876; 3084,364;    0,818;   -0,045
973,427; 3216,545;    1,909;   -1,045
973,979; 3176,545;   -0,727;   -2,500
974,530; 3221,545;    1,818;    1,318
975,082; 3223,273;   -0,545;    1,682
975,633; 3104,091;    1,091;    1,682
976,184; 3235,364;    0,909;    0,773
976,736; 3033,091;    0,091;    0,227
977,287; 2836,818;   -0,909;   -0,500
977,838; 3034,273;    0,909;   -0,318
978,389; 3080,273;   -1,000;   -0,500
978,940; 2969,000;    0,545;   -0,409
979,491; 3008,091;    0,091;   -0,500
980,042; 2951,091;    0,182;    3,045
980,593; 3018,909;   -2,545;    0,227
981,144; 3057,000;    2,545;   -0,500
981,695; 3022,000;    1,455;    1,500
982,246; 2974,909;   -0,273;    1,045
982,797; 3139,909;   -1,727;    0,682
983,347; 3249,636;    0,364;    0,591
983,898; 3409,364;    3,091;    0,409
984,449; 3219,455;    2,182;    0,773
984,999; 3145,273;    1,455;   -1,136
985,550; 2935,818;    0,182;   -0,318
986,100; 2948,545;   -0,455;   -0,318
986,651; 3008,364;   -0,818;    0,045
987,201; 2957,818;   -1,000;   -0,591
987,751; 3056,364;    0,818;    2,864
988,302; 3022,364;    2,636;    1,500
988,852; 3057,455;    0,455;   -1,136
989,402; 3101,364;    0,091;    0,682
989,952; 3013,636;   -2,182;    0,864
990,502; 3112,273;   -0,091;    0,682
991,052; 3087,364;   -0,727;    0,045
991,602; 2966,273;   -2,909;    1,318
992,152; 2972,636;    0,455;    0,682
992,702; 2942,818;    1,364;   -0,045
993,252; 2863,909;   -3,000;   -0,500
993,802; 2947,182;   -0,273;    1,318
994,352; 3185,909;   -1,545;    1,136
994,901; 3286,273;   -0,182;    3,227
995,451; 3199,909;   -0,182;    0,318
996,000; 3294,273;    1,636;    0,318
996,550; 2995,091;    2,273;    0,227
997,100; 2998,727;    1,273;   -0,045
997,649; 3270,909;    2,182;    0,955
998,198; 2915,364;    1,727;   -1,500
998,748; 3091,455;    1,091;   -2,318
999,297; 3017,364;   -0,818;   -0,409
999,846; 3073,273;    1,000;   -0,773
1000,395; 3110,636;   -0,818;    0,500
1000,945; 3058,182;    1,818;   -0,773
1001,494; 3150,091;    2,364;    0,682
1002,043; 3147,364;    4,636;    0,864
1002,592; 2992,545;   -1,091;    1,955
1003,141; 3139,727;   -0,455;   -0,682
1003,690; 2993,455;    1,727;    0,500
1004,238; 3076,818;    1,455;   -0,045
1004,787; 2715,727;    1,364;    1,227
1005,336; 2944,818;    0,364;    0,682
1005,885; 3102,909;    1,364;   -2,773
1006,433; 3238,273;    0,545;    0,955
1006,982; 3274,000;    0,455;    1,682
1007,531; 3211,636;   -1,818;   -0,227
1008,079; 3154,818;   -2,273;    0,500
1008,627; 3314,818;   -1,455;    0,409
1009,176; 3063,727;    0,000;   -1,955
1009,724; 3110,636;    1,091;    0,864
1010,273; 3141,182;    1,273;    0,500
1010,821; 3266,182;    0,091;    1,409
1011,369; 2986,091;   -1,364;    1,318
1011,917; 2955,909;   -1,364;   -0,591
1012,465; 3258,909;    1,273;   -1,591
1013,013; 3393,909;    2,091;   -1,682
1013,561; 3253,091;    0,455;   -0,773
1014,109; 3281,455;   -1,909;    1,682
1014,657; 3178,182;    0,364;    0,591
1015,205; 3304,636;    1,636;   -0,955
1015,753; 3344,182;   -0,545;   -1,409
1016,301; 3392,455;   -2,636;    3,045
1016,848; 3372,455;   -1,273;    0,409
1017,396; 3407,636;    2,545;    0,045
1017,944; 3538,182;    1,182;    1,864
1018,491; 3322,455;    0,273;    1,409
1019,039; 3433,455;    0,455;    0,591
1019,586; 3372,818;   -1,364;    1,682
1020,134; 3478,455;    0,455;    1,500
1020,681; 3492,000;    0,182;   -1,136
1021,228; 3511,455;    2,909;   -2,227
1021,776; 3340,818;    1,182;   -1,136
1022,323; 3543,636;    0,455;    0,773
1022,870; 3488,727;   -1,000;   -0,045
1023,417; 3365,545;    2,636;    1,864
1023,964; 3542,182;    2,636;    1,227
1024,511; 3373,182;    1,000;    0,773
1025,058; 3173,545;    3,182;   -0,045
1025,605; 3229,273;   -2,273;    3,136
1026,152; 3435,000;    1,727;   -0,591
1026,699; 3161,909;    1,818;    1,318
1027,245; 3342,273;   -0,091;    0,318
1027,792; 3552,545;   -1,000;    1,409
1028,339; 3412,636;    2,364;   -0,045
1028,885; 3271,545;    1,000;   -0,227
1029,432; 3233,727;   -0,091;    0,227
1029,978; 3263,273;   -1,000;   -1,591
1030,525; 3180,636;    1,000;    0,409
1031,071; 3444,273;   -1,364;    1,136
1031,618; 3536,818;    0,364;    1,682
1032,164; 3337,818;   -0,091;    3,045
1032,710; 3383,636;    1,636;   -1,500
1033,256; 3283,818;   -0,636;   -0,136
1033,803; 3273,364;   -0,545;    1,500
1034,349; 3014,182;   -1,364;    0,136
1034,895; 3159,636;    0,000;   -0,318
1035,441; 3146,636;   -0,818;    0,318
1035,987; 3137,273;   -2,364;   -0,682
1036,533; 3122,091;   -1,455;   -0,955
1037,078; 3329,273;    1,455;    1,682
1037,624; 3159,455;    2,455;   -0,955
1038,170; 3177,636;    0,455;   -0,318
1038,716; 3067,818;    1,636;   -0,409
1039,261; 2992,364;   -2,273;   -0,773
1039,807; 2928,909;   -0,091;    3,409
1040,352; 3004,909;   -1,909;   -0,318
1040,898; 3051,545;   -1,545;   -0,682
1041,443; 2958,273;   -1,455;   -2,591
1041,989; 2954,273;    1,091;    1,591
1042,534; 2857,909;   -0,364;    2,591
1043,079; 2979,455;    2,909;    0,955
1043,625; 2749,455;    1,818;    0,500
1044,170; 2807,455;   -1,364;    1,045
1044,715; 3057,091;    2,455;    0,955
1045,260; 2880,727;    2,182;   -0,955
1045,805; 2935,455;    1,182;   -0,591
1046,350; 2857,091;    1,364;   -0,409
1046,895; 2802,545;    2,909;    1,591
1047,440; 2755,273;    5,364;    0,409
1047,985; 2664,818;    2,818;   -0,955
1048,530; 2583,818;    1,545;    1,227
1049,074; 2639,636;    0,000;    0,318
1049,619; 2621,818;   -1,364;    1,955
1050,164; 2416,000;    0,455;    0,227
1050,708; 2452,727;   -0,455;    0,045
1051,253; 2813,182;    1,273;   -2,227
1051,797; 2532,091;    0,818;   -1,318
1052,342; 2562,818;   -1,182;    1,045
1052,886; 2555,364;    0,364;   -1,409
1053,430; 2433,545;   -1,364;    0,136
1053,975; 2440,091;   -0,818;   -0,318
1054,519; 2418,273;   -0,727;    3,227
1055,063; 2400,545;    0,909;    1,318
1055,607; 2277,818;   -0,182;    0,227
1056,151; 2323,636;    2,909;    1,682
1056,695; 2260,727;    2,273;   -1,136
1057,239; 2326,455;   -1,727;   -0,682
1057,783; 2329,364;    0,818;   -1,500
1058,327; 2255,909;    0,000;    1,409
1058,871; 2481,455;   -0,545;    1,318
1059,415; 2183,727;   -0,818;   -0,045
1059,958; 2440,455;    1,455;    2,591
1060,502; 2163,091;   -1,000;   -0,773
1061,046; 2087,545;    0,364;   -0,955
1061,589; 2077,182;   -3,000;   -1,136
1062,133; 1967,545;   -1,273;    1,864
1062,676; 1889,091;    1,182;    0,864
1063,220; 1882,182;    1,091;    0,500
1063,763; 1894,000;    0,909;    1,136
1064,306; 1968,364;   -0,909;    1,864
1064,849; 1848,273;   -0,909;    0,591
1065,393; 1872,909;    2,000;   -1,500
1065,936; 2003,455;    0,182;   -0,409
1066,479; 1883,636;   -1,455;    1,318
1067,022; 1895,636;   -0,273;   -0,227
1067,565; 1798,545;   -0,091;   -1,318
1068,108; 1840,636;    0,727;   -0,591
1068,651; 1801,545;   -0,636;    1,409
1069,194; 1717,182;   -0,455;   -1,682
1069,736; 1708,364;   -1,273;    0,955
1070,279; 1692,636;   -1,364;   -0,500
1070,822; 1751,091;   -2,000;   -0,318
1071,364; 1824,727;   -0,364;    1,318
1071,907; 1653,545;   -0,727;    3,227
1072,450; 1577,727;    0,000;   -0,045
1072,992; 1547,455;   -0,273;    3,136
1073,535; 1685,636;    2,091;    2,136
1074,077; 1490,636;   -0,727;    2,045
1074,619; 1452,364;   -1,364;    0,591
1075,161; 1482,455;   -1,091;    1,500
1075,704; 1654,455;    1,545;    1,227
1076,246; 1471,182;   -0,182;    0,682
1076,788; 1401,000;   -0,364;    1,773
1077,330; 1465,364;    1,273;    2,136
1077,872; 1426,455;    0,909;    0,955
1078,414; 1631,455;    2,727;    0,773
1078,956; 1368,727;    1,273;   -0,227
1079,498; 1619,000;    1,636;    0,318
1080,040; 1333,545;    1,909;   -1,318
1080,581; 1287,727;    1,636;   -0,318
1081,123; 1225,545;    0,091;   -0,773
1081,665; 1269,364;   -1,182;   -0,955
1082,206; 1542,273;    1,364;   -0,500
1082,748; 1408,000;    0,727;    2,045
1083,289; 1293,909;   -2,000;    1,318
1083,831; 1207,727;   -0,545;    0,227
1084,372; 1212,909;    0,000;    0,591
1084,913; 1223,909;    1,091;    0,864
1085,455; 1197,091;   -1,909;   -2,045
1085,996; 1175,818;   -2,273;    0,136
1086,537; 1194,091;   -0,091;    0,864
1087,078; 1223,455;   -0,909;   -2,136
1087,619; 1259,545;   -1,273;    0,227
1088,160; 1168,364;    0,000;    1,318
1088,701; 1155,636;   -1,091;    0,682
1089,242; 1112,000;    1,364;   -2,227
1089,783; 1191,182;   -0,273;    1,409
1090,324; 1151,727;    0,455;    0,682
1090,865; 1049,273;    2,727;   -0,409
1091,405; 1027,364;    0,727;    2,227
1091,946; 1039,000;    0,182;   -0,955
1092,487;  967,000;    0,818;   -1,409
1093,027; 1122,818;   -1,364;   -1,500
1093,568;  976,636;   -0,364;    1,227
1094,108; 1079,818;    0,273;    1,773
1094,649; 1021,182;   -1,182;    0,136
1095,189;  950,000;   -0,636;   -0,682
1095,729;  895,909;   -0,091;    0,955
1096,269;  901,182;    0,727;   -0,955
1096,810; 1209,636;   -1,364;    0,500
1097,350; 1038,455;    1,364;   -0,773
1097,890;  942,545;    0,364;    1,227
1098,430; 1194,364;    2,364;    2,864
1098,970; 1064,091;    2,182;    1,682
1099,510;  934,182;    0,545;   -2,318
1100,050;  859,545;    1,000;   -1,591
1100,589;  824,727;   -0,727;   -0,318
1101,129;  957,636;    0,818;   -0,955
1101,669; 1100,727;    1,727;    2,136
1102,209;  926,455;   -0,091;    2,227
1102,748;  869,455;    0,000;    0,955
1103,288;  857,000;    1,273;   -1,227
1103,827;  890,182;    3,091;   -2,227
1104,367;  766,545;   -0,091;   -2,409
1104,906;  731,545;    1,364;   -1,136
1105,445;  797,000;    0,636;   -1,136
1105,985;  747,909;   -0,727;    1,500
1106,524;  793,545;   -1,727;   -0,682
1107,063;  766,364;   -2,727;    1,409
1107,602;  743,455;   -1,909;   -1,500
1108,141;  670,091;   -1,909;    1,500
1108,680;  761,818;   -3,455;   -0,591
1109,219;  697,455;   -0,909;   -0,500
1109,758;  707,273;    0,455;    0,682
1110,297;  675,909;    1,000;   -0,682
1110,836;  631,545;   -0,727;    0,955
1111,375;  787,364;   -2,545;    0,409
1111,913;  789,909;   -1,000;    0,773
1112,452;  727,818;   -0,273;    0,136
1112,991;  621,091;    1,091;    1,955
1113,529;  583,182;   -0,818;   -0,045
1114,068;  649,636;   -0,273;    2,955
1114,606;  552,091;   -0,364;   -0,955
1115,144;  710,455;   -1,273;    1,045
1115,683;  641,000;   -0,727;    0,318
1116,221;  686,727;   -0,455;   -0,864
1116,759;  598,000;    0,636;   -0,864
1117,297;  787,364;    0,000;    1,864
1117,836;  595,273;   -2,182;   -1,227
1118,374;  604,091;    0,182;   -0,682
1118,912;  551,636;    0,909;    2,682
1119,450;  534,818;    1,000;    0,864
1119,988;  589,455;    1,545;    2,136
1120,525; 1046,364;    5,091;    3,318
1121,063;  740,364;    1,182;    1,864
1121,601;  541,000;   -0,909;   -1,227
1122,139;  494,545;   -0,727;   -2,045
1122,676;  693,364;   -0,727;    2,773
1123,214;  632,364;   -1,182;    4,409
1123,751;  444,091;    1,727;    2,227
1124,289;  581,545;   -0,091;   -0,409
1124,826;  446,182;    1,727;    0,227
1125,364;  371,455;    1,727;   -0,955
1125,901;  557,636;    1,182;    1,227
1126,438;  660,182;    0,818;    0,955
1126,975;  389,091;   -0,727;   -0,773
1127,513;  456,818;    0,273;    2,136
1128,050;  370,000;    1,636;   -0,682
1128,587;  468,000;    2,000;   -0,227
1129,124;  509,818;    0,091;    1,318
1129,661;  376,000;    0,273;    0,227
1130,198;  540,727;    1,636;    0,773
1130,734;  483,545;    0,182;    1,409
1131,271;  341,545;   -0,909;    0,864
1131,808;  523,909;    2,909;    3,045
1132,345;  384,455;    1,545;    0,318
1132,881;  260,364;   -1,545;   -1,864
1133,418;  402,727;    0,727;   -1,136
1133,954;  344,273;    2,455;   -2,682
1134,491;  412,364;    1,364;   -0,773
1135,027;  301,364;    2,364;    0,864
1135,564;  403,818;    0,273;    2,955
1136,100;  390,909;    0,364;    2,136
1136,636;  264,909;   -1,273;   -1,045
1137,172;  368,909;    0,000;   -1,045
1137,708;  289,182;   -1,364;   -1,045
1138,245;  295,909;    1,273;   -1,227
1138,781;  243,000;    1,091;   -3,318
1139,317;  318,455;    1,273;   -1,409
1139,852;  302,455;    3,091;    0,136
1140,388;  410,727;   -1,182;   -0,409
1140,924;  306,545;   -1,091;   -2,227
1141,460;  236,000;   -1,636;    0,136
1141,996;  172,182;   -1,364;    2,682
1142,531;  217,636;    1,364;    3,318
1143,067;  440,000;    1,182;    1,045
1143,602;  488,818;   -0,091;   -0,318
1144,138;  334,364;   -2,636;    1,045
1144,673;  209,273;   -1,455;    1,409
1145,209;  274,455;   -1,909;   -0,318
1145,744;  189,455;   -0,727;    0,864
1146,279;  321,273;    1,818;   -0,136
1146,815;  241,727;    1,545;   -2,682
1147,350;  275,636;   -1,364;    0,045
1147,885;  184,273;   -0,818;   -1,318
1148,420;  193,000;   -2,273;    0,773
1148,955;  173,727;   -1,727;    1,864
1149,490;  200,727;   -0,909;   -1,591
1150,025;  188,545;    0,455;   -1,773
1150,560;  304,455;    1,091;   -0,955
1151,094;  259,455;    1,455;   -0,591
1151,629;  275,182;    1,636;    0,864
1152,164;  195,727;    1,364;    1,318
1152,698;  148,818;   -0,182;   -0,136
1153,233;  113,000;    0,091;   -0,682
1153,767;  158,364;   -3,000;   -2,318
1154,302;  207,636;   -1,455;    1,773
1154,836;  205,727;   -0,455;   -2,136
1155,371;  259,545;   -1,364;    3,682
1155,905;  212,727;   -0,636;    1,682
1156,439;  175,727;   -0,636;   -0,500
1156,973;  201,545;    0,364;    0,318
1157,507;  137,636;   -0,364;    0,682
1158,042;  159,818;   -0,727;    1,045
1158,576;  219,000;    0,182;    1,773
1159,110;  204,545;   -0,818;    2,409
1159,643;  187,273;    0,636;   -0,045
1160,177;  123,000;   -1,545;    1,500

