
Integration time [ms]:   0,040
Averaging Nr. [scans]: 11
Smoothing Nr. [pixels]: 0
Data measured with spectrometer [name]: 7318044SP
Wave   ;Sample   ;Dark     ;Reference
[nm]   ;[counts] ;[counts] ;[counts] 

186,757;   30,850;   31,551;    1,318
187,357;   62,263;   22,551;    0,955
187,958;   35,801;   15,460;   -1,591
188,558;   77,383;    8,915;   -1,227
189,159;   53,918;    6,733;   -4,500
189,759;   17,880;    7,278;   -3,591
190,360;   15,767;    2,824;   -2,136
190,960;   54,675;    2,915;   -4,136
191,560;   68,747;    3,189;   -6,591
192,161;  310,446;    4,372;   -3,500
192,761;  152,095;    4,010;   -3,227
193,361;  102,557;    1,556;   -3,773
193,962;  152,805;    2,010;   -2,682
194,562;   74,032;    1,189;   -3,955
195,162;  103,897;   -2,448;   -2,227
195,762;  264,925;   -3,176;   -0,045
196,362;  216,089;    1,370;   -2,500
196,963;   87,588;    2,006;   -0,864
197,563;  148,480;    1,551;   -0,955
198,163;   92,362;    0,096;   -0,682
198,763;  111,018;    1,733;   -0,500
199,363;  223,459;    3,096;   -0,500
199,963;  185,835;    0,369;    0,409
200,563;  162,038;    2,823;   -1,409
201,163;  129,258;    3,277;   -0,227
201,763;  222,410;    3,732;    0,318
202,363;  165,250;    1,459;    1,500
202,963;  272,503;    1,459;    1,045
203,563;  384,832;    0,277;    0,500
204,162;  226,130;    2,096;   -1,864
204,762;  217,664;    0,550;    0,591
205,362;  191,801;    3,004;    1,955
205,962;  291,616;    3,096;    1,955
206,562;  287,597;    1,823;    2,318
207,161;  254,244;   -0,087;    0,318
207,761;  415,811;    1,277;    2,409
208,361;  298,051;   -0,268;    1,409
208,960;  393,176;    0,459;    1,500
209,560;  465,864;    1,277;    1,591
210,160;  447,961;    0,550;    1,864
210,759;  412,478;    4,186;    1,227
211,359;  421,410;    1,459;    1,045
211,958;  679,343;    1,277;    2,045
212,558;  768,306;    1,732;    1,864
213,157;  611,476;    1,822;    1,500
213,757; 1048,901;    3,822;   -0,227
214,356;  746,472;    1,277;   -0,409
214,956; 1084,264;    3,095;    0,409
215,555;  708,295;    2,095;    2,136
216,154;  654,964;   -2,723;   -0,591
216,754;  670,043;    0,277;    0,773
217,353;  801,792;   -0,268;   -1,045
217,952;  663,482;   -0,178;    0,318
218,552;  899,579;    1,368;   -0,773
219,151;  795,411;    0,277;    0,955
219,750;  796,592;    0,004;   -0,227
220,349;  936,941;   -0,451;    1,045
220,948; 1007,389;   -1,360;    1,136
221,548; 1036,724;    0,913;    1,227
222,147; 1138,817;   -0,087;   -0,409
222,746; 1419,280;   -0,451;   -0,955
223,345; 1302,129;    0,731;    0,500
223,944; 1321,163;   -0,451;    0,773
224,543; 1493,174;    1,004;   -1,409
225,142; 1605,946;    0,094;    0,136
225,741; 1506,173;   -0,814;    1,045
226,340; 1532,145;   -0,451;   -0,955
226,939; 1992,350;   -0,996;   -0,136
227,538; 1965,369;   -0,360;   -0,773
228,137; 2110,087;   -0,814;    0,864
228,735; 2280,627;   -0,541;    1,227
229,334; 2011,251;   -0,905;   -0,227
229,933; 2378,328;    0,459;    0,591
230,532; 2495,709;    1,186;   -0,409
231,131; 2558,329;    1,732;    0,318
231,729; 2705,388;   -2,450;   -2,318
232,328; 2836,792;   -0,723;   -1,500
232,927; 2935,624;    1,004;   -0,500
233,525; 3046,548;    3,640;    0,045
234,124; 3246,586;    2,368;   -1,591
234,723; 3284,180;    0,913;   -1,045
235,321; 3450,336;    2,277;    0,136
235,920; 3690,485;    1,186;   -1,227
236,518; 3948,187;    3,459;    0,318
237,117; 4123,789;    0,004;   -0,227
237,715; 4294,225;    0,640;   -0,500
238,314; 4317,636;   -0,087;   -2,318
238,912; 4408,214;   -0,723;   -1,409
239,510; 4487,917;    0,459;   -1,227
240,109; 4656,335;    0,004;    3,773
240,707; 4693,696;   -0,996;    1,227
241,305; 5087,499;    0,550;    0,136
241,904; 5289,499;   -0,178;   -2,045
242,502; 5259,062;   -0,632;   -0,227
243,100; 5218,849;   -0,087;   -0,955
243,698; 5467,466;    0,732;    1,682
244,297; 5645,621;   -0,632;    0,682
244,895; 5499,597;   -0,269;   -2,318
245,493; 5814,171;    2,186;   -0,591
246,091; 5861,387;    1,368;   -1,318
246,689; 5841,381;    1,004;    0,591
247,287; 6011,706;    0,822;   -1,136
247,885; 6336,100;   -1,451;    1,227
248,483; 6437,849;    1,822;   -0,500
249,081; 6547,184;    0,185;    1,591
249,679; 6705,192;   -0,178;    1,682
250,277; 6965,694;   -1,723;    0,864
250,875; 6949,491;   -1,087;   -1,045
251,473; 7004,100;   -1,178;    0,500
252,071; 7196,849;    1,459;    1,045
252,669; 7351,435;   -1,814;    0,318
253,267; 7646,915;   -0,087;    0,773
253,864; 7604,706;   -0,360;    0,682
254,462; 7460,809;    1,640;    1,591
255,060; 7424,324;   -0,269;    1,318
255,658; 7774,254;    0,822;   -0,136
256,255; 8221,882;    0,186;   -2,045
256,853; 8044,373;   -0,269;    1,409
257,451; 8065,431;    0,822;    1,864
258,048; 8333,855;    1,822;    1,864
258,646; 8099,349;    1,731;   -1,045
259,243; 8241,918;   -0,087;    2,227
259,841; 8340,773;   -0,814;    0,318
260,438; 8243,892;   -0,087;    0,864
261,036; 8962,659;   -1,905;    1,409
261,633; 8848,448;   -0,087;    2,227
262,231; 8621,086;    2,731;   -0,045
262,828; 8745,525;   -0,905;    1,136
263,425; 8749,298;    0,913;   -0,591
264,023; 9012,961;    0,186;    0,045
264,620; 8549,518;   -0,360;   -0,318
265,217; 8931,623;   -2,087;    3,136
265,815; 9043,717;   -1,905;    2,136
266,412; 8811,181;    0,731;    0,136
267,009; 8836,516;   -1,451;    0,773
267,606; 8756,712;    0,822;   -0,955
268,203; 8733,897;   -0,269;   -0,591
268,801; 9037,007;    1,731;    0,591
269,398; 9342,242;   -0,360;    2,500
269,995; 9329,889;    0,277;    1,591
270,592; 9096,829;   -0,632;   -0,500
271,189; 9317,001;    0,186;    0,409
271,786; 9452,972;   -0,632;    1,227
272,383; 9238,398;   -1,087;    0,227
272,980; 9488,859;    0,277;    0,318
273,577; 9976,028;    0,004;    1,227
274,174; 9519,267;    0,822;    2,591
274,771; 9504,254;   -0,814;   -0,773
275,367; 9599,022;    2,277;    1,409
275,964; 9577,342;    0,731;   -0,500
276,561; 9668,454;    1,549;   -1,045
277,158; 9911,373;    0,095;   -1,773
277,755;10019,275;    2,185;    0,409
278,351; 9416,888;   -0,451;   -1,500
278,948; 9746,236;   -0,815;    0,045
279,545; 9767,468;   -1,360;    2,318
280,141;10390,952;   -1,723;   -2,045
280,738;10252,969;   -0,451;   -0,136
281,334;10488,605;   -1,633;    0,591
281,931; 9882,229;   -0,087;   -1,318
282,528; 9995,685;    0,822;   -0,500
283,124;10680,991;   -1,087;   -0,500
283,721;10607,841;   -0,451;    1,409
284,317;10407,845;    0,185;    2,500
284,913;10961,730;   -1,360;    0,591
285,510;11152,184;    0,640;   -0,318
286,106;11211,891;   -2,269;   -0,955
286,703;10785,731;   -0,360;    1,955
287,299;11005,045;   -1,451;   -0,591
287,895;11237,278;    0,822;   -1,045
288,491;11787,969;    0,186;    2,136
289,088;11527,901;   -2,360;    2,409
289,684;11592,435;   -1,723;    1,500
290,280;11589,934;    0,368;    0,682
290,876;11683,025;    1,822;    5,500
291,472;11569,133;    1,276;    2,227
292,068;11675,358;    1,367;    0,227
292,665;11404,773;    2,095;    0,773
293,261;11008,468;    0,276;    2,136
293,857;11384,376;    2,913;    2,136
294,453;11327,867;    3,550;    0,955
295,049;11205,233;   -0,268;    1,955
295,644;11231,189;    0,095;    0,136
296,240;11154,599;   -0,905;   -0,136
296,836;11193,011;   -0,995;    0,318
297,432;11429,933;    1,096;   -0,500
298,028;11463,816;    0,732;    0,773
298,624;11902,211;    1,459;    1,864
299,220;12162,305;    2,368;    0,591
299,815;11854,988;    1,005;   -0,409
300,411;11635,142;    0,914;    1,773
301,007;11638,707;    1,368;    0,227
301,602;11749,899;   -0,541;   -2,318
302,198;11897,555;    0,732;   -0,773
302,794;12213,891;    1,187;   -0,500
303,389;12345,182;   -1,177;    1,045
303,985;12442,804;    0,550;    1,409
304,580;12380,067;    1,459;    1,591
305,176;12368,564;   -3,086;    0,136
305,771;12303,197;   -1,268;   -1,227
306,367;12120,298;    4,095;    0,136
306,962;12487,536;    0,641;    1,500
307,558;12228,926;   -0,450;    0,136
308,153;12147,843;    1,095;   -1,136
308,748;12415,502;   -0,814;    1,682
309,344;12331,058;   -0,632;   -1,318
309,939;12434,308;   -1,905;   -1,318
310,534;12734,910;   -0,086;   -1,682
311,130;12697,936;    0,459;   -2,500
311,725;12438,712;    1,004;   -0,500
312,320;12728,243;    2,459;    0,045
312,915;12585,553;    1,459;   -1,045
313,510;12627,296;    1,550;   -0,500
314,105;13157,459;    1,096;    1,409
314,700;12565,689;   -3,086;   -1,045
315,295;12200,885;   -0,904;    0,045
315,890;11728,705;    1,277;    0,864
316,485;12100,906;   -0,359;   -0,318
317,080;12218,366;   -3,086;    1,591
317,675;12801,522;    2,005;   -0,682
318,270;12165,404;    5,550;    3,318
318,865;12189,670;    3,278;    3,045
319,460;12049,140;   -0,904;    0,591
320,055;12310,947;   -0,541;   -1,227
320,650;11960,884;   -1,995;   -0,591
321,244;12049,795;   -0,177;   -1,409
321,839;13010,616;   -1,541;   -0,227
322,434;12863,697;   -1,086;   -1,591
323,029;12420,194;    1,732;    1,591
323,623;12293,320;    1,550;    0,773
324,218;12066,878;    2,368;    1,409
324,812;11954,533;    1,096;    1,591
325,407;11723,867;   -0,814;    2,045
326,002;11609,938;    0,277;   -0,409
326,596;11943,853;    0,914;    1,318
327,191;12166,089;    0,823;   -1,045
327,785;11743,307;   -0,813;   -0,227
328,379;11942,758;    1,368;    0,136
328,974;11743,336;    0,914;   -3,955
329,568;11964,936;    0,186;   -2,409
330,163;11801,329;    2,096;    1,045
330,757;12160,346;    2,459;    1,591
331,351;11473,039;    0,459;    0,682
331,945;11775,158;    0,914;    1,409
332,540;11405,500;   -1,723;   -0,591
333,134;11559,690;   -1,086;    0,773
333,728;11777,467;    0,005;    0,318
334,322;12107,687;   -1,177;   -0,864
334,916;11380,361;    0,277;    0,955
335,510;11697,514;   -0,450;   -0,136
336,105;11983,635;   -1,086;    1,591
336,699;11665,336;   -1,086;    0,591
337,293;11640,407;   -1,723;    0,318
337,887;11798,457;   -2,723;    1,955
338,481;11883,253;    0,459;    0,591
339,074;12027,446;   -0,359;    2,682
339,668;11833,019;   -1,632;    1,227
340,262;12110,728;    1,732;    3,227
340,856;11637,117;    1,822;   -0,682
341,450;10997,685;    1,004;    1,864
342,044;11902,044;    1,459;    0,136
342,637;11677,335;    0,913;   -2,136
343,231;11528,223;   -2,360;    0,682
343,825;11507,057;   -1,086;   -0,591
344,419;11475,376;   -1,995;    0,500
345,012;11201,990;    2,459;    4,045
345,606;11186,739;    4,641;    1,591
346,199;11056,238;   -1,813;   -0,227
346,793;10594,539;    1,914;    2,045
347,386;10789,495;   -0,813;   -1,136
347,980;10782,862;   -0,268;   -0,045
348,573;10581,459;    2,278;    0,409
349,167;10228,772;    5,278;    4,773
349,760;10578,089;    2,914;    2,682
350,354;10554,653;   -0,813;    1,136
350,947;10304,541;    1,096;    1,682
351,540; 9968,924;   -0,358;   -1,409
352,134; 9914,485;    1,096;    1,136
352,727;10014,558;   -0,086;    1,136
353,320; 9789,184;    0,005;    0,591
353,913; 9663,617;   -1,995;    1,864
354,507; 9845,920;    0,823;   -1,227
355,100; 9853,429;    0,460;    0,864
355,693; 9062,021;    2,005;    2,409
356,286; 9101,024;    0,823;    2,773
356,879; 9456,192;   -0,722;    1,227
357,472; 9062,061;   -0,904;    1,500
358,065; 9238,386;   -0,722;    2,500
358,658; 9214,004;   -0,540;    2,318
359,251; 8861,198;   -1,631;   -0,591
359,844; 8336,822;   -1,904;   -1,136
360,437; 8500,681;   -2,995;    0,045
361,030; 8776,257;    1,369;   -0,682
361,623; 8336,943;    2,824;    0,318
362,215; 8399,945;   -0,086;    2,045
362,808; 8227,527;   -2,358;   -1,682
363,401; 8454,407;   -2,449;    0,136
363,994; 8143,593;   -0,631;   -1,500
364,586; 8074,085;    0,824;   -1,500
365,179; 8295,826;   -0,449;   -1,136
365,772; 7786,389;   -1,995;    2,045
366,364; 8098,283;    1,915;   -3,227
366,957; 8267,184;    2,279;   -0,045
367,549; 8291,325;    2,188;   -0,864
368,142; 7938,264;    1,825;   -1,500
368,734; 8140,628;    0,734;   -2,136
369,327; 8110,512;    1,643;   -0,500
369,919; 8039,734;   -1,538;    0,409
370,512; 7834,656;   -1,083;   -0,500
371,104; 7575,463;   -0,901;    1,591
371,696; 7706,511;    1,191;   -0,955
372,289; 7817,640;    0,373;    1,136
372,881; 7969,829;   -2,080;    1,318
373,473; 7872,353;   -2,170;    1,136
374,066; 7669,839;   -0,169;    0,500
374,658; 7535,723;    0,378;    1,136
375,250; 7912,220;    0,653;   -1,409
375,842; 7752,994;    0,473;   -0,045
376,434; 7631,781;   -0,435;   -0,409
377,026; 8225,615;    0,204;   -2,500
377,618; 8094,913;   -0,158;   -0,682
378,210; 7957,023;   -0,338;   -1,955
378,802; 7813,659;    0,754;   -0,591
379,394; 7753,166;    1,846;    0,682
379,986; 8349,719;    1,393;   -0,955
380,578; 8463,789;   -0,153;    0,773
381,170; 7765,594;   -0,972;    0,045
381,762; 7750,379;    0,755;    1,409
382,354; 7965,215;   -0,065;   -1,318
382,945; 8052,192;   -2,976;    0,318
383,537; 8215,895;   -2,705;   -1,955
384,129; 8229,155;   -2,160;   -1,136
384,721; 8436,015;   -0,252;    0,955
385,312; 8366,376;   -0,161;   -0,955
385,904; 8427,797;   -2,706;    1,591
386,496; 7827,226;   -0,979;    1,045
387,087; 7932,673;    1,022;    2,500
387,679; 7996,860;   -1,160;    0,045
388,270; 8130,902;    2,840;    2,045
388,862; 8238,395;    1,295;   -0,318
389,453; 8143,334;   -0,887;    1,045
390,045; 8424,756;   -0,705;   -2,682
390,636; 8341,923;    0,204;   -0,591
391,227; 8198,767;   -0,523;   -0,045
391,819; 8314,052;    0,204;    0,773
392,410; 8362,439;    1,022;    0,045
393,001; 8261,903;   -0,979;   -1,591
393,593; 8571,936;    1,930;   -0,045
394,184; 8410,552;    1,385;   -0,409
394,775; 8373,136;    1,839;    2,136
395,366; 8592,611;    1,385;    0,773
395,957; 8587,210;    0,113;    0,136
396,548; 8888,550;   -0,342;    2,682
397,139; 9184,216;   -2,433;    0,591
397,730; 8934,749;   -1,888;    0,955
398,321; 9009,622;   -1,252;    0,955
398,912; 9020,340;   -0,615;    0,136
399,503; 9094,723;   -3,524;   -1,409
400,094; 8508,217;    0,294;    1,682
400,685; 8397,448;   -0,433;    0,045
401,276; 8471,400;    0,930;   -0,955
401,867; 8798,697;   -0,888;    0,773
402,458; 8887,991;   -2,251;   -2,318
403,048; 8883,103;    1,112;    0,591
403,639; 8493,278;    0,840;    0,864
404,230; 8716,421;    2,476;    0,318
404,821; 8614,269;   -0,615;    0,045
405,411; 8725,138;    1,203;   -2,591
406,002; 8342,148;   -1,252;   -1,136
406,592; 8170,936;    2,294;    0,045
407,183; 8499,806;    0,566;   -1,500
407,774; 8451,422;    3,475;   -0,136
408,364; 8784,426;    0,930;    0,409
408,954; 8373,279;    0,384;    1,227
409,545; 8409,533;    1,021;    1,045
410,135; 7965,976;    1,293;    0,500
410,726; 8113,768;    1,838;    0,318
411,316; 8503,789;    0,111;    0,773
411,906; 8187,046;   -0,253;   -0,409
412,497; 7689,853;   -1,070;   -0,045
413,087; 8256,839;   -1,980;   -0,227
413,677; 8670,709;   -0,707;    3,864
414,267; 8527,380;    0,656;    1,409
414,857; 8539,234;   -2,980;    4,227
415,448; 8803,538;    0,839;    0,500
416,038; 8531,692;    0,020;   -0,591
416,628; 8497,600;   -0,889;    0,409
417,218; 7928,380;    0,565;    3,318
417,808; 8197,871;    0,202;   -0,409
418,398; 8709,910;    0,020;    2,682
418,988; 8709,544;    2,020;    0,591
419,578; 8942,713;   -0,707;    1,409
420,168; 9290,058;   -1,343;   -0,955
420,757; 8854,934;   -1,343;   -1,500
421,347; 8566,314;    0,111;   -0,227
421,937; 8738,056;    2,292;    1,409
422,527; 8661,044;    0,838;   -0,773
423,116; 8446,027;   -0,253;   -0,045
423,706; 8829,801;   -1,889;    0,318
424,296; 8840,607;    1,384;    0,682
424,885; 9274,516;   -0,071;   -3,045
425,475; 9536,971;    1,474;   -2,864
426,065; 9464,809;   -0,980;   -0,318
426,654; 9069,033;   -0,435;   -0,318
427,244; 9184,482;    0,020;    1,409
427,833; 8645,258;    1,383;   -0,500
428,423; 9128,297;   -0,526;    1,136
429,012; 9904,734;   -0,344;   -1,136
429,601; 9388,852;   -1,344;    0,136
430,191; 9638,453;    1,292;    4,318
430,780; 9238,731;   -0,344;   -0,409
431,369; 9173,403;    0,746;   -0,045
431,959; 9820,466;   -1,254;    0,500
432,548; 9649,971;   -1,163;   -0,045
433,137; 9774,772;   -1,254;   -1,318
433,726;10300,990;    0,292;    0,500
434,315; 9632,648;   -0,526;    2,409
434,905; 9725,288;   -1,254;    1,409
435,494; 9630,198;    0,746;    0,955
436,083;10131,624;   -0,981;   -0,955
436,672; 9974,788;    0,110;    0,500
437,261; 9533,526;    0,292;   -1,955
437,850; 9673,978;    1,383;    0,682
438,439; 9625,444;    3,291;    1,955
439,027; 9457,402;    3,655;    1,773
439,616; 9822,920;    2,927;    1,227
440,205; 9729,044;    0,200;   -2,136
440,794; 9833,677;    2,109;   -0,045
441,383;10074,070;   -1,346;   -0,591
441,971; 9940,318;   -2,436;    0,591
442,560; 9771,224;    0,563;   -1,773
443,149; 9535,065;    0,379;   -1,318
443,737; 9714,537;   -0,074;   -2,318
444,326; 9961,515;    0,018;    0,318
444,915;10004,517;   -1,982;    0,864
445,503;10431,814;   -2,891;   -0,318
446,092; 9681,680;    0,382;    2,136
446,680;10229,590;    0,382;    0,318
447,269;10392,431;   -0,346;   -0,318
447,857;10192,643;    0,018;   -1,773
448,445;10297,809;    0,563;    1,318
449,034;10527,714;   -1,528;   -1,136
449,622;10678,538;   -1,073;    3,500
450,210; 9858,709;    2,017;    2,227
450,799;10400,297;    0,290;   -0,591
451,387;10365,106;    1,381;   -0,591
451,975; 9996,766;    2,654;    0,864
452,563;10091,351;    3,472;    2,318
453,151;10144,528;   -0,528;   -1,227
453,739;10062,291;   -1,347;    0,136
454,328; 9872,543;    2,381;   -2,136
454,916; 9596,036;    2,562;   -0,136
455,504; 9779,068;    1,017;    1,227
456,092; 9986,021;    0,017;   -1,591
456,679; 9978,462;    1,472;    0,682
457,267; 9899,129;    4,017;    1,045
457,855;10078,806;    1,017;    1,409
458,443; 9850,680;   -0,165;    1,682
459,031; 9949,225;    0,108;    2,409
459,619;10435,113;   -1,801;    2,864
460,206;10604,564;    0,835;    2,045
460,794;10666,500;   -2,983;   -0,227
461,382;10882,169;   -0,529;   -0,864
461,970;10459,559;    1,198;    1,864
462,557;10496,943;   -0,711;   -0,682
463,145;10701,662;   -3,165;   -1,682
463,732;10879,311;    2,016;   -1,045
464,320;10823,853;   -0,075;   -3,045
464,907;10470,312;    2,743;   -0,773
465,495;10350,844;    0,743;   -1,227
466,082;10531,231;   -1,984;   -0,045
466,670;10431,983;   -2,529;    1,227
467,257;10829,680;   -1,711;    2,045
467,844;10996,313;   -0,075;    0,045
468,432;11035,824;    0,834;    3,500
469,019;10535,144;    0,925;   -1,773
469,606;11025,650;    0,470;    3,682
470,193;10846,655;   -1,439;    0,227
470,780;10364,356;   -2,075;    0,864
471,368;10743,407;   -1,257;   -0,773
471,955;10514,897;    1,379;   -0,682
472,542;10154,361;    0,652;   -1,136
473,129;10403,902;   -0,166;    0,136
473,716;10095,008;    1,470;    0,591
474,303;10302,566;    0,652;   -0,864
474,890;10629,885;   -1,439;   -0,500
475,477;10632,568;   -1,621;    0,409
476,064;10516,381;    1,106;   -1,591
476,650;10479,041;    0,288;    0,318
477,237;10323,222;   -0,258;    0,955
477,824;10476,928;   -1,076;    0,864
478,411;10508,903;   -1,894;   -0,318
478,997;10704,225;    0,560;   -0,773
479,584;10785,648;    1,196;   -0,409
480,171;11502,121;   -0,440;   -0,773
480,757;11137,499;    2,651;    0,773
481,344;11486,919;    0,469;    0,409
481,931;11010,380;    1,105;    1,045
482,517;12003,082;   -1,258;    0,318
483,104;12555,798;    1,106;    2,864
483,690;12889,271;   -1,804;    0,045
484,276;13321,437;   -0,895;    0,227
484,863;13074,994;    2,469;    1,136
485,449;13693,183;   -0,077;    0,318
486,035;13692,694;   -1,986;   -0,136
486,622;14143,475;   -0,895;    0,045
487,208;14080,165;    1,378;    1,500
487,794;13904,858;    0,741;    0,318
488,380;14009,270;    0,105;   -1,409
488,967;14096,962;   -1,168;   -0,409
489,553;14162,806;   -1,895;   -1,409
490,139;14319,150;    1,559;    0,773
490,725;13747,817;    0,741;   -0,227
491,311;13335,572;    3,287;    3,045
491,897;12637,772;   -0,986;    1,500
492,483;12440,672;    0,105;    1,227
493,069;12113,310;    3,923;    0,864
493,655;12115,912;    1,650;    0,682
494,241;12036,940;    1,377;   -0,955
494,826;12463,800;    0,287;   -1,045
495,412;11922,105;    2,559;   -0,682
495,998;12067,325;   -0,805;   -0,318
496,584;12249,733;    0,377;    1,045
497,169;12221,495;    1,014;   -0,682
497,755;12192,864;    0,650;    1,227
498,341;12728,307;    0,559;    0,318
498,926;12278,463;    1,832;    1,955
499,512;12479,885;    1,286;    2,955
500,097;12629,587;    0,195;   -0,318
500,683;12591,151;   -0,350;    2,136
501,268;12967,832;   -0,169;   -0,955
501,854;12659,600;   -0,169;    1,227
502,439;12604,861;   -0,624;   -1,773
503,024;12805,161;    0,195;    0,500
503,610;12893,721;   -0,078;   -0,682
504,195;12894,093;    0,558;    1,955
504,780;13023,220;    2,922;    1,227
505,366;12820,910;    3,013;    2,864
505,951;12538,617;    0,740;    1,045
506,536;12594,886;   -3,260;   -3,682
507,121;12558,391;    0,285;   -0,318
507,706;13098,136;    2,376;    1,045
508,291;13488,078;    2,649;    1,136
508,876;12938,263;   -0,988;    2,591
509,461;12390,681;   -0,169;   -0,773
510,046;12837,507;    0,194;    0,318
510,631;13054,495;   -0,351;   -0,773
511,216;12725,820;    2,467;   -0,500
511,801;13069,508;   -0,442;    2,591
512,386;13444,784;    0,740;    0,500
512,971;13372,318;   -2,988;    0,955
513,555;12888,897;   -0,897;   -1,500
514,140;13699,336;   -0,442;   -3,136
514,725;13698,862;   -0,715;   -1,136
515,309;13849,280;   -0,533;    0,318
515,894;13300,514;   -0,624;   -2,227
516,479;13735,939;   -0,624;   -0,955
517,063;13558,066;    0,376;    1,227
517,648;13712,908;    1,012;   -1,136
518,232;13362,148;   -0,261;   -1,409
518,817;13690,582;   -0,079;    1,682
519,401;13930,786;    2,194;    0,591
519,985;13427,828;    1,103;    1,136
520,570;13288,698;    0,830;   -1,955
521,154;13585,296;    2,102;    0,591
521,738;13798,648;   -2,352;    2,409
522,323;14352,623;   -0,170;    1,682
522,907;14106,871;    0,466;   -0,136
523,491;13804,616;    0,557;    0,955
524,075;13807,232;    2,284;    0,591
524,659;13873,707;    1,466;    0,591
525,243;13344,400;    1,739;    0,409
525,827;13574,842;    0,648;   -0,045
526,411;14430,616;   -1,989;   -0,136
526,995;14660,099;   -0,352;    1,409
527,579;14220,051;   -0,443;   -1,045
528,163;14542,908;    0,375;   -1,500
528,747;14453,151;    2,466;   -0,773
529,331;14772,334;   -0,080;   -1,409
529,915;14995,226;    1,738;    0,955
530,499;14929,375;   -0,807;    1,227
531,082;14652,857;   -0,534;    1,591
531,666;14090,554;    1,374;    0,773
532,250;14781,767;    1,284;    2,682
532,833;15112,945;    0,920;    2,773
533,417;14978,172;   -1,807;    0,864
534,001;14961,411;    1,647;   -0,318
534,584;15665,207;    0,374;    0,500
535,168;15508,922;    0,465;    1,409
535,751;15536,592;    0,647;    0,045
536,334;15038,374;   -0,898;   -0,409
536,918;15606,297;    0,011;    1,591
537,501;15714,201;   -0,899;    1,318
538,085;15749,152;   -0,444;    1,045
538,668;15900,132;    0,829;    2,409
539,251;16203,112;    1,829;    3,773
539,834;16178,270;    0,101;    0,773
540,418;16133,018;   -1,990;    4,318
541,001;16230,482;   -0,990;    1,773
541,584;16225,282;    2,101;    2,227
542,167;15948,529;    1,374;    2,955
542,750;16127,525;    1,919;   -0,773
543,333;15711,149;    0,555;    2,136
543,916;16477,229;    0,192;    2,500
544,499;17100,803;   -1,354;    0,227
545,082;17116,243;    1,374;    3,591
545,665;17247,136;    1,919;    1,500
546,248;17568,421;    1,010;   -0,318
546,830;17258,813;   -0,445;    1,955
547,413;17698,830;    1,010;   -0,773
547,996;18254,149;    0,555;    0,500
548,579;17992,402;    0,919;    0,955
549,161;17833,752;    1,828;    2,682
549,744;17633,005;   -0,809;    0,409
550,326;18140,108;   -0,809;   -1,136
550,909;17865,434;    2,737;    0,591
551,492;18262,799;   -0,263;    0,227
552,074;18073,242;   -0,173;   -1,318
552,657;18636,943;    2,373;    0,045
553,239;18418,701;   -0,173;   -0,773
553,821;18353,397;   -1,082;    1,045
554,404;17827,359;    1,282;    1,136
554,986;18187,251;    0,464;    1,045
555,568;18821,281;    1,191;   -0,955
556,151;17993,352;    1,191;   -0,227
556,733;18184,584;   -0,264;   -0,864
557,315;18686,870;    0,100;    0,500
557,897;18553,540;    0,554;   -0,500
558,479;18710,039;   -1,991;    1,318
559,061;18772,858;   -0,719;   -0,864
559,643;19090,741;   -0,264;    0,045
560,225;19443,085;    1,645;    2,864
560,807;19529,104;    0,918;    0,318
561,389;19018,018;    0,554;    2,318
561,971;19738,067;    0,463;    2,136
562,553;19533,897;   -1,628;    1,591
563,135;19668,365;   -0,537;    1,136
563,717;19266,690;    3,372;    1,136
564,298;20012,602;    3,645;   -0,045
564,880;19739,559;    0,645;   -1,409
565,462;19940,559;    0,645;    1,318
566,043;21068,936;   -0,446;    2,318
566,625;20591,475;    1,918;    1,227
567,207;20465,766;    1,099;    1,682
567,788;21582,160;   -1,264;    1,500
568,370;22447,917;    1,917;   -0,500
568,951;22267,171;    0,190;    0,227
569,533;23125,729;   -0,628;   -0,500
570,114;23645,114;   -0,446;    0,682
570,695;24171,897;   -0,174;   -1,318
571,277;24635,515;   -0,265;   -1,682
571,858;25388,396;    2,008;   -1,136
572,439;26378,193;    1,554;   -1,045
573,021;26591,821;    2,099;   -2,773
573,602;27077,287;   -1,265;    0,318
574,183;27951,789;   -2,083;    2,227
574,764;28145,738;   -1,629;    0,409
575,345;28732,805;    0,917;   -0,136
575,926;29403,926;   -0,356;    0,136
576,507;29338,463;    1,099;   -0,227
577,088;30519,340;    3,099;    1,682
577,669;30502,332;    0,735;    1,955
578,250;31238,607;    0,644;   -1,045
578,831;31910,600;   -1,356;   -2,227
579,412;32177,858;   -0,810;    0,955
579,993;33097,025;    1,008;    0,227
580,573;33484,064;   -0,629;   -0,955
581,154;32462,916;    0,735;   -0,591
581,735;33311,203;    0,644;    0,773
582,315;32797,657;   -0,629;    2,136
582,896;33110,556;   -0,174;    1,227
583,477;32604,702;    0,189;    1,227
584,057;32779,357;    0,553;    0,955
584,638;33097,753;    2,553;    2,318
585,218;33022,344;   -0,538;    2,682
585,799;33196,873;    0,281;   -0,227
586,379;33204,794;    0,372;    1,591
586,959;31940,217;    0,735;    0,318
587,540;31305,303;   -0,629;    2,227
588,120;30822,142;    1,007;   -0,045
588,700;29792,307;    2,553;    2,136
589,281;30005,635;    0,462;   -0,955
589,861;29968,886;    0,099;   -1,682
590,441;29821,739;    2,371;   -2,682
591,021;28758,837;   -0,265;   -2,591
591,601;29024,148;   -0,537;    0,500
592,181;28996,974;   -0,719;   -0,773
592,761;28257,986;    0,007;    1,409
593,341;28165,633;   -0,901;    0,045
593,921;28183,307;   -0,265;    1,591
594,501;28086,795;   -0,538;    1,318
595,081;27882,964;    0,917;   -0,318
595,661;28213,271;   -1,447;    0,955
596,240;28764,907;   -0,537;    0,136
596,820;28443,733;    0,372;    1,955
597,400;28608,467;    2,008;    0,773
597,980;28896,891;    2,008;    1,045
598,559;28884,267;    2,735;   -0,227
599,139;28569,213;   -0,174;   -1,227
599,718;28453,485;   -0,174;   -0,409
600,298;28701,390;    0,735;    0,682
600,877;28905,636;    2,917;    1,409
601,457;29223,189;    2,281;    1,136
602,036;29076,142;    0,190;    2,045
602,616;29316,885;    0,644;    1,682
603,195;29679,092;   -0,355;    3,500
603,774;29214,188;   -0,901;    2,045
604,354;29094,440;    0,826;   -0,500
604,933;28607,675;    0,463;    1,864
605,512;28711,608;    3,554;    0,591
606,091;28761,745;   -0,537;    3,773
606,671;29544,527;    0,281;    0,773
607,250;28619,175;    1,644;    3,136
607,829;28906,126;    2,372;    3,227
608,408;28760,337;    1,190;    2,591
608,987;27720,057;    1,281;    3,409
609,566;28023,914;   -1,265;   -2,500
610,145;28140,867;   -1,082;    0,682
610,723;28591,196;    4,372;    6,864
611,302;27792,366;   -0,446;    1,682
611,881;27283,778;    5,008;   11,227
612,460;28211,582;    1,645;    3,955
613,039;28583,584;   -0,082;    2,045
613,617;27320,456;    1,736;    4,773
614,196;27541,796;    1,099;    1,227
614,775;27839,448;    1,009;    2,409
615,353;27820,894;    0,736;    0,864
615,932;27515,426;    0,100;    2,409
616,510;28105,806;    0,554;    0,591
617,089;27564,593;    7,100;   17,591
617,667;27331,886;    2,372;    6,136
618,246;27227,118;   -1,537;    1,318
618,824;27420,656;   -3,355;   -0,955
619,402;26958,026;   -2,900;   -1,773
619,981;27459,765;   -0,173;   -1,045
620,559;27296,768;    0,009;    1,682
621,137;26836,591;   -0,718;    1,864
621,715;26873,920;   -1,173;   -0,682
622,293;26753,916;   -0,537;   -0,773
622,871;27185,142;   -0,718;    0,500
623,450;26782,911;    0,373;   -0,864
624,028;26647,613;    0,191;   -0,955
624,606;26312,124;   -1,718;    1,682
625,183;26737,097;   -1,536;   -1,136
625,761;26297,454;    1,009;    1,136
626,339;26563,213;    1,373;    2,591
626,917;26988,236;   -0,172;   -0,045
627,495;27025,104;   -0,354;    1,318
628,073;26465,409;   -0,263;    2,864
628,650;26163,250;    0,100;    2,136
629,228;26562,556;    0,373;    4,409
629,806;25997,808;    2,282;    1,136
630,383;26291,126;    1,464;   -0,318
630,961;26063,022;    2,555;   -0,955
631,539;25833,264;    2,464;    0,227
632,116;25079,113;   11,373;   15,409
632,694;25641,048;    2,555;    6,500
633,271;25992,249;    0,828;    2,682
633,848;25890,425;    1,828;    2,045
634,426;25954,792;   -1,081;    1,773
635,003;25060,449;    1,101;   -0,409
635,580;25369,334;    1,192;    3,682
636,158;25954,018;    3,737;    1,227
636,735;25909,008;    0,555;   -0,500
637,312;26096,059;   -0,809;   -0,682
637,889;26213,638;   -4,354;   -0,682
638,466;25666,479;   -3,990;   -0,409
639,043;25639,426;    2,101;   -1,136
639,620;25999,933;   -2,262;   -0,955
640,197;26321,400;    1,100;    1,682
640,774;26435,642;   -0,172;    1,136
641,351;26866,975;    0,737;    1,136
641,928;26239,672;   -0,627;    1,409
642,505;25906,460;    0,828;   -0,500
643,082;26037,065;   -1,718;    1,227
643,658;25061,580;   -0,718;    1,500
644,235;25810,459;    1,191;    2,500
644,812;26098,974;    1,918;    0,773
645,388;25844,853;   -0,991;    1,409
645,965;25942,004;   -0,809;    1,682
646,542;25991,610;   -1,445;   -0,227
647,118;25946,125;    1,009;   -0,955
647,695;26291,003;   -0,263;    1,136
648,271;26216,882;   -0,536;    0,500
648,848;26510,761;    0,736;    2,227
649,424;26346,276;    0,827;    1,318
650,000;26148,700;   -0,354;   -1,045
650,577;25894,124;   -0,627;   -0,955
651,153;26399,184;   -1,809;    0,955
651,729;27380,336;    1,191;    0,864
652,305;27586,396;    0,645;    2,773
652,881;32007,820;   -0,082;    1,136
653,458;39053,699;    1,100;    0,227
654,034;43158,396;    0,282;    1,591
654,610;44882,274;    0,554;    0,773
655,186;46245,062;    0,645;    3,045
655,762;45948,759;   -0,991;    0,409
656,338;45962,910;    0,100;    0,136
656,913;46978,061;   -0,082;    0,409
657,489;46272,485;    0,827;   -0,318
658,065;46236,819;   -0,173;   -1,591
658,641;46856,243;   -0,900;   -0,864
659,217;46186,667;   -0,991;    0,409
659,792;45513,182;    0,645;   -0,409
660,368;45855,060;   -2,173;   -0,682
660,944;45471,939;   -2,082;    1,227
661,519;40947,545;   -0,628;    0,409
662,095;34786,242;   -1,719;    0,591
662,670;29833,302;    1,281;   -0,136
663,246;28478,999;    1,009;   -0,409
663,821;27691,332;    0,281;    1,682
664,396;27147,938;    0,009;    1,864
664,972;27453,817;    0,009;   -0,500
665,547;27760,241;    1,372;    0,136
666,122;27766,210;   -1,082;    0,318
666,698;28047,180;   -0,173;    0,318
667,273;27411,331;   -0,173;    0,136
667,848;28246,573;    2,372;    1,500
668,423;28044,543;    2,190;    2,318
668,998;28633,512;    2,827;   -0,682
669,573;29134,573;   -3,264;   -1,500
670,148;28958,088;   -1,446;   -0,682
670,723;28767,421;   -1,810;    0,318
671,298;29170,936;    2,372;    1,045
671,873;29372,724;   -0,082;   -0,136
672,448;29300,875;    0,645;    0,136
673,023;29661,572;   -1,992;   -0,227
673,597;29947,178;    0,827;    2,318
674,172;29745,420;   -0,355;    0,318
674,747;29248,117;    0,372;   -1,045
675,321;29098,995;   -0,628;    3,318
675,896;28612,510;    0,645;    1,045
676,471;29663,753;    2,645;    1,591
677,045;29447,177;   -1,264;    0,682
677,620;29492,964;    0,190;    1,136
678,194;29778,570;   -2,628;    1,136
678,769;29272,722;   -1,083;   -0,318
679,343;29552,237;   -0,628;    1,773
679,917;29391,388;   -1,446;    1,955
680,492;29509,903;    0,826;    3,227
681,066;29666,691;    3,372;    0,409
681,640;29695,842;    1,463;   -0,318
682,214;30521,357;    0,735;    0,500
682,788;30076,326;   -1,356;   -0,773
683,363;29999,296;   -1,810;    1,682
683,937;29722,538;   -1,719;   -0,318
684,511;30500,053;    0,463;   -0,591
685,085;30188,659;   -1,356;    0,318
685,659;29946,810;   -2,538;    0,864
686,232;30227,053;   -0,356;   -0,318
686,806;29995,113;   -0,901;    0,409
687,380;30622,083;   -0,174;    0,591
687,954;30834,870;   -1,174;    1,136
688,528;30460,113;   -0,719;    1,955
689,101;31217,628;   -3,992;    1,045
689,675;30870,233;   -0,356;   -0,136
690,249;30293,839;   -0,719;    0,409
690,822;30570,354;    0,280;    0,318
691,396;30641,233;   -0,265;    1,227
691,969;30110,748;    1,280;    0,136
692,543;30564,627;   -0,447;   -1,955
693,116;30180,414;   -0,265;   -1,409
693,690;30060,656;    0,099;    0,500
694,263;30597,171;   -1,083;    2,955
694,836;30634,686;    1,371;    3,591
695,410;29238,201;   -0,265;    1,773
695,983;29726,807;    0,189;    0,591
696,556;29717,686;   -0,447;   -1,045
697,129;30173,746;   -0,356;    1,409
697,703;29757,261;   -1,629;    1,955
698,276;29740,049;    1,462;   -0,773
698,849;29536,746;    1,280;    1,409
699,422;29961,170;   -1,083;    0,591
699,995;29670,230;    0,007;    0,136
700,568;30155,018;   -0,629;    3,045
701,140;30183,533;   -2,811;    1,682
701,713;29866,139;   -0,174;    2,409
702,286;29590,836;   -0,538;    0,864
702,859;29500,351;   -0,902;   -0,591
703,432;28632,502;    0,825;    0,682
704,004;29167,926;    0,462;    0,318
704,577;29010,441;   -0,629;    0,136
705,150;29581,502;    0,189;    2,500
705,722;29357,289;   -0,356;   -3,227
706,295;29127,441;   -0,175;   -0,591
706,867;29019,137;   -0,175;    1,955
707,440;29208,198;   -1,720;   -0,409
708,012;29507,622;    0,462;    0,591
708,584;29407,682;    2,462;    0,227
709,157;29742,470;    1,825;   -0,591
709,729;29373,530;    2,280;    2,045
710,301;30245,409;    0,734;    0,045
710,874;30263,833;   -1,447;   -0,227
711,446;29107,439;    0,371;    0,864
712,018;28972,409;    0,098;    0,500
712,590;28711,014;   -1,993;    1,682
713,162;29227,529;    0,825;    1,318
713,734;29514,772;    1,825;   -2,045
714,306;29381,378;   -1,902;   -0,409
714,878;28111,074;    0,825;    0,864
715,450;28925,771;    0,643;    0,864
716,022;29200,559;    1,552;    1,318
716,593;29343,256;    0,189;    0,591
717,165;29280,771;   -3,175;   -1,227
717,737;28987,740;    0,280;    0,409
718,309;28622,982;    0,280;   -0,045
718,880;28553,407;   -0,539;   -1,409
719,452;28809,649;   -0,175;   -1,591
720,024;28431,073;    0,734;   -0,591
720,595;28992,133;   -2,902;    0,955
721,167;28499,648;    0,370;   -2,045
721,738;27990,254;   -0,812;   -1,045
722,309;27964,678;   -0,993;   -1,227
722,881;27756,193;   -1,357;    0,773
723,452;28393,526;   -2,630;    2,864
724,023;28569,587;   -0,721;    2,682
724,595;28332,829;    0,007;    0,682
725,166;28051,526;    0,007;   -0,409
725,737;27737,404;    1,734;    0,227
726,308;27801,283;   -0,266;    0,318
726,879;28267,889;   -1,630;    1,227
727,450;28112,313;    0,552;   -0,045
728,021;28071,919;    3,097;    0,682
728,592;27851,343;    0,734;    0,500
729,163;28187,313;    0,643;   -0,136
729,734;28190,555;    0,188;   -0,227
730,305;28533,888;    1,734;    0,136
730,876;28914,039;    0,188;    2,955
731,447;28637,282;    2,188;    2,682
732,017;28735,342;    1,097;    1,864
732,588;28246,402;    0,734;    1,227
733,159;28372,917;    0,643;   -1,045
733,729;28148,978;    0,006;    0,409
734,300;27461,584;    0,915;    0,864
734,870;27957,281;    3,461;    0,591
735,441;28555,432;    0,370;   -0,591
736,011;28273,583;    0,643;   -1,591
736,582;28196,735;   -0,812;    0,045
737,152;27731,704;   -1,721;   -2,045
737,722;28113,855;   -0,267;   -0,682
738,293;27862,734;   -1,358;    1,318
738,863;27730,885;    2,461;    2,318
739,433;27494,128;    5,279;    0,318
740,003;28156,734;   -0,994;   -0,682
740,573;27540,703;    2,097;   -1,591
741,143;27527,945;   -1,085;    0,318
741,713;28267,642;    1,188;   -0,500
742,283;27945,975;    0,915;    1,591
742,853;27777,127;    1,915;    1,591
743,423;27228,369;    1,733;    0,045
743,993;27384,066;   -0,358;    1,500
744,563;26722,126;    0,097;   -0,864
745,133;26630,187;   -0,812;   -0,864
745,702;27409,883;   -0,267;    1,773
746,272;26611,035;   -0,176;    0,591
746,842;26365,913;   -1,358;   -0,591
747,411;26767,337;   -0,267;   -0,318
747,981;26970,398;    0,097;    0,500
748,551;26999,458;    2,278;   -1,045
749,120;26817,791;    0,642;   -0,227
749,690;27170,761;   -0,631;    2,409
750,259;27530,185;    1,369;    2,955
750,828;27490,700;    1,551;   -1,955
751,398;27765,306;    1,278;   -0,045
751,967;27232,003;    2,187;    0,409
752,536;27516,790;   -0,813;   -0,227
753,105;27848,305;    0,096;    0,227
753,675;27672,184;    0,096;    1,773
754,244;27623,790;   -0,904;    3,591
754,813;27673,759;    0,551;    1,227
755,382;27305,002;    0,460;    0,955
755,951;27869,880;    1,551;    3,682
756,520;27373,213;   -0,085;    1,864
757,089;27941,274;    0,278;    0,500
757,658;28072,789;    1,733;    1,227
758,227;28078,395;    1,096;    0,318
758,795;28388,455;    1,187;    1,136
759,364;28610,425;   -0,086;   -0,591
759,933;27644,212;   -1,176;   -0,045
760,501;27170,909;    0,733;   -1,318
761,070;27626,242;   -2,813;   -1,409
761,639;28388,848;   -1,904;    1,318
762,207;27665,272;    1,551;   -0,955
762,776;27584,606;    0,369;    0,864
763,344;27573,302;   -0,995;    0,591
763,913;26736,454;   -0,722;    1,409
764,481;27449,605;    1,005;   -0,136
765,049;27186,029;   -1,358;    1,409
765,618;27090,090;   -0,086;    0,318
766,186;27195,332;    0,278;    0,136
766,754;27398,574;    0,005;    1,864
767,322;26375,725;   -1,995;    0,409
767,890;26412,604;   -0,722;   -1,773
768,459;26763,483;   -2,177;   -0,318
769,027;26911,452;    1,641;    3,409
769,595;25946,785;    3,278;    2,591
770,163;26337,118;    3,823;    2,955
770,730;26103,997;    0,732;   -0,136
771,298;25935,512;    0,187;   -1,409
771,866;26033,845;   -1,541;    4,955
772,434;26336,633;   -0,631;   -1,864
773,002;26523,784;    0,005;    0,682
773,569;26196,845;    0,914;    1,682
774,137;25993,723;   -0,268;   -0,045
774,705;26783,966;    0,278;   -0,136
775,272;26296,299;    0,641;    0,682
775,840;26019,541;   -0,177;    2,682
776,407;25552,783;    0,277;    1,955
776,975;25134,844;   -0,632;    0,318
777,542;26161,995;   -1,086;   -0,045
778,110;25989,692;   -1,268;   -0,045
778,677;25680,752;   -2,359;   -0,864
779,244;25446,540;    2,186;    1,045
779,812;25579,055;    1,823;    0,864
780,379;25438,661;    0,005;    1,136
780,946;25683,539;    1,005;   -0,773
781,513;25996,873;   -1,450;    0,318
782,080;25397,933;   -0,086;    2,864
782,647;26128,903;   -0,268;    3,045
783,214;25682,054;   -0,177;    3,864
783,781;25274,205;   -0,723;   -0,682
784,348;25139,538;   -0,632;    1,500
784,915;25654,326;   -3,177;    0,318
785,482;25405,568;    1,368;    2,591
786,049;25810,720;    0,186;   -0,591
786,615;25971,507;    0,277;   -0,955
787,182;25735,386;    0,186;   -0,682
787,749;25371,628;   -2,814;    1,409
788,315;24716,598;   -1,632;   -0,409
788,882;25036,567;    1,550;   -1,227
789,448;25656,264;    1,732;   -0,955
790,015;25697,325;    1,095;    3,227
790,581;25296,567;    1,459;    0,227
791,148;25146,264;    0,641;    1,045
791,714;25470,051;   -0,541;    3,136
792,280;25102,294;    0,186;    1,591
792,847;24629,627;    0,550;    2,500
793,413;25179,233;   -0,269;   -0,318
793,979;24716,111;    3,459;   -1,318
794,545;24788,172;    4,459;    2,682
795,111;24186,323;    2,186;    1,318
795,678;24377,111;    0,731;   -1,682
796,244;23990,717;    3,368;    0,136
796,810;24518,323;    1,731;    0,773
797,375;24265,474;    0,549;   -2,136
797,941;24311,353;   -0,541;    0,591
798,507;24489,322;   -0,451;   -0,955
799,073;24029,382;   -0,360;    0,591
799,639;24088,534;   -2,632;    3,136
800,205;24122,322;    0,095;    2,682
800,770;23682,382;    0,640;    1,773
801,336;23781,806;    1,368;   -0,955
801,901;23404,594;    4,549;    3,136
802,467;23957,291;   -0,542;    2,045
803,033;23296,169;   -0,087;    0,864
803,598;23479,230;    1,913;   -1,045
804,163;23509,108;    1,095;   -0,318
804,729;23489,896;   -0,178;    1,136
805,294;23934,502;    0,822;    2,227
805,859;23727,562;    0,731;   -0,409
806,425;23138,532;    1,186;    2,682
806,990;22824,956;    2,186;    4,318
807,555;23380,925;   -1,451;    2,591
808,120;23235,259;    0,822;   -0,409
808,685;23298,592;    0,185;   -2,500
809,250;22774,288;    0,004;   -0,500
809,815;23074,440;    1,913;    0,682
810,380;23616,682;   -0,269;    1,591
810,945;24149,015;   -1,087;    2,045
811,510;23321,076;    2,094;    1,591
812,075;23067,227;   -0,633;   -1,409
812,640;23050,106;    2,003;    1,409
813,204;23077,439;    0,822;   -0,227
813,769;23573,408;    2,094;   -0,045
814,334;23032,378;    0,458;    0,864
814,898;23137,075;    0,367;    0,591
815,463;22979,681;    1,276;   -0,773
816,027;22933,196;   -0,724;   -2,318
816,592;23012,347;    0,640;   -2,045
817,156;22544,044;    2,094;    1,136
817,721;22354,831;    4,276;    2,318
818,285;22311,255;    2,912;    1,500
818,849;22979,589;   -1,451;    1,682
819,414;22886,740;   -0,269;    2,955
819,978;22462,891;   -1,269;    1,773
820,542;23056,679;    2,003;    0,500
821,106;22774,285;   -0,815;    0,682
821,670;22812,527;   -0,815;    2,591
822,234;22530,769;   -0,270;    1,409
822,798;21929,466;    0,003;    0,500
823,362;21885,708;   -0,633;    4,227
823,926;21171,860;    0,094;    1,136
824,490;21376,284;   -0,997;   -0,682
825,054;21843,072;   -0,088;   -1,136
825,618;21443,041;   -1,542;   -1,500
826,181;21392,465;    0,458;   -1,318
826,745;21291,980;    1,367;   -1,045
827,309;21647,859;    1,185;    1,318
827,872;21018,192;    1,367;    0,955
828,436;22048,798;    1,185;   -0,773
828,999;22073,676;   -0,997;    1,227
829,563;20842,282;   -0,179;    1,136
830,126;20632,343;   -0,179;   -0,591
830,690;20685,767;   -1,997;    2,864
831,253;20264,918;   -0,543;    2,227
831,816;20376,797;   -1,906;    0,500
832,380;20340,494;    0,185;    0,864
832,943;20507,736;   -1,361;   -0,500
833,506;19965,069;    2,639;   -1,227
834,069;20778,493;    3,912;   -0,955
834,632;20835,372;    1,730;    1,318
835,195;20739,796;    1,003;    0,955
835,758;19936,129;   -0,997;    1,955
836,321;19806,008;    0,730;   -1,045
836,884;19880,977;   -0,725;   -0,955
837,447;19936,038;   -2,816;    1,773
838,010;20161,462;    0,366;    3,227
838,573;20453,704;   -1,179;    0,773
839,135;20354,219;   -1,361;   -0,955
839,698;19835,097;    1,275;    0,409
840,261;19350,794;    1,003;   -0,227
840,823;19257,855;   -0,543;    0,864
841,386;19567,188;   -0,452;   -2,409
841,948;19390,430;   -1,361;    1,773
842,511;19133,309;    0,912;    1,682
843,073;19282,187;    1,912;    0,227
843,636;19097,975;   -0,361;   -0,227
844,198;18995,490;    0,911;    0,591
844,760;19131,550;    1,093;    1,955
845,322;18799,065;    0,548;    1,136
845,885;19237,853;    0,730;    0,591
846,447;19667,368;   -1,998;    0,227
847,009;19206,247;    1,911;   -0,682
847,571;19572,944;    0,820;   -2,045
848,133;19705,822;   -1,089;   -1,864
848,695;19497,519;   -0,543;    1,409
849,257;19024,034;   -1,089;   -1,682
849,819;19148,276;   -0,998;   -0,409
850,381;19221,518;   -0,725;   -0,864
850,942;19611,852;    1,093;   -0,591
851,504;19583,457;    1,184;    0,227
852,066;19619,609;    1,275;   -1,591
852,628;19097,851;   -0,180;    1,955
853,189;18709,093;    1,638;    2,682
853,751;18845,517;   -0,907;    1,409
854,312;18655,578;   -0,453;   -1,682
854,874;19156,820;   -2,089;   -0,773
855,435;19648,153;   -0,907;   -1,682
855,997;19786,214;   -1,816;   -0,136
856,558;19109,001;    0,366;    1,773
857,119;19222,971;    0,820;    2,864
857,681;18909,122;    0,002;    0,318
858,242;18928,183;    1,911;   -2,136
858,803;19326,880;    0,456;   -0,773
859,364;19937,576;    0,184;   -4,773
859,925;19263,455;   -2,453;   -0,955
860,486;19119,243;   -0,453;   -0,955
861,047;18871,576;   -0,544;   -1,227
861,608;18679,454;   -1,089;   -0,773
862,169;18804,151;    0,638;   -0,045
862,730;18578,212;    0,456;    1,409
863,291;18865,636;   -0,635;   -0,500
863,852;19217,514;   -0,635;    1,955
864,412;18699,666;   -0,271;   -0,864
864,973;17232,999;   -0,089;    0,500
865,534;17050,787;   -1,726;    0,227
866,094;18607,392;    1,820;    0,227
866,655;18235,544;    1,274;    3,318
867,215;18545,150;    0,274;    0,136
867,776;18352,665;    0,547;   -0,136
868,336;18478,634;   -1,453;    0,136
868,897;17914,604;    2,638;    1,682
869,457;17656,482;    1,365;    0,318
870,017;17892,906;    0,547;   -1,227
870,578;18434,603;   -0,817;    0,773
871,138;18122,573;   -2,089;   -0,955
871,698;17695,179;   -0,817;   -1,318
872,258;17537,421;   -0,453;   -2,864
872,818;17914,209;    2,729;    0,045
873,378;17823,542;    0,638;    1,045
873,938;17401,329;    0,547;    0,500
874,498;17760,390;    0,274;   -1,955
875,058;17631,996;    2,183;    1,773
875,618;17524,511;    1,910;   -2,682
876,177;17412,208;    1,274;    0,136
876,737;16985,359;   -0,090;    1,955
877,297;17049,601;    0,183;    1,955
877,856;17043,480;   -0,362;    0,318
878,416;17019,540;    1,183;   -0,136
878,976;17214,964;   -1,817;    0,409
879,535;17391,297;    0,092;    3,136
880,095;17094,722;   -0,544;    0,045
880,654;17239,146;   -1,090;    1,318
881,213;17293,388;    2,456;    1,500
881,773;16923,994;    2,637;    2,682
882,332;17290,327;    3,365;    5,136
882,891;17124,569;    3,092;    2,136
883,451;17629,175;   -1,272;    1,682
884,010;17059,145;   -2,908;   -0,409
884,569;17153,660;   -0,999;   -0,045
885,128;17267,811;    2,819;   -1,864
885,687;17350,144;    4,455;    0,682
886,246;17040,204;    1,455;    2,136
886,805;16801,174;    2,455;    2,045
887,364;17106,871;   -0,999;   -0,500
887,922;17487,568;   -1,181;    0,045
888,481;16981,810;   -1,545;    0,591
889,040;17310,688;    1,183;    2,136
889,599;18007,113;    2,455;    1,409
890,157;18032,991;    1,455;    2,409
890,716;17702,324;   -0,090;    0,227
891,274;17574,476;    0,092;   -1,136
891,833;17979,900;    1,546;    0,864
892,391;17848,324;   -0,454;    0,500
892,950;17944,293;    1,819;   -0,773
893,508;18296,990;    0,455;   -0,409
894,067;17618,596;    0,637;    0,136
894,625;17541,838;   -0,636;   -1,500
895,183;17806,990;   -0,363;   -0,682
895,741;17640,505;    1,728;   -1,773
896,299;17523,929;   -0,545;   -2,409
896,858;17723,625;    0,819;   -1,591
897,416;17825,868;    2,728;   -1,318
897,974;17594,292;    1,819;    0,318
898,532;17680,261;    6,091;    2,682
899,089;17593,776;    2,091;   -0,682
899,647;17654,928;   -1,454;    1,318
900,205;17373,079;    1,182;    1,045
900,763;17553,685;   -0,454;    0,227
901,321;17583,200;    2,364;   -1,409
901,878;17019,078;   -1,000;   -0,773
902,436;16939,775;   -1,363;    1,318
902,994;17273,472;    4,728;    3,682
903,551;16664,805;    0,728;    0,409
904,109;17052,866;    0,182;   -1,409
904,666;16652,926;    2,455;    1,045
905,224;16525,623;    0,182;   -0,409
905,781;16194,592;    0,727;   -0,318
906,338;16298,744;   -1,363;    1,045
906,895;16242,531;    0,637;    2,045
907,453;16161,410;    1,727;    1,136
908,010;16187,561;   -0,909;    0,409
908,567;15833,622;    1,273;    0,591
909,124;15373,319;    0,364;   -1,500
909,681;15447,925;   -2,909;    0,682
910,238;15574,167;    0,636;   -1,318
910,795;15910,227;   -0,273;   -1,136
911,352;15497,591;   -2,909;   -2,682
911,909;14916,409;   -1,364;   -0,864
912,466;15441,318;   -3,182;    1,500
913,022;14961,318;   -1,636;    0,500
913,579;15308,864;   -0,909;    2,045
914,136;15014,409;    1,636;    0,955
914,692;15339,227;    0,091;   -1,227
915,249;14912,136;    1,455;    0,409
915,806;15169,318;    0,182;    1,955
916,362;14897,227;    1,909;    1,864
916,918;14446,955;    2,000;    1,045
917,475;14395,955;   -1,182;    0,955
918,031;14500,227;    3,364;   -0,045
918,587;13977,409;   -0,909;   -0,318
919,144;14204,682;   -2,273;    0,227
919,700;14516,136;    1,727;    0,773
920,256;14080,591;    0,727;    0,045
920,812;13677,864;   -0,727;   -1,045
921,368;13695,318;   -1,727;   -1,045
921,924;13320,318;    0,182;   -0,136
922,480;12890,409;   -0,545;    1,227
923,036;13486,955;    1,273;    1,955
923,592;13442,500;    0,455;    0,318
924,148;13351,773;    0,455;   -0,955
924,704;12651,409;   -1,364;   -0,409
925,259;12905,682;   -0,273;    0,591
925,815;12659,227;    1,455;    0,500
926,371;12215,045;    2,909;    1,409
926,926;12077,227;    2,091;    0,591
927,482;11704,500;   -1,364;    0,773
928,037;11570,045;    0,909;    2,045
928,593;11835,864;    1,636;    1,045
929,148;11680,864;   -1,818;   -1,500
929,704;11185,318;   -1,455;   -0,500
930,259;11431,136;    0,091;   -0,136
930,814;10447,955;   -0,818;    1,955
931,369;10115,500;    1,091;   -0,773
931,925;10031,409;   -0,091;    0,136
932,480; 9910,136;   -2,818;   -2,591
933,035; 9762,773;    0,545;   -0,318
933,590; 9509,682;    0,364;   -1,773
934,145; 9159,136;   -1,364;   -0,318
934,700; 9544,318;    0,455;   -0,591
935,255; 9329,773;   -0,091;    0,045
935,809; 8547,773;    3,182;    0,864
936,364; 7717,227;   -0,455;   -0,136
936,919; 7670,136;    0,455;   -1,773
937,474; 7532,500;    1,455;    0,136
938,028; 7307,591;   -1,636;    1,136
938,583; 6764,682;    1,818;    4,682
939,138; 7037,045;    2,091;    2,136
939,692; 6470,773;    1,636;   -1,136
940,247; 6154,136;   -0,727;   -1,045
940,801; 5691,045;   -0,636;    0,227
941,355; 5595,955;   -0,364;    2,591
941,910; 5237,591;   -0,273;   -2,136
942,464; 5336,955;   -0,818;   -0,318
943,018; 5098,045;    1,000;   -0,227
943,572; 5047,682;    2,545;   -0,682
944,126; 4438,318;    0,091;   -0,409
944,681; 4336,773;    3,091;    0,227
945,235; 4316,136;    1,000;   -0,591
945,789; 4251,682;    0,364;   -1,864
946,342; 4347,045;    0,455;   -0,591
946,896; 4165,409;   -2,273;    0,955
947,450; 3946,409;    1,545;   -0,227
948,004; 4102,955;    1,727;   -0,045
948,558; 4117,136;    0,273;   -0,864
949,111; 4067,682;   -0,273;   -0,318
949,665; 4058,227;    1,636;   -0,682
950,219; 3934,136;   -0,091;   -1,045
950,772; 4026,045;   -1,909;    1,864
951,326; 3929,136;    0,545;   -0,955
951,879; 4027,682;    0,727;   -2,318
952,433; 4052,409;    0,000;    2,227
952,986; 3879,864;    2,909;    0,682
953,539; 3819,500;   -0,273;    0,591
954,093; 3765,955;    0,545;   -1,318
954,646; 3903,591;    0,909;    1,318
955,199; 3699,045;    0,000;   -0,500
955,752; 3579,955;   -0,455;    1,773
956,305; 3549,955;   -0,091;    2,955
956,858; 3724,864;    0,818;   -0,318
957,411; 3874,409;   -0,545;    2,136
957,964; 3729,136;    1,364;    2,136
958,517; 3709,591;   -1,545;    3,136
959,070; 3556,773;   -0,455;    1,955
959,623; 3615,500;    1,091;    1,500
960,176; 3377,045;    1,727;    2,045
960,728; 3334,409;   -2,727;    0,773
961,281; 3427,045;    0,545;    0,500
961,834; 3454,682;   -0,909;    0,864
962,386; 3373,136;    1,727;    1,045
962,939; 3294,682;    0,364;   -0,318
963,491; 3452,409;    0,455;    1,136
964,043; 3327,045;    1,182;    2,409
964,596; 3453,045;   -1,000;    2,227
965,148; 3293,045;   -1,000;    1,773
965,700; 3188,409;    1,091;   -0,227
966,253; 3349,409;   -0,636;    0,318
966,805; 3186,773;   -2,273;    0,773
967,357; 3229,682;    1,091;   -1,500
967,909; 3202,045;    0,455;   -1,227
968,461; 3324,227;    0,545;    3,136
969,013; 3233,591;   -0,182;   -0,864
969,565; 3318,682;   -0,455;   -1,136
970,117; 3360,409;   -0,364;    1,045
970,669; 3198,591;    0,182;   -0,136
971,220; 3082,409;   -0,455;   -1,500
971,772; 2990,591;   -0,636;   -0,318
972,324; 3108,864;    0,091;   -0,500
972,876; 3068,409;    0,818;   -0,045
973,427; 3210,682;    1,909;   -1,045
973,979; 3149,773;   -0,727;   -2,500
974,530; 3216,318;    1,818;    1,318
975,082; 3230,318;   -0,545;    1,682
975,633; 3107,773;    1,091;    1,682
976,184; 3250,045;    0,909;    0,773
976,736; 3046,500;    0,091;    0,227
977,287; 2825,045;   -0,909;   -0,500
977,838; 3016,591;    0,909;   -0,318
978,389; 3075,591;   -1,000;   -0,500
978,940; 2967,136;    0,545;   -0,409
979,491; 3002,409;    0,091;   -0,500
980,042; 2947,136;    0,182;    3,045
980,593; 3007,500;   -2,545;    0,227
981,144; 3057,682;    2,545;   -0,500
981,695; 3029,591;    1,455;    1,500
982,246; 2975,773;   -0,273;    1,045
982,797; 3144,045;   -1,727;    0,682
983,347; 3244,591;    0,364;    0,591
983,898; 3384,591;    3,091;    0,409
984,449; 3211,409;    2,182;    0,773
984,999; 3134,409;    1,455;   -1,136
985,550; 2910,045;    0,182;   -0,318
986,100; 2965,409;   -0,455;   -0,318
986,651; 3016,773;   -0,818;    0,045
987,201; 2966,227;   -1,000;   -0,591
987,751; 3050,500;    0,818;    2,864
988,302; 3035,682;    2,636;    1,500
988,852; 3065,136;    0,455;   -1,136
989,402; 3100,864;    0,091;    0,682
989,952; 3012,227;   -2,182;    0,864
990,502; 3127,500;   -0,091;    0,682
991,052; 3110,409;   -0,727;    0,045
991,602; 2963,136;   -2,909;    1,318
992,152; 2955,227;    0,455;    0,682
992,702; 2931,409;    1,364;   -0,045
993,252; 2867,409;   -3,000;   -0,500
993,802; 2933,500;   -0,273;    1,318
994,352; 3190,318;   -1,545;    1,136
994,901; 3276,955;   -0,182;    3,227
995,451; 3190,773;   -0,182;    0,318
996,000; 3274,409;    1,636;    0,318
996,550; 2982,045;    2,273;    0,227
997,100; 2975,864;    1,273;   -0,045
997,649; 3268,773;    2,182;    0,955
998,198; 2907,409;    1,727;   -1,500
998,748; 3076,773;    1,091;   -2,318
999,297; 3011,409;   -0,818;   -0,409
999,846; 3077,864;    1,000;   -0,773
1000,395; 3118,227;   -0,818;    0,500
1000,945; 3066,773;    1,818;   -0,773
1001,494; 3154,955;    2,364;    0,682
1002,043; 3142,227;    4,636;    0,864
1002,592; 2995,682;   -1,091;    1,955
1003,141; 3135,409;   -0,455;   -0,682
1003,690; 2983,227;    1,727;    0,500
1004,238; 3087,227;    1,455;   -0,045
1004,787; 2724,773;    1,364;    1,227
1005,336; 2949,318;    0,364;    0,682
1005,885; 3095,773;    1,364;   -2,773
1006,433; 3251,227;    0,545;    0,955
1006,982; 3280,500;    0,455;    1,682
1007,531; 3212,682;   -1,818;   -0,227
1008,079; 3151,318;   -2,273;    0,500
1008,627; 3295,955;   -1,455;    0,409
1009,176; 3031,136;    0,000;   -1,955
1009,724; 3095,500;    1,091;    0,864
1010,273; 3141,136;    1,273;    0,500
1010,821; 3243,773;    0,091;    1,409
1011,369; 2999,955;   -1,364;    1,318
1011,917; 2975,045;   -1,364;   -0,591
1012,465; 3250,227;    1,273;   -1,591
1013,013; 3376,500;    2,091;   -1,682
1013,561; 3238,409;    0,455;   -0,773
1014,109; 3279,409;   -1,909;    1,682
1014,657; 3163,773;    0,364;    0,591
1015,205; 3301,045;    1,636;   -0,955
1015,753; 3343,500;   -0,545;   -1,409
1016,301; 3358,136;   -2,636;    3,045
1016,848; 3370,591;   -1,273;    0,409
1017,396; 3406,045;    2,545;    0,045
1017,944; 3524,591;    1,182;    1,864
1018,491; 3299,500;    0,273;    1,409
1019,039; 3429,682;    0,455;    0,591
1019,586; 3367,136;   -1,364;    1,682
1020,134; 3476,864;    0,455;    1,500
1020,681; 3482,955;    0,182;   -1,136
1021,228; 3512,136;    2,909;   -2,227
1021,776; 3353,955;    1,182;   -1,136
1022,323; 3568,682;    0,455;    0,773
1022,870; 3488,864;   -1,000;   -0,045
1023,417; 3357,955;    2,636;    1,864
1023,964; 3527,500;    2,636;    1,227
1024,511; 3374,591;    1,000;    0,773
1025,058; 3163,500;    3,182;   -0,045
1025,605; 3226,682;   -2,273;    3,136
1026,152; 3435,045;    1,727;   -0,591
1026,699; 3168,045;    1,818;    1,318
1027,245; 3334,864;   -0,091;    0,318
1027,792; 3546,227;   -1,000;    1,409
1028,339; 3401,682;    2,364;   -0,045
1028,885; 3274,500;    1,000;   -0,227
1029,432; 3225,773;   -0,091;    0,227
1029,978; 3267,682;   -1,000;   -1,591
1030,525; 3191,045;    1,000;    0,409
1031,071; 3446,500;   -1,364;    1,136
1031,618; 3511,591;    0,364;    1,682
1032,164; 3310,409;   -0,091;    3,045
1032,710; 3365,227;    1,636;   -1,500
1033,256; 3281,227;   -0,636;   -0,136
1033,803; 3255,318;   -0,545;    1,500
1034,349; 2980,045;   -1,364;    0,136
1034,895; 3149,955;    0,000;   -0,318
1035,441; 3125,591;   -0,818;    0,318
1035,987; 3131,955;   -2,364;   -0,682
1036,533; 3119,318;   -1,455;   -0,955
1037,078; 3319,500;    1,455;    1,682
1037,624; 3150,955;    2,455;   -0,955
1038,170; 3177,045;    0,455;   -0,318
1038,716; 3070,409;    1,636;   -0,409
1039,261; 2982,773;   -2,273;   -0,773
1039,807; 2945,136;   -0,091;    3,409
1040,352; 2973,864;   -1,909;   -0,318
1040,898; 3037,864;   -1,545;   -0,682
1041,443; 2967,136;   -1,455;   -2,591
1041,989; 2939,864;    1,091;    1,591
1042,534; 2827,864;   -0,364;    2,591
1043,079; 2986,227;    2,909;    0,955
1043,625; 2756,773;    1,818;    0,500
1044,170; 2795,409;   -1,364;    1,045
1044,715; 3030,773;    2,455;    0,955
1045,260; 2856,591;    2,182;   -0,955
1045,805; 2932,773;    1,182;   -0,591
1046,350; 2862,591;    1,364;   -0,409
1046,895; 2796,682;    2,909;    1,591
1047,440; 2729,136;    5,364;    0,409
1047,985; 2653,500;    2,818;   -0,955
1048,530; 2574,136;    1,545;    1,227
1049,074; 2633,500;    0,000;    0,318
1049,619; 2615,864;   -1,364;    1,955
1050,164; 2410,409;    0,455;    0,227
1050,708; 2460,045;   -0,455;    0,045
1051,253; 2804,409;    1,273;   -2,227
1051,797; 2533,773;    0,818;   -1,318
1052,342; 2560,409;   -1,182;    1,045
1052,886; 2541,045;    0,364;   -1,409
1053,430; 2430,864;   -1,364;    0,136
1053,975; 2450,227;   -0,818;   -0,318
1054,519; 2411,500;   -0,727;    3,227
1055,063; 2415,591;    0,909;    1,318
1055,607; 2297,136;   -0,182;    0,227
1056,151; 2330,682;    2,909;    1,682
1056,695; 2256,682;    2,273;   -1,136
1057,239; 2308,500;   -1,727;   -0,682
1057,783; 2322,591;    0,818;   -1,500
1058,327; 2258,773;    0,000;    1,409
1058,871; 2490,227;   -0,545;    1,318
1059,415; 2199,591;   -0,818;   -0,045
1059,958; 2437,045;    1,455;    2,591
1060,502; 2157,500;   -1,000;   -0,773
1061,046; 2087,773;    0,364;   -0,955
1061,589; 2070,409;   -3,000;   -1,136
1062,133; 1942,864;   -1,273;    1,864
1062,676; 1872,955;    1,182;    0,864
1063,220; 1873,591;    1,091;    0,500
1063,763; 1890,045;    0,909;    1,136
1064,306; 1972,136;   -0,909;    1,864
1064,849; 1860,136;   -0,909;    0,591
1065,393; 1865,591;    2,000;   -1,500
1065,936; 1984,045;    0,182;   -0,409
1066,479; 1885,045;   -1,455;    1,318
1067,022; 1886,955;   -0,273;   -0,227
1067,565; 1785,500;   -0,091;   -1,318
1068,108; 1821,318;    0,727;   -0,591
1068,651; 1788,864;   -0,636;    1,409
1069,194; 1723,500;   -0,455;   -1,682
1069,736; 1725,955;   -1,273;    0,955
1070,279; 1707,409;   -1,364;   -0,500
1070,822; 1750,591;   -2,000;   -0,318
1071,364; 1826,409;   -0,364;    1,318
1071,907; 1656,682;   -0,727;    3,227
1072,450; 1567,045;    0,000;   -0,045
1072,992; 1540,773;   -0,273;    3,136
1073,535; 1683,045;    2,091;    2,136
1074,077; 1477,682;   -0,727;    2,045
1074,619; 1453,136;   -1,364;    0,591
1075,161; 1481,591;   -1,091;    1,500
1075,704; 1651,227;    1,545;    1,227
1076,246; 1453,409;   -0,182;    0,682
1076,788; 1374,591;   -0,364;    1,773
1077,330; 1461,500;    1,273;    2,136
1077,872; 1422,318;    0,909;    0,955
1078,414; 1637,864;    2,727;    0,773
1078,956; 1371,591;    1,273;   -0,227
1079,498; 1616,500;    1,636;    0,318
1080,040; 1328,773;    1,909;   -1,318
1080,581; 1281,500;    1,636;   -0,318
1081,123; 1205,500;    0,091;   -0,773
1081,665; 1247,682;   -1,182;   -0,955
1082,206; 1529,864;    1,364;   -0,500
1082,748; 1399,227;    0,727;    2,045
1083,289; 1288,591;   -2,000;    1,318
1083,831; 1199,682;   -0,545;    0,227
1084,372; 1217,409;    0,000;    0,591
1084,913; 1206,955;    1,091;    0,864
1085,455; 1180,227;   -1,909;   -2,045
1085,996; 1161,318;   -2,273;    0,136
1086,537; 1179,591;   -0,091;    0,864
1087,078; 1216,500;   -0,909;   -2,136
1087,619; 1265,045;   -1,273;    0,227
1088,160; 1168,955;    0,000;    1,318
1088,701; 1143,955;   -1,091;    0,682
1089,242; 1096,682;    1,364;   -2,227
1089,783; 1193,773;   -0,273;    1,409
1090,324; 1160,318;    0,455;    0,682
1090,865; 1032,955;    2,727;   -0,409
1091,405; 1008,409;    0,727;    2,227
1091,946; 1025,955;    0,182;   -0,955
1092,487;  965,864;    0,818;   -1,409
1093,027; 1132,318;   -1,364;   -1,500
1093,568;  979,227;   -0,364;    1,227
1094,108; 1072,045;    0,273;    1,773
1094,649; 1020,318;   -1,182;    0,136
1095,189;  952,227;   -0,636;   -0,682
1095,729;  899,955;   -0,091;    0,955
1096,269;  902,591;    0,727;   -0,955
1096,810; 1207,955;   -1,364;    0,500
1097,350; 1034,591;    1,364;   -0,773
1097,890;  940,409;    0,364;    1,227
1098,430; 1184,136;    2,364;    2,864
1098,970; 1066,227;    2,182;    1,682
1099,510;  933,955;    0,545;   -2,318
1100,050;  866,591;    1,000;   -1,591
1100,589;  818,318;   -0,727;   -0,318
1101,129;  951,409;    0,818;   -0,955
1101,669; 1088,409;    1,727;    2,136
1102,209;  920,045;   -0,091;    2,227
1102,748;  880,955;    0,000;    0,955
1103,288;  859,227;    1,273;   -1,227
1103,827;  883,864;    3,091;   -2,227
1104,367;  771,773;   -0,091;   -2,409
1104,906;  729,045;    1,364;   -1,136
1105,445;  804,318;    0,636;   -1,136
1105,985;  745,591;   -0,727;    1,500
1106,524;  791,773;   -1,727;   -0,682
1107,063;  764,955;   -2,727;    1,409
1107,602;  737,591;   -1,909;   -1,500
1108,141;  656,682;   -1,909;    1,500
1108,680;  759,500;   -3,455;   -0,591
1109,219;  696,409;   -0,909;   -0,500
1109,758;  703,500;    0,455;    0,682
1110,297;  678,045;    1,000;   -0,682
1110,836;  620,682;   -0,727;    0,955
1111,375;  790,409;   -2,545;    0,409
1111,913;  791,136;   -1,000;    0,773
1112,452;  719,591;   -0,273;    0,136
1112,991;  614,227;    1,091;    1,955
1113,529;  559,682;   -0,818;   -0,045
1114,068;  637,864;   -0,273;    2,955
1114,606;  541,409;   -0,364;   -0,955
1115,144;  709,227;   -1,273;    1,045
1115,683;  628,409;   -0,727;    0,318
1116,221;  674,591;   -0,455;   -0,864
1116,759;  592,227;    0,636;   -0,864
1117,297;  797,318;    0,000;    1,864
1117,836;  603,955;   -2,182;   -1,227
1118,374;  611,045;    0,182;   -0,682
1118,912;  546,318;    0,909;    2,682
1119,450;  532,409;    1,000;    0,864
1119,988;  583,227;    1,545;    2,136
1120,525; 1030,227;    5,091;    3,318
1121,063;  734,045;    1,182;    1,864
1121,601;  540,591;   -0,909;   -1,227
1122,139;  495,318;   -0,727;   -2,045
1122,676;  705,318;   -0,727;    2,773
1123,214;  624,591;   -1,182;    4,409
1123,751;  439,591;    1,727;    2,227
1124,289;  573,864;   -0,091;   -0,409
1124,826;  443,682;    1,727;    0,227
1125,364;  364,045;    1,727;   -0,955
1125,901;  555,136;    1,182;    1,227
1126,438;  666,318;    0,818;    0,955
1126,975;  392,773;   -0,727;   -0,773
1127,513;  459,318;    0,273;    2,136
1128,050;  365,045;    1,636;   -0,682
1128,587;  454,500;    2,000;   -0,227
1129,124;  505,864;    0,091;    1,318
1129,661;  374,318;    0,273;    0,227
1130,198;  554,318;    1,636;    0,773
1130,734;  497,682;    0,182;    1,409
1131,271;  338,136;   -0,909;    0,864
1131,808;  506,591;    2,909;    3,045
1132,345;  385,409;    1,545;    0,318
1132,881;  260,682;   -1,545;   -1,864
1133,418;  405,045;    0,727;   -1,136
1133,954;  338,136;    2,455;   -2,682
1134,491;  409,227;    1,364;   -0,773
1135,027;  306,682;    2,364;    0,864
1135,564;  395,045;    0,273;    2,955
1136,100;  381,409;    0,364;    2,136
1136,636;  267,955;   -1,273;   -1,045
1137,172;  367,955;    0,000;   -1,045
1137,708;  287,591;   -1,364;   -1,045
1138,245;  295,773;    1,273;   -1,227
1138,781;  243,682;    1,091;   -3,318
1139,317;  310,136;    1,273;   -1,409
1139,852;  292,318;    3,091;    0,136
1140,388;  412,773;   -1,182;   -0,409
1140,924;  293,682;   -1,091;   -2,227
1141,460;  228,682;   -1,636;    0,136
1141,996;  169,227;   -1,364;    2,682
1142,531;  222,136;    1,364;    3,318
1143,067;  441,136;    1,182;    1,045
1143,602;  494,591;   -0,091;   -0,318
1144,138;  331,045;   -2,636;    1,045
1144,673;  192,682;   -1,455;    1,409
1145,209;  266,409;   -1,909;   -0,318
1145,744;  191,045;   -0,727;    0,864
1146,279;  324,318;    1,818;   -0,136
1146,815;  237,955;    1,545;   -2,682
1147,350;  275,227;   -1,364;    0,045
1147,885;  190,318;   -0,818;   -1,318
1148,420;  193,591;   -2,273;    0,773
1148,955;  174,682;   -1,727;    1,864
1149,490;  195,591;   -0,909;   -1,591
1150,025;  178,318;    0,455;   -1,773
1150,560;  287,136;    1,091;   -0,955
1151,094;  256,500;    1,455;   -0,591
1151,629;  269,864;    1,636;    0,864
1152,164;  197,227;    1,364;    1,318
1152,698;  151,682;   -0,182;   -0,136
1153,233;  106,136;    0,091;   -0,682
1153,767;  154,591;   -3,000;   -2,318
1154,302;  201,227;   -1,455;    1,773
1154,836;  203,591;   -0,455;   -2,136
1155,371;  260,318;   -1,364;    3,682
1155,905;  209,136;   -0,636;    1,682
1156,439;  183,500;   -0,636;   -0,500
1156,973;  213,773;    0,364;    0,318
1157,507;  145,955;   -0,364;    0,682
1158,042;  173,045;   -0,727;    1,045
1158,576;  222,045;    0,182;    1,773
1159,110;  211,591;   -0,818;    2,409
1159,643;  183,773;    0,636;   -0,045
1160,177;  113,409;   -1,545;    1,500

