
Integration time [ms]:   0,040
Averaging Nr. [scans]: 11
Smoothing Nr. [pixels]: 0
Data measured with spectrometer [name]: 7318044SP
Wave   ;Sample   ;Dark     ;Reference
[nm]   ;[counts] ;[counts] ;[counts] 

186,757;   23,461;   31,551;    1,318
187,357;   46,651;   22,551;    0,955
187,958;   28,533;   15,460;   -1,591
188,558;   61,095;    8,915;   -1,227
189,159;   28,563;    6,733;   -4,500
189,759;    0,531;    7,278;   -3,591
190,360;    6,012;    2,824;   -2,136
190,960;   36,975;    2,915;   -4,136
191,560;   39,927;    3,189;   -6,591
192,161;  253,520;    4,372;   -3,500
192,761;  116,274;    4,010;   -3,227
193,361;   62,107;    1,556;   -3,773
193,962;  110,954;    2,010;   -2,682
194,562;   37,191;    1,189;   -3,955
195,162;   54,839;   -2,448;   -2,227
195,762;  188,917;   -3,176;   -0,045
196,362;  135,654;    1,370;   -2,500
196,963;   29,699;    2,006;   -0,864
197,563;   92,823;    1,551;   -0,955
198,163;   43,064;    0,096;   -0,682
198,763;   51,626;    1,733;   -0,500
199,363;  121,962;    3,096;   -0,500
199,963;   91,170;    0,369;    0,409
200,563;   67,938;    2,823;   -1,409
201,163;   53,981;    3,277;   -0,227
201,763;  118,432;    3,732;    0,318
202,363;   69,863;    1,459;    1,500
202,963;  130,846;    1,459;    1,045
203,563;  221,232;    0,277;    0,500
204,162;  109,689;    2,096;   -1,864
204,762;  103,633;    0,550;    0,591
205,362;   76,043;    3,004;    1,955
205,962;  145,162;    3,096;    1,955
206,562;  143,067;    1,823;    2,318
207,161;  113,975;   -0,087;    0,318
207,761;  244,825;    1,277;    2,409
208,361;  140,236;   -0,268;    1,409
208,960;  199,124;    0,459;    1,500
209,560;  250,908;    1,277;    1,591
210,160;  245,352;    0,550;    1,864
210,759;  199,920;    4,186;    1,227
211,359;  205,920;    1,459;    1,045
211,958;  425,899;    1,277;    2,045
212,558;  477,713;    1,732;    1,864
213,157;  344,269;    1,822;    1,500
213,757;  682,743;    3,822;   -0,227
214,356;  433,761;    1,277;   -0,409
214,956;  697,707;    3,095;    0,409
215,555;  399,111;    2,095;    2,136
216,154;  343,505;   -2,723;   -0,591
216,754;  338,140;    0,277;    0,773
217,353;  425,002;   -0,268;   -1,045
217,952;  297,370;   -0,178;    0,318
218,552;  507,098;    1,368;   -0,773
219,151;  399,593;    0,277;    0,955
219,750;  394,124;    0,004;   -0,227
220,349;  405,526;   -0,451;    1,045
220,948;  537,810;   -1,360;    1,136
221,548;  449,003;    0,913;    1,227
222,147;  542,029;   -0,087;   -0,409
222,746;  789,081;   -0,451;   -0,955
223,345;  631,085;    0,731;    0,500
223,944;  622,584;   -0,451;    0,773
224,543;  705,846;    1,004;   -1,409
225,142;  788,888;    0,094;    0,136
225,741;  699,287;   -0,814;    1,045
226,340;  688,594;   -0,451;   -0,955
226,939;  975,937;   -0,996;   -0,136
227,538;  765,860;   -0,360;   -0,773
228,137;  959,445;   -0,814;    0,864
228,735;  902,717;   -0,541;    1,227
229,334;  729,624;   -0,905;   -0,227
229,933; 1062,051;    0,459;    0,591
230,532; 1123,405;    1,186;   -0,409
231,131; 1197,883;    1,732;    0,318
231,729; 1089,410;   -2,450;   -2,318
232,328; 1010,923;   -0,723;   -1,500
232,927;  986,393;    1,004;   -0,500
233,525;  992,912;    3,640;    0,045
234,124; 1099,011;    2,368;   -1,591
234,723; 1015,472;    0,913;   -1,045
235,321; 1066,272;    2,277;    0,136
235,920; 1171,411;    1,186;   -1,227
236,518; 1416,575;    3,459;    0,318
237,117; 1299,791;    0,004;   -0,227
237,715; 1361,140;    0,640;   -0,500
238,314; 1453,953;   -0,087;   -2,318
238,912; 1657,620;   -0,723;   -1,409
239,510; 1551,253;    0,459;   -1,227
240,109; 1743,508;    0,004;    3,773
240,707; 1736,118;   -0,996;    1,227
241,305; 1771,609;    0,550;    0,136
241,904; 1947,791;   -0,178;   -2,045
242,502; 2044,157;   -0,632;   -0,227
243,100; 1997,957;   -0,087;   -0,955
243,698; 2160,760;    0,732;    1,682
244,297; 2279,898;   -0,632;    0,682
244,895; 2277,543;   -0,269;   -2,318
245,493; 2560,157;    2,186;   -0,591
246,091; 2577,578;    1,368;   -1,318
246,689; 2564,213;    1,004;    0,591
247,287; 2656,636;    0,822;   -1,136
247,885; 2888,562;   -1,451;    1,227
248,483; 2960,696;    1,822;   -0,500
249,081; 3062,910;    0,185;    1,591
249,679; 3227,847;   -0,178;    1,682
250,277; 3421,465;   -1,723;    0,864
250,875; 3449,594;   -1,087;   -1,045
251,473; 3468,095;   -1,178;    0,500
252,071; 3650,514;    1,459;    1,045
252,669; 3757,039;   -1,814;    0,318
253,267; 3927,430;   -0,087;    0,773
253,864; 3865,182;   -0,360;    0,682
254,462; 3951,014;    1,640;    1,591
255,060; 3862,192;   -0,269;    1,318
255,658; 4074,766;    0,822;   -0,136
256,255; 4435,090;    0,186;   -2,045
256,853; 4369,834;   -0,269;    1,409
257,451; 4352,610;    0,822;    1,864
258,048; 4749,151;    1,822;    1,864
258,646; 4450,195;    1,731;   -1,045
259,243; 4610,744;   -0,087;    2,227
259,841; 4645,736;   -0,814;    0,318
260,438; 4589,987;   -0,087;    0,864
261,036; 5092,111;   -1,905;    1,409
261,633; 5059,677;   -0,087;    2,227
262,231; 4898,612;    2,731;   -0,045
262,828; 5018,924;   -0,905;    1,136
263,425; 5039,241;    0,913;   -0,591
264,023; 5261,192;    0,186;    0,045
264,620; 4916,557;   -0,360;   -0,318
265,217; 5197,585;   -2,087;    3,136
265,815; 5247,454;   -1,905;    2,136
266,412; 5173,496;    0,731;    0,136
267,009; 5209,973;   -1,451;    0,773
267,606; 5222,104;    0,822;   -0,955
268,203; 5162,963;   -0,269;   -0,591
268,801; 5359,796;    1,731;    0,591
269,398; 5574,140;   -0,360;    2,500
269,995; 5552,742;    0,277;    1,591
270,592; 5387,655;   -0,632;   -0,500
271,189; 5495,716;    0,186;    0,409
271,786; 5632,181;   -0,632;    1,227
272,383; 5585,022;   -1,087;    0,227
272,980; 5663,398;    0,277;    0,318
273,577; 6013,827;    0,004;    1,227
274,174; 5631,134;    0,822;    2,591
274,771; 5599,221;   -0,814;   -0,773
275,367; 5811,644;    2,277;    1,409
275,964; 5779,443;    0,731;   -0,500
276,561; 5813,587;    1,549;   -1,045
277,158; 5982,847;    0,095;   -1,773
277,755; 6152,365;    2,185;    0,409
278,351; 5677,830;   -0,451;   -1,500
278,948; 5933,606;   -0,815;    0,045
279,545; 5951,627;   -1,360;    2,318
280,141; 6538,243;   -1,723;   -2,045
280,738; 6408,037;   -0,451;   -0,136
281,334; 6609,595;   -1,633;    0,591
281,931; 6149,045;   -0,087;   -1,318
282,528; 6317,526;    0,822;   -0,500
283,124; 6948,377;   -1,087;   -0,500
283,721; 6878,951;   -0,451;    1,409
284,317; 6763,653;    0,185;    2,500
284,913; 7317,559;   -1,360;    0,591
285,510; 7511,195;    0,640;   -0,318
286,106; 7578,063;   -2,269;   -0,955
286,703; 7222,755;   -0,360;    1,955
287,299; 7476,827;   -1,451;   -0,591
287,895; 7703,224;    0,822;   -1,045
288,491; 8179,322;    0,186;    2,136
289,088; 8047,571;   -2,360;    2,409
289,684; 8150,766;   -1,723;    1,500
290,280; 8170,695;    0,368;    0,682
290,876; 8288,889;    1,822;    5,500
291,472; 8280,059;    1,276;    2,227
292,068; 8396,337;    1,367;    0,227
292,665; 8150,191;    2,095;    0,773
293,261; 7911,172;    0,276;    2,136
293,857; 8293,966;    2,913;    2,136
294,453; 8317,868;    3,550;    0,955
295,049; 8250,612;   -0,268;    1,955
295,644; 8292,695;    0,095;    0,136
296,240; 8262,014;   -0,905;   -0,136
296,836; 8379,724;   -0,995;    0,318
297,432; 8648,558;    1,096;   -0,500
298,028; 8707,165;    0,732;    0,773
298,624; 9089,635;    1,459;    1,864
299,220; 9336,779;    2,368;    0,591
299,815; 9031,578;    1,005;   -0,409
300,411; 8959,067;    0,914;    1,773
301,007; 8952,708;    1,368;    0,227
301,602; 8952,513;   -0,541;   -2,318
302,198; 9111,972;    0,732;   -0,773
302,794; 9470,656;    1,187;   -0,500
303,389; 9563,931;   -1,177;    1,045
303,985; 9632,084;    0,550;    1,409
304,580; 9619,382;    1,459;    1,591
305,176; 9604,945;   -3,086;    0,136
305,771; 9548,892;   -1,268;   -1,227
306,367; 9423,413;    4,095;    0,136
306,962; 9726,331;    0,641;    1,500
307,558; 9475,361;   -0,450;    0,136
308,153; 9362,401;    1,095;   -1,136
308,748; 9566,729;   -0,814;    1,682
309,344; 9533,807;   -0,632;   -1,318
309,939; 9618,648;   -1,905;   -1,318
310,534; 9873,864;   -0,086;   -1,682
311,130; 9773,518;    0,459;   -2,500
311,725; 9504,524;    1,004;   -0,500
312,320; 9801,121;    2,459;    0,045
312,915; 9678,501;    1,459;   -1,045
313,510; 9737,647;    1,550;   -0,500
314,105;10178,984;    1,096;    1,409
314,700; 9557,445;   -3,086;   -1,045
315,295; 9257,109;   -0,904;    0,045
315,890; 8884,875;    1,277;    0,864
316,485; 9146,799;   -0,359;   -0,318
317,080; 9257,424;   -3,086;    1,591
317,675; 9743,031;    2,005;   -0,682
318,270; 9227,158;    5,550;    3,318
318,865; 9251,158;    3,278;    3,045
319,460; 9081,483;   -0,904;    0,591
320,055; 9288,938;   -0,541;   -1,227
320,650; 8993,631;   -1,995;   -0,591
321,244; 9042,851;   -0,177;   -1,409
321,839; 9888,174;   -1,541;   -0,227
322,434; 9720,666;   -1,086;   -1,591
323,029; 9425,647;    1,732;    1,591
323,623; 9278,274;    1,550;    0,773
324,218; 9059,369;    2,368;    1,409
324,812; 8990,475;    1,096;    1,591
325,407; 8817,119;   -0,814;    2,045
326,002; 8775,908;    0,277;   -0,409
326,596; 9089,351;    0,914;    1,318
327,191; 9263,995;    0,823;   -1,045
327,785; 8920,442;   -0,813;   -0,227
328,379; 9156,117;    1,368;    0,136
328,974; 8955,693;    0,914;   -3,955
329,568; 9248,415;    0,186;   -2,409
330,163; 9125,316;    2,096;    1,045
330,757; 9457,862;    2,459;    1,591
331,351; 8863,792;    0,459;    0,682
331,945; 9204,837;    0,914;    1,409
332,540; 8894,611;   -1,723;   -0,591
333,134; 9047,742;   -1,086;    0,773
333,728; 9263,490;    0,005;    0,318
334,322; 9618,327;   -1,177;   -0,864
334,916; 8972,720;    0,277;    0,955
335,510; 9333,094;   -0,450;   -0,136
336,105; 9597,904;   -1,086;    1,591
336,699; 9324,250;   -1,086;    0,591
337,293; 9326,779;   -1,723;    0,318
337,887; 9474,697;   -2,723;    1,955
338,481; 9600,914;    0,459;    0,591
339,074; 9773,901;   -0,359;    2,682
339,668; 9645,139;   -1,632;    1,227
340,262; 9910,137;    1,732;    3,227
340,856; 9470,516;    1,822;   -0,682
341,450; 8930,038;    1,004;    1,864
342,044; 9760,597;    1,459;    0,136
342,637; 9568,508;    0,913;   -2,136
343,231; 9441,853;   -2,360;    0,682
343,825; 9421,977;   -1,086;   -0,591
344,419; 9441,841;   -1,995;    0,500
345,012; 9275,228;    2,459;    4,045
345,606; 9285,284;    4,641;    1,591
346,199; 9182,486;   -1,813;   -0,227
346,793; 8764,088;    1,914;    2,045
347,386; 8964,625;   -0,813;   -1,136
347,980; 8947,017;   -0,268;   -0,045
348,573; 8777,156;    2,278;    0,409
349,167; 8490,202;    5,278;    4,773
349,760; 8836,234;    2,914;    2,682
350,354; 8786,681;   -0,813;    1,136
350,947; 8585,456;    1,096;    1,682
351,540; 8288,667;   -0,358;   -1,409
352,134; 8221,264;    1,096;    1,136
352,727; 8282,559;   -0,086;    1,136
353,320; 8107,299;    0,005;    0,591
353,913; 7963,425;   -1,995;    1,864
354,507; 8142,338;    0,823;   -1,227
355,100; 8179,970;    0,460;    0,864
355,693; 7474,667;    2,005;    2,409
356,286; 7491,809;    0,823;    2,773
356,879; 7806,235;   -0,722;    1,227
357,472; 7417,359;   -0,904;    1,500
358,065; 7626,225;   -0,722;    2,500
358,658; 7554,962;   -0,540;    2,318
359,251; 7228,782;   -1,631;   -0,591
359,844; 6767,768;   -1,904;   -1,136
360,437; 6921,486;   -2,995;    0,045
361,030; 7169,024;    1,369;   -0,682
361,623; 6772,214;    2,824;    0,318
362,215; 6807,889;   -0,086;    2,045
362,808; 6681,258;   -2,358;   -1,682
363,401; 6852,087;   -2,449;    0,136
363,994; 6607,321;   -0,631;   -1,500
364,586; 6518,601;    0,824;   -1,500
365,179; 6693,254;   -0,449;   -1,136
365,772; 6183,823;   -1,995;    2,045
366,364; 6448,565;    1,915;   -3,227
366,957; 6657,437;    2,279;   -0,045
367,549; 6618,640;    2,188;   -0,864
368,142; 6334,801;    1,825;   -1,500
368,734; 6515,064;    0,734;   -2,136
369,327; 6476,776;    1,643;   -0,500
369,919; 6392,992;   -1,538;    0,409
370,512; 6223,620;   -1,083;   -0,500
371,104; 5987,611;   -0,901;    1,591
371,696; 6152,377;    1,191;   -0,955
372,289; 6220,387;    0,373;    1,136
372,881; 6316,901;   -2,080;    1,318
373,473; 6224,463;   -2,170;    1,136
374,066; 6036,686;   -0,169;    0,500
374,658; 5940,047;    0,378;    1,136
375,250; 6221,872;    0,653;   -1,409
375,842; 6080,310;    0,473;   -0,045
376,434; 5947,123;   -0,435;   -0,409
377,026; 6459,544;    0,204;   -2,500
377,618; 6331,733;   -0,158;   -0,682
378,210; 6194,036;   -0,338;   -1,955
378,802; 6063,877;    0,754;   -0,591
379,394; 6041,529;    1,846;    0,682
379,986; 6536,419;    1,393;   -0,955
380,578; 6633,548;   -0,153;    0,773
381,170; 6051,838;   -0,972;    0,045
381,762; 5991,670;    0,755;    1,409
382,354; 6165,180;   -0,065;   -1,318
382,945; 6273,724;   -2,976;    0,318
383,537; 6410,344;   -2,705;   -1,955
384,129; 6417,657;   -2,160;   -1,136
384,721; 6562,126;   -0,252;    0,955
385,312; 6481,825;   -0,161;   -0,955
385,904; 6581,316;   -2,706;    1,591
386,496; 6020,015;   -0,979;    1,045
387,087; 6123,421;    1,022;    2,500
387,679; 6134,670;   -1,160;    0,045
388,270; 6281,742;    2,840;    2,045
388,862; 6386,240;    1,295;   -0,318
389,453; 6259,687;   -0,887;    1,045
390,045; 6497,929;   -0,705;   -2,682
390,636; 6451,695;    0,204;   -0,591
391,227; 6322,631;   -0,523;   -0,045
391,819; 6406,827;    0,204;    0,773
392,410; 6454,361;    1,022;    0,045
393,001; 6406,904;   -0,979;   -1,591
393,593; 6672,492;    1,930;   -0,045
394,184; 6531,542;    1,385;   -0,409
394,775; 6415,209;    1,839;    2,136
395,366; 6628,604;    1,385;    0,773
395,957; 6578,575;    0,113;    0,136
396,548; 6842,233;   -0,342;    2,682
397,139; 7133,473;   -2,433;    0,591
397,730; 6866,481;   -1,888;    0,955
398,321; 6941,137;   -1,252;    0,955
398,912; 6977,265;   -0,615;    0,136
399,503; 7081,476;   -3,524;   -1,409
400,094; 6544,428;    0,294;    1,682
400,685; 6445,710;   -0,433;    0,045
401,276; 6462,340;    0,930;   -0,955
401,867; 6749,809;   -0,888;    0,773
402,458; 6845,580;   -2,251;   -2,318
403,048; 6812,451;    1,112;    0,591
403,639; 6438,972;    0,840;    0,864
404,230; 6698,484;    2,476;    0,318
404,821; 6623,839;   -0,615;    0,045
405,411; 6716,157;    1,203;   -2,591
406,002; 6330,029;   -1,252;   -1,136
406,592; 6216,231;    2,294;    0,045
407,183; 6472,743;    0,566;   -1,500
407,774; 6372,975;    3,475;   -0,136
408,364; 6630,846;    0,930;    0,409
408,954; 6271,642;    0,384;    1,227
409,545; 6310,003;    1,021;    1,045
410,135; 5858,572;    1,293;    0,500
410,726; 6013,370;    1,838;    0,318
411,316; 6303,310;    0,111;    0,773
411,906; 5978,722;   -0,253;   -0,409
412,497; 5548,814;   -1,070;   -0,045
413,087; 5992,876;   -1,980;   -0,227
413,677; 6320,309;   -0,707;    3,864
414,267; 6152,276;    0,656;    1,409
414,857; 6099,099;   -2,980;    4,227
415,448; 6323,911;    0,839;    0,500
416,038; 6019,491;    0,020;   -0,591
416,628; 5937,489;   -0,889;    0,409
417,218; 5526,015;    0,565;    3,318
417,808; 5668,293;    0,202;   -0,409
418,398; 5985,051;    0,020;    2,682
418,988; 5928,206;    2,020;    0,591
419,578; 6074,647;   -0,707;    1,409
420,168; 6314,451;   -1,343;   -0,955
420,757; 5940,851;   -1,343;   -1,500
421,347; 5605,770;    0,111;   -0,227
421,937; 5721,980;    2,292;    1,409
422,527; 5673,445;    0,838;   -0,773
423,116; 5479,808;   -0,253;   -0,045
423,706; 5683,879;   -1,889;    0,318
424,296; 5586,787;    1,384;    0,682
424,885; 5932,968;   -0,071;   -3,045
425,475; 6115,344;    1,474;   -2,864
426,065; 5935,555;   -0,980;   -0,318
426,654; 5647,285;   -0,435;   -0,318
427,244; 5763,560;    0,020;    1,409
427,833; 5248,645;    1,383;   -0,500
428,423; 5532,428;   -0,526;    1,136
429,012; 6104,086;   -0,344;   -1,136
429,601; 5667,310;   -1,344;    0,136
430,191; 5779,319;    1,292;    4,318
430,780; 5420,944;   -0,344;   -0,409
431,369; 5375,856;    0,746;   -0,045
431,959; 5801,345;   -1,254;    0,500
432,548; 5539,742;   -1,163;   -0,045
433,137; 5569,933;   -1,254;   -1,318
433,726; 5946,744;    0,292;    0,500
434,315; 5454,448;   -0,526;    2,409
434,905; 5486,966;   -1,254;    1,409
435,494; 5442,798;    0,746;    0,955
436,083; 5655,172;   -0,981;   -0,955
436,672; 5485,364;    0,110;    0,500
437,261; 5204,896;    0,292;   -1,955
437,850; 5265,949;    1,383;    0,682
438,439; 5150,584;    3,291;    1,955
439,027; 4999,227;    3,655;    1,773
439,616; 5172,637;    2,927;    1,227
440,205; 4943,591;    0,200;   -2,136
440,794; 4816,369;    2,109;   -0,045
441,383; 4931,631;   -1,346;   -0,591
441,971; 4778,264;   -2,436;    0,591
442,560; 4568,405;    0,563;   -1,773
443,149; 4301,300;    0,379;   -1,318
443,737; 4399,951;   -0,074;   -2,318
444,326; 4503,771;    0,018;    0,318
444,915; 4469,343;   -1,982;    0,864
445,503; 4612,334;   -2,891;   -0,318
446,092; 4248,250;    0,382;    2,136
446,680; 4501,898;    0,382;    0,318
447,269; 4500,511;   -0,346;   -0,318
447,857; 4251,709;    0,018;   -1,773
448,445; 4284,200;    0,563;    1,318
449,034; 4369,044;   -1,528;   -1,136
449,622; 4342,590;   -1,073;    3,500
450,210; 4081,170;    2,017;    2,227
450,799; 4279,903;    0,290;   -0,591
451,387; 4122,486;    1,381;   -0,591
451,975; 3903,750;    2,654;    0,864
452,563; 4017,068;    3,472;    2,318
453,151; 3883,092;   -0,528;   -1,227
453,739; 3770,730;   -1,347;    0,136
454,328; 3764,508;    2,381;   -2,136
454,916; 3560,915;    2,562;   -0,136
455,504; 3627,660;    1,017;    1,227
456,092; 3666,317;    0,017;   -1,591
456,679; 3548,743;    1,472;    0,682
457,267; 3877,032;    4,017;    1,045
457,855; 3658,920;    1,017;    1,409
458,443; 3330,758;   -0,165;    1,682
459,031; 3585,200;    0,108;    2,409
459,619; 3702,341;   -1,801;    2,864
460,206; 3608,197;    0,835;    2,045
460,794; 3679,330;   -2,983;   -0,227
461,382; 3777,112;   -0,529;   -0,864
461,970; 3515,051;    1,198;    1,864
462,557; 3557,080;   -0,711;   -0,682
463,145; 3686,586;   -3,165;   -1,682
463,732; 3796,248;    2,016;   -1,045
464,320; 3581,116;   -0,075;   -3,045
464,907; 3517,351;    2,743;   -0,773
465,495; 3366,177;    0,743;   -1,227
466,082; 3358,235;   -1,984;   -0,045
466,670; 3193,511;   -2,529;    1,227
467,257; 3396,883;   -1,711;    2,045
467,844; 3533,193;   -0,075;    0,045
468,432; 3527,773;    0,834;    3,500
469,019; 3273,310;    0,925;   -1,773
469,606; 3446,448;    0,470;    3,682
470,193; 3366,629;   -1,439;    0,227
470,780; 3207,302;   -2,075;    0,864
471,368; 3259,074;   -1,257;   -0,773
471,955; 3154,794;    1,379;   -0,682
472,542; 2917,482;    0,652;   -1,136
473,129; 2912,860;   -0,166;    0,136
473,716; 2775,914;    1,470;    0,591
474,303; 2798,279;    0,652;   -0,864
474,890; 2860,257;   -1,439;   -0,500
475,477; 2949,601;   -1,621;    0,409
476,064; 2796,988;    1,106;   -1,591
476,650; 2708,603;    0,288;    0,318
477,237; 2595,149;   -0,258;    0,955
477,824; 2603,639;   -1,076;    0,864
478,411; 2472,908;   -1,894;   -0,318
478,997; 2490,654;    0,560;   -0,773
479,584; 2415,829;    1,196;   -0,409
480,171; 2798,729;   -0,440;   -0,773
480,757; 2734,690;    2,651;    0,773
481,344; 2637,427;    0,469;    0,409
481,931; 2313,553;    1,105;    1,045
482,517; 2692,980;   -1,258;    0,318
483,104; 2817,708;    1,106;    2,864
483,690; 2770,528;   -1,804;    0,045
484,276; 2758,031;   -0,895;    0,227
484,863; 2869,475;    2,469;    1,136
485,449; 2857,773;   -0,077;    0,318
486,035; 2737,534;   -1,986;   -0,136
486,622; 2941,244;   -0,895;    0,045
487,208; 2813,134;    1,378;    1,500
487,794; 2727,726;    0,741;    0,318
488,380; 2810,005;    0,105;   -1,409
488,967; 2803,764;   -1,168;   -0,409
489,553; 2844,872;   -1,895;   -1,409
490,139; 2985,934;    1,559;    0,773
490,725; 2790,302;    0,741;   -0,227
491,311; 2724,722;    3,287;    3,045
491,897; 2510,451;   -0,986;    1,500
492,483; 2620,034;    0,105;    1,227
493,069; 3223,242;    3,923;    0,864
493,655; 2870,197;    1,650;    0,682
494,241; 2812,435;    1,377;   -0,955
494,826; 3044,053;    0,287;   -1,045
495,412; 2938,720;    2,559;   -0,682
495,998; 3059,398;   -0,805;   -0,318
496,584; 3159,054;    0,377;    1,045
497,169; 3196,123;    1,014;   -0,682
497,755; 3287,395;    0,650;    1,227
498,341; 3873,395;    0,559;    0,318
498,926; 3854,378;    1,832;    1,955
499,512; 3979,654;    1,286;    2,955
500,097; 4057,808;    0,195;   -0,318
500,683; 4243,617;   -0,350;    2,136
501,268; 4671,376;   -0,169;   -0,955
501,854; 4799,264;   -0,169;    1,227
502,439; 4926,923;   -0,624;   -1,773
503,024; 5246,695;    0,195;    0,500
503,610; 5535,268;   -0,078;   -0,682
504,195; 5740,853;    0,558;    1,955
504,780; 6137,288;    2,922;    1,227
505,366; 6298,738;    3,013;    2,864
505,951; 6346,276;    0,740;    1,045
506,536; 6656,575;   -3,260;   -3,682
507,121; 6879,959;    0,285;   -0,318
507,706; 7542,598;    2,376;    1,045
508,291; 8040,459;    2,649;    1,136
508,876; 7864,443;   -0,988;    2,591
509,461; 7679,699;   -0,169;   -0,773
510,046; 8305,181;    0,194;    0,318
510,631; 8747,894;   -0,351;   -0,773
511,216; 8707,602;    2,467;   -0,500
511,801; 9258,183;   -0,442;    2,591
512,386; 9695,416;    0,740;    0,500
512,971; 9861,711;   -2,988;    0,955
513,555; 9676,847;   -0,897;   -1,500
514,140;10603,247;   -0,442;   -3,136
514,725;10713,242;   -0,715;   -1,136
515,309;10993,055;   -0,533;    0,318
515,894;10667,569;   -0,624;   -2,227
516,479;11270,668;   -0,624;   -0,955
517,063;11223,661;    0,376;    1,227
517,648;11495,846;    1,012;   -1,136
518,232;11268,371;   -0,261;   -1,409
518,817;11679,706;   -0,079;    1,682
519,401;11997,216;    2,194;    0,591
519,985;11610,936;    1,103;    1,136
520,570;11600,254;    0,830;   -1,955
521,154;11952,690;    2,102;    0,591
521,738;12177,985;   -2,352;    2,409
522,323;12804,957;   -0,170;    1,682
522,907;12609,134;    0,466;   -0,136
523,491;12401,227;    0,557;    0,955
524,075;12447,198;    2,284;    0,591
524,659;12568,488;    1,466;    0,591
525,243;12090,703;    1,739;    0,409
525,827;12383,896;    0,648;   -0,045
526,411;13253,215;   -1,989;   -0,136
526,995;13499,465;   -0,352;    1,409
527,579;13117,859;   -0,443;   -1,045
528,163;13423,811;    0,375;   -1,500
528,747;13378,898;    2,466;   -0,773
529,331;13707,743;   -0,080;   -1,409
529,915;13902,934;    1,738;    0,955
530,499;13865,540;   -0,807;    1,227
531,082;13589,675;   -0,534;    1,591
531,666;13067,499;    1,374;    0,773
532,250;13738,687;    1,284;    2,682
532,833;14073,555;    0,920;    2,773
533,417;13924,133;   -1,807;    0,864
534,001;13939,179;    1,647;   -0,318
534,584;14634,317;    0,374;    0,500
535,168;14513,316;    0,465;    1,409
535,751;14544,712;    0,647;    0,045
536,334;14006,901;   -0,898;   -0,409
536,918;14624,202;    0,011;    1,591
537,501;14721,395;   -0,899;    1,318
538,085;14727,037;   -0,444;    1,045
538,668;14880,827;    0,829;    2,409
539,251;15178,161;    1,829;    3,773
539,834;15220,340;    0,101;    0,773
540,418;15162,484;   -1,990;    4,318
541,001;15245,992;   -0,990;    1,773
541,584;15250,091;    2,101;    2,227
542,167;14948,881;    1,374;    2,955
542,750;15089,101;    1,919;   -0,773
543,333;14685,824;    0,555;    2,136
543,916;15460,201;    0,192;    2,500
544,499;16062,724;   -1,354;    0,227
545,082;16030,968;    1,374;    3,591
545,665;16222,447;    1,919;    1,500
546,248;16564,097;    1,010;   -0,318
546,830;16227,426;   -0,445;    1,955
547,413;16623,414;    1,010;   -0,773
547,996;17158,940;    0,555;    0,500
548,579;16935,195;    0,919;    0,955
549,161;16783,531;    1,828;    2,682
549,744;16553,241;   -0,809;    0,409
550,326;17038,334;   -0,809;   -1,136
550,909;16801,133;    2,737;    0,591
551,492;17198,056;   -0,263;    0,227
552,074;17012,170;   -0,173;   -1,318
552,657;17552,685;    2,373;    0,045
553,239;17289,144;   -0,173;   -0,773
553,821;17230,492;   -1,082;    1,045
554,404;16727,018;    1,282;    1,136
554,986;17106,755;    0,464;    1,045
555,568;17720,122;    1,191;   -0,955
556,151;16927,093;    1,191;   -0,227
556,733;17148,660;   -0,264;   -0,864
557,315;17603,686;    0,100;    0,500
557,897;17387,652;    0,554;   -0,500
558,479;17539,229;   -1,991;    1,318
559,061;17631,072;   -0,719;   -0,864
559,643;17997,030;   -0,264;    0,045
560,225;18342,367;    1,645;    2,864
560,807;18305,121;    0,918;    0,318
561,389;17878,913;    0,554;    2,318
561,971;18601,762;    0,463;    2,136
562,553;18407,285;   -1,628;    1,591
563,135;18543,677;   -0,537;    1,136
563,717;18122,009;    3,372;    1,136
564,298;18810,411;    3,645;   -0,045
564,880;18538,325;    0,645;   -1,409
565,462;18697,415;    0,645;    1,318
566,043;19825,510;   -0,446;    2,318
566,625;19371,509;    1,918;    1,227
567,207;19216,251;    1,099;    1,682
567,788;20309,892;   -1,264;    1,500
568,370;21084,790;    1,917;   -0,500
568,951;20912,230;    0,190;    0,227
569,533;21776,893;   -0,628;   -0,500
570,114;22196,457;   -0,446;    0,682
570,695;22707,943;   -0,174;   -1,318
571,277;23111,680;   -0,265;   -1,682
571,858;23849,794;    2,008;   -1,136
572,439;24738,480;    1,554;   -1,045
573,021;24860,371;    2,099;   -2,773
573,602;25366,361;   -1,265;    0,318
574,183;26243,977;   -2,083;    2,227
574,764;26376,762;   -1,629;    0,409
575,345;26907,317;    0,917;   -0,136
575,926;27480,751;   -0,356;    0,136
576,507;27451,633;    1,099;   -0,227
577,088;28583,693;    3,099;    1,682
577,669;28596,405;    0,735;    1,955
578,250;29213,159;    0,644;   -1,045
578,831;29866,883;   -1,356;   -2,227
579,412;30112,558;   -0,810;    0,955
579,993;31070,712;    1,008;    0,227
580,573;31425,834;   -0,629;   -0,955
581,154;30383,618;    0,735;   -0,591
581,735;31194,737;    0,644;    0,773
582,315;30679,647;   -0,629;    2,136
582,896;31069,944;   -0,174;    1,227
583,477;30526,236;    0,189;    1,227
584,057;30692,590;    0,553;    0,955
584,638;30990,348;    2,553;    2,318
585,218;30983,952;   -0,538;    2,682
585,799;31132,704;    0,281;   -0,227
586,379;31184,784;    0,372;    1,591
586,959;29969,311;    0,735;    0,318
587,540;29360,244;   -0,629;    2,227
588,120;28902,297;    1,007;   -0,045
588,700;27891,127;    2,553;    2,136
589,281;28203,500;    0,462;   -0,955
589,861;28111,445;    0,099;   -1,682
590,441;27939,865;    2,371;   -2,682
591,021;26963,529;   -0,265;   -2,591
591,601;27203,263;   -0,537;    0,500
592,181;27209,745;   -0,719;   -0,773
592,761;26528,678;    0,007;    1,409
593,341;26492,552;   -0,901;    0,045
593,921;26453,663;   -0,265;    1,591
594,501;26360,796;   -0,538;    1,318
595,081;26231,419;    0,917;   -0,318
595,661;26525,943;   -1,447;    0,955
596,240;27065,749;   -0,537;    0,136
596,820;26676,309;    0,372;    1,955
597,400;26856,698;    2,008;    0,773
597,980;27092,045;    2,008;    1,045
598,559;27118,150;    2,735;   -0,227
599,139;26815,973;   -0,174;   -1,227
599,718;26758,246;   -0,174;   -0,409
600,298;27003,272;    0,735;    0,682
600,877;27160,684;    2,917;    1,409
601,457;27430,427;    2,281;    1,136
602,036;27369,535;    0,190;    2,045
602,616;27540,226;    0,644;    1,682
603,195;27910,608;   -0,355;    3,500
603,774;27454,582;   -0,901;    2,045
604,354;27348,553;    0,826;   -0,500
604,933;26842,534;    0,463;    1,864
605,512;26978,707;    3,554;    0,591
606,091;27049,026;   -0,537;    3,773
606,671;27857,670;    0,281;    0,773
607,250;26933,580;    1,644;    3,136
607,829;27188,835;    2,372;    3,227
608,408;27009,176;    1,190;    2,591
608,987;26035,969;    1,281;    3,409
609,566;26361,398;   -1,265;   -2,500
610,145;26514,305;   -1,082;    0,682
610,723;26916,975;    4,372;    6,864
611,302;26156,689;   -0,446;    1,682
611,881;25666,150;    5,008;   11,227
612,460;26527,122;    1,645;    3,955
613,039;26954,591;   -0,082;    2,045
613,617;25679,414;    1,736;    4,773
614,196;25897,243;    1,099;    1,227
614,775;26191,104;    1,009;    2,409
615,353;26161,883;    0,736;    0,864
615,932;25916,491;    0,100;    2,409
616,510;26492,194;    0,554;    0,591
617,089;26037,645;    7,100;   17,591
617,667;25780,946;    2,372;    6,136
618,246;25646,604;   -1,537;    1,318
618,824;25808,485;   -3,355;   -0,955
619,402;25422,395;   -2,900;   -1,773
619,981;25858,021;   -0,173;   -1,045
620,559;25733,074;    0,009;    1,682
621,137;25281,412;   -0,718;    1,864
621,715;25300,173;   -1,173;   -0,682
622,293;25272,562;   -0,537;   -0,773
622,871;25739,958;   -0,718;    0,500
623,450;25272,576;    0,373;   -0,864
624,028;25178,104;    0,191;   -0,955
624,606;24794,944;   -1,718;    1,682
625,183;25190,447;   -1,536;   -1,136
625,761;24823,265;    1,009;    1,136
626,339;25112,645;    1,373;    2,591
626,917;25541,793;   -0,172;   -0,045
627,495;25560,553;   -0,354;    1,318
628,073;24979,572;   -0,263;    2,864
628,650;24667,743;    0,100;    2,136
629,228;25077,513;    0,373;    4,409
629,806;24521,653;    2,282;    1,136
630,383;24792,064;    1,464;   -0,318
630,961;24633,502;    2,555;   -0,955
631,539;24384,122;    2,464;    0,227
632,116;23663,411;   11,373;   15,409
632,694;24217,247;    2,555;    6,500
633,271;24544,888;    0,828;    2,682
633,848;24514,627;    1,828;    2,045
634,426;24556,395;   -1,081;    1,773
635,003;23653,426;    1,101;   -0,409
635,580;23962,423;    1,192;    3,682
636,158;24520,506;    3,737;    1,227
636,735;24484,646;    0,555;   -0,500
637,312;24669,782;   -0,809;   -0,682
637,889;24744,360;   -4,354;   -0,682
638,466;24231,964;   -3,990;   -0,409
639,043;24226,789;    2,101;   -1,136
639,620;24597,485;   -2,262;   -0,955
640,197;24830,082;    1,100;    1,682
640,774;24978,857;   -0,172;    1,136
641,351;25394,176;    0,737;    1,136
641,928;24819,769;   -0,627;    1,409
642,505;24469,453;    0,828;   -0,500
643,082;24587,773;   -1,718;    1,227
643,658;23640,456;   -0,718;    1,500
644,235;24394,049;    1,191;    2,500
644,812;24675,460;    1,918;    0,773
645,388;24393,962;   -0,991;    1,409
645,965;24489,100;   -0,809;    1,682
646,542;24584,147;   -1,445;   -0,227
647,118;24533,467;    1,009;   -0,955
647,695;24865,514;   -0,263;    1,136
648,271;24753,652;   -0,536;    0,500
648,848;25062,063;    0,736;    2,227
649,424;24874,929;    0,827;    1,318
650,000;24671,794;   -0,354;   -1,045
650,577;24503,205;   -0,627;   -0,955
651,153;24972,525;   -1,809;    0,955
651,729;25901,390;    1,191;    0,864
652,305;26051,801;    0,645;    2,773
652,881;30042,121;   -0,082;    1,136
653,458;36558,078;    1,100;    0,227
654,034;40377,307;    0,282;    1,591
654,610;41879,990;    0,554;    0,773
655,186;43210,492;    0,645;    3,045
655,762;42960,539;   -0,991;    0,409
656,338;42969,950;    0,100;    0,136
656,913;43912,543;   -0,082;    0,409
657,489;43193,136;    0,827;   -0,318
658,065;43172,365;   -0,173;   -1,591
658,641;43814,866;   -0,900;   -0,864
659,217;43162,096;   -0,991;    0,409
659,792;42545,325;    0,645;   -0,409
660,368;42857,190;   -2,173;   -0,682
660,944;42554,874;   -2,082;    1,227
661,519;38446,012;   -0,628;    0,409
662,095;32843,332;   -1,719;    0,591
662,670;28208,743;    1,281;   -0,136
663,246;26920,244;    1,009;   -0,409
663,821;26224,019;    0,281;    1,682
664,396;25695,612;    0,009;    1,864
664,972;25948,022;    0,009;   -0,500
665,547;26248,433;    1,372;    0,136
666,122;26263,935;   -1,082;    0,318
666,698;26596,982;   -0,173;    0,318
667,273;25945,484;   -0,173;    0,136
667,848;26725,713;    2,372;    1,500
668,423;26488,397;    2,190;    2,318
668,998;27057,353;    2,827;   -0,682
669,573;27572,491;   -3,264;   -1,500
670,148;27395,902;   -1,446;   -0,682
670,723;27212,313;   -1,810;    0,318
671,298;27611,633;    2,372;    1,045
671,873;27721,953;   -0,082;   -0,136
672,448;27704,364;    0,645;    0,136
673,023;28002,048;   -1,992;   -0,227
673,597;28365,731;    0,827;    2,318
674,172;28135,415;   -0,355;    0,318
674,747;27610,098;    0,372;   -1,045
675,321;27456,055;   -0,628;    3,318
675,896;27016,920;    0,645;    1,045
676,471;28078,876;    2,645;    1,591
677,045;27841,560;   -1,264;    0,682
677,620;27886,789;    0,190;    1,136
678,194;28222,473;   -2,628;    1,136
678,769;27734,611;   -1,083;   -0,318
679,343;27940,931;   -0,628;    1,773
679,917;27830,342;   -1,446;    1,955
680,492;27983,298;    0,826;    3,227
681,066;28074,163;    3,372;    0,409
681,640;28111,665;    1,463;   -0,318
682,214;28884,349;    0,735;    0,500
682,788;28436,305;   -1,356;   -0,773
683,363;28364,716;   -1,810;    1,682
683,937;28041,036;   -1,719;   -0,318
684,511;28808,265;    0,463;   -0,591
685,085;28573,676;   -1,356;    0,318
685,659;28363,360;   -2,538;    0,864
686,232;28555,225;   -0,356;   -0,318
686,806;28310,090;   -0,901;    0,409
687,380;28948,592;   -0,174;    0,591
687,954;29162,821;   -1,174;    1,136
688,528;28825,687;   -0,719;    1,955
689,101;29638,007;   -3,992;    1,045
689,675;29201,872;   -0,356;   -0,136
690,249;28594,919;   -0,719;    0,409
690,822;28872,330;    0,280;    0,318
691,396;29014,923;   -0,265;    1,227
691,969;28447,425;    1,280;    0,136
692,543;28927,745;   -0,447;   -1,955
693,116;28588,155;   -0,265;   -1,409
693,690;28370,475;    0,099;    0,500
694,263;28991,977;   -1,083;    2,955
694,836;29033,388;    1,371;    3,591
695,410;27680,526;   -0,265;    1,773
695,983;28133,119;    0,189;    0,591
696,556;28099,439;   -0,447;   -1,045
697,129;28524,577;   -0,356;    1,409
697,703;28166,624;   -1,629;    1,955
698,276;28128,035;    1,462;   -0,773
698,849;27916,901;    1,280;    1,409
699,422;28363,039;   -1,083;    0,591
699,995;28077,268;    0,007;    0,136
700,568;28536,679;   -0,629;    3,045
701,140;28545,271;   -2,811;    1,682
701,713;28235,228;   -0,174;    2,409
702,286;28003,639;   -0,538;    0,864
702,859;27892,231;   -0,902;   -0,591
703,432;27071,279;    0,825;    0,682
704,004;27584,780;    0,462;    0,318
704,577;27491,100;   -0,629;    0,136
705,150;27993,875;    0,189;    2,500
705,722;27759,740;   -0,356;   -3,227
706,295;27588,515;   -0,175;   -0,591
706,867;27450,562;   -0,175;    1,955
707,440;27647,882;   -1,720;   -0,409
708,012;27920,838;    0,462;    0,591
708,584;27801,067;    2,462;    0,227
709,157;28105,569;    1,825;   -0,591
709,729;27756,980;    2,280;    2,045
710,301;28639,209;    0,734;    0,045
710,874;28641,711;   -1,447;   -0,227
711,446;27521,940;    0,371;    0,864
712,018;27364,442;    0,098;    0,500
712,590;27124,853;   -1,993;    1,682
713,162;27639,536;    0,825;    1,318
713,734;27925,765;    1,825;   -2,045
714,306;27820,358;   -1,902;   -0,409
714,878;26535,769;    0,825;    0,864
715,450;27348,998;    0,643;    0,864
716,022;27609,954;    1,552;    1,318
716,593;27752,365;    0,189;    0,591
717,165;27668,685;   -3,175;   -1,227
717,737;27388,187;    0,280;    0,409
718,309;27068,325;    0,280;   -0,045
718,880;27089,190;   -0,539;   -1,409
719,452;27315,874;   -0,175;   -1,591
720,024;26833,376;    0,734;   -0,591
720,595;27421,423;   -2,902;    0,955
721,167;26968,379;    0,370;   -2,045
721,738;26473,608;   -0,812;   -1,045
722,309;26468,019;   -0,993;   -1,227
722,881;26198,703;   -1,357;    0,773
723,452;26853,568;   -2,630;    2,864
724,023;26998,434;   -0,721;    2,682
724,595;26809,663;    0,007;    0,682
725,166;26552,528;    0,007;   -0,409
725,737;26187,394;    1,734;    0,227
726,308;26278,895;   -0,266;    0,318
726,879;26714,670;   -1,630;    1,227
727,450;26557,899;    0,552;   -0,045
728,021;26549,583;    3,097;    0,682
728,592;26368,994;    0,734;    0,500
729,163;26642,677;    0,643;   -0,136
729,734;26626,724;    0,188;   -0,227
730,305;27025,317;    1,734;    0,136
730,876;27341,092;    0,188;    2,955
731,447;27002,593;    2,188;    2,682
732,017;27127,732;    1,097;    1,864
732,588;26667,324;    0,734;    1,227
733,159;26888,644;    0,643;   -1,045
733,729;26703,237;    0,006;    0,409
734,300;25935,466;    0,915;    0,864
734,870;26362,604;    3,461;    0,591
735,441;26951,379;    0,370;   -0,591
736,011;26690,971;    0,643;   -1,591
736,582;26661,473;   -0,812;    0,045
737,152;26135,793;   -1,721;   -2,045
737,722;26560,477;   -0,267;   -0,682
738,293;26284,069;   -1,358;    1,318
738,863;26185,935;    2,461;    2,318
739,433;25981,346;    5,279;    0,318
740,003;26616,029;   -0,994;   -0,682
740,573;25999,804;    2,097;   -1,591
741,143;25978,851;   -1,085;    0,318
741,713;26739,535;    1,188;   -0,500
742,283;26407,673;    0,915;    1,591
742,853;26251,266;    1,915;    1,591
743,423;25709,767;    1,733;    0,045
743,993;25869,178;   -0,358;    1,500
744,563;25224,134;    0,097;   -0,864
745,133;25179,454;   -0,812;   -0,864
745,702;25868,956;   -0,267;    1,773
746,272;25042,549;   -0,176;    0,591
746,842;24857,505;   -1,358;   -0,591
747,411;25305,462;   -0,267;   -0,318
747,981;25466,236;    0,097;    0,500
748,551;25561,374;    2,278;   -1,045
749,120;25404,512;    0,642;   -0,227
749,690;25746,014;   -0,631;    2,409
750,259;26051,516;    1,369;    2,955
750,828;25966,927;    1,551;   -1,955
751,398;26295,247;    1,278;   -0,045
751,967;25769,294;    2,187;    0,409
752,536;25983,705;   -0,813;   -0,227
753,105;26381,298;    0,096;    0,227
753,675;26239,709;    0,096;    1,773
754,244;26177,210;   -0,904;    3,591
754,813;26164,348;    0,551;    1,227
755,382;25793,305;    0,460;    0,955
755,951;26311,988;    1,551;    3,682
756,520;25811,399;   -0,085;    1,864
757,089;26364,356;    0,278;    0,500
757,658;26531,767;    1,733;    1,227
758,227;26529,814;    1,096;    0,318
758,795;26824,861;    1,187;    1,136
759,364;27046,363;   -0,086;   -0,591
759,933;26078,410;   -1,176;   -0,045
760,501;25581,094;    0,733;   -1,318
761,070;26084,504;   -2,813;   -1,409
761,639;26812,097;   -1,904;    1,318
762,207;26088,054;    1,551;   -0,955
762,776;26022,737;    0,369;    0,864
763,344;25997,875;   -0,995;    0,591
763,913;25119,650;   -0,722;    1,409
764,481;25869,424;    1,005;   -0,136
765,049;25615,108;   -1,358;    1,409
765,618;25511,519;   -0,086;    0,318
766,186;25630,111;    0,278;    0,136
766,754;25860,886;    0,005;    1,864
767,322;24916,751;   -1,995;    0,409
767,890;24917,526;   -0,722;   -1,773
768,459;25277,300;   -2,177;   -0,318
769,027;25434,711;    1,641;    3,409
769,595;24442,668;    3,278;    2,591
770,163;24856,624;    3,823;    2,955
770,730;24655,762;    0,732;   -0,136
771,298;24481,628;    0,187;   -1,409
771,866;24606,402;   -1,541;    4,955
772,434;24914,995;   -0,631;   -1,864
773,002;25052,133;    0,005;    0,682
773,569;24765,271;    0,914;    1,682
774,137;24513,227;   -0,268;   -0,045
774,705;25384,456;    0,278;   -0,136
775,272;24831,958;    0,641;    0,682
775,840;24578,460;   -0,177;    2,682
776,407;24095,962;    0,277;    1,955
776,975;23735,373;   -0,632;    0,318
777,542;24766,238;   -1,086;   -0,045
778,110;24611,194;   -1,268;   -0,045
778,677;24254,878;   -2,359;   -0,864
779,244;24000,107;    2,186;    1,045
779,812;24100,882;    1,823;    0,864
780,379;23968,565;    0,005;    1,136
780,946;24243,067;    1,005;   -0,773
781,513;24602,205;   -1,450;    0,318
782,080;23992,343;   -0,086;    2,864
782,647;24742,572;   -0,268;    3,045
783,214;24276,347;   -0,177;    3,864
783,781;23872,576;   -0,723;   -0,682
784,348;23743,623;   -0,632;    1,500
784,915;24265,307;   -3,177;    0,318
785,482;24015,172;    1,368;    2,591
786,049;24411,674;    0,186;   -0,591
786,615;24533,085;    0,277;   -0,955
787,182;24272,950;    0,186;   -0,682
787,749;23962,361;   -2,814;    1,409
788,315;23306,045;   -1,632;   -0,409
788,882;23618,819;    1,550;   -1,227
789,448;24263,867;    1,732;   -0,955
790,015;24323,096;    1,095;    3,227
790,581;23893,507;    1,459;    0,227
791,148;23739,826;    0,641;    1,045
791,714;23997,419;   -0,541;    3,136
792,280;23651,921;    0,186;    1,591
792,847;23255,332;    0,550;    2,500
793,413;23818,743;   -0,269;   -0,318
793,979;23346,881;    3,459;   -1,318
794,545;23439,201;    4,459;    2,682
795,111;22823,157;    2,186;    1,318
795,678;22969,568;    0,731;   -1,682
796,244;22645,070;    3,368;    0,136
796,810;23201,935;    1,731;    0,773
797,375;22883,164;    0,549;   -2,136
797,941;22910,939;   -0,541;    0,591
798,507;23109,622;   -0,451;   -0,955
799,073;22719,670;   -0,360;    0,591
799,639;22773,081;   -2,632;    3,136
800,205;22795,128;    0,095;    2,682
800,770;22332,084;    0,640;    1,773
801,336;22434,768;    1,368;   -0,955
801,901;22083,270;    4,549;    3,136
802,467;22661,680;   -0,542;    2,045
803,033;22026,182;   -0,087;    0,864
803,598;22284,957;    1,913;   -1,045
804,163;22302,640;    1,095;   -0,318
804,729;22225,051;   -0,178;    1,136
805,294;22577,098;    0,822;    2,227
805,859;22426,146;    0,731;   -0,409
806,425;21868,557;    1,186;    2,682
806,990;21547,967;    2,186;    4,318
807,555;22064,469;   -1,451;    2,591
808,120;21914,153;    0,822;   -0,409
808,685;21973,836;    0,185;   -2,500
809,250;21500,338;    0,004;   -0,500
809,815;21813,204;    1,913;    0,682
810,380;22320,978;   -0,269;    1,591
810,945;22851,480;   -1,087;    2,045
811,510;22039,436;    2,094;    1,591
812,075;21730,483;   -0,633;   -1,409
812,640;21718,894;    2,003;    1,409
813,204;21836,123;    0,822;   -0,227
813,769;22340,352;    2,094;   -0,045
814,334;21724,400;    0,458;    0,864
814,898;21812,629;    0,367;    0,591
815,463;21655,131;    1,276;   -0,773
816,027;21671,905;   -0,724;   -2,318
816,592;21728,043;    0,640;   -2,045
817,156;21266,818;    2,094;    1,136
817,721;21071,865;    4,276;    2,318
818,285;21088,821;    2,912;    1,500
818,849;21739,505;   -1,451;    1,682
819,414;21655,370;   -0,269;    2,955
819,978;21237,236;   -1,269;    1,773
820,542;21746,919;    2,003;    0,500
821,106;21505,967;   -0,815;    0,682
821,670;21554,378;   -0,815;    2,591
822,234;21369,516;   -0,270;    1,409
822,798;20742,927;    0,003;    0,500
823,362;20676,337;   -0,633;    4,227
823,926;20025,657;    0,094;    1,136
824,490;20209,432;   -0,997;   -0,682
825,054;20638,661;   -0,088;   -1,136
825,618;20259,435;   -1,542;   -1,500
826,181;20242,119;    0,458;   -1,318
826,745;20131,166;    1,367;   -1,045
827,309;20481,759;    1,185;    1,318
827,872;19881,715;    1,367;    0,955
828,436;20879,944;    1,185;   -0,773
828,999;20948,810;   -0,997;    1,227
829,563;19730,766;   -0,179;    1,136
830,126;19559,359;   -0,179;   -0,591
830,690;19577,042;   -1,997;    2,864
831,253;19082,362;   -0,543;    2,227
831,816;19207,682;   -1,906;    0,500
832,380;19164,911;    0,185;    0,864
832,943;19363,050;   -1,361;   -0,500
833,506;18854,915;    2,639;   -1,227
834,069;19685,690;    3,912;   -0,955
834,632;19740,828;    1,730;    1,318
835,195;19605,602;    1,003;    0,955
835,758;18846,013;   -0,997;    1,955
836,321;18676,424;    0,730;   -1,045
836,884;18740,198;   -0,725;   -0,955
837,447;18794,337;   -2,816;    1,773
838,010;19064,202;    0,366;    3,227
838,573;19344,795;   -1,179;    0,773
839,135;19316,115;   -1,361;   -0,955
839,698;18808,162;    1,275;    0,409
840,261;18323,573;    1,003;   -0,227
840,823;18160,166;   -0,543;    0,864
841,386;18464,395;   -0,452;   -2,409
841,948;18309,896;   -1,361;    1,773
842,511;18088,489;    0,912;    1,682
843,073;18218,445;    1,912;    0,227
843,636;18044,038;   -0,361;   -0,227
844,198;17938,631;    0,911;    0,591
844,760;18072,587;    1,093;    1,955
845,322;17763,634;    0,548;    1,136
845,885;18142,773;    0,730;    0,591
846,447;18592,547;   -1,998;    0,227
847,009;18150,594;    1,911;   -0,682
847,571;18502,732;    0,820;   -2,045
848,133;18598,689;   -1,089;   -1,864
848,695;18422,736;   -0,543;    1,409
849,257;17994,783;   -1,089;   -1,682
849,819;18134,649;   -0,998;   -0,409
850,381;18197,605;   -0,725;   -0,864
850,942;18544,561;    1,093;   -0,591
851,504;18476,881;    1,184;    0,227
852,066;18526,838;    1,275;   -1,591
852,628;18068,158;   -0,180;    1,955
853,189;17654,387;    1,638;    2,682
853,751;17771,070;   -0,907;    1,409
854,312;17568,845;   -0,453;   -1,682
854,874;18048,347;   -2,089;   -0,773
855,435;18589,030;   -0,907;   -1,682
855,997;18765,350;   -1,816;   -0,136
856,558;18032,761;    0,366;    1,773
857,119;18150,536;    0,820;    2,864
857,681;17840,310;    0,002;    0,318
858,242;17891,994;    1,911;   -2,136
858,803;18312,950;    0,456;   -0,773
859,364;18877,361;    0,184;   -4,773
859,925;18236,590;   -2,453;   -0,955
860,486;18103,364;   -0,453;   -0,955
861,047;17828,593;   -0,544;   -1,227
861,608;17659,641;   -1,089;   -0,773
862,169;17774,233;    0,638;   -0,045
862,730;17554,826;    0,456;    1,409
863,291;17816,055;   -0,635;   -0,500
863,852;18178,648;   -0,635;    1,955
864,412;17628,513;   -0,271;   -0,864
864,973;16208,106;   -0,089;    0,500
865,534;16099,335;   -1,726;    0,227
866,094;17589,473;    1,820;    0,227
866,655;17285,884;    1,274;    3,318
867,215;17552,840;    0,274;    0,136
867,776;17383,797;    0,547;   -0,136
868,336;17482,480;   -1,453;    0,136
868,897;16923,073;    2,638;    1,682
869,457;16654,029;    1,365;    0,318
870,017;16930,804;    0,547;   -1,227
870,578;17426,215;   -0,817;    0,773
871,138;17120,080;   -2,089;   -0,955
871,698;16677,037;   -0,817;   -1,318
872,258;16535,266;   -0,453;   -2,864
872,818;16910,767;    2,729;    0,045
873,378;16881,360;    0,638;    1,045
873,938;16464,498;    0,547;    0,500
874,498;16808,364;    0,274;   -1,955
875,058;16676,865;    2,183;    1,773
875,618;16537,004;    1,910;   -2,682
876,177;16449,687;    1,274;    0,136
876,737;16066,189;   -0,090;    1,955
877,297;16054,873;    0,183;    1,955
877,856;16073,920;   -0,362;    0,318
878,416;16034,513;    1,183;   -0,136
878,976;16269,560;   -1,817;    0,409
879,535;16466,607;    0,092;    3,136
880,095;16203,018;   -0,544;    0,045
880,654;16289,611;   -1,090;    1,318
881,213;16352,294;    2,456;    1,500
881,773;16001,978;    2,637;    2,682
882,332;16343,116;    3,365;    5,136
882,891;16250,618;    3,092;    2,136
883,451;16699,847;   -1,272;    1,682
884,010;16160,894;   -2,908;   -0,409
884,569;16216,214;   -0,999;   -0,045
885,128;16329,989;    2,819;   -1,864
885,687;16426,672;    4,455;    0,682
886,246;16092,356;    1,455;    2,136
886,805;15868,767;    2,455;    2,045
887,364;16180,632;   -0,999;   -0,500
887,922;16577,679;   -1,181;    0,045
888,481;16059,727;   -1,545;    0,591
889,040;16337,137;    1,183;    2,136
889,599;17012,457;    2,455;    1,409
890,157;17097,777;    1,455;    2,409
890,716;16745,188;   -0,090;    0,227
891,274;16565,417;    0,092;   -1,136
891,833;16995,374;    1,546;    0,864
892,391;16848,057;   -0,454;    0,500
892,950;16923,559;    1,819;   -0,773
893,508;17320,243;    0,455;   -0,409
894,067;16685,017;    0,637;    0,136
894,625;16573,064;   -0,636;   -1,500
895,183;16837,657;   -0,363;   -0,682
895,741;16686,886;    1,728;   -1,773
896,299;16532,115;   -0,545;   -2,409
896,858;16719,890;    0,819;   -1,591
897,416;16850,119;    2,728;   -1,318
897,974;16603,621;    1,819;    0,318
898,532;16726,213;    6,091;    2,682
899,089;16653,624;    2,091;   -0,682
899,647;16714,762;   -1,454;    1,318
900,205;16403,173;    1,182;    1,045
900,763;16600,402;   -0,454;    0,227
901,321;16633,904;    2,364;   -1,409
901,878;16044,588;   -1,000;   -0,773
902,436;15945,998;   -1,363;    1,318
902,994;16320,046;    4,728;    3,682
903,551;15769,729;    0,728;    0,409
904,109;16190,867;    0,182;   -1,409
904,666;15766,278;    2,455;    1,045
905,224;15634,689;    0,182;   -0,409
905,781;15342,100;    0,727;   -0,318
906,338;15390,784;   -1,363;    1,045
906,895;15354,285;    0,637;    2,045
907,453;15256,060;    1,727;    1,136
908,010;15289,562;   -0,909;    0,409
908,567;15009,154;    1,273;    0,591
909,124;14533,565;    0,364;   -1,500
909,681;14557,522;   -2,909;    0,682
910,238;14734,569;    0,636;   -1,318
910,795;15060,434;   -0,273;   -1,136
911,352;14711,980;   -2,909;   -2,682
911,909;14074,980;   -1,364;   -0,864
912,466;14578,889;   -3,182;    1,500
913,022;14156,616;   -1,636;    0,500
913,579;14508,889;   -0,909;    2,045
914,136;14192,616;    1,636;    0,955
914,692;14550,707;    0,091;   -1,227
915,249;14153,071;    1,455;    0,409
915,806;14360,434;    0,182;    1,955
916,362;14097,889;    1,909;    1,864
916,918;13724,616;    2,000;    1,045
917,475;13668,707;   -1,182;    0,955
918,031;13722,343;    3,364;   -0,045
918,587;13188,162;   -0,909;   -0,318
919,144;13435,434;   -2,273;    0,227
919,700;13738,980;    1,727;    0,773
920,256;13315,162;    0,727;    0,045
920,812;12956,889;   -0,727;   -1,045
921,368;12943,162;   -1,727;   -1,045
921,924;12551,798;    0,182;   -0,136
922,480;12159,434;   -0,545;    1,227
923,036;12765,707;    1,273;    1,955
923,592;12713,343;    0,455;    0,318
924,148;12632,616;    0,455;   -0,955
924,704;11958,798;   -1,364;   -0,409
925,259;12227,980;   -0,273;    0,591
925,815;11990,434;    1,455;    0,500
926,371;11524,071;    2,909;    1,409
926,926;11386,889;    2,091;    0,591
927,482;11031,525;   -1,364;    0,773
928,037;10926,071;    0,909;    2,045
928,593;11194,253;    1,636;    1,045
929,148;11047,162;   -1,818;   -1,500
929,704;10572,071;   -1,455;   -0,500
930,259;10778,434;    0,091;   -0,136
930,814; 9827,434;   -0,818;    1,955
931,369; 9532,798;    1,091;   -0,773
931,925; 9428,434;   -0,091;    0,136
932,480; 9366,798;   -2,818;   -2,591
933,035; 9211,707;    0,545;   -0,318
933,590; 8972,525;    0,364;   -1,773
934,145; 8667,707;   -1,364;   -0,318
934,700; 9014,980;    0,455;   -0,591
935,255; 8798,253;   -0,091;    0,045
935,809; 8096,707;    3,182;    0,864
936,364; 7237,616;   -0,455;   -0,136
936,919; 7214,071;    0,455;   -1,773
937,474; 7134,798;    1,455;    0,136
938,028; 6874,162;   -1,636;    1,136
938,583; 6379,707;    1,818;    4,682
939,138; 6653,525;    2,091;    2,136
939,692; 6110,889;    1,636;   -1,136
940,247; 5808,889;   -0,727;   -1,045
940,801; 5372,343;   -0,636;    0,227
941,355; 5253,889;   -0,364;    2,591
941,910; 4940,434;   -0,273;   -2,136
942,464; 5042,253;   -0,818;   -0,318
943,018; 4816,434;    1,000;   -0,227
943,572; 4783,616;    2,545;   -0,682
944,126; 4230,162;    0,091;   -0,409
944,681; 4114,616;    3,091;    0,227
945,235; 4113,071;    1,000;   -0,591
945,789; 4024,707;    0,364;   -1,864
946,342; 4122,253;    0,455;   -0,591
946,896; 3954,434;   -2,273;    0,955
947,450; 3707,980;    1,545;   -0,227
948,004; 3897,889;    1,727;   -0,045
948,558; 3897,162;    0,273;   -0,864
949,111; 3824,071;   -0,273;   -0,318
949,665; 3852,707;    1,636;   -0,682
950,219; 3733,889;   -0,091;   -1,045
950,772; 3794,889;   -1,909;    1,864
951,326; 3698,253;    0,545;   -0,955
951,879; 3809,616;    0,727;   -2,318
952,433; 3845,980;    0,000;    2,227
952,986; 3677,525;    2,909;    0,682
953,539; 3627,343;   -0,273;    0,591
954,093; 3583,253;    0,545;   -1,318
954,646; 3689,343;    0,909;    1,318
955,199; 3504,707;    0,000;   -0,500
955,752; 3388,707;   -0,455;    1,773
956,305; 3355,071;   -0,091;    2,955
956,858; 3533,980;    0,818;   -0,318
957,411; 3694,253;   -0,545;    2,136
957,964; 3530,616;    1,364;    2,136
958,517; 3514,798;   -1,545;    3,136
959,070; 3351,343;   -0,455;    1,955
959,623; 3430,071;    1,091;    1,500
960,176; 3212,253;    1,727;    2,045
960,728; 3187,071;   -2,727;    0,773
961,281; 3244,434;    0,545;    0,500
961,834; 3267,616;   -0,909;    0,864
962,386; 3200,980;    1,727;    1,045
962,939; 3116,616;    0,364;   -0,318
963,491; 3246,525;    0,455;    1,136
964,043; 3127,434;    1,182;    2,409
964,596; 3253,525;   -1,000;    2,227
965,148; 3102,343;   -1,000;    1,773
965,700; 3032,071;    1,091;   -0,227
966,253; 3180,889;   -0,636;    0,318
966,805; 3027,798;   -2,273;    0,773
967,357; 3054,343;    1,091;   -1,500
967,909; 3013,889;    0,455;   -1,227
968,461; 3126,980;    0,545;    3,136
969,013; 3057,616;   -0,182;   -0,864
969,565; 3131,798;   -0,455;   -1,136
970,117; 3194,889;   -0,364;    1,045
970,669; 3043,343;    0,182;   -0,136
971,220; 2908,889;   -0,455;   -1,500
971,772; 2829,616;   -0,636;   -0,318
972,324; 2957,071;    0,091;   -0,500
972,876; 2899,253;    0,818;   -0,045
973,427; 3042,707;    1,909;   -1,045
973,979; 3019,889;   -0,727;   -2,500
974,530; 3050,434;    1,818;    1,318
975,082; 3037,343;   -0,545;    1,682
975,633; 2951,525;    1,091;    1,682
976,184; 3108,980;    0,909;    0,773
976,736; 2885,616;    0,091;    0,227
977,287; 2696,980;   -0,909;   -0,500
977,838; 2859,253;    0,909;   -0,318
978,389; 2908,889;   -1,000;   -0,500
978,940; 2794,889;    0,545;   -0,409
979,491; 2832,889;    0,091;   -0,500
980,042; 2788,980;    0,182;    3,045
980,593; 2839,071;   -2,545;    0,227
981,144; 2896,889;    2,545;   -0,500
981,695; 2855,162;    1,455;    1,500
982,246; 2822,434;   -0,273;    1,045
982,797; 2970,525;   -1,727;    0,682
983,347; 3087,616;    0,364;    0,591
983,898; 3237,525;    3,091;    0,409
984,449; 3071,798;    2,182;    0,773
984,999; 2985,525;    1,455;   -1,136
985,550; 2783,162;    0,182;   -0,318
986,100; 2794,980;   -0,455;   -0,318
986,651; 2829,525;   -0,818;    0,045
987,201; 2814,980;   -1,000;   -0,591
987,751; 2893,253;    0,818;    2,864
988,302; 2882,071;    2,636;    1,500
988,852; 2908,798;    0,455;   -1,136
989,402; 2952,253;    0,091;    0,682
989,952; 2873,162;   -2,182;    0,864
990,502; 2960,616;   -0,091;    0,682
991,052; 2920,525;   -0,727;    0,045
991,602; 2790,343;   -2,909;    1,318
992,152; 2776,434;    0,455;    0,682
992,702; 2768,525;    1,364;   -0,045
993,252; 2696,798;   -3,000;   -0,500
993,802; 2780,707;   -0,273;    1,318
994,352; 3012,253;   -1,545;    1,136
994,901; 3097,343;   -0,182;    3,227
995,451; 3010,616;   -0,182;    0,318
996,000; 3127,253;    1,636;    0,318
996,550; 2858,162;    2,273;    0,227
997,100; 2836,343;    1,273;   -0,045
997,649; 3102,253;    2,182;    0,955
998,198; 2753,889;    1,727;   -1,500
998,748; 2946,525;    1,091;   -2,318
999,297; 2865,707;   -0,818;   -0,409
999,846; 2907,525;    1,000;   -0,773
1000,395; 2972,343;   -0,818;    0,500
1000,945; 2917,071;    1,818;   -0,773
1001,494; 3000,162;    2,364;    0,682
1002,043; 2999,434;    4,636;    0,864
1002,592; 2851,343;   -1,091;    1,955
1003,141; 2997,616;   -0,455;   -0,682
1003,690; 2842,343;    1,727;    0,500
1004,238; 2920,343;    1,455;   -0,045
1004,787; 2577,889;    1,364;    1,227
1005,336; 2803,071;    0,364;    0,682
1005,885; 2935,343;    1,364;   -2,773
1006,433; 3082,162;    0,545;    0,955
1006,982; 3135,980;    0,455;    1,682
1007,531; 3058,253;   -1,818;   -0,227
1008,079; 3010,343;   -2,273;    0,500
1008,627; 3146,253;   -1,455;    0,409
1009,176; 2903,616;    0,000;   -1,955
1009,724; 2919,707;    1,091;    0,864
1010,273; 2976,798;    1,273;    0,500
1010,821; 3092,616;    0,091;    1,409
1011,369; 2825,434;   -1,364;    1,318
1011,917; 2787,798;   -1,364;   -0,591
1012,465; 3085,889;    1,273;   -1,591
1013,013; 3212,343;    2,091;   -1,682
1013,561; 3089,525;    0,455;   -0,773
1014,109; 3126,798;   -1,909;    1,682
1014,657; 3013,980;    0,364;    0,591
1015,205; 3150,525;    1,636;   -0,955
1015,753; 3163,707;   -0,545;   -1,409
1016,301; 3196,525;   -2,636;    3,045
1016,848; 3188,071;   -1,273;    0,409
1017,396; 3220,980;    2,545;    0,045
1017,944; 3347,162;    1,182;    1,864
1018,491; 3121,889;    0,273;    1,409
1019,039; 3269,889;    0,455;    0,591
1019,586; 3190,616;   -1,364;    1,682
1020,134; 3299,434;    0,455;    1,500
1020,681; 3334,707;    0,182;   -1,136
1021,228; 3332,343;    2,909;   -2,227
1021,776; 3173,162;    1,182;   -1,136
1022,323; 3373,343;    0,455;    0,773
1022,870; 3321,525;   -1,000;   -0,045
1023,417; 3209,253;    2,636;    1,864
1023,964; 3347,434;    2,636;    1,227
1024,511; 3200,071;    1,000;    0,773
1025,058; 3005,253;    3,182;   -0,045
1025,605; 3044,253;   -2,273;    3,136
1026,152; 3264,434;    1,727;   -0,591
1026,699; 2984,616;    1,818;    1,318
1027,245; 3154,980;   -0,091;    0,318
1027,792; 3380,162;   -1,000;    1,409
1028,339; 3264,889;    2,364;   -0,045
1028,885; 3109,071;    1,000;   -0,227
1029,432; 3065,889;   -0,091;    0,227
1029,978; 3107,707;   -1,000;   -1,591
1030,525; 3023,071;    1,000;    0,409
1031,071; 3267,707;   -1,364;    1,136
1031,618; 3370,798;    0,364;    1,682
1032,164; 3170,616;   -0,091;    3,045
1032,710; 3208,434;    1,636;   -1,500
1033,256; 3127,889;   -0,636;   -0,136
1033,803; 3109,798;   -0,545;    1,500
1034,349; 2838,798;   -1,364;    0,136
1034,895; 2988,616;    0,000;   -0,318
1035,441; 2961,071;   -0,818;    0,318
1035,987; 2968,980;   -2,364;   -0,682
1036,533; 2968,707;   -1,455;   -0,955
1037,078; 3170,525;    1,455;    1,682
1037,624; 2996,798;    2,455;   -0,955
1038,170; 3020,707;    0,455;   -0,318
1038,716; 2926,616;    1,636;   -0,409
1039,261; 2834,980;   -2,273;   -0,773
1039,807; 2789,162;   -0,091;    3,409
1040,352; 2840,798;   -1,909;   -0,318
1040,898; 2893,071;   -1,545;   -0,682
1041,443; 2817,707;   -1,455;   -2,591
1041,989; 2824,071;    1,091;    1,591
1042,534; 2698,253;   -0,364;    2,591
1043,079; 2816,980;    2,909;    0,955
1043,625; 2615,707;    1,818;    0,500
1044,170; 2661,253;   -1,364;    1,045
1044,715; 2909,889;    2,455;    0,955
1045,260; 2734,071;    2,182;   -0,955
1045,805; 2793,162;    1,182;   -0,591
1046,350; 2731,798;    1,364;   -0,409
1046,895; 2682,253;    2,909;    1,591
1047,440; 2629,253;    5,364;    0,409
1047,985; 2536,434;    2,818;   -0,955
1048,530; 2451,071;    1,545;    1,227
1049,074; 2520,343;    0,000;    0,318
1049,619; 2493,071;   -1,364;    1,955
1050,164; 2305,162;    0,455;    0,227
1050,708; 2345,889;   -0,455;    0,045
1051,253; 2701,434;    1,273;   -2,227
1051,797; 2421,071;    0,818;   -1,318
1052,342; 2428,616;   -1,182;    1,045
1052,886; 2417,707;    0,364;   -1,409
1053,430; 2304,707;   -1,364;    0,136
1053,975; 2306,434;   -0,818;   -0,318
1054,519; 2295,162;   -0,727;    3,227
1055,063; 2322,798;    0,909;    1,318
1055,607; 2204,616;   -0,182;    0,227
1056,151; 2233,616;    2,909;    1,682
1056,695; 2143,253;    2,273;   -1,136
1057,239; 2226,798;   -1,727;   -0,682
1057,783; 2229,798;    0,818;   -1,500
1058,327; 2161,434;    0,000;    1,409
1058,871; 2385,980;   -0,545;    1,318
1059,415; 2100,707;   -0,818;   -0,045
1059,958; 2356,525;    1,455;    2,591
1060,502; 2089,434;   -1,000;   -0,773
1061,046; 1999,616;    0,364;   -0,955
1061,589; 1974,525;   -3,000;   -1,136
1062,133; 1852,798;   -1,273;    1,864
1062,676; 1791,162;    1,182;    0,864
1063,220; 1781,889;    1,091;    0,500
1063,763; 1811,162;    0,909;    1,136
1064,306; 1878,889;   -0,909;    1,864
1064,849; 1788,889;   -0,909;    0,591
1065,393; 1798,980;    2,000;   -1,500
1065,936; 1908,980;    0,182;   -0,409
1066,479; 1795,071;   -1,455;    1,318
1067,022; 1812,707;   -0,273;   -0,227
1067,565; 1707,525;   -0,091;   -1,318
1068,108; 1735,343;    0,727;   -0,591
1068,651; 1719,071;   -0,636;    1,409
1069,194; 1636,798;   -0,455;   -1,682
1069,736; 1633,162;   -1,273;    0,955
1070,279; 1625,707;   -1,364;   -0,500
1070,822; 1672,707;   -2,000;   -0,318
1071,364; 1752,434;   -0,364;    1,318
1071,907; 1579,980;   -0,727;    3,227
1072,450; 1477,525;    0,000;   -0,045
1072,992; 1487,525;   -0,273;    3,136
1073,535; 1616,343;    2,091;    2,136
1074,077; 1404,434;   -0,727;    2,045
1074,619; 1373,071;   -1,364;    0,591
1075,161; 1410,343;   -1,091;    1,500
1075,704; 1603,980;    1,545;    1,227
1076,246; 1395,071;   -0,182;    0,682
1076,788; 1313,889;   -0,364;    1,773
1077,330; 1386,889;    1,273;    2,136
1077,872; 1354,525;    0,909;    0,955
1078,414; 1577,616;    2,727;    0,773
1078,956; 1318,434;    1,273;   -0,227
1079,498; 1555,980;    1,636;    0,318
1080,040; 1282,525;    1,909;   -1,318
1080,581; 1222,980;    1,636;   -0,318
1081,123; 1149,434;    0,091;   -0,773
1081,665; 1200,707;   -1,182;   -0,955
1082,206; 1482,525;    1,364;   -0,500
1082,748; 1347,980;    0,727;    2,045
1083,289; 1224,071;   -2,000;    1,318
1083,831; 1136,980;   -0,545;    0,227
1084,372; 1174,525;    0,000;    0,591
1084,913; 1177,343;    1,091;    0,864
1085,455; 1144,707;   -1,909;   -2,045
1085,996; 1107,798;   -2,273;    0,136
1086,537; 1125,889;   -0,091;    0,864
1087,078; 1165,071;   -0,909;   -2,136
1087,619; 1202,525;   -1,273;    0,227
1088,160; 1122,525;    0,000;    1,318
1088,701; 1101,071;   -1,091;    0,682
1089,242; 1054,616;    1,364;   -2,227
1089,783; 1149,980;   -0,273;    1,409
1090,324; 1110,980;    0,455;    0,682
1090,865;  996,162;    2,727;   -0,409
1091,405;  964,343;    0,727;    2,227
1091,946;  988,980;    0,182;   -0,955
1092,487;  926,343;    0,818;   -1,409
1093,027; 1094,343;   -1,364;   -1,500
1093,568;  938,434;   -0,364;    1,227
1094,108; 1040,071;    0,273;    1,773
1094,649;  980,889;   -1,182;    0,136
1095,189;  912,071;   -0,636;   -0,682
1095,729;  858,162;   -0,091;    0,955
1096,269;  866,253;    0,727;   -0,955
1096,810; 1173,980;   -1,364;    0,500
1097,350; 1012,889;    1,364;   -0,773
1097,890;  905,162;    0,364;    1,227
1098,430; 1151,616;    2,364;    2,864
1098,970; 1020,434;    2,182;    1,682
1099,510;  901,071;    0,545;   -2,318
1100,050;  819,525;    1,000;   -1,591
1100,589;  790,707;   -0,727;   -0,318
1101,129;  916,162;    0,818;   -0,955
1101,669; 1069,889;    1,727;    2,136
1102,209;  891,343;   -0,091;    2,227
1102,748;  844,525;    0,000;    0,955
1103,288;  818,980;    1,273;   -1,227
1103,827;  842,798;    3,091;   -2,227
1104,367;  736,707;   -0,091;   -2,409
1104,906;  705,980;    1,364;   -1,136
1105,445;  768,980;    0,636;   -1,136
1105,985;  711,616;   -0,727;    1,500
1106,524;  760,162;   -1,727;   -0,682
1107,063;  736,889;   -2,727;    1,409
1107,602;  705,071;   -1,909;   -1,500
1108,141;  639,071;   -1,909;    1,500
1108,680;  735,434;   -3,455;   -0,591
1109,219;  661,071;   -0,909;   -0,500
1109,758;  670,434;    0,455;    0,682
1110,297;  647,798;    1,000;   -0,682
1110,836;  594,162;   -0,727;    0,955
1111,375;  761,616;   -2,545;    0,409
1111,913;  769,798;   -1,000;    0,773
1112,452;  703,525;   -0,273;    0,136
1112,991;  587,889;    1,091;    1,955
1113,529;  545,071;   -0,818;   -0,045
1114,068;  622,434;   -0,273;    2,955
1114,606;  519,889;   -0,364;   -0,955
1115,144;  677,525;   -1,273;    1,045
1115,683;  614,162;   -0,727;    0,318
1116,221;  663,253;   -0,455;   -0,864
1116,759;  571,889;    0,636;   -0,864
1117,297;  778,343;    0,000;    1,864
1117,836;  576,525;   -2,182;   -1,227
1118,374;  589,434;    0,182;   -0,682
1118,912;  526,162;    0,909;    2,682
1119,450;  518,798;    1,000;    0,864
1119,988;  569,980;    1,545;    2,136
1120,525; 1013,343;    5,091;    3,318
1121,063;  717,343;    1,182;    1,864
1121,601;  523,798;   -0,909;   -1,227
1122,139;  491,253;   -0,727;   -2,045
1122,676;  684,071;   -0,727;    2,773
1123,214;  619,343;   -1,182;    4,409
1123,751;  428,071;    1,727;    2,227
1124,289;  555,980;   -0,091;   -0,409
1124,826;  427,162;    1,727;    0,227
1125,364;  360,253;    1,727;   -0,955
1125,901;  539,525;    1,182;    1,227
1126,438;  644,162;    0,818;    0,955
1126,975;  372,434;   -0,727;   -0,773
1127,513;  444,071;    0,273;    2,136
1128,050;  349,071;    1,636;   -0,682
1128,587;  450,707;    2,000;   -0,227
1129,124;  492,162;    0,091;    1,318
1129,661;  363,707;    0,273;    0,227
1130,198;  520,707;    1,636;    0,773
1130,734;  464,798;    0,182;    1,409
1131,271;  329,525;   -0,909;    0,864
1131,808;  497,798;    2,909;    3,045
1132,345;  377,434;    1,545;    0,318
1132,881;  249,616;   -1,545;   -1,864
1133,418;  389,616;    0,727;   -1,136
1133,954;  327,434;    2,455;   -2,682
1134,491;  386,707;    1,364;   -0,773
1135,027;  288,343;    2,364;    0,864
1135,564;  386,525;    0,273;    2,955
1136,100;  365,253;    0,364;    2,136
1136,636;  261,071;   -1,273;   -1,045
1137,172;  345,798;    0,000;   -1,045
1137,708;  280,434;   -1,364;   -1,045
1138,245;  284,434;    1,273;   -1,227
1138,781;  231,071;    1,091;   -3,318
1139,317;  296,980;    1,273;   -1,409
1139,852;  283,434;    3,091;    0,136
1140,388;  408,798;   -1,182;   -0,409
1140,924;  286,343;   -1,091;   -2,227
1141,460;  223,707;   -1,636;    0,136
1141,996;  159,162;   -1,364;    2,682
1142,531;  210,798;    1,364;    3,318
1143,067;  423,071;    1,182;    1,045
1143,602;  476,525;   -0,091;   -0,318
1144,138;  319,162;   -2,636;    1,045
1144,673;  194,162;   -1,455;    1,409
1145,209;  259,798;   -1,909;   -0,318
1145,744;  180,980;   -0,727;    0,864
1146,279;  317,434;    1,818;   -0,136
1146,815;  230,798;    1,545;   -2,682
1147,350;  257,980;   -1,364;    0,045
1147,885;  191,253;   -0,818;   -1,318
1148,420;  178,707;   -2,273;    0,773
1148,955;  167,525;   -1,727;    1,864
1149,490;  182,162;   -0,909;   -1,591
1150,025;  171,253;    0,455;   -1,773
1150,560;  288,889;    1,091;   -0,955
1151,094;  249,071;    1,455;   -0,591
1151,629;  252,434;    1,636;    0,864
1152,164;  194,343;    1,364;    1,318
1152,698;  135,889;   -0,182;   -0,136
1153,233;   97,162;    0,091;   -0,682
1153,767;  155,343;   -3,000;   -2,318
1154,302;  194,525;   -1,455;    1,773
1154,836;  193,980;   -0,455;   -2,136
1155,371;  249,616;   -1,364;    3,682
1155,905;  200,980;   -0,636;    1,682
1156,439;  168,253;   -0,636;   -0,500
1156,973;  194,889;    0,364;    0,318
1157,507;  135,525;   -0,364;    0,682
1158,042;  164,616;   -0,727;    1,045
1158,576;  209,525;    0,182;    1,773
1159,110;  193,071;   -0,818;    2,409
1159,643;  172,616;    0,636;   -0,045
1160,177;  112,798;   -1,545;    1,500

