
Integration time [ms]:   0,040
Averaging Nr. [scans]: 11
Smoothing Nr. [pixels]: 0
Data measured with spectrometer [name]: 7318044SP
Wave   ;Sample   ;Dark     ;Reference
[nm]   ;[counts] ;[counts] ;[counts] 

186,757;   16,375;   31,551;    1,318
187,357;   53,387;   22,551;    0,955
187,958;   28,450;   15,460;   -1,591
188,558;   72,192;    8,915;   -1,227
189,159;   42,571;    6,733;   -4,500
189,759;   11,630;    7,278;   -3,591
190,360;    9,297;    2,824;   -2,136
190,960;   49,811;    2,915;   -4,136
191,560;   66,410;    3,189;   -6,591
192,161;  295,844;    4,372;   -3,500
192,761;  135,347;    4,010;   -3,227
193,361;   93,819;    1,556;   -3,773
193,962;  150,380;    2,010;   -2,682
194,562;   74,589;    1,189;   -3,955
195,162;  110,041;   -2,448;   -2,227
195,762;  261,476;   -3,176;   -0,045
196,362;  217,121;    1,370;   -2,500
196,963;   85,527;    2,006;   -0,864
197,563;  158,556;    1,551;   -0,955
198,163;  104,065;    0,096;   -0,682
198,763;  116,902;    1,733;   -0,500
199,363;  221,601;    3,096;   -0,500
199,963;  195,078;    0,369;    0,409
200,563;  161,481;    2,823;   -1,409
201,163;  137,795;    3,277;   -0,227
201,763;  233,428;    3,732;    0,318
202,363;  168,222;    1,459;    1,500
202,963;  279,749;    1,459;    1,045
203,563;  387,772;    0,277;    0,500
204,162;  239,229;    2,096;   -1,864
204,762;  234,714;    0,550;    0,591
205,362;  202,217;    3,004;    1,955
205,962;  297,886;    3,096;    1,955
206,562;  299,605;    1,823;    2,318
207,161;  266,691;   -0,087;    0,318
207,761;  413,726;    1,277;    2,409
208,361;  300,231;   -0,268;    1,409
208,960;  398,935;    0,459;    1,500
209,560;  469,989;    1,277;    1,591
210,160;  439,979;    0,550;    1,864
210,759;  412,093;    4,186;    1,227
211,359;  414,726;    1,459;    1,045
211,958;  680,799;    1,277;    2,045
212,558;  758,431;    1,732;    1,864
213,157;  606,804;    1,822;    1,500
213,757; 1035,276;    3,822;   -0,227
214,356;  751,204;    1,277;   -0,409
214,956; 1081,881;    3,095;    0,409
215,555;  714,098;    2,095;    2,136
216,154;  652,401;   -2,723;   -0,591
216,754;  646,581;    0,277;    0,773
217,353;  789,900;   -0,268;   -1,045
217,952;  647,900;   -0,178;    0,318
218,552;  888,810;    1,368;   -0,773
219,151;  788,121;    0,277;    0,955
219,750;  787,377;    0,004;   -0,227
220,349;  925,237;   -0,451;    1,045
220,948;  977,065;   -1,360;    1,136
221,548;  996,169;    0,913;    1,227
222,147; 1106,469;   -0,087;   -0,409
222,746; 1383,245;   -0,451;   -0,955
223,345; 1268,794;    0,731;    0,500
223,944; 1270,023;   -0,451;    0,773
224,543; 1449,014;    1,004;   -1,409
225,142; 1566,050;    0,094;    0,136
225,741; 1475,542;   -0,814;    1,045
226,340; 1486,395;   -0,451;   -0,955
226,939; 1929,286;   -0,996;   -0,136
227,538; 1900,753;   -0,360;   -0,773
228,137; 2039,431;   -0,814;    0,864
228,735; 2169,431;   -0,541;    1,227
229,334; 1940,884;   -0,905;   -0,227
229,933; 2323,037;    0,459;    0,591
230,532; 2430,756;    1,186;   -0,409
231,131; 2471,508;    1,732;    0,318
231,729; 2598,579;   -2,450;   -2,318
232,328; 2715,456;   -0,723;   -1,500
232,927; 2776,474;    1,004;   -0,500
233,525; 2894,715;    3,640;    0,045
234,124; 3107,907;    2,368;   -1,591
234,723; 3132,640;    0,913;   -1,045
235,321; 3273,166;    2,277;    0,136
235,920; 3497,489;    1,186;   -1,227
236,518; 3764,651;    3,459;    0,318
237,117; 3933,866;    0,004;   -0,227
237,715; 4118,581;    0,640;   -0,500
238,314; 4133,213;   -0,087;   -2,318
238,912; 4239,425;   -0,723;   -1,409
239,510; 4283,877;    0,459;   -1,227
240,109; 4486,135;    0,004;    3,773
240,707; 4513,926;   -0,996;    1,227
241,305; 4852,234;    0,550;    0,136
241,904; 5047,871;   -0,178;   -2,045
242,502; 5031,054;   -0,632;   -0,227
243,100; 4990,125;   -0,087;   -0,955
243,698; 5221,840;    0,732;    1,682
244,297; 5412,157;   -0,632;    0,682
244,895; 5257,528;   -0,269;   -2,318
245,493; 5554,505;    2,186;   -0,591
246,091; 5595,472;    1,368;   -1,318
246,689; 5577,016;    1,004;    0,591
247,287; 5750,985;    0,822;   -1,136
247,885; 6046,635;   -1,451;    1,227
248,483; 6145,318;    1,822;   -0,500
249,081; 6272,618;    0,185;    1,591
249,679; 6427,282;   -0,178;    1,682
250,277; 6686,085;   -1,723;    0,864
250,875; 6656,035;   -1,087;   -1,045
251,473; 6699,443;   -1,178;    0,500
252,071; 6896,227;    1,459;    1,045
252,669; 7036,023;   -1,814;    0,318
253,267; 7309,864;   -0,087;    0,773
253,864; 7263,440;   -0,360;    0,682
254,462; 7085,361;    1,640;    1,591
255,060; 7090,903;   -0,269;    1,318
255,658; 7406,659;    0,822;   -0,136
256,255; 7801,621;    0,186;   -2,045
256,853; 7671,726;   -0,269;    1,409
257,451; 7676,867;    0,822;    1,864
258,048; 7941,136;    1,822;    1,864
258,646; 7714,723;    1,731;   -1,045
259,243; 7890,635;   -0,087;    2,227
259,841; 7972,902;   -0,814;    0,318
260,438; 7846,606;   -0,087;    0,864
261,036; 8556,916;   -1,905;    1,409
261,633; 8446,660;   -0,087;    2,227
262,231; 8202,596;    2,731;   -0,045
262,828; 8291,638;   -0,905;    1,136
263,425; 8335,862;    0,913;   -0,591
264,023; 8593,539;    0,186;    0,045
264,620; 8177,268;   -0,360;   -0,318
265,217; 8510,478;   -2,087;    3,136
265,815; 8601,889;   -1,905;    2,136
266,412; 8380,025;    0,731;    0,136
267,009; 8437,594;   -1,451;    0,773
267,606; 8342,269;    0,822;   -0,955
268,203; 8305,767;   -0,269;   -0,591
268,801; 8621,689;    1,731;    0,591
269,398; 8903,941;   -0,360;    2,500
269,995; 8866,911;    0,277;    1,591
270,592; 8662,914;   -0,632;   -0,500
271,189; 8853,517;    0,186;    0,409
271,786; 8933,075;   -0,632;    1,227
272,383; 8801,826;   -1,087;    0,227
272,980; 8979,383;    0,277;    0,318
273,577; 9437,724;    0,004;    1,227
274,174; 9013,121;    0,822;    2,591
274,771; 9002,113;   -0,814;   -0,773
275,367; 9124,451;    2,277;    1,409
275,964; 9085,975;    0,731;   -0,500
276,561; 9176,479;    1,549;   -1,045
277,158; 9383,737;    0,095;   -1,773
277,755; 9542,618;    2,185;    0,409
278,351; 8929,905;   -0,451;   -1,500
278,948; 9241,496;   -0,815;    0,045
279,545; 9261,245;   -1,360;    2,318
280,141; 9886,683;   -1,723;   -2,045
280,738; 9742,294;   -0,451;   -0,136
281,334; 9977,486;   -1,633;    0,591
281,931; 9363,933;   -0,087;   -1,318
282,528; 9458,597;    0,822;   -0,500
283,124;10167,361;   -1,087;   -0,500
283,721;10051,476;   -0,451;    1,409
284,317; 9886,359;    0,185;    2,500
284,913;10401,992;   -1,360;    0,591
285,510;10579,901;    0,640;   -0,318
286,106;10631,771;   -2,269;   -0,955
286,703;10246,554;   -0,360;    1,955
287,299;10450,811;   -1,451;   -0,591
287,895;10647,571;    0,822;   -1,045
288,491;11236,123;    0,186;    2,136
289,088;10958,371;   -2,360;    2,409
289,684;11018,477;   -1,723;    1,500
290,280;10991,590;    0,368;    0,682
290,876;11056,236;    1,822;    5,500
291,472;10952,858;    1,276;    2,227
292,068;11081,590;    1,367;    0,227
292,665;10825,356;    2,095;    0,773
293,261;10446,609;    0,276;    2,136
293,857;10824,406;    2,913;    2,136
294,453;10758,036;    3,550;    0,955
295,049;10617,605;   -0,268;    1,955
295,644;10642,775;    0,095;    0,136
296,240;10568,460;   -0,905;   -0,136
296,836;10654,081;   -0,995;    0,318
297,432;10903,645;    1,096;   -0,500
298,028;10899,433;    0,732;    0,773
298,624;11324,447;    1,459;    1,864
299,220;11584,410;    2,368;    0,591
299,815;11254,662;    1,005;   -0,409
300,411;11051,332;    0,914;    1,773
301,007;11085,340;    1,368;    0,227
301,602;11106,870;   -0,541;   -2,318
302,198;11272,061;    0,732;   -0,773
302,794;11607,923;    1,187;   -0,500
303,389;11710,925;   -1,177;    1,045
303,985;11787,260;    0,550;    1,409
304,580;11745,650;    1,459;    1,591
305,176;11712,938;   -3,086;    0,136
305,771;11683,975;   -1,268;   -1,227
306,367;11472,040;    4,095;    0,136
306,962;11828,234;    0,641;    1,500
307,558;11544,446;   -0,450;    0,136
308,153;11475,120;    1,095;   -1,136
308,748;11731,540;   -0,814;    1,682
309,344;11652,889;   -0,632;   -1,318
309,939;11775,004;   -1,905;   -1,318
310,534;12054,492;   -0,086;   -1,682
311,130;11981,875;    0,459;   -2,500
311,725;11739,062;    1,004;   -0,500
312,320;12057,569;    2,459;    0,045
312,915;11874,129;    1,459;   -1,045
313,510;11934,730;    1,550;   -0,500
314,105;12446,707;    1,096;    1,409
314,700;11845,712;   -3,086;   -1,045
315,295;11509,923;   -0,904;    0,045
315,890;11109,869;    1,277;    0,864
316,485;11446,245;   -0,359;   -0,318
317,080;11584,054;   -3,086;    1,591
317,675;12106,660;    2,005;   -0,682
318,270;11482,700;    5,550;    3,318
318,865;11537,700;    3,278;    3,045
319,460;11373,749;   -0,904;    0,591
320,055;11600,027;   -0,541;   -1,227
320,650;11272,720;   -1,995;   -0,591
321,244;11310,757;   -0,177;   -1,409
321,839;12260,260;   -1,541;   -0,227
322,434;12122,841;   -1,086;   -1,591
323,029;11759,825;    1,732;    1,591
323,623;11579,995;    1,550;    0,773
324,218;11320,730;    2,368;    1,409
324,812;11219,288;    1,096;    1,591
325,407;11040,113;   -0,814;    2,045
326,002;10942,993;    0,277;   -0,409
326,596;11253,347;    0,914;    1,318
327,191;11452,807;    0,823;   -1,045
327,785;11014,528;   -0,813;   -0,227
328,379;11235,201;    1,368;    0,136
328,974;11056,959;    0,914;   -3,955
329,568;11257,319;    0,186;   -2,409
330,163;11056,403;    2,096;    1,045
330,757;11464,944;    2,459;    1,591
331,351;10797,331;    0,459;    0,682
331,945;11062,013;    0,914;    1,409
332,540;10699,877;   -1,723;   -0,591
333,134;10828,460;   -1,086;    0,773
333,728;11093,119;    0,005;    0,318
334,322;11418,776;   -1,177;   -0,864
334,916;10690,710;    0,277;    0,955
335,510;11017,814;   -0,450;   -0,136
336,105;11280,353;   -1,086;    1,591
336,699;10979,970;   -1,086;    0,591
337,293;10898,315;   -1,723;    0,318
337,887;11091,963;   -2,723;    1,955
338,481;11187,907;    0,459;    0,591
339,074;11320,346;   -0,359;    2,682
339,668;11147,039;   -1,632;    1,227
340,262;11406,673;    1,732;    3,227
340,856;10953,687;    1,822;   -0,682
341,450;10327,117;    1,004;    1,864
342,044;11172,224;    1,459;    0,136
342,637;10969,317;    0,913;   -2,136
343,231;10799,110;   -2,360;    0,682
343,825;10785,060;   -1,086;   -0,591
344,419;10769,018;   -1,995;    0,500
345,012;10517,315;    2,459;    4,045
345,606;10541,098;    4,641;    1,591
346,199;10398,029;   -1,813;   -0,227
346,793; 9954,358;    1,914;    2,045
347,386;10116,802;   -0,813;   -1,136
347,980;10119,108;   -0,268;   -0,045
348,573; 9914,975;    2,278;    0,409
349,167; 9614,659;    5,278;    4,773
349,760; 9971,146;    2,914;    2,682
350,354; 9918,689;   -0,813;    1,136
350,947; 9661,462;    1,096;    1,682
351,540; 9356,309;   -0,358;   -1,409
352,134; 9282,267;    1,096;    1,136
352,727; 9362,013;   -0,086;    1,136
353,320; 9198,029;    0,005;    0,591
353,913; 9041,245;   -1,995;    1,864
354,507; 9222,521;    0,823;   -1,227
355,100; 9240,063;    0,460;    0,864
355,693; 8478,219;    2,005;    2,409
356,286; 8522,721;    0,823;    2,773
356,879; 8842,511;   -0,722;    1,227
357,472; 8452,544;   -0,904;    1,500
358,065; 8654,229;   -0,722;    2,500
358,658; 8619,874;   -0,540;    2,318
359,251; 8261,421;   -1,631;   -0,591
359,844; 7776,409;   -1,904;   -1,136
360,437; 7927,761;   -2,995;    0,045
361,030; 8195,663;    1,369;   -0,682
361,623; 7794,311;    2,824;    0,318
362,215; 7849,530;   -0,086;    2,045
362,808; 7679,171;   -2,358;   -1,682
363,401; 7889,275;   -2,449;    0,136
363,994; 7651,329;   -0,631;   -1,500
364,586; 7553,703;    0,824;   -1,500
365,179; 7750,176;   -0,449;   -1,136
365,772; 7271,101;   -1,995;    2,045
366,364; 7565,668;    1,915;   -3,227
366,957; 7735,636;    2,279;   -0,045
367,549; 7723,658;    2,188;   -0,864
368,142; 7388,186;    1,825;   -1,500
368,734; 7598,182;    0,734;   -2,136
369,327; 7577,987;    1,643;   -0,500
369,919; 7485,660;   -1,538;    0,409
370,512; 7289,385;   -1,083;   -0,500
371,104; 7053,204;   -0,901;    1,591
371,696; 7217,527;    1,191;   -0,955
372,289; 7318,452;    0,373;    1,136
372,881; 7415,707;   -2,080;    1,318
373,473; 7342,097;   -2,170;    1,136
374,066; 7179,067;   -0,169;    0,500
374,658; 7039,908;    0,378;    1,136
375,250; 7388,030;    0,653;   -1,409
375,842; 7220,132;    0,473;   -0,045
376,434; 7093,148;   -0,435;   -0,409
377,026; 7656,145;    0,204;   -2,500
377,618; 7567,635;   -0,158;   -0,682
378,210; 7432,508;   -0,338;   -1,955
378,802; 7253,640;    0,754;   -0,591
379,394; 7201,124;    1,846;    0,682
379,986; 7800,298;    1,393;   -0,955
380,578; 7903,976;   -0,153;    0,773
381,170; 7258,801;   -0,972;    0,045
381,762; 7196,254;    0,755;    1,409
382,354; 7388,108;   -0,065;   -1,318
382,945; 7516,813;   -2,976;    0,318
383,537; 7684,410;   -2,705;   -1,955
384,129; 7679,613;   -2,160;   -1,136
384,721; 7839,713;   -0,252;    0,955
385,312; 7749,498;   -0,161;   -0,955
385,904; 7855,629;   -2,706;    1,591
386,496; 7242,787;   -0,979;    1,045
387,087; 7350,108;    1,022;    2,500
387,679; 7424,088;   -1,160;    0,045
388,270; 7552,436;    2,840;    2,045
388,862; 7657,750;    1,295;   -0,318
389,453; 7563,834;   -0,887;    1,045
390,045; 7826,622;   -0,705;   -2,682
390,636; 7749,572;    0,204;   -0,591
391,227; 7592,051;   -0,523;   -0,045
391,819; 7719,153;    0,204;    0,773
392,410; 7780,685;    1,022;    0,045
393,001; 7696,492;   -0,979;   -1,591
393,593; 7973,897;    1,930;   -0,045
394,184; 7832,766;    1,385;   -0,409
394,775; 7777,616;    1,839;    2,136
395,366; 7977,106;    1,385;    0,773
395,957; 7964,717;    0,113;    0,136
396,548; 8281,371;   -0,342;    2,682
397,139; 8586,707;   -2,433;    0,591
397,730; 8321,437;   -1,888;    0,955
398,321; 8355,999;   -1,252;    0,955
398,912; 8372,672;   -0,615;    0,136
399,503; 8455,883;   -3,524;   -1,409
400,094; 7912,015;    0,294;    1,682
400,685; 7778,118;   -0,433;    0,045
401,276; 7862,840;    0,930;   -0,955
401,867; 8192,944;   -0,888;    0,773
402,458; 8292,535;   -2,251;   -2,318
403,048; 8274,858;    1,112;    0,591
403,639; 7886,745;    0,840;    0,864
404,230; 8106,072;    2,476;    0,318
404,821; 8040,156;   -0,615;    0,045
405,411; 8155,471;    1,203;   -2,591
406,002; 7780,435;   -1,252;   -1,136
406,592; 7628,362;    2,294;    0,045
407,183; 7924,961;    0,566;   -1,500
407,774; 7868,376;    3,475;   -0,136
408,364; 8160,430;    0,930;    0,409
408,954; 7788,861;    0,384;    1,227
409,545; 7825,496;    1,021;    1,045
410,135; 7372,424;    1,293;    0,500
410,726; 7507,944;    1,838;    0,318
411,316; 7903,707;    0,111;    0,773
411,906; 7576,480;   -0,253;   -0,409
412,497; 7107,121;   -1,070;   -0,045
413,087; 7713,092;   -1,980;   -0,227
413,677; 8069,975;   -0,707;    3,864
414,267; 7921,941;    0,656;    1,409
414,857; 7924,036;   -2,980;    4,227
415,448; 8199,945;    0,839;    0,500
416,038; 7908,251;    0,020;   -0,591
416,628; 7878,972;   -0,889;    0,409
417,218; 7359,770;    0,565;    3,318
417,808; 7604,683;    0,202;   -0,409
418,398; 8036,169;    0,020;    2,682
418,988; 8064,142;    2,020;    0,591
419,578; 8313,675;   -0,707;    1,409
420,168; 8629,663;   -1,343;   -0,955
420,757; 8223,339;   -1,343;   -1,500
421,347; 7921,521;    0,111;   -0,227
421,937; 8101,186;    2,292;    1,409
422,527; 8022,286;    0,838;   -0,773
423,116; 7859,744;   -0,253;   -0,045
423,706; 8177,268;   -1,889;    0,318
424,296; 8155,994;    1,384;    0,682
424,885; 8581,539;   -0,071;   -3,045
425,475; 8858,641;    1,474;   -2,864
426,065; 8745,215;   -0,980;   -0,318
426,654; 8410,578;   -0,435;   -0,318
427,244; 8503,401;    0,020;    1,409
427,833; 7954,397;    1,383;   -0,500
428,423; 8434,176;   -0,526;    1,136
429,012; 9194,558;   -0,344;   -1,136
429,601; 8691,871;   -1,344;    0,136
430,191; 8933,793;    1,292;    4,318
430,780; 8567,874;   -0,344;   -0,409
431,369; 8489,690;    0,746;   -0,045
431,959; 9103,179;   -1,254;    0,500
432,548; 8921,939;   -1,163;   -0,045
433,137; 9051,311;   -1,254;   -1,318
433,726; 9566,213;    0,292;    0,500
434,315; 8926,462;   -0,526;    2,409
434,905; 9024,793;   -1,254;    1,409
435,494; 8894,991;    0,746;    0,955
436,083; 9376,277;   -0,981;   -0,955
436,672; 9262,831;    0,110;    0,500
437,261; 8827,634;    0,292;   -1,955
437,850; 8927,415;    1,383;    0,682
438,439; 8900,046;    3,291;    1,955
439,027; 8738,506;    3,655;    1,773
439,616; 9088,278;    2,927;    1,227
440,205; 8950,416;    0,200;   -2,136
440,794; 9019,100;    2,109;   -0,045
441,383; 9299,450;   -1,346;   -0,591
441,971; 9142,266;   -2,436;    0,591
442,560; 9025,495;    0,563;   -1,773
443,149; 8763,903;    0,379;   -1,318
443,737; 8904,214;   -0,074;   -2,318
444,326; 9167,042;    0,018;    0,318
444,915; 9216,978;   -1,982;    0,864
445,503; 9616,698;   -2,891;   -0,318
446,092; 8848,158;    0,382;    2,136
446,680; 9410,350;    0,382;    0,318
447,269; 9600,508;   -0,346;   -0,318
447,857; 9351,431;    0,018;   -1,773
448,445; 9480,830;    0,563;    1,318
449,034; 9683,675;   -1,528;   -1,136
449,622; 9794,675;   -1,073;    3,500
450,210; 9030,705;    2,017;    2,227
450,799; 9573,165;    0,290;   -0,591
451,387; 9555,201;    1,381;   -0,591
451,975; 9189,557;    2,654;    0,864
452,563; 9265,241;    3,472;    2,318
453,151; 9346,443;   -0,528;   -1,227
453,739; 9266,804;   -1,347;    0,136
454,328; 9115,492;    2,381;   -2,136
454,916; 8837,170;    2,562;   -0,136
455,504; 9001,008;    1,017;    1,227
456,092; 9194,303;    0,017;   -1,591
456,679; 9142,183;    1,472;    0,682
457,267; 9048,834;    4,017;    1,045
457,855; 9240,902;    1,017;    1,409
458,443; 9019,101;   -0,165;    1,682
459,031; 9158,909;    0,108;    2,409
459,619; 9594,778;   -1,801;    2,864
460,206; 9712,269;    0,835;    2,045
460,794; 9832,037;   -2,983;   -0,227
461,382;10014,816;   -0,529;   -0,864
461,970; 9612,118;    1,198;    1,864
462,557; 9685,056;   -0,711;   -0,682
463,145; 9808,018;   -3,165;   -1,682
463,732; 9941,404;    2,016;   -1,045
464,320; 9896,179;   -0,075;   -3,045
464,907; 9588,142;    2,743;   -0,773
465,495; 9499,236;    0,743;   -1,227
466,082; 9668,207;   -1,984;   -0,045
466,670; 9567,301;   -2,529;    1,227
467,257; 9965,399;   -1,711;    2,045
467,844;10101,163;   -0,075;    0,045
468,432;10126,560;    0,834;    3,500
469,019; 9659,639;    0,925;   -1,773
469,606;10100,143;    0,470;    3,682
470,193; 9956,774;   -1,439;    0,227
470,780; 9527,451;   -2,075;    0,864
471,368; 9868,585;   -1,257;   -0,773
471,955; 9654,306;    1,379;   -0,682
472,542; 9313,445;    0,652;   -1,136
473,129; 9526,370;   -0,166;    0,136
473,716; 9270,426;    1,470;    0,591
474,303; 9458,882;    0,652;   -0,864
474,890; 9734,672;   -1,439;   -0,500
475,477; 9751,287;   -1,621;    0,409
476,064; 9646,034;    1,106;   -1,591
476,650; 9623,925;    0,288;    0,318
477,237; 9445,744;   -0,258;    0,955
477,824; 9563,960;   -1,076;    0,864
478,411; 9622,594;   -1,894;   -0,318
478,997; 9829,701;    0,560;   -0,773
479,584; 9894,964;    1,196;   -0,409
480,171;10549,319;   -0,440;   -0,773
480,757;10202,459;    2,651;    0,773
481,344;10506,017;    0,469;    0,409
481,931;10018,316;    1,105;    1,045
482,517;10939,383;   -1,258;    0,318
483,104;11444,388;    1,106;    2,864
483,690;11719,208;   -1,804;    0,045
484,276;12102,072;   -0,895;    0,227
484,863;11882,245;    2,469;    1,136
485,449;12459,539;   -0,077;    0,318
486,035;12473,209;   -1,986;   -0,136
486,622;12897,376;   -0,895;    0,045
487,208;12831,173;    1,378;    1,500
487,794;12689,399;    0,741;    0,318
488,380;12798,404;    0,105;   -1,409
488,967;12855,795;   -1,168;   -0,409
489,553;12906,451;   -1,895;   -1,409
490,139;13118,513;    1,559;    0,773
490,725;12568,607;    0,741;   -0,227
491,311;12188,028;    3,287;    3,045
491,897;11535,393;   -0,986;    1,500
492,483;11385,066;    0,105;    1,227
493,069;11118,366;    3,923;    0,864
493,655;11133,864;    1,650;    0,682
494,241;11043,285;    1,377;   -0,955
494,826;11437,723;    0,287;   -1,045
495,412;10904,754;    2,559;   -0,682
495,998;11069,335;   -0,805;   -0,318
496,584;11230,265;    0,377;    1,045
497,169;11229,242;    1,014;   -0,682
497,755;11172,873;    0,650;    1,227
498,341;11724,332;    0,559;    0,318
498,926;11325,677;    1,832;    1,955
499,512;11509,399;    1,286;    2,955
500,097;11680,193;    0,195;   -0,318
500,683;11639,821;   -0,350;    2,136
501,268;12008,308;   -0,169;   -0,955
501,854;11702,922;   -0,169;    1,227
502,439;11637,396;   -0,624;   -1,773
503,024;11863,897;    0,195;    0,500
503,610;11939,016;   -0,078;   -0,682
504,195;11962,509;    0,558;    1,955
504,780;12073,674;    2,922;    1,227
505,366;11899,033;    3,013;    2,864
505,951;11632,110;    0,740;    1,045
506,536;11659,045;   -3,260;   -3,682
507,121;11701,158;    0,285;   -0,318
507,706;12191,160;    2,376;    1,045
508,291;12623,656;    2,649;    1,136
508,876;12087,088;   -0,988;    2,591
509,461;11521,619;   -0,169;   -0,773
510,046;11957,465;    0,194;    0,318
510,631;12171,272;   -0,351;   -0,773
511,216;11874,614;    2,467;   -0,500
511,801;12261,380;   -0,442;    2,591
512,386;12572,428;    0,740;    0,500
512,971;12500,266;   -2,988;    0,955
513,555;12068,040;   -0,897;   -1,500
514,140;12852,621;   -0,442;   -3,136
514,725;12855,795;   -0,715;   -1,136
515,309;12981,700;   -0,533;    0,318
515,894;12486,487;   -0,624;   -2,227
516,479;12887,766;   -0,624;   -0,955
517,063;12699,397;    0,376;    1,227
517,648;12895,127;    1,012;   -1,136
518,232;12510,100;   -0,261;   -1,409
518,817;12864,071;   -0,079;    1,682
519,401;13080,309;    2,194;    0,591
519,985;12600,031;    1,103;    1,136
520,570;12478,528;    0,830;   -1,955
521,154;12791,417;    2,102;    0,591
521,738;12914,891;   -2,352;    2,409
522,323;13509,685;   -0,170;    1,682
522,907;13248,676;    0,466;   -0,136
523,491;12998,769;    0,557;    0,955
524,075;12968,558;    2,284;    0,591
524,659;13055,032;    1,466;    0,591
525,243;12513,247;    1,739;    0,409
525,827;12772,347;    0,648;   -0,045
526,411;13617,941;   -1,989;   -0,136
526,995;13816,644;   -0,352;    1,409
527,579;13406,579;   -0,443;   -1,045
528,163;13704,621;    0,375;   -1,500
528,747;13612,345;    2,466;   -0,773
529,331;13950,372;   -0,080;   -1,409
529,915;14141,016;    1,738;    0,955
530,499;14070,440;   -0,807;    1,227
531,082;13786,032;   -0,534;    1,591
531,666;13239,215;    1,374;    0,773
532,250;13907,679;    1,284;    2,682
532,833;14214,454;    0,920;    2,773
533,417;14112,395;   -1,807;    0,864
534,001;14058,075;    1,647;   -0,318
534,584;14761,393;    0,374;    0,500
535,168;14595,209;    0,465;    1,409
535,751;14616,701;    0,647;    0,045
536,334;14075,252;   -0,898;   -0,409
536,918;14688,008;    0,011;    1,591
537,501;14817,291;   -0,899;    1,318
538,085;14811,205;   -0,444;    1,045
538,668;14962,266;    0,829;    2,409
539,251;15257,692;    1,829;    3,773
539,834;15283,598;    0,101;    0,773
540,418;15200,557;   -1,990;    4,318
541,001;15328,157;   -0,990;    1,773
541,584;15313,705;    2,101;    2,227
542,167;14953,772;    1,374;    2,955
542,750;15125,445;    1,919;   -0,773
543,333;14769,711;    0,555;    2,136
543,916;15533,817;    0,192;    2,500
544,499;16117,157;   -1,354;    0,227
545,082;16121,674;    1,374;    3,591
545,665;16257,153;    1,919;    1,500
546,248;16608,074;    1,010;   -0,318
546,830;16253,040;   -0,445;    1,955
547,413;16641,389;    1,010;   -0,773
547,996;17165,277;    0,555;    0,500
548,579;16977,440;    0,919;    0,955
549,161;16769,593;    1,828;    2,682
549,744;16574,847;   -0,809;    0,409
550,326;17062,758;   -0,809;   -1,136
550,909;16836,373;    2,737;    0,591
551,492;17223,845;   -0,263;    0,227
552,074;17001,591;   -0,173;   -1,318
552,657;17549,380;    2,373;    0,045
553,239;17331,565;   -0,173;   -0,773
553,821;17263,097;   -1,082;    1,045
554,404;16769,985;    1,282;    1,136
554,986;17111,630;    0,464;    1,045
555,568;17711,269;    1,191;   -0,955
556,151;16938,695;    1,191;   -0,227
556,733;17123,626;   -0,264;   -0,864
557,315;17612,194;    0,100;    0,500
557,897;17465,524;    0,554;   -0,500
558,479;17541,647;   -1,991;    1,318
559,061;17658,031;   -0,719;   -0,864
559,643;17994,900;   -0,264;    0,045
560,225;18347,332;    1,645;    2,864
560,807;18411,718;    0,918;    0,318
561,389;17886,419;    0,554;    2,318
561,971;18605,628;    0,463;    2,136
562,553;18414,426;   -1,628;    1,591
563,135;18532,818;   -0,537;    1,136
563,717;18141,696;    3,372;    1,136
564,298;18841,097;    3,645;   -0,045
564,880;18607,824;    0,645;   -1,409
565,462;18753,279;    0,645;    1,318
566,043;19833,741;   -0,446;    2,318
566,625;19367,467;    1,918;    1,227
567,207;19215,480;    1,099;    1,682
567,788;20307,574;   -1,264;    1,500
568,370;21095,106;    1,917;   -0,500
568,951;20957,458;    0,190;    0,227
569,533;21774,298;   -0,628;   -0,500
570,114;22206,414;   -0,446;    0,682
570,695;22698,532;   -0,174;   -1,318
571,277;23137,722;   -0,265;   -1,682
571,858;23836,018;    2,008;   -1,136
572,439;24704,615;    1,554;   -1,045
573,021;24836,683;    2,099;   -2,773
573,602;25338,946;   -1,265;    0,318
574,183;26211,470;   -2,083;    2,227
574,764;26386,256;   -1,629;    0,409
575,345;26865,718;    0,917;   -0,136
575,926;27461,519;   -0,356;    0,136
576,507;27455,400;    1,099;   -0,227
577,088;28546,733;    3,099;    1,682
577,669;28537,170;    0,735;    1,955
578,250;29233,197;    0,644;   -1,045
578,831;29840,827;   -1,356;   -2,227
579,412;30038,596;   -0,810;    0,955
579,993;30954,113;    1,008;    0,227
580,573;31406,053;   -0,629;   -0,955
581,154;30362,656;    0,735;   -0,591
581,735;31179,503;    0,644;    0,773
582,315;30687,685;   -0,629;    2,136
582,896;31011,801;   -0,174;    1,227
583,477;30504,182;    0,189;    1,227
584,057;30695,810;    0,553;    0,955
584,638;30968,840;    2,553;    2,318
585,218;30949,354;   -0,538;    2,682
585,799;31109,469;    0,281;   -0,227
586,379;31126,824;    0,372;    1,591
586,959;29907,259;    0,735;    0,318
587,540;29284,188;   -0,629;    2,227
588,120;28853,147;    1,007;   -0,045
588,700;27844,798;    2,553;    2,136
589,281;28116,447;    0,462;   -0,955
589,861;28103,754;    0,099;   -1,682
590,441;27965,448;    2,371;   -2,682
591,021;26953,567;   -0,265;   -2,591
591,601;27201,304;   -0,537;    0,500
592,181;27183,787;   -0,719;   -0,773
592,761;26512,166;    0,007;    1,409
593,341;26440,227;   -0,901;    0,045
593,921;26433,157;   -0,265;    1,591
594,501;26358,380;   -0,538;    1,318
595,081;26161,914;    0,917;   -0,318
595,661;26511,527;   -1,447;    0,955
596,240;26972,153;   -0,537;    0,136
596,820;26634,625;    0,372;    1,955
597,400;26845,646;    2,008;    0,773
597,980;27029,178;    2,008;    1,045
598,559;27095,372;    2,735;   -0,227
599,139;26804,012;   -0,174;   -1,227
599,718;26704,376;   -0,174;   -0,409
600,298;26946,039;    0,735;    0,682
600,877;27178,907;    2,917;    1,409
601,457;27416,925;    2,281;    1,136
602,036;27355,940;    0,190;    2,045
602,616;27540,541;    0,644;    1,682
603,195;27847,015;   -0,355;    3,500
603,774;27411,443;   -0,901;    2,045
604,354;27315,323;    0,826;   -0,500
604,933;26809,757;    0,463;    1,864
605,512;26917,204;    3,554;    0,591
606,091;27002,434;   -0,537;    3,773
606,671;27813,986;    0,281;    0,773
607,250;26956,260;    1,644;    3,136
607,829;27188,607;    2,372;    3,227
608,408;27093,311;    1,190;    2,591
608,987;26097,108;    1,281;    3,409
609,566;26392,164;   -1,265;   -2,500
610,145;26490,080;   -1,082;    0,682
610,723;26884,022;    4,372;    6,864
611,302;26152,102;   -0,446;    1,682
611,881;25697,198;    5,008;   11,227
612,460;26464,442;    1,645;    3,955
613,039;26916,459;   -0,082;    2,045
613,617;25675,186;    1,736;    4,773
614,196;25871,836;    1,099;    1,227
614,775;26253,518;    1,009;    2,409
615,353;26172,571;    0,736;    0,864
615,932;25936,360;    0,100;    2,409
616,510;26473,972;    0,554;    0,591
617,089;25965,150;    7,100;   17,591
617,667;25704,634;    2,372;    6,136
618,246;25629,201;   -1,537;    1,318
618,824;25777,719;   -3,355;   -0,955
619,402;25397,538;   -2,900;   -1,773
619,981;25880,984;   -0,173;   -1,045
620,559;25698,401;    0,009;    1,682
621,137;25242,193;   -0,718;    1,864
621,715;25279,954;   -1,173;   -0,682
622,293;25174,889;   -0,537;   -0,773
622,871;25701,648;   -0,718;    0,500
623,450;25304,541;    0,373;   -0,864
624,028;25165,704;    0,191;   -0,955
624,606;24758,818;   -1,718;    1,682
625,183;25172,050;   -1,536;   -1,136
625,761;24804,686;    1,009;    1,136
626,339;25090,518;    1,373;    2,591
626,917;25493,853;   -0,172;   -0,045
627,495;25504,976;   -0,354;    1,318
628,073;24978,997;   -0,263;    2,864
628,650;24717,074;    0,100;    2,136
629,228;25127,660;    0,373;    4,409
629,806;24531,075;    2,282;    1,136
630,383;24788,033;    1,464;   -0,318
630,961;24591,378;    2,555;   -0,955
631,539;24352,728;    2,464;    0,227
632,116;23679,924;   11,373;   15,409
632,694;24250,489;    2,555;    6,500
633,271;24521,497;    0,828;    2,682
633,848;24457,416;    1,828;    2,045
634,426;24497,641;   -1,081;    1,773
635,003;23663,768;    1,101;   -0,409
635,580;23937,856;    1,192;    3,682
636,158;24512,754;    3,737;    1,227
636,735;24489,527;    0,555;   -0,500
637,312;24643,934;   -0,809;   -0,682
637,889;24705,789;   -4,354;   -0,682
638,466;24198,306;   -3,990;   -0,409
639,043;24181,044;    2,101;   -1,136
639,620;24517,103;   -2,262;   -0,955
640,197;24848,326;    1,100;    1,682
640,774;24975,555;   -0,172;    1,136
641,351;25425,784;    0,737;    1,136
641,928;24826,922;   -0,627;    1,409
642,505;24436,969;    0,828;   -0,500
643,082;24570,834;   -1,718;    1,227
643,658;23610,517;   -0,718;    1,500
644,235;24345,110;    1,191;    2,500
644,812;24643,884;    1,918;    0,773
645,388;24375,113;   -0,991;    1,409
645,965;24502,887;   -0,809;    1,682
646,542;24570,661;   -1,445;   -0,227
647,118;24514,162;    1,009;   -0,955
647,695;24808,209;   -0,263;    1,136
648,271;24733,984;   -0,536;    0,500
648,848;25050,849;    0,736;    2,227
649,424;24890,896;    0,827;    1,318
650,000;24655,215;   -0,354;   -1,045
650,577;24467,444;   -0,627;   -0,955
651,153;24926,673;   -1,809;    0,955
651,729;25860,902;    1,191;    0,864
652,305;25971,131;    0,645;    2,773
652,881;29949,996;   -0,082;    1,136
653,458;36471,225;    1,100;    0,227
654,034;40220,453;    0,282;    1,591
654,610;41795,682;    0,554;    0,773
655,186;43179,729;    0,645;    3,045
655,762;42856,321;   -0,991;    0,409
656,338;42810,096;    0,100;    0,136
656,913;43758,961;   -0,082;    0,409
657,489;43076,735;    0,827;   -0,318
658,065;43101,691;   -0,173;   -1,591
658,641;43776,193;   -0,900;   -0,864
659,217;43095,876;   -0,991;    0,409
659,792;42499,377;    0,645;   -0,409
660,368;42798,334;   -2,173;   -0,682
660,944;42523,835;   -2,082;    1,227
661,519;38407,882;   -0,628;    0,409
662,095;32781,838;   -1,719;    0,591
662,670;28177,521;    1,281;   -0,136
663,246;26935,205;    1,009;   -0,409
663,821;26160,343;    0,281;    1,682
664,396;25705,571;    0,009;    1,864
664,972;25935,164;    0,009;   -0,500
665,547;26203,029;    1,372;    0,136
666,122;26251,803;   -1,082;    0,318
666,698;26564,577;   -0,173;    0,318
667,273;25883,988;   -0,173;    0,136
667,848;26684,762;    2,372;    1,500
668,423;26482,809;    2,190;    2,318
668,998;27030,493;    2,827;   -0,682
669,573;27565,358;   -3,264;   -1,500
670,148;27399,950;   -1,446;   -0,682
670,723;27231,270;   -1,810;    0,318
671,298;27625,953;    2,372;    1,045
671,873;27707,091;   -0,082;   -0,136
672,448;27632,411;    0,645;    0,136
673,023;27981,003;   -1,992;   -0,227
673,597;28317,414;    0,827;    2,318
674,172;28107,915;   -0,355;    0,318
674,747;27565,235;    0,372;   -1,045
675,321;27420,373;   -0,628;    3,318
675,896;26976,238;    0,645;    1,045
676,471;27953,921;    2,645;    1,591
677,045;27750,695;   -1,264;    0,682
677,620;27824,288;    0,190;    1,136
678,194;28160,789;   -2,628;    1,136
678,769;27740,109;   -1,083;   -0,318
679,343;27936,611;   -0,628;    1,773
679,917;27814,294;   -1,446;    1,955
680,492;27887,704;    0,826;    3,227
681,066;28028,206;    3,372;    0,409
681,640;28133,889;    1,463;   -0,318
682,214;28896,936;    0,735;    0,500
682,788;28373,983;   -1,356;   -0,773
683,363;28353,939;   -1,810;    1,682
683,937;28092,350;   -1,719;   -0,318
684,511;28811,397;    0,463;   -0,591
685,085;28495,262;   -1,356;    0,318
685,659;28291,127;   -2,538;    0,864
686,232;28541,992;   -0,356;   -0,318
686,806;28253,857;   -0,901;    0,409
687,380;28914,904;   -0,174;    0,591
687,954;29101,224;   -1,174;    1,136
688,528;28747,544;   -0,719;    1,955
689,101;29578,863;   -3,992;    1,045
689,675;29174,274;   -0,356;   -0,136
690,249;28570,412;   -0,719;    0,409
690,822;28875,550;    0,280;    0,318
691,396;28961,597;   -0,265;    1,227
691,969;28426,735;    1,280;    0,136
692,543;28872,782;   -0,447;   -1,955
693,116;28545,647;   -0,265;   -1,409
693,690;28447,603;    0,099;    0,500
694,263;29002,195;   -1,083;    2,955
694,836;29010,333;    1,371;    3,591
695,410;27656,926;   -0,265;    1,773
695,983;28130,518;    0,189;    0,591
696,556;28131,019;   -0,447;   -1,045
697,129;28535,521;   -0,356;    1,409
697,703;28139,204;   -1,629;    1,955
698,276;28162,342;    1,462;   -0,773
698,849;27970,025;    1,280;    1,409
699,422;28317,254;   -1,083;    0,591
699,995;28020,756;    0,007;    0,136
700,568;28515,075;   -0,629;    3,045
701,140;28501,668;   -2,811;    1,682
701,713;28206,715;   -0,174;    2,409
702,286;27985,489;   -0,538;    0,864
702,859;27872,900;   -0,902;   -0,591
703,432;26988,583;    0,825;    0,682
704,004;27545,266;    0,462;    0,318
704,577;27404,677;   -0,629;    0,136
705,150;27976,178;    0,189;    2,500
705,722;27780,407;   -0,356;   -3,227
706,295;27544,636;   -0,175;   -0,591
706,867;27372,319;   -0,175;    1,955
707,440;27571,366;   -1,720;   -0,409
708,012;27870,686;    0,462;    0,591
708,584;27770,278;    2,462;    0,227
709,157;28059,325;    1,825;   -0,591
709,729;27711,827;    2,280;    2,045
710,301;28582,147;    0,734;    0,045
710,874;28571,921;   -1,447;   -0,227
711,446;27500,422;    0,371;    0,864
712,018;27334,378;    0,098;    0,500
712,590;27071,334;   -1,993;    1,682
713,162;27618,472;    0,825;    1,318
713,734;27902,792;    1,825;   -2,045
714,306;27788,657;   -1,902;   -0,409
714,878;26535,886;    0,825;    0,864
715,450;27325,842;    0,643;    0,864
716,022;27565,525;    1,552;    1,318
716,593;27718,663;    0,189;    0,591
717,165;27627,346;   -3,175;   -1,227
717,737;27326,757;    0,280;    0,409
718,309;26970,895;    0,280;   -0,045
718,880;26948,306;   -0,539;   -1,409
719,452;27227,534;   -0,175;   -1,591
720,024;26744,036;    0,734;   -0,591
720,595;27335,719;   -2,902;    0,955
721,167;26904,857;    0,370;   -2,045
721,738;26428,722;   -0,812;   -1,045
722,309;26410,496;   -0,993;   -1,227
722,881;26200,543;   -1,357;    0,773
723,452;26832,318;   -2,630;    2,864
724,023;26968,910;   -0,721;    2,682
724,595;26748,957;    0,007;    0,682
725,166;26563,458;    0,007;   -0,409
725,737;26151,051;    1,734;    0,227
726,308;26270,643;   -0,266;    0,318
726,879;26729,872;   -1,630;    1,227
727,450;26499,283;    0,552;   -0,045
728,021;26487,602;    3,097;    0,682
728,592;26305,013;    0,734;    0,500
729,163;26646,060;    0,643;   -0,136
729,734;26670,198;    0,188;   -0,227
730,305;26970,336;    1,734;    0,136
730,876;27296,019;    0,188;    2,955
731,447;27020,884;    2,188;    2,682
732,017;27172,386;    1,097;    1,864
732,588;26632,251;    0,734;    1,227
733,159;26750,298;    0,643;   -1,045
733,729;26599,890;    0,006;    0,409
734,300;25941,392;    0,915;    0,864
734,870;26377,893;    3,461;    0,591
735,441;26951,758;    0,370;   -0,591
736,011;26654,714;    0,643;   -1,591
736,582;26606,398;   -0,812;    0,045
737,152;26048,808;   -1,721;   -2,045
737,722;26540,492;   -0,267;   -0,682
738,293;26253,993;   -1,358;    1,318
738,863;26116,313;    2,461;    2,318
739,433;25924,542;    5,279;    0,318
740,003;26602,043;   -0,994;   -0,682
740,573;25956,272;    2,097;   -1,591
741,143;25881,228;   -1,085;    0,318
741,713;26678,002;    1,188;   -0,500
742,283;26411,595;    0,915;    1,591
742,853;26217,005;    1,915;    1,591
743,423;25679,143;    1,733;    0,045
743,993;25823,190;   -0,358;    1,500
744,563;25189,692;    0,097;   -0,864
745,133;25192,193;   -0,812;   -0,864
745,702;25837,604;   -0,267;    1,773
746,272;25063,742;   -0,176;    0,591
746,842;24849,334;   -1,358;   -0,591
747,411;25273,745;   -0,267;   -0,318
747,981;25449,610;    0,097;    0,500
748,551;25480,838;    2,278;   -1,045
749,120;25320,522;    0,642;   -0,227
749,690;25746,387;   -0,631;    2,409
750,259;26033,343;    1,369;    2,955
750,828;25973,663;    1,551;   -1,955
751,398;26258,982;    1,278;   -0,045
751,967;25675,757;    2,187;    0,409
752,536;25940,076;   -0,813;   -0,227
753,105;26322,487;    0,096;    0,227
753,675;26155,897;    0,096;    1,773
754,244;26120,944;   -0,904;    3,591
754,813;26141,355;    0,551;    1,227
755,382;25687,675;    0,460;    0,955
755,951;26253,176;    1,551;    3,682
756,520;25760,587;   -0,085;    1,864
757,089;26295,907;    0,278;    0,500
757,658;26445,954;    1,733;    1,227
758,227;26448,637;    1,096;    0,318
758,795;26752,593;    1,187;    1,136
759,364;27009,913;   -0,086;   -0,591
759,933;26024,687;   -1,176;   -0,045
760,501;25608,643;    0,733;   -1,318
761,070;26068,781;   -2,813;   -1,409
761,639;26717,464;   -1,904;    1,318
762,207;26049,784;    1,551;   -0,955
762,776;25972,467;    0,369;    0,864
763,344;25929,423;   -0,995;    0,591
763,913;25107,470;   -0,722;    1,409
764,481;25831,881;    1,005;   -0,136
765,049;25648,564;   -1,358;    1,409
765,618;25543,975;   -0,086;    0,318
766,186;25584,385;    0,278;    0,136
766,754;25782,432;    0,005;    1,864
767,322;24834,570;   -1,995;    0,409
767,890;24855,526;   -0,722;   -1,773
768,459;25229,119;   -2,177;   -0,318
769,027;25343,347;    1,641;    3,409
769,595;24436,576;    3,278;    2,591
770,163;24858,078;    3,823;    2,955
770,730;24593,125;    0,732;   -0,136
771,298;24434,444;    0,187;   -1,409
771,866;24565,128;   -1,541;    4,955
772,434;24882,356;   -0,631;   -1,864
773,002;25036,767;    0,005;    0,682
773,569;24690,996;    0,914;    1,682
774,137;24522,225;   -0,268;   -0,045
774,705;25310,362;    0,278;   -0,136
775,272;24783,773;    0,641;    0,682
775,840;24589,638;   -0,177;    2,682
776,407;24115,867;    0,277;    1,955
776,975;23702,096;   -0,632;    0,318
777,542;24715,506;   -1,086;   -0,045
778,110;24522,190;   -1,268;   -0,045
778,677;24232,237;   -2,359;   -0,864
779,244;23981,738;    2,186;    1,045
779,812;24077,785;    1,823;    0,864
780,379;23992,741;    0,005;    1,136
780,946;24258,697;    1,005;   -0,773
781,513;24554,744;   -1,450;    0,318
782,080;23938,518;   -0,086;    2,864
782,647;24646,293;   -0,268;    3,045
783,214;24239,067;   -0,177;    3,864
783,781;23877,114;   -0,723;   -0,682
784,348;23751,888;   -0,632;    1,500
784,915;24223,935;   -3,177;    0,318
785,482;23970,618;    1,368;    2,591
786,049;24362,029;    0,186;   -0,591
786,615;24507,439;    0,277;   -0,955
787,182;24291,305;    0,186;   -0,682
787,749;23966,988;   -2,814;    1,409
788,315;23260,399;   -1,632;   -0,409
788,882;23558,718;    1,550;   -1,227
789,448;24239,129;    1,732;   -0,955
790,015;24274,994;    1,095;    3,227
790,581;23884,223;    1,459;    0,227
791,148;23762,633;    0,641;    1,045
791,714;23975,499;   -0,541;    3,136
792,280;23644,818;    0,186;    1,591
792,847;23233,047;    0,550;    2,500
793,413;23771,549;   -0,269;   -0,318
793,979;23316,232;    3,459;   -1,318
794,545;23434,552;    4,459;    2,682
795,111;22830,871;    2,186;    1,318
795,678;23028,282;    0,731;   -1,682
796,244;22666,420;    3,368;    0,136
796,810;23235,921;    1,731;    0,773
797,375;22912,241;    0,549;   -2,136
797,941;22924,651;   -0,541;    0,591
798,507;23092,426;   -0,451;   -0,955
799,073;22631,745;   -0,360;    0,591
799,639;22708,429;   -2,632;    3,136
800,205;22704,112;    0,095;    2,682
800,770;22280,432;    0,640;    1,773
801,336;22367,024;    1,368;   -0,955
801,901;22060,889;    4,549;    3,136
802,467;22632,118;   -0,542;    2,045
803,033;22001,438;   -0,087;    0,864
803,598;22236,848;    1,913;   -1,045
804,163;22263,532;    1,095;   -0,318
804,729;22192,579;   -0,178;    1,136
805,294;22585,989;    0,822;    2,227
805,859;22396,309;    0,731;   -0,409
806,425;21884,174;    1,186;    2,682
806,990;21539,039;    2,186;    4,318
807,555;22059,904;   -1,451;    2,591
808,120;21901,133;    0,822;   -0,409
808,685;21992,180;    0,185;   -2,500
809,250;21479,227;    0,004;   -0,500
809,815;21809,729;    1,913;    0,682
810,380;22309,321;   -0,269;    1,591
810,945;22861,913;   -1,087;    2,045
811,510;22004,142;    2,094;    1,591
812,075;21714,826;   -0,633;   -1,409
812,640;21758,691;    2,003;    1,409
813,204;21832,010;    0,822;   -0,227
813,769;22310,603;    2,094;   -0,045
814,334;21723,286;    0,458;    0,864
814,898;21785,060;    0,367;    0,591
815,463;21614,198;    1,276;   -0,773
816,027;21602,972;   -0,724;   -2,318
816,592;21717,474;    0,640;   -2,045
817,156;21228,794;    2,094;    1,136
817,721;21082,477;    4,276;    2,318
818,285;21069,706;    2,912;    1,500
818,849;21710,662;   -1,451;    1,682
819,414;21610,800;   -0,269;    2,955
819,978;21209,301;   -1,269;    1,773
820,542;21757,712;    2,003;    0,500
821,106;21505,668;   -0,815;    0,682
821,670;21570,078;   -0,815;    2,591
822,234;21269,762;   -0,270;    1,409
822,798;20707,900;    0,003;    0,500
823,362;20659,401;   -0,633;    4,227
823,926;19973,266;    0,094;    1,136
824,490;20205,768;   -0,997;   -0,682
825,054;20687,633;   -0,088;   -1,136
825,618;20275,316;   -1,542;   -1,500
826,181;20196,909;    0,458;   -1,318
826,745;20092,319;    1,367;   -1,045
827,309;20434,366;    1,185;    1,318
827,872;19837,231;    1,367;    0,955
828,436;20881,278;    1,185;   -0,773
828,999;20909,234;   -0,997;    1,227
829,563;19707,736;   -0,179;    1,136
830,126;19529,419;   -0,179;   -0,591
830,690;19522,103;   -1,997;    2,864
831,253;19101,877;   -0,543;    2,227
831,816;19203,651;   -1,906;    0,500
832,380;19132,698;    0,185;    0,864
832,943;19344,563;   -1,361;   -0,500
833,506;18851,156;    2,639;   -1,227
834,069;19615,112;    3,912;   -0,955
834,632;19691,522;    1,730;    1,318
835,195;19609,387;    1,003;    0,955
835,758;18814,707;   -0,997;    1,955
836,321;18653,663;    0,730;   -1,045
836,884;18748,619;   -0,725;   -0,955
837,447;18800,121;   -2,816;    1,773
838,010;19054,622;    0,366;    3,227
838,573;19354,851;   -1,179;    0,773
839,135;19334,443;   -1,361;   -0,955
839,698;18770,945;    1,275;    0,409
840,261;18311,537;    1,003;   -0,227
840,823;18160,948;   -0,543;    0,864
841,386;18473,995;   -0,452;   -2,409
841,948;18311,496;   -1,361;    1,773
842,511;18051,998;    0,912;    1,682
843,073;18213,227;    1,912;    0,227
843,636;18045,455;   -0,361;   -0,227
844,198;17954,048;    0,911;    0,591
844,760;18059,731;    1,093;    1,955
845,322;17697,869;    0,548;    1,136
845,885;18129,280;    0,730;    0,591
846,447;18542,690;   -1,998;    0,227
847,009;18134,737;    1,911;   -0,682
847,571;18499,784;    0,820;   -2,045
848,133;18596,649;   -1,089;   -1,864
848,695;18419,060;   -0,543;    1,409
849,257;17979,198;   -1,089;   -1,682
849,819;18109,063;   -0,998;   -0,409
850,381;18214,292;   -0,725;   -0,864
850,942;18541,702;    1,093;   -0,591
851,504;18494,931;    1,184;    0,227
852,066;18545,887;    1,275;   -1,591
852,628;18062,752;   -0,180;    1,955
853,189;17621,617;    1,638;    2,682
853,751;17736,755;   -0,907;    1,409
854,312;17561,166;   -0,453;   -1,682
854,874;18032,576;   -2,089;   -0,773
855,435;18584,260;   -0,907;   -1,682
855,997;18704,398;   -1,816;   -0,136
856,558;18005,536;    0,366;    1,773
857,119;18101,310;    0,820;    2,864
857,681;17822,629;    0,002;    0,318
858,242;17855,676;    1,911;   -2,136
858,803;18282,632;    0,456;   -0,773
859,364;18859,134;    0,184;   -4,773
859,925;18192,181;   -2,453;   -0,955
860,486;18076,410;   -0,453;   -0,955
861,047;17780,002;   -0,544;   -1,227
861,608;17618,322;   -1,089;   -0,773
862,169;17759,187;    0,638;   -0,045
862,730;17525,143;    0,456;    1,409
863,291;17774,826;   -0,635;   -0,500
863,852;18150,692;   -0,635;    1,955
864,412;17691,829;   -0,271;   -0,864
864,973;16233,513;   -0,089;    0,500
865,534;16082,378;   -1,726;    0,227
866,094;17571,516;    1,820;    0,227
866,655;17255,472;    1,274;    3,318
867,215;17500,428;    0,274;    0,136
867,776;17360,020;    0,547;   -0,136
868,336;17458,067;   -1,453;    0,136
868,897;16969,387;    2,638;    1,682
869,457;16678,979;    1,365;    0,318
870,017;16916,208;    0,547;   -1,227
870,578;17441,164;   -0,817;    0,773
871,138;17105,484;   -2,089;   -0,955
871,698;16650,804;   -0,817;   -1,318
872,258;16558,941;   -0,453;   -2,864
872,818;16889,625;    2,729;    0,045
873,378;16845,763;    0,638;    1,045
873,938;16449,446;    0,547;    0,500
874,498;16772,584;    0,274;   -1,955
875,058;16649,085;    2,183;    1,773
875,618;16495,678;    1,910;   -2,682
876,177;16422,997;    1,274;    0,136
876,737;16011,681;   -0,090;    1,955
877,297;16052,910;    0,183;    1,955
877,856;16035,684;   -0,362;    0,318
878,416;16015,094;    1,183;   -0,136
878,976;16265,778;   -1,817;    0,409
879,535;16454,734;    0,092;    3,136
880,095;16156,053;   -0,544;    0,045
880,654;16202,555;   -1,090;    1,318
881,213;16318,056;    2,456;    1,500
881,773;16013,831;    2,637;    2,682
882,332;16318,150;    3,365;    5,136
882,891;16153,925;    3,092;    2,136
883,451;16591,062;   -1,272;    1,682
884,010;16072,928;   -2,908;   -0,409
884,569;16170,338;   -0,999;   -0,045
885,128;16315,931;    2,819;   -1,864
885,687;16405,887;    4,455;    0,682
886,246;16092,297;    1,455;    2,136
886,805;15853,435;    2,455;    2,045
887,364;16186,209;   -0,999;   -0,500
887,922;16515,711;   -1,181;    0,045
888,481;16053,303;   -1,545;    0,591
889,040;16311,896;    1,183;    2,136
889,599;16967,852;    2,455;    1,409
890,157;17054,990;    1,455;    2,409
890,716;16738,037;   -0,090;    0,227
891,274;16561,811;    0,092;   -1,136
891,833;16988,676;    1,546;    0,864
892,391;16811,359;   -0,454;    0,500
892,950;16900,315;    1,819;   -0,773
893,508;17289,635;    0,455;   -0,409
894,067;16647,682;    0,637;    0,136
894,625;16557,093;   -0,636;   -1,500
895,183;16810,231;   -0,363;   -0,682
895,741;16698,277;    1,728;   -1,773
896,299;16496,052;   -0,545;   -2,409
896,858;16666,553;    0,819;   -1,591
897,416;16826,237;    2,728;   -1,318
897,974;16603,465;    1,819;    0,318
898,532;16692,603;    6,091;    2,682
899,089;16599,559;    2,091;   -0,682
899,647;16655,152;   -1,454;    1,318
900,205;16358,744;    1,182;    1,045
900,763;16574,427;   -0,454;    0,227
901,321;16580,474;    2,364;   -1,409
901,878;16059,612;   -1,000;   -0,773
902,436;15943,477;   -1,363;    1,318
902,994;16302,161;    4,728;    3,682
903,551;15740,389;    0,728;    0,409
904,109;16117,436;    0,182;   -1,409
904,666;15722,029;    2,455;    1,045
905,224;15549,530;    0,182;   -0,409
905,781;15320,759;    0,727;   -0,318
906,338;15392,897;   -1,363;    1,045
906,895;15318,126;    0,637;    2,045
907,453;15261,627;    1,727;    1,136
908,010;15318,856;   -0,909;    0,409
908,567;14985,994;    1,273;    0,591
909,124;14448,132;    0,364;   -1,500
909,681;14559,361;   -2,909;    0,682
910,238;14708,862;    0,636;   -1,318
910,795;15010,364;   -0,273;   -1,136
911,352;14649,636;   -2,909;   -2,682
911,909;14079,182;   -1,364;   -0,864
912,466;14574,364;   -3,182;    1,500
913,022;14127,727;   -1,636;    0,500
913,579;14461,000;   -0,909;    2,045
914,136;14181,545;    1,636;    0,955
914,692;14511,091;    0,091;   -1,227
915,249;14104,000;    1,455;    0,409
915,806;14325,727;    0,182;    1,955
916,362;14062,273;    1,909;    1,864
916,918;13652,273;    2,000;    1,045
917,475;13619,636;   -1,182;    0,955
918,031;13691,273;    3,364;   -0,045
918,587;13159,909;   -0,909;   -0,318
919,144;13375,727;   -2,273;    0,227
919,700;13690,273;    1,727;    0,773
920,256;13318,909;    0,727;    0,045
920,812;12946,000;   -0,727;   -1,045
921,368;12930,636;   -1,727;   -1,045
921,924;12571,364;    0,182;   -0,136
922,480;12170,545;   -0,545;    1,227
923,036;12765,818;    1,273;    1,955
923,592;12663,182;    0,455;    0,318
924,148;12566,909;    0,455;   -0,955
924,704;11916,364;   -1,364;   -0,409
925,259;12216,000;   -0,273;    0,591
925,815;11958,909;    1,455;    0,500
926,371;11523,727;    2,909;    1,409
926,926;11416,636;    2,091;    0,591
927,482;11025,909;   -1,364;    0,773
928,037;10880,091;    0,909;    2,045
928,593;11160,273;    1,636;    1,045
929,148;11041,364;   -1,818;   -1,500
929,704;10567,455;   -1,455;   -0,500
930,259;10721,091;    0,091;   -0,136
930,814; 9816,273;   -0,818;    1,955
931,369; 9504,909;    1,091;   -0,773
931,925; 9435,364;   -0,091;    0,136
932,480; 9330,000;   -2,818;   -2,591
933,035; 9200,182;    0,545;   -0,318
933,590; 8992,273;    0,364;   -1,773
934,145; 8641,273;   -1,364;   -0,318
934,700; 8967,636;    0,455;   -0,591
935,255; 8778,091;   -0,091;    0,045
935,809; 8107,727;    3,182;    0,864
936,364; 7248,727;   -0,455;   -0,136
936,919; 7225,727;    0,455;   -1,773
937,474; 7109,545;    1,455;    0,136
938,028; 6860,364;   -1,636;    1,136
938,583; 6344,000;    1,818;    4,682
939,138; 6638,636;    2,091;    2,136
939,692; 6093,818;    1,636;   -1,136
940,247; 5808,091;   -0,727;   -1,045
940,801; 5375,727;   -0,636;    0,227
941,355; 5268,000;   -0,364;    2,591
941,910; 4941,182;   -0,273;   -2,136
942,464; 5024,455;   -0,818;   -0,318
943,018; 4835,364;    1,000;   -0,227
943,572; 4775,182;    2,545;   -0,682
944,126; 4230,364;    0,091;   -0,409
944,681; 4107,636;    3,091;    0,227
945,235; 4086,636;    1,000;   -0,591
945,789; 4033,091;    0,364;   -1,864
946,342; 4130,364;    0,455;   -0,591
946,896; 3934,273;   -2,273;    0,955
947,450; 3702,273;    1,545;   -0,227
948,004; 3894,636;    1,727;   -0,045
948,558; 3903,909;    0,273;   -0,864
949,111; 3826,455;   -0,273;   -0,318
949,665; 3853,909;    1,636;   -0,682
950,219; 3727,909;   -0,091;   -1,045
950,772; 3804,727;   -1,909;    1,864
951,326; 3703,545;    0,545;   -0,955
951,879; 3805,182;    0,727;   -2,318
952,433; 3834,545;    0,000;    2,227
952,986; 3675,455;    2,909;    0,682
953,539; 3627,636;   -0,273;    0,591
954,093; 3593,273;    0,545;   -1,318
954,646; 3704,636;    0,909;    1,318
955,199; 3506,364;    0,000;   -0,500
955,752; 3404,273;   -0,455;    1,773
956,305; 3351,273;   -0,091;    2,955
956,858; 3497,000;    0,818;   -0,318
957,411; 3673,364;   -0,545;    2,136
957,964; 3511,545;    1,364;    2,136
958,517; 3506,455;   -1,545;    3,136
959,070; 3350,909;   -0,455;    1,955
959,623; 3428,182;    1,091;    1,500
960,176; 3206,273;    1,727;    2,045
960,728; 3184,455;   -2,727;    0,773
961,281; 3242,273;    0,545;    0,500
961,834; 3282,000;   -0,909;    0,864
962,386; 3211,455;    1,727;    1,045
962,939; 3125,000;    0,364;   -0,318
963,491; 3273,636;    0,455;    1,136
964,043; 3148,818;    1,182;    2,409
964,596; 3268,636;   -1,000;    2,227
965,148; 3097,909;   -1,000;    1,773
965,700; 3021,091;    1,091;   -0,227
966,253; 3161,818;   -0,636;    0,318
966,805; 3013,636;   -2,273;    0,773
967,357; 3086,182;    1,091;   -1,500
967,909; 3043,364;    0,455;   -1,227
968,461; 3121,545;    0,545;    3,136
969,013; 3064,909;   -0,182;   -0,864
969,565; 3134,364;   -0,455;   -1,136
970,117; 3207,909;   -0,364;    1,045
970,669; 3041,000;    0,182;   -0,136
971,220; 2907,818;   -0,455;   -1,500
971,772; 2830,091;   -0,636;   -0,318
972,324; 2956,000;    0,091;   -0,500
972,876; 2901,364;    0,818;   -0,045
973,427; 3031,273;    1,909;   -1,045
973,979; 3006,091;   -0,727;   -2,500
974,530; 3040,727;    1,818;    1,318
975,082; 3049,182;   -0,545;    1,682
975,633; 2945,545;    1,091;    1,682
976,184; 3076,364;    0,909;    0,773
976,736; 2870,455;    0,091;    0,227
977,287; 2682,273;   -0,909;   -0,500
977,838; 2869,364;    0,909;   -0,318
978,389; 2922,636;   -1,000;   -0,500
978,940; 2793,273;    0,545;   -0,409
979,491; 2823,182;    0,091;   -0,500
980,042; 2796,273;    0,182;    3,045
980,593; 2839,909;   -2,545;    0,227
981,144; 2877,818;    2,545;   -0,500
981,695; 2861,273;    1,455;    1,500
982,246; 2829,727;   -0,273;    1,045
982,797; 2985,000;   -1,727;    0,682
983,347; 3085,545;    0,364;    0,591
983,898; 3224,818;    3,091;    0,409
984,449; 3069,455;    2,182;    0,773
984,999; 2967,545;    1,455;   -1,136
985,550; 2773,909;    0,182;   -0,318
986,100; 2813,636;   -0,455;   -0,318
986,651; 2844,545;   -0,818;    0,045
987,201; 2798,909;   -1,000;   -0,591
987,751; 2888,091;    0,818;    2,864
988,302; 2875,364;    2,636;    1,500
988,852; 2909,545;    0,455;   -1,136
989,402; 2945,273;    0,091;    0,682
989,952; 2860,182;   -2,182;    0,864
990,502; 2972,909;   -0,091;    0,682
991,052; 2913,545;   -0,727;    0,045
991,602; 2797,636;   -2,909;    1,318
992,152; 2788,455;    0,455;    0,682
992,702; 2764,091;    1,364;   -0,045
993,252; 2712,727;   -3,000;   -0,500
993,802; 2808,364;   -0,273;    1,318
994,352; 3022,000;   -1,545;    1,136
994,901; 3104,545;   -0,182;    3,227
995,451; 3024,636;   -0,182;    0,318
996,000; 3094,545;    1,636;    0,318
996,550; 2824,182;    2,273;    0,227
997,100; 2817,273;    1,273;   -0,045
997,649; 3097,364;    2,182;    0,955
998,198; 2766,545;    1,727;   -1,500
998,748; 2944,273;    1,091;   -2,318
999,297; 2866,727;   -0,818;   -0,409
999,846; 2919,000;    1,000;   -0,773
1000,395; 2957,091;   -0,818;    0,500
1000,945; 2891,727;    1,818;   -0,773
1001,494; 2988,727;    2,364;    0,682
1002,043; 2987,182;    4,636;    0,864
1002,592; 2830,909;   -1,091;    1,955
1003,141; 2983,364;   -0,455;   -0,682
1003,690; 2848,091;    1,727;    0,500
1004,238; 2917,545;    1,455;   -0,045
1004,787; 2574,909;    1,364;    1,227
1005,336; 2798,364;    0,364;    0,682
1005,885; 2927,636;    1,364;   -2,773
1006,433; 3078,636;    0,545;    0,955
1006,982; 3125,818;    0,455;    1,682
1007,531; 3037,818;   -1,818;   -0,227
1008,079; 2993,091;   -2,273;    0,500
1008,627; 3141,364;   -1,455;    0,409
1009,176; 2872,545;    0,000;   -1,955
1009,724; 2921,273;    1,091;    0,864
1010,273; 2975,364;    1,273;    0,500
1010,821; 3092,182;    0,091;    1,409
1011,369; 2818,182;   -1,364;    1,318
1011,917; 2807,636;   -1,364;   -0,591
1012,465; 3100,727;    1,273;   -1,591
1013,013; 3205,909;    2,091;   -1,682
1013,561; 3067,636;    0,455;   -0,773
1014,109; 3141,364;   -1,909;    1,682
1014,657; 3027,909;    0,364;    0,591
1015,205; 3138,545;    1,636;   -0,955
1015,753; 3157,000;   -0,545;   -1,409
1016,301; 3185,818;   -2,636;    3,045
1016,848; 3196,818;   -1,273;    0,409
1017,396; 3238,000;    2,545;    0,045
1017,944; 3350,000;    1,182;    1,864
1018,491; 3118,545;    0,273;    1,409
1019,039; 3277,364;    0,455;    0,591
1019,586; 3213,091;   -1,364;    1,682
1020,134; 3310,273;    0,455;    1,500
1020,681; 3325,545;    0,182;   -1,136
1021,228; 3344,182;    2,909;   -2,227
1021,776; 3155,818;    1,182;   -1,136
1022,323; 3357,818;    0,455;    0,773
1022,870; 3303,545;   -1,000;   -0,045
1023,417; 3210,182;    2,636;    1,864
1023,964; 3353,727;    2,636;    1,227
1024,511; 3198,182;    1,000;    0,773
1025,058; 2994,545;    3,182;   -0,045
1025,605; 3054,091;   -2,273;    3,136
1026,152; 3261,273;    1,727;   -0,591
1026,699; 2990,182;    1,818;    1,318
1027,245; 3153,455;   -0,091;    0,318
1027,792; 3375,818;   -1,000;    1,409
1028,339; 3241,545;    2,364;   -0,045
1028,885; 3117,909;    1,000;   -0,227
1029,432; 3075,364;   -0,091;    0,227
1029,978; 3125,455;   -1,000;   -1,591
1030,525; 3011,818;    1,000;    0,409
1031,071; 3272,364;   -1,364;    1,136
1031,618; 3366,364;    0,364;    1,682
1032,164; 3171,000;   -0,091;    3,045
1032,710; 3186,091;    1,636;   -1,500
1033,256; 3114,182;   -0,636;   -0,136
1033,803; 3098,727;   -0,545;    1,500
1034,349; 2835,273;   -1,364;    0,136
1034,895; 2980,636;    0,000;   -0,318
1035,441; 2958,545;   -0,818;    0,318
1035,987; 2967,909;   -2,364;   -0,682
1036,533; 2973,364;   -1,455;   -0,955
1037,078; 3157,727;    1,455;    1,682
1037,624; 2989,182;    2,455;   -0,955
1038,170; 3003,818;    0,455;   -0,318
1038,716; 2909,364;    1,636;   -0,409
1039,261; 2838,000;   -2,273;   -0,773
1039,807; 2773,909;   -0,091;    3,409
1040,352; 2828,364;   -1,909;   -0,318
1040,898; 2892,273;   -1,545;   -0,682
1041,443; 2802,545;   -1,455;   -2,591
1041,989; 2803,727;    1,091;    1,591
1042,534; 2693,818;   -0,364;    2,591
1043,079; 2807,182;    2,909;    0,955
1043,625; 2601,364;    1,818;    0,500
1044,170; 2653,091;   -1,364;    1,045
1044,715; 2908,091;    2,455;    0,955
1045,260; 2730,364;    2,182;   -0,955
1045,805; 2789,182;    1,182;   -0,591
1046,350; 2709,545;    1,364;   -0,409
1046,895; 2679,273;    2,909;    1,591
1047,440; 2628,273;    5,364;    0,409
1047,985; 2524,909;    2,818;   -0,955
1048,530; 2446,000;    1,545;    1,227
1049,074; 2511,545;    0,000;    0,318
1049,619; 2498,182;   -1,364;    1,955
1050,164; 2296,273;    0,455;    0,227
1050,708; 2335,818;   -0,455;    0,045
1051,253; 2695,727;    1,273;   -2,227
1051,797; 2412,727;    0,818;   -1,318
1052,342; 2430,455;   -1,182;    1,045
1052,886; 2422,182;    0,364;   -1,409
1053,430; 2293,455;   -1,364;    0,136
1053,975; 2319,727;   -0,818;   -0,318
1054,519; 2282,909;   -0,727;    3,227
1055,063; 2308,182;    0,909;    1,318
1055,607; 2203,364;   -0,182;    0,227
1056,151; 2227,636;    2,909;    1,682
1056,695; 2144,273;    2,273;   -1,136
1057,239; 2207,818;   -1,727;   -0,682
1057,783; 2217,091;    0,818;   -1,500
1058,327; 2165,727;    0,000;    1,409
1058,871; 2375,636;   -0,545;    1,318
1059,415; 2098,818;   -0,818;   -0,045
1059,958; 2353,545;    1,455;    2,591
1060,502; 2072,545;   -1,000;   -0,773
1061,046; 1987,273;    0,364;   -0,955
1061,589; 1980,545;   -3,000;   -1,136
1062,133; 1862,364;   -1,273;    1,864
1062,676; 1788,455;    1,182;    0,864
1063,220; 1798,545;    1,091;    0,500
1063,763; 1817,727;    0,909;    1,136
1064,306; 1905,273;   -0,909;    1,864
1064,849; 1798,091;   -0,909;    0,591
1065,393; 1780,636;    2,000;   -1,500
1065,936; 1906,636;    0,182;   -0,409
1066,479; 1796,182;   -1,455;    1,318
1067,022; 1826,000;   -0,273;   -0,227
1067,565; 1710,000;   -0,091;   -1,318
1068,108; 1743,818;    0,727;   -0,591
1068,651; 1716,182;   -0,636;    1,409
1069,194; 1629,273;   -0,455;   -1,682
1069,736; 1644,455;   -1,273;    0,955
1070,279; 1631,273;   -1,364;   -0,500
1070,822; 1686,182;   -2,000;   -0,318
1071,364; 1761,182;   -0,364;    1,318
1071,907; 1574,000;   -0,727;    3,227
1072,450; 1500,000;    0,000;   -0,045
1072,992; 1485,636;   -0,273;    3,136
1073,535; 1627,273;    2,091;    2,136
1074,077; 1420,000;   -0,727;    2,045
1074,619; 1372,273;   -1,364;    0,591
1075,161; 1400,727;   -1,091;    1,500
1075,704; 1588,636;    1,545;    1,227
1076,246; 1389,364;   -0,182;    0,682
1076,788; 1312,455;   -0,364;    1,773
1077,330; 1390,727;    1,273;    2,136
1077,872; 1361,727;    0,909;    0,955
1078,414; 1571,636;    2,727;    0,773
1078,956; 1315,182;    1,273;   -0,227
1079,498; 1564,182;    1,636;    0,318
1080,040; 1276,455;    1,909;   -1,318
1080,581; 1216,727;    1,636;   -0,318
1081,123; 1159,000;    0,091;   -0,773
1081,665; 1188,091;   -1,182;   -0,955
1082,206; 1483,727;    1,364;   -0,500
1082,748; 1350,636;    0,727;    2,045
1083,289; 1241,000;   -2,000;    1,318
1083,831; 1151,000;   -0,545;    0,227
1084,372; 1172,273;    0,000;    0,591
1084,913; 1175,455;    1,091;    0,864
1085,455; 1138,091;   -1,909;   -2,045
1085,996; 1109,273;   -2,273;    0,136
1086,537; 1129,818;   -0,091;    0,864
1087,078; 1168,091;   -0,909;   -2,136
1087,619; 1207,000;   -1,273;    0,227
1088,160; 1118,273;    0,000;    1,318
1088,701; 1112,455;   -1,091;    0,682
1089,242; 1053,000;    1,364;   -2,227
1089,783; 1145,273;   -0,273;    1,409
1090,324; 1107,273;    0,455;    0,682
1090,865;  995,182;    2,727;   -0,409
1091,405;  967,182;    0,727;    2,227
1091,946;  992,182;    0,182;   -0,955
1092,487;  928,000;    0,818;   -1,409
1093,027; 1079,545;   -1,364;   -1,500
1093,568;  937,364;   -0,364;    1,227
1094,108; 1032,273;    0,273;    1,773
1094,649;  981,727;   -1,182;    0,136
1095,189;  911,182;   -0,636;   -0,682
1095,729;  861,364;   -0,091;    0,955
1096,269;  873,091;    0,727;   -0,955
1096,810; 1178,727;   -1,364;    0,500
1097,350; 1002,273;    1,364;   -0,773
1097,890;  907,000;    0,364;    1,227
1098,430; 1158,818;    2,364;    2,864
1098,970; 1029,182;    2,182;    1,682
1099,510;  898,727;    0,545;   -2,318
1100,050;  821,545;    1,000;   -1,591
1100,589;  782,455;   -0,727;   -0,318
1101,129;  919,273;    0,818;   -0,955
1101,669; 1065,545;    1,727;    2,136
1102,209;  879,091;   -0,091;    2,227
1102,748;  839,818;    0,000;    0,955
1103,288;  840,909;    1,273;   -1,227
1103,827;  851,091;    3,091;   -2,227
1104,367;  735,455;   -0,091;   -2,409
1104,906;  709,818;    1,364;   -1,136
1105,445;  779,818;    0,636;   -1,136
1105,985;  719,182;   -0,727;    1,500
1106,524;  757,364;   -1,727;   -0,682
1107,063;  730,455;   -2,727;    1,409
1107,602;  710,455;   -1,909;   -1,500
1108,141;  639,727;   -1,909;    1,500
1108,680;  734,273;   -3,455;   -0,591
1109,219;  672,364;   -0,909;   -0,500
1109,758;  677,000;    0,455;    0,682
1110,297;  647,182;    1,000;   -0,682
1110,836;  590,545;   -0,727;    0,955
1111,375;  746,091;   -2,545;    0,409
1111,913;  766,364;   -1,000;    0,773
1112,452;  697,182;   -0,273;    0,136
1112,991;  589,182;    1,091;    1,955
1113,529;  551,455;   -0,818;   -0,045
1114,068;  614,818;   -0,273;    2,955
1114,606;  518,545;   -0,364;   -0,955
1115,144;  684,091;   -1,273;    1,045
1115,683;  610,455;   -0,727;    0,318
1116,221;  658,364;   -0,455;   -0,864
1116,759;  573,091;    0,636;   -0,864
1117,297;  762,727;    0,000;    1,864
1117,836;  579,273;   -2,182;   -1,227
1118,374;  584,182;    0,182;   -0,682
1118,912;  526,091;    0,909;    2,682
1119,450;  521,727;    1,000;    0,864
1119,988;  566,182;    1,545;    2,136
1120,525; 1026,000;    5,091;    3,318
1121,063;  721,455;    1,182;    1,864
1121,601;  519,273;   -0,909;   -1,227
1122,139;  482,818;   -0,727;   -2,045
1122,676;  682,727;   -0,727;    2,773
1123,214;  607,091;   -1,182;    4,409
1123,751;  425,182;    1,727;    2,227
1124,289;  557,818;   -0,091;   -0,409
1124,826;  431,000;    1,727;    0,227
1125,364;  357,636;    1,727;   -0,955
1125,901;  545,818;    1,182;    1,227
1126,438;  649,455;    0,818;    0,955
1126,975;  376,909;   -0,727;   -0,773
1127,513;  439,545;    0,273;    2,136
1128,050;  342,727;    1,636;   -0,682
1128,587;  442,909;    2,000;   -0,227
1129,124;  492,182;    0,091;    1,318
1129,661;  362,727;    0,273;    0,227
1130,198;  523,727;    1,636;    0,773
1130,734;  472,818;    0,182;    1,409
1131,271;  319,000;   -0,909;    0,864
1131,808;  500,455;    2,909;    3,045
1132,345;  373,636;    1,545;    0,318
1132,881;  248,818;   -1,545;   -1,864
1133,418;  384,000;    0,727;   -1,136
1133,954;  319,091;    2,455;   -2,682
1134,491;  389,909;    1,364;   -0,773
1135,027;  290,545;    2,364;    0,864
1135,564;  381,636;    0,273;    2,955
1136,100;  372,909;    0,364;    2,136
1136,636;  261,727;   -1,273;   -1,045
1137,172;  357,273;    0,000;   -1,045
1137,708;  276,000;   -1,364;   -1,045
1138,245;  280,909;    1,273;   -1,227
1138,781;  234,273;    1,091;   -3,318
1139,317;  302,909;    1,273;   -1,409
1139,852;  290,545;    3,091;    0,136
1140,388;  403,545;   -1,182;   -0,409
1140,924;  287,455;   -1,091;   -2,227
1141,460;  225,455;   -1,636;    0,136
1141,996;  165,000;   -1,364;    2,682
1142,531;  209,000;    1,364;    3,318
1143,067;  414,091;    1,182;    1,045
1143,602;  478,364;   -0,091;   -0,318
1144,138;  325,455;   -2,636;    1,045
1144,673;  188,727;   -1,455;    1,409
1145,209;  256,818;   -1,909;   -0,318
1145,744;  173,727;   -0,727;    0,864
1146,279;  305,182;    1,818;   -0,136
1146,815;  230,273;    1,545;   -2,682
1147,350;  266,909;   -1,364;    0,045
1147,885;  177,818;   -0,818;   -1,318
1148,420;  174,636;   -2,273;    0,773
1148,955;  163,273;   -1,727;    1,864
1149,490;  187,636;   -0,909;   -1,591
1150,025;  171,636;    0,455;   -1,773
1150,560;  280,455;    1,091;   -0,955
1151,094;  251,182;    1,455;   -0,591
1151,629;  256,455;    1,636;    0,864
1152,164;  183,091;    1,364;    1,318
1152,698;  145,545;   -0,182;   -0,136
1153,233;   97,455;    0,091;   -0,682
1153,767;  147,909;   -3,000;   -2,318
1154,302;  190,545;   -1,455;    1,773
1154,836;  190,545;   -0,455;   -2,136
1155,371;  248,000;   -1,364;    3,682
1155,905;  204,273;   -0,636;    1,682
1156,439;  172,000;   -0,636;   -0,500
1156,973;  198,091;    0,364;    0,318
1157,507;  140,182;   -0,364;    0,682
1158,042;  161,455;   -0,727;    1,045
1158,576;  224,455;    0,182;    1,773
1159,110;  203,182;   -0,818;    2,409
1159,643;  170,727;    0,636;   -0,045
1160,177;  106,273;   -1,545;    1,500

