
Integration time [ms]:   0,040
Averaging Nr. [scans]: 11
Smoothing Nr. [pixels]: 0
Data measured with spectrometer [name]: 7318044SP
Wave   ;Sample   ;Dark     ;Reference
[nm]   ;[counts] ;[counts] ;[counts] 

186,757;   22,169;   31,551;    1,318
187,357;   53,272;   22,551;    0,955
187,958;   34,607;   15,460;   -1,591
188,558;   80,531;    8,915;   -1,227
189,159;   42,183;    6,733;   -4,500
189,759;    7,424;    7,278;   -3,591
190,360;   12,455;    2,824;   -2,136
190,960;   53,970;    2,915;   -4,136
191,560;   60,207;    3,189;   -6,591
192,161;  289,826;    4,372;   -3,500
192,761;  133,878;    4,010;   -3,227
193,361;   97,350;    1,556;   -3,773
193,962;  150,637;    2,010;   -2,682
194,562;   68,932;    1,189;   -3,955
195,162;  104,473;   -2,448;   -2,227
195,762;  256,998;   -3,176;   -0,045
196,362;  193,279;    1,370;   -2,500
196,963;   74,503;    2,006;   -0,864
197,563;  145,713;    1,551;   -0,955
198,163;  100,768;    0,096;   -0,682
198,763;  114,605;    1,733;   -0,500
199,363;  206,758;    3,096;   -0,500
199,963;  169,780;    0,369;    0,409
200,563;  154,183;    2,823;   -1,409
201,163;  133,770;    3,277;   -0,227
201,763;  212,948;    3,732;    0,318
202,363;  162,105;    1,459;    1,500
202,963;  278,177;    1,459;    1,045
203,563;  367,473;    0,277;    0,500
204,162;  216,749;    2,096;   -1,864
204,762;  217,778;    0,550;    0,591
205,362;  186,190;    3,004;    1,955
205,962;  282,496;    3,096;    1,955
206,562;  284,215;    1,823;    2,318
207,161;  239,118;   -0,087;    0,318
207,761;  394,336;    1,277;    2,409
208,361;  288,023;   -0,268;    1,409
208,960;  385,000;    0,459;    1,500
209,560;  448,598;    1,277;    1,591
210,160;  437,679;    0,550;    1,864
210,759;  398,521;    4,186;    1,227
211,359;  404,336;    1,459;    1,045
211,958;  670,045;    1,277;    2,045
212,558;  746,677;    1,732;    1,864
213,157;  580,504;    1,822;    1,500
213,757; 1016,431;    3,822;   -0,227
214,356;  721,268;    1,277;   -0,409
214,956; 1053,127;    3,095;    0,409
215,555;  685,070;    2,095;    2,136
216,154;  623,010;   -2,723;   -0,591
216,754;  634,372;    0,277;    0,773
217,353;  757,782;   -0,268;   -1,045
217,952;  620,236;   -0,178;    0,318
218,552;  861,146;    1,368;   -0,773
219,151;  749,366;    0,277;    0,955
219,750;  747,076;    0,004;   -0,227
220,349;  859,937;   -0,451;    1,045
220,948;  937,128;   -1,360;    1,136
221,548;  951,596;    0,913;    1,227
222,147; 1066,987;   -0,087;   -0,409
222,746; 1344,399;   -0,451;   -0,955
223,345; 1222,129;    0,731;    0,500
223,944; 1223,722;   -0,451;    0,773
224,543; 1383,623;    1,004;   -1,409
225,142; 1499,476;    0,094;    0,136
225,741; 1404,424;   -0,814;    1,045
226,340; 1432,821;   -0,451;   -0,955
226,939; 1843,804;   -0,996;   -0,136
227,538; 1796,634;   -0,360;   -0,773
228,137; 1938,222;   -0,814;    0,864
228,735; 2052,585;   -0,541;    1,227
229,334; 1821,584;   -0,905;   -0,227
229,933; 2187,374;    0,459;    0,591
230,532; 2286,820;    1,186;   -0,409
231,131; 2333,300;    1,732;    0,318
231,729; 2449,825;   -2,450;   -2,318
232,328; 2549,338;   -0,723;   -1,500
232,927; 2610,265;    1,004;   -0,500
233,525; 2714,870;    3,640;    0,045
234,124; 2929,699;    2,368;   -1,591
234,723; 2958,068;    0,913;   -1,045
235,321; 3061,048;    2,277;    0,136
235,920; 3267,189;    1,186;   -1,227
236,518; 3539,897;    3,459;    0,318
237,117; 3699,748;    0,004;   -0,227
237,715; 3844,736;    0,640;   -0,500
238,314; 3879,277;   -0,087;   -2,318
238,912; 3986,943;   -0,723;   -1,409
239,510; 4042,577;    0,459;   -1,227
240,109; 4180,654;    0,004;    3,773
240,707; 4223,899;   -0,996;    1,227
241,305; 4583,662;    0,550;    0,136
241,904; 4789,116;   -0,178;   -2,045
242,502; 4779,937;   -0,632;   -0,227
243,100; 4713,734;   -0,087;   -0,955
243,698; 4972,904;    0,732;    1,682
244,297; 5140,948;   -0,632;    0,682
244,895; 4987,410;   -0,269;   -2,318
245,493; 5301,659;    2,186;   -0,591
246,091; 5334,899;    1,368;   -1,318
246,689; 5321,625;    1,004;    0,591
247,287; 5511,958;    0,822;   -1,136
247,885; 5803,426;   -1,451;    1,227
248,483; 5896,017;    1,822;   -0,500
249,081; 5980,681;    0,185;    1,591
249,679; 6142,981;   -0,178;    1,682
250,277; 6403,330;   -1,723;    0,864
250,875; 6411,462;   -1,087;   -1,045
251,473; 6423,779;   -1,178;    0,500
252,071; 6615,926;    1,459;    1,045
252,669; 6783,450;   -1,814;    0,318
253,267; 7007,927;   -0,087;    0,773
253,864; 6959,503;   -0,360;    0,682
254,462; 6870,515;    1,640;    1,591
255,060; 6830,875;   -0,269;    1,318
255,658; 7158,631;    0,822;   -0,136
256,255; 7544,502;    0,186;   -2,045
256,853; 7419,699;   -0,269;    1,409
257,451; 7409,476;    0,822;    1,864
258,048; 7686,927;    1,822;    1,864
258,646; 7449,059;    1,731;   -1,045
259,243; 7635,608;   -0,087;    2,227
259,841; 7699,056;   -0,814;    0,318
260,438; 7579,396;   -0,087;    0,864
261,036; 8295,434;   -1,905;    1,409
261,633; 8229,178;   -0,087;    2,227
262,231; 7969,114;    2,731;   -0,045
262,828; 8052,520;   -0,905;    1,136
263,425; 8090,471;    0,913;   -0,591
264,023; 8382,148;    0,186;    0,045
264,620; 7923,785;   -0,360;   -0,318
265,217; 8281,450;   -2,087;    3,136
265,815; 8339,043;   -1,905;    2,136
266,412; 8147,543;    0,731;    0,136
267,009; 8194,566;   -1,451;    0,773
267,606; 8092,332;    0,822;   -0,955
268,203; 8086,922;   -0,269;   -0,591
268,801; 8347,843;    1,731;    0,591
269,398; 8661,731;   -0,360;    2,500
269,995; 8638,247;    0,277;    1,591
270,592; 8400,069;   -0,632;   -0,500
271,189; 8629,853;    0,186;    0,409
271,786; 8737,139;   -0,632;    1,227
272,383; 8566,344;   -1,087;    0,227
272,980; 8728,355;    0,277;    0,318
273,577; 9200,788;    0,004;    1,227
274,174; 8760,094;    0,822;    2,591
274,771; 8720,177;   -0,814;   -0,773
275,367; 8880,696;    2,277;    1,409
275,964; 8836,220;    0,731;   -0,500
276,561; 8932,724;    1,549;   -1,045
277,158; 9139,618;    0,095;   -1,773
277,755; 9267,226;    2,185;    0,409
278,351; 8686,877;   -0,451;   -1,500
278,948; 9005,559;   -0,815;    0,045
279,545; 9012,399;   -1,360;    2,318
280,141; 9597,655;   -1,723;   -2,045
280,738; 9477,994;   -0,451;   -0,136
281,334; 9717,458;   -1,633;    0,591
281,931; 9124,178;   -0,087;   -1,318
282,528; 9231,841;    0,822;   -0,500
283,124; 9883,606;   -1,087;   -0,500
283,721; 9798,629;   -0,451;    1,409
284,317; 9662,239;    0,185;    2,500
284,913;10189,691;   -1,360;    0,591
285,510;10375,327;    0,640;   -0,318
286,106;10410,197;   -2,269;   -0,955
286,703;10026,435;   -0,360;    1,955
287,299;10212,238;   -1,451;   -0,591
287,895;10415,089;    0,822;   -1,045
288,491;11006,186;    0,186;    2,136
289,088;10750,252;   -2,360;    2,409
289,684;10790,631;   -1,723;    1,500
290,280;10772,199;    0,368;    0,682
290,876;10861,300;    1,822;    5,500
291,472;10831,830;    1,276;    2,227
292,068;10909,289;    1,367;    0,227
292,665;10599,056;    2,095;    0,773
293,261;10244,218;    0,276;    2,136
293,857;10643,652;    2,913;    2,136
294,453;10566,646;    3,550;    0,955
295,049;10461,306;   -0,268;    1,955
295,644;10492,203;    0,095;    0,136
296,240;10411,616;   -0,905;   -0,136
296,836;10462,419;   -0,995;    0,318
297,432;10748,074;    1,096;   -0,500
298,028;10782,771;    0,732;    0,773
298,624;11183,239;    1,459;    1,864
299,220;11394,475;    2,368;    0,591
299,815;11058,544;    1,005;   -0,409
300,411;10869,669;    0,914;    1,773
301,007;10879,860;    1,368;    0,227
301,602;10953,208;   -0,541;   -2,318
302,198;11129,671;    0,732;   -0,773
302,794;11447,715;    1,187;   -0,500
303,389;11559,445;   -1,177;    1,045
303,985;11615,871;    0,550;    1,409
304,580;11589,624;    1,459;    1,591
305,176;11581,911;   -3,086;    0,136
305,771;11495,403;   -1,268;   -1,227
306,367;11350,195;    4,095;    0,136
306,962;11691,844;    0,641;    1,500
307,558;11402,420;   -0,450;    0,136
308,153;11338,730;    1,095;   -1,136
308,748;11615,787;   -0,814;    1,682
309,344;11534,771;   -0,632;   -1,318
309,939;11603,614;   -1,905;   -1,318
310,534;11877,556;   -0,086;   -1,682
311,130;11806,576;    0,459;   -2,500
311,725;11546,854;    1,004;   -0,500
312,320;11837,906;    2,459;    0,045
312,915;11724,829;    1,459;   -1,045
313,510;11792,612;    1,550;   -0,500
314,105;12264,954;    1,096;    1,409
314,700;11685,141;   -3,086;   -1,045
315,295;11326,715;   -0,904;    0,045
315,890;10892,570;    1,277;    0,864
316,485;11261,310;   -0,359;   -0,318
317,080;11392,118;   -3,086;    1,591
317,675;11907,816;    2,005;   -0,682
318,270;11337,766;    5,550;    3,318
318,865;11405,401;    3,278;    3,045
319,460;11229,632;   -0,904;    0,591
320,055;11480,456;   -0,541;   -1,227
320,650;11111,785;   -1,995;   -0,591
321,244;11176,459;   -0,177;   -1,409
321,839;12088,688;   -1,541;   -0,227
322,434;11961,270;   -1,086;   -1,591
323,029;11596,072;    1,732;    1,591
323,623;11416,514;    1,550;    0,773
324,218;11189,067;    2,368;    1,409
324,812;11105,989;    1,096;    1,591
325,407;10922,177;   -0,814;    2,045
326,002;10784,512;    0,277;   -0,409
326,596;11100,048;    0,914;    1,318
327,191;11274,690;    0,823;   -1,045
327,785;10891,230;   -0,813;   -0,227
328,379;11111,084;    1,368;    0,136
328,974;10890,115;    0,914;   -3,955
329,568;11132,747;    0,186;   -2,409
330,163;10958,468;    2,096;    1,045
330,757;11299,281;    2,459;    1,591
331,351;10634,668;    0,459;    0,682
331,945;10946,260;    0,914;    1,409
332,540;10572,487;   -1,723;   -0,591
333,134;10717,070;   -1,086;    0,773
333,728;10954,638;    0,005;    0,318
334,322;11291,841;   -1,177;   -0,864
334,916;10583,320;    0,277;    0,955
335,510;10928,061;   -0,450;   -0,136
336,105;11152,963;   -1,086;    1,591
336,699;10873,216;   -1,086;    0,591
337,293;10812,288;   -1,723;    0,318
337,887;10946,027;   -2,723;    1,955
338,481;11031,971;    0,459;    0,591
339,074;11188,137;   -0,359;    2,682
339,668;11043,558;   -1,632;    1,227
340,262;11292,011;    1,732;    3,227
340,856;10816,205;    1,822;   -0,682
341,450;10212,908;    1,004;    1,864
342,044;11083,743;    1,459;    0,136
342,637;10854,745;    0,913;   -2,136
343,231;10690,264;   -2,360;    0,682
343,825;10684,761;   -1,086;   -0,591
344,419;10669,537;   -1,995;    0,500
345,012;10451,289;    2,459;    4,045
345,606;10442,163;    4,641;    1,591
346,199;10313,185;   -1,813;   -0,227
346,793; 9840,151;    1,914;    2,045
347,386;10036,412;   -0,813;   -1,136
347,980;10033,082;   -0,268;   -0,045
348,573; 9816,405;    2,278;    0,409
349,167; 9506,726;    5,278;    4,773
349,760; 9849,121;    2,914;    2,682
350,354; 9816,301;   -0,813;    1,136
350,947; 9596,074;    1,096;    1,682
351,540; 9280,830;   -0,358;   -1,409
352,134; 9247,424;    1,096;    1,136
352,727; 9329,897;   -0,086;    1,136
353,320; 9104,095;    0,005;    0,591
353,913; 8952,493;   -1,995;    1,864
354,507; 9121,133;    0,823;   -1,227
355,100; 9139,401;    0,460;    0,864
355,693; 8397,012;    2,005;    2,409
356,286; 8454,333;    0,823;    2,773
356,879; 8782,577;   -0,722;    1,227
357,472; 8399,246;   -0,904;    1,500
358,065; 8614,568;   -0,722;    2,500
358,658; 8515,758;   -0,540;    2,318
359,251; 8192,396;   -1,631;   -0,591
359,844; 7694,839;   -1,904;   -1,136
360,437; 7866,736;   -2,995;    0,045
361,030; 8141,456;    1,369;   -0,682
361,623; 7742,832;    2,824;    0,318
362,215; 7779,688;   -0,086;    2,045
362,808; 7613,873;   -2,358;   -1,682
363,401; 7781,887;   -2,449;    0,136
363,994; 7549,032;   -0,631;   -1,500
364,586; 7478,497;    0,824;   -1,500
365,179; 7675,334;   -0,449;   -1,136
365,772; 7139,350;   -1,995;    2,045
366,364; 7426,280;    1,915;   -3,227
366,957; 7643,067;    2,279;   -0,045
367,549; 7682,908;    2,188;   -0,864
368,142; 7320,073;    1,825;   -1,500
368,734; 7524,342;    0,734;   -2,136
369,327; 7501,420;    1,643;   -0,500
369,919; 7403,912;   -1,538;    0,409
370,512; 7201,638;   -1,083;   -0,500
371,104; 6949,549;   -0,901;    1,591
371,696; 7148,055;    1,191;   -0,955
372,289; 7213,164;    0,373;    1,136
372,881; 7342,147;   -2,080;    1,318
373,473; 7308,630;   -2,170;    1,136
374,066; 7092,057;   -0,169;    0,500
374,658; 6959,448;    0,378;    1,136
375,250; 7284,209;    0,653;   -1,409
375,842; 7122,678;    0,473;   -0,045
376,434; 7017,062;   -0,435;   -0,409
377,026; 7571,335;    0,204;   -2,500
377,618; 7466,011;   -0,158;   -0,682
378,210; 7306,615;   -0,338;   -1,955
378,802; 7174,840;    0,754;   -0,591
379,394; 7141,418;    1,846;    0,682
379,986; 7713,048;    1,393;   -0,955
380,578; 7795,180;   -0,153;    0,773
381,170; 7154,640;   -0,972;    0,045
381,762; 7127,546;    0,755;    1,409
382,354; 7332,943;   -0,065;   -1,318
382,945; 7411,190;   -2,976;    0,318
383,537; 7561,784;   -2,705;   -1,955
384,129; 7562,439;   -2,160;   -1,136
384,721; 7759,356;   -0,252;    0,955
385,312; 7680,595;   -0,161;   -0,955
385,904; 7749,817;   -2,706;    1,591
386,496; 7143,067;   -0,979;    1,045
387,087; 7294,025;    1,022;    2,500
387,679; 7342,733;   -1,160;    0,045
388,270; 7471,172;    2,840;    2,045
388,862; 7569,668;    1,295;   -0,318
389,453; 7426,843;   -0,887;    1,045
390,045; 7699,176;   -0,705;   -2,682
390,636; 7678,036;    0,204;   -0,591
391,227; 7527,241;   -0,523;   -0,045
391,819; 7616,071;    0,204;    0,773
392,410; 7697,784;    1,022;    0,045
393,001; 7630,499;   -0,979;   -1,591
393,593; 7912,267;    1,930;   -0,045
394,184; 7769,682;    1,385;   -0,409
394,775; 7671,441;    1,839;    2,136
395,366; 7869,022;    1,385;    0,773
395,957; 7854,179;    0,113;    0,136
396,548; 8186,924;   -0,342;    2,682
397,139; 8454,624;   -2,433;    0,591
397,730; 8188,172;   -1,888;    0,955
398,321; 8262,825;   -1,252;    0,955
398,912; 8294,406;   -0,615;    0,136
399,503; 8372,981;   -3,524;   -1,409
400,094; 7808,840;    0,294;    1,682
400,685; 7676,943;   -0,433;    0,045
401,276; 7754,211;    0,930;   -0,955
401,867; 8072,496;   -0,888;    0,773
402,458; 8154,088;   -2,251;   -2,318
403,048; 8107,228;    1,112;    0,591
403,639; 7774,298;    0,840;    0,864
404,230; 8017,987;    2,476;    0,318
404,821; 7934,708;   -0,615;    0,045
405,411; 8050,387;    1,203;   -2,591
406,002; 7659,351;   -1,252;   -1,136
406,592; 7511,095;    2,294;    0,045
407,183; 7808,694;    0,566;   -1,500
407,774; 7739,291;    3,475;   -0,136
408,364; 8067,163;    0,930;    0,409
408,954; 7673,686;    0,384;    1,227
409,545; 7714,684;    1,021;    1,045
410,135; 7260,157;    1,293;    0,500
410,726; 7424,131;    1,838;    0,318
411,316; 7771,530;    0,111;    0,773
411,906; 7480,212;   -0,253;   -0,409
412,497; 6979,399;   -1,070;   -0,045
413,087; 7547,644;   -1,980;   -0,227
413,677; 7938,434;   -0,707;    3,864
414,267; 7782,583;    0,656;    1,409
414,857; 7779,223;   -2,980;    4,227
415,448; 8082,587;    0,839;    0,500
416,038; 7788,075;    0,020;   -0,591
416,628; 7761,068;   -0,889;    0,409
417,218; 7241,502;    0,565;    3,318
417,808; 7467,233;    0,202;   -0,409
418,398; 7922,173;    0,020;    2,682
418,988; 7919,965;    2,020;    0,591
419,578; 8144,680;   -0,707;    1,409
420,168; 8456,486;   -1,343;   -0,955
420,757; 8030,253;   -1,343;   -1,500
421,347; 7718,070;    0,111;   -0,227
421,937; 7882,826;    2,292;    1,409
422,527; 7828,744;    0,838;   -0,773
423,116; 7652,749;   -0,253;   -0,045
423,706; 8010,000;   -1,889;    0,318
424,296; 7998,453;    1,384;    0,682
424,885; 8379,908;   -0,071;   -3,045
425,475; 8646,645;    1,474;   -2,864
426,065; 8542,947;   -0,980;   -0,318
426,654; 8170,218;   -0,435;   -0,318
427,244; 8281,769;    0,020;    1,409
427,833; 7763,492;    1,383;   -0,500
428,423; 8236,816;   -0,526;    1,136
429,012; 8972,016;   -0,344;   -1,136
429,601; 8413,693;   -1,344;    0,136
430,191; 8644,614;    1,292;    4,318
430,780; 8308,605;   -0,344;   -0,409
431,369; 8252,148;    0,746;   -0,045
431,959; 8878,454;   -1,254;    0,500
432,548; 8640,669;   -1,163;   -0,045
433,137; 8753,313;   -1,254;   -1,318
433,726; 9268,489;    0,292;    0,500
434,315; 8664,465;   -0,526;    2,409
434,905; 8762,886;   -1,254;    1,409
435,494; 8661,630;    0,746;    0,955
436,083; 9077,007;   -0,981;   -0,955
436,672; 8944,015;    0,110;    0,500
437,261; 8540,909;    0,292;   -1,955
437,850; 8598,690;    1,383;    0,682
438,439; 8593,866;    3,291;    1,955
439,027; 8424,690;    3,655;    1,773
439,616; 8750,007;    2,927;    1,227
440,205; 8614,872;    0,200;   -2,136
440,794; 8644,647;    2,109;   -0,045
441,383; 8897,997;   -1,346;   -0,591
441,971; 8803,903;   -2,436;    0,591
442,560; 8650,041;    0,563;   -1,773
443,149; 8405,899;    0,379;   -1,318
443,737; 8524,577;   -0,074;   -2,318
444,326; 8774,952;    0,018;    0,318
444,915; 8802,434;   -1,982;    0,864
445,503; 9172,062;   -2,891;   -0,318
446,092; 8433,795;    0,382;    2,136
446,680; 8962,442;    0,382;    0,318
447,269; 9120,326;   -0,346;   -0,318
447,857; 8905,704;    0,018;   -1,773
448,445; 9033,921;    0,563;    1,318
449,034; 9240,674;   -1,528;   -1,136
449,622; 9362,039;   -1,073;    3,500
450,210; 8590,886;    2,017;    2,227
450,799; 9106,618;    0,290;   -0,591
451,387; 9071,018;    1,381;   -0,591
451,975; 8702,465;    2,654;    0,864
452,563; 8796,513;    3,472;    2,318
453,151; 8847,805;   -0,528;   -1,227
453,739; 8737,985;   -1,347;    0,136
454,328; 8562,763;    2,381;   -2,136
454,916; 8310,532;    2,562;   -0,136
455,504; 8532,371;    1,017;    1,227
456,092; 8679,665;    0,017;   -1,591
456,679; 8644,455;    1,472;    0,682
457,267; 8575,105;    4,017;    1,045
457,855; 8725,900;    1,017;    1,409
458,443; 8456,553;   -0,165;    1,682
459,031; 8583,452;    0,108;    2,409
459,619; 9043,140;   -1,801;    2,864
460,206; 9158,813;    0,835;    2,045
460,794; 9230,580;   -2,983;   -0,227
461,382; 9452,358;   -0,529;   -0,864
461,970; 9053,388;    1,198;    1,864
462,557; 9064,781;   -0,711;   -0,682
463,145; 9227,379;   -3,165;   -1,682
463,732; 9391,128;    2,016;   -1,045
464,320; 9308,993;   -0,075;   -3,045
464,907; 9012,048;    2,743;   -0,773
465,495; 8857,504;    0,743;   -1,227
466,082; 9021,749;   -1,984;   -0,045
466,670; 8951,388;   -2,529;    1,227
467,257; 9353,941;   -1,711;    2,045
467,844; 9477,704;   -0,075;    0,045
468,432; 9513,738;    0,834;    3,500
469,019; 9050,999;    0,925;   -1,773
469,606; 9463,867;    0,470;    3,682
470,193; 9288,224;   -1,439;    0,227
470,780; 8864,265;   -2,075;    0,864
471,368; 9213,944;   -1,257;   -0,773
471,955; 9013,756;    1,379;   -0,682
472,542; 8655,259;    0,652;   -1,136
473,129; 8876,457;   -0,166;    0,136
473,716; 8604,603;    1,470;    0,591
474,303; 8812,605;    0,652;   -0,864
474,890; 9065,031;   -1,439;   -0,500
475,477; 9070,827;   -1,621;    0,409
476,064; 8965,483;    1,106;   -1,591
476,650; 8847,466;    0,288;    0,318
477,237; 8700,557;   -0,258;    0,955
477,824; 8865,682;   -1,076;    0,864
478,411; 8871,134;   -1,894;   -0,318
478,997; 9019,877;    0,560;   -0,773
479,584; 9081,230;    1,196;   -0,409
480,171; 9711,404;   -0,440;   -0,773
480,757; 9379,544;    2,651;    0,773
481,344; 9659,193;    0,469;    0,409
481,931; 9175,490;    1,105;    1,045
482,517;10052,104;   -1,258;    0,318
483,104;10535,836;    1,106;    2,864
483,690;10758,747;   -1,804;    0,045
484,276;11098,429;   -0,895;    0,227
484,863;10844,875;    2,469;    1,136
485,449;11395,260;   -0,077;    0,318
486,035;11411,475;   -1,986;   -0,136
486,622;11835,188;   -0,895;    0,045
487,208;11746,076;    1,378;    1,500
487,794;11587,846;    0,741;    0,318
488,380;11701,125;    0,105;   -1,409
488,967;11769,242;   -1,168;   -0,409
489,553;11831,534;   -1,895;   -1,409
490,139;12042,596;    1,559;    0,773
490,725;11512,327;    0,741;   -0,227
491,311;11170,020;    3,287;    3,045
491,897;10579,840;   -0,986;    1,500
492,483;10475,604;    0,105;    1,227
493,069;10278,631;    3,923;    0,864
493,655;10245,129;    1,650;    0,682
494,241;10184,368;    1,377;   -0,955
494,826;10608,079;    0,287;   -1,045
495,412;10088,382;    2,559;   -0,682
495,998;10265,781;   -0,805;   -0,318
496,584;10412,348;    0,377;    1,045
497,169;10429,325;    1,014;   -0,682
497,755;10427,410;    0,650;    1,227
498,341;10980,961;    0,559;    0,318
498,926;10586,123;    1,832;    1,955
499,512;10799,298;    1,286;    2,955
500,097;10954,366;    0,195;   -0,318
500,683;10941,903;   -0,350;    2,136
501,268;11349,298;   -0,169;   -0,955
501,854;11102,003;   -0,169;    1,227
502,439;11085,477;   -0,624;   -1,773
503,024;11309,615;    0,195;    0,500
503,610;11409,825;   -0,078;   -0,682
504,195;11423,954;    0,558;    1,955
504,780;11594,301;    2,922;    1,227
505,366;11447,115;    3,013;    2,864
505,951;11216,827;    0,740;    1,045
506,536;11291,126;   -3,260;   -3,682
507,121;11281,967;    0,285;   -0,318
507,706;11832,696;    2,376;    1,045
508,291;12246,737;    2,649;    1,136
508,876;11731,987;   -0,988;    2,591
509,461;11271,336;   -0,169;   -0,773
510,046;11708,000;    0,194;    0,318
510,631;11975,716;   -0,351;   -0,773
511,216;11684,967;    2,467;   -0,500
511,801;12037,280;   -0,442;    2,591
512,386;12342,963;    0,740;    0,500
512,971;12315,892;   -2,988;    0,955
513,555;11877,757;   -0,897;   -1,500
514,140;12662,974;   -0,442;   -3,136
514,725;12690,965;   -0,715;   -1,136
515,309;12829,507;   -0,533;    0,318
515,894;12320,294;   -0,624;   -2,227
516,479;12763,664;   -0,624;   -0,955
517,063;12620,204;    0,376;    1,227
517,648;12773,752;    1,012;   -1,136
518,232;12430,725;   -0,261;   -1,409
518,817;12761,241;   -0,079;    1,682
519,401;12963,934;    2,194;    0,591
519,985;12528,746;    1,103;    1,136
520,570;12395,244;    0,830;   -1,955
521,154;12734,950;    2,102;    0,591
521,738;12878,060;   -2,352;    2,409
522,323;13457,491;   -0,170;    1,682
522,907;13183,209;    0,466;   -0,136
523,491;12956,211;    0,557;    0,955
524,075;12925,182;    2,284;    0,591
524,659;12992,110;    1,466;    0,591
525,243;12469,962;    1,739;    0,409
525,827;12721,425;    0,648;   -0,045
526,411;13570,383;   -1,989;   -0,136
526,995;13775,995;   -0,352;    1,409
527,579;13371,566;   -0,443;   -1,045
528,163;13689,607;    0,375;   -1,500
528,747;13566,513;    2,466;   -0,773
529,331;13904,086;   -0,080;   -1,409
529,915;14111,548;    1,738;    0,955
530,499;14083,336;   -0,807;    1,227
531,082;13730,565;   -0,534;    1,591
531,666;13206,110;    1,374;    0,773
532,250;13877,302;    1,284;    2,682
532,833;14211,167;    0,920;    2,773
533,417;14088,926;   -1,807;    0,864
534,001;14062,424;    1,647;   -0,318
534,584;14741,833;    0,374;    0,500
535,168;14600,831;    0,465;    1,409
535,751;14620,869;    0,647;    0,045
536,334;14078,693;   -0,898;   -0,409
536,918;14699,540;    0,011;    1,591
537,501;14772,458;   -0,899;    1,318
538,085;14787,372;   -0,444;    1,045
538,668;14916,070;    0,829;    2,409
539,251;15235,041;    1,829;    3,773
539,834;15264,038;    0,101;    0,773
540,418;15142,997;   -1,990;    4,318
541,001;15280,597;   -0,990;    1,773
541,584;15266,417;    2,101;    2,227
542,167;14976,485;    1,374;    2,955
542,750;15145,703;    1,919;   -0,773
543,333;14730,877;    0,555;    2,136
543,916;15464,529;    0,192;    2,500
544,499;16063,414;   -1,354;    0,227
545,082;16096,204;    1,374;    3,591
545,665;16234,956;    1,919;    1,500
546,248;16571,150;    1,010;   -0,318
546,830;16248,025;   -0,445;    1,955
547,413;16651,919;    1,010;   -0,773
547,996;17165,261;    0,555;    0,500
548,579;16953,151;    0,919;    0,955
549,161;16732,304;    1,828;    2,682
549,744;16512,740;   -0,809;    0,409
550,326;17037,832;   -0,809;   -1,136
550,909;16822,902;    2,737;    0,591
551,492;17187,828;   -0,263;    0,227
552,074;16980,574;   -0,173;   -1,318
552,657;17556,363;    2,373;    0,045
553,239;17370,730;   -0,173;   -0,773
553,821;17257,080;   -1,082;    1,045
554,404;16739,695;    1,282;    1,136
554,986;17075,612;    0,464;    1,045
555,568;17681,070;    1,191;   -0,955
556,151;16883,768;    1,191;   -0,227
556,733;17108,154;   -0,264;   -0,864
557,315;17638,267;    0,100;    0,500
557,897;17408,961;    0,554;   -0,500
558,479;17492,902;   -1,991;    1,318
559,061;17639,013;   -0,719;   -0,864
559,643;17994,064;   -0,264;    0,045
560,225;18327,042;    1,645;    2,864
560,807;18344,882;    0,918;    0,318
561,389;17877,492;    0,554;    2,318
561,971;18569,427;    0,463;    2,136
562,553;18408,772;   -1,628;    1,591
563,135;18496,164;   -0,537;    1,136
563,717;18142,769;    3,372;    1,136
564,298;18802,897;    3,645;   -0,045
564,880;18569,169;    0,645;   -1,409
565,462;18712,805;    0,645;    1,318
566,043;19836,268;   -0,446;    2,318
566,625;19350,176;    1,918;    1,227
567,207;19199,461;    1,099;    1,682
567,788;20285,010;   -1,264;    1,500
568,370;21081,633;    1,917;   -0,500
568,951;20883,166;    0,190;    0,227
569,533;21754,824;   -0,628;   -0,500
570,114;22192,123;   -0,446;    0,682
570,695;22667,695;   -0,174;   -1,318
571,277;23146,794;   -0,265;   -1,682
571,858;23811,817;    2,008;   -1,136
572,439;24732,505;    1,554;   -1,045
573,021;24861,208;    2,099;   -2,773
573,602;25350,290;   -1,265;    0,318
574,183;26206,087;   -2,083;    2,227
574,764;26333,327;   -1,629;    0,409
575,345;26809,062;    0,917;   -0,136
575,926;27473,408;   -0,356;    0,136
576,507;27432,108;    1,099;   -0,227
577,088;28483,077;    3,099;    1,682
577,669;28478,241;    0,735;    1,955
578,250;29208,541;    0,644;   -1,045
578,831;29835,534;   -1,356;   -2,227
579,412;30043,030;   -0,810;    0,955
579,993;31005,638;    1,008;    0,227
580,573;31397,942;   -0,629;   -0,955
581,154;30373,454;    0,735;   -0,591
581,735;31185,301;    0,644;    0,773
582,315;30660,119;   -0,629;    2,136
582,896;30960,236;   -0,174;    1,227
583,477;30415,707;    0,189;    1,227
584,057;30641,608;    0,553;    0,955
584,638;30945,911;    2,553;    2,318
585,218;30914,425;   -0,538;    2,682
585,799;31141,450;    0,281;   -0,227
586,379;31107,986;    0,372;    1,591
586,959;29930,057;    0,735;    0,318
587,540;29304,531;   -0,629;    2,227
588,120;28829,217;    1,007;   -0,045
588,700;27847,959;    2,553;    2,136
589,281;28185,699;    0,462;   -0,955
589,861;28136,643;    0,099;   -1,682
590,441;27921,246;    2,371;   -2,682
591,021;26898,456;   -0,265;   -2,591
591,601;27141,194;   -0,537;    0,500
592,181;27167,131;   -0,719;   -0,773
592,761;26501,782;    0,007;    1,409
593,341;26416,480;   -0,901;    0,045
593,921;26386,592;   -0,265;    1,591
594,501;26297,724;   -0,538;    1,318
595,081;26131,167;    0,917;   -0,318
595,661;26474,507;   -1,447;    0,955
596,240;27004,679;   -0,537;    0,136
596,820;26638,788;    0,372;    1,955
597,400;26803,900;    2,008;    0,773
597,980;27000,341;    2,008;    1,045
598,559;27077,988;    2,735;   -0,227
599,139;26816,083;   -0,174;   -1,227
599,718;26678,811;   -0,174;   -0,409
600,298;26950,110;    0,735;    0,682
600,877;27164,070;    2,917;    1,409
601,457;27449,997;    2,281;    1,136
602,036;27373,375;    0,190;    2,045
602,616;27536,794;    0,644;    1,682
603,195;27827,450;   -0,355;    3,500
603,774;27404,151;   -0,901;    2,045
604,354;27297,758;    0,826;   -0,500
604,933;26831,374;    0,463;    1,864
605,512;26942,821;    3,554;    0,591
606,091;27032,961;   -0,537;    3,773
606,671;27844,512;    0,281;    0,773
607,250;26907,968;    1,644;    3,136
607,829;27143,134;    2,372;    3,227
608,408;27033,201;    1,190;    2,591
608,987;26037,726;    1,281;    3,409
609,566;26403,690;   -1,265;   -2,500
610,145;26475,153;   -1,082;    0,682
610,723;26917,913;    4,372;    6,864
611,302;26143,538;   -0,446;    1,682
611,881;25667,907;    5,008;   11,227
612,460;26468,788;    1,645;    3,955
613,039;26903,804;   -0,082;    2,045
613,617;25664,622;    1,736;    4,773
614,196;25838,636;    1,099;    1,227
614,775;26136,227;    1,009;    2,409
615,353;26132,189;    0,736;    0,864
615,932;25853,615;    0,100;    2,409
616,510;26451,317;    0,554;    0,591
617,089;25955,496;    7,100;   17,591
617,667;25748,616;    2,372;    6,136
618,246;25629,729;   -1,537;    1,318
618,824;25801,247;   -3,355;   -0,955
619,402;25356,793;   -2,900;   -1,773
619,981;25883,239;   -0,173;   -1,045
620,559;25708,747;    0,009;    1,682
621,137;25288,176;   -0,718;    1,864
621,715;25277,754;   -1,173;   -0,682
622,293;25211,326;   -0,537;   -0,773
622,871;25634,358;   -0,718;    0,500
623,450;25266,342;    0,373;   -0,864
624,028;25156,414;    0,191;   -0,955
624,606;24781,528;   -1,718;    1,682
625,183;25166,578;   -1,536;   -1,136
625,761;24823,123;    1,009;    1,136
626,339;25064,319;    1,373;    2,591
626,917;25418,927;   -0,172;   -0,045
627,495;25521,051;   -0,354;    1,318
628,073;24958,071;   -0,263;    2,864
628,650;24627,966;    0,100;    2,136
629,228;25110,370;    0,373;    4,409
629,806;24506,422;    2,282;    1,136
630,383;24777,561;    1,464;   -0,318
630,961;24494,816;    2,555;   -0,955
631,539;24291,530;    2,464;    0,227
632,116;23607,998;   11,373;   15,409
632,694;24236,926;    2,555;    6,500
633,271;24526,026;    0,828;    2,682
633,848;24419,308;    1,828;    2,045
634,426;24448,352;   -1,081;    1,773
635,003;23657,025;    1,101;   -0,409
635,580;23958,749;    1,192;    3,682
636,158;24482,011;    3,737;    1,227
636,735;24458,239;    0,555;   -0,500
637,312;24650,281;   -0,809;   -0,682
637,889;24733,591;   -4,354;   -0,682
638,466;24218,109;   -3,990;   -0,409
639,043;24210,392;    2,101;   -1,136
639,620;24576,361;   -2,262;   -0,955
640,197;24868,401;    1,100;    1,682
640,774;24983,720;   -0,172;    1,136
641,351;25366,131;    0,737;    1,136
641,928;24724,087;   -0,627;    1,409
642,505;24364,588;    0,828;   -0,500
643,082;24537,726;   -1,718;    1,227
643,658;23635,591;   -0,718;    1,500
644,235;24363,729;    1,191;    2,500
644,812;24595,413;    1,918;    0,773
645,388;24360,005;   -0,991;    1,409
645,965;24459,052;   -0,809;    1,682
646,542;24501,917;   -1,445;   -0,227
647,118;24502,418;    1,009;   -0,955
647,695;24856,738;   -0,263;    1,136
648,271;24709,694;   -0,536;    0,500
648,848;25017,650;    0,736;    2,227
649,424;24870,879;    0,827;    1,318
650,000;24620,744;   -0,354;   -1,045
650,577;24449,609;   -0,627;   -0,955
651,153;24888,474;   -1,809;    0,955
651,729;25872,067;    1,191;    0,864
652,305;26010,659;    0,645;    2,773
652,881;29996,888;   -0,082;    1,136
653,458;36500,844;    1,100;    0,227
654,034;40283,072;    0,282;    1,591
654,610;41865,119;    0,554;    0,773
655,186;43123,621;    0,645;    3,045
655,762;42843,940;   -0,991;    0,409
656,338;42805,442;    0,100;    0,136
656,913;43789,580;   -0,082;    0,409
657,489;43111,899;    0,827;   -0,318
658,065;43121,855;   -0,173;   -1,591
658,641;43795,357;   -0,900;   -0,864
659,217;43106,677;   -0,991;    0,409
659,792;42495,905;    0,645;   -0,409
660,368;42811,861;   -2,173;   -0,682
660,944;42584,545;   -2,082;    1,227
661,519;38404,228;   -0,628;    0,409
662,095;32761,729;   -1,719;    0,591
662,670;28150,049;    1,281;   -0,136
663,246;26907,914;    1,009;   -0,409
663,821;26193,870;    0,281;    1,682
664,396;25660,735;    0,009;    1,864
664,972;25896,146;    0,009;   -0,500
665,547;26207,556;    1,372;    0,136
666,122;26299,512;   -1,082;    0,318
666,698;26508,741;   -0,173;    0,318
667,273;25860,879;   -0,173;    0,136
667,848;26652,108;    2,372;    1,500
668,423;26414,336;    2,190;    2,318
668,998;27023,656;    2,827;   -0,682
669,573;27537,157;   -3,264;   -1,500
670,148;27365,750;   -1,446;   -0,682
670,723;27239,888;   -1,810;    0,318
671,298;27599,935;    2,372;    1,045
671,873;27704,618;   -0,082;   -0,136
672,448;27674,665;    0,645;    0,136
673,023;28011,803;   -1,992;   -0,227
673,597;28313,395;    0,827;    2,318
674,172;28087,442;   -0,355;    0,318
674,747;27574,489;    0,372;   -1,045
675,321;27439,536;   -0,628;    3,318
675,896;27004,674;    0,645;    1,045
676,471;27981,539;    2,645;    1,591
677,045;27751,222;   -1,264;    0,682
677,620;27847,269;    0,190;    1,136
678,194;28122,407;   -2,628;    1,136
678,769;27668,272;   -1,083;   -0,318
679,343;27940,228;   -0,628;    1,773
679,917;27783,457;   -1,446;    1,955
680,492;27874,322;    0,826;    3,227
681,066;28031,005;    3,372;    0,409
681,640;28058,052;    1,463;   -0,318
682,214;28850,917;    0,735;    0,500
682,788;28352,691;   -1,356;   -0,773
683,363;28311,920;   -1,810;    1,682
683,937;28034,785;   -1,719;   -0,318
684,511;28770,468;    0,463;   -0,591
685,085;28437,061;   -1,356;    0,318
685,659;28262,744;   -2,538;    0,864
686,232;28541,882;   -0,356;   -0,318
686,806;28287,838;   -0,901;    0,409
687,380;28913,339;   -0,174;    0,591
687,954;29113,659;   -1,174;    1,136
688,528;28792,615;   -0,719;    1,955
689,101;29541,753;   -3,992;    1,045
689,675;29166,436;   -0,356;   -0,136
690,249;28549,029;   -0,719;    0,409
690,822;28806,348;    0,280;    0,318
691,396;28931,850;   -0,265;    1,227
691,969;28427,351;    1,280;    0,136
692,543;28887,943;   -0,447;   -1,955
693,116;28578,081;   -0,265;   -1,409
693,690;28411,401;    0,099;    0,500
694,263;28945,902;   -1,083;    2,955
694,836;28969,949;    1,371;    3,591
695,410;27634,724;   -0,265;    1,773
695,983;28123,952;    0,189;    0,591
696,556;28063,454;   -0,447;   -1,045
697,129;28420,501;   -0,356;    1,409
697,703;28079,911;   -1,629;    1,955
698,276;28095,504;    1,462;   -0,773
698,849;27900,732;    1,280;    1,409
699,422;28242,779;   -1,083;    0,591
699,995;27958,463;    0,007;    0,136
700,568;28475,600;   -0,629;    3,045
701,140;28473,193;   -2,811;    1,682
701,713;28251,149;   -0,174;    2,409
702,286;28014,650;   -0,538;    0,864
702,859;27835,879;   -0,902;   -0,591
703,432;27025,926;    0,825;    0,682
704,004;27519,064;    0,462;    0,318
704,577;27423,020;   -0,629;    0,136
705,150;27996,430;    0,189;    2,500
705,722;27798,386;   -0,356;   -3,227
706,295;27537,342;   -0,175;   -0,591
706,867;27371,753;   -0,175;    1,955
707,440;27594,527;   -1,720;   -0,409
708,012;27835,483;    0,462;    0,591
708,584;27785,621;    2,462;    0,227
709,157;28074,941;    1,825;   -0,591
709,729;27722,715;    2,280;    2,045
710,301;28548,580;    0,734;    0,045
710,874;28611,990;   -1,447;   -0,227
711,446;27408,674;    0,371;    0,864
712,018;27300,448;    0,098;    0,500
712,590;27063,677;   -1,993;    1,682
713,162;27603,269;    0,825;    1,318
713,734;27849,134;    1,825;   -2,045
714,306;27774,090;   -1,902;   -0,409
714,878;26540,864;    0,825;    0,864
715,450;27348,002;    0,643;    0,864
716,022;27604,140;    1,552;    1,318
716,593;27754,914;    0,189;    0,591
717,165;27650,143;   -3,175;   -1,227
717,737;27376,372;    0,280;    0,409
718,309;27016,510;    0,280;   -0,045
718,880;26966,920;   -0,539;   -1,409
719,452;27180,422;   -0,175;   -1,591
720,024;26771,559;    0,734;   -0,591
720,595;27359,970;   -2,902;    0,955
721,167;26901,926;    0,370;   -2,045
721,738;26439,882;   -0,812;   -1,045
722,309;26378,202;   -0,993;   -1,227
722,881;26174,430;   -1,357;    0,773
723,452;26758,386;   -2,630;    2,864
724,023;27010,161;   -0,721;    2,682
724,595;26774,480;    0,007;    0,682
725,166;26529,527;    0,007;   -0,409
725,737;26150,665;    1,734;    0,227
726,308;26241,712;   -0,266;    0,318
726,879;26675,759;   -1,630;    1,227
727,450;26515,169;    0,552;   -0,045
728,021;26505,853;    3,097;    0,682
728,592;26282,445;    0,734;    0,500
729,163;26628,128;    0,643;   -0,136
729,734;26638,084;    0,188;   -0,227
730,305;26966,313;    1,734;    0,136
730,876;27322,724;    0,188;    2,955
731,447;27004,498;    2,188;    2,682
732,017;27105,817;    1,097;    1,864
732,588;26594,501;    0,734;    1,227
733,159;26766,911;    0,643;   -1,045
733,729;26625,049;    0,006;    0,409
734,300;25965,914;    0,915;    0,864
734,870;26382,507;    3,461;    0,591
735,441;26920,463;    0,370;   -0,591
736,011;26677,600;    0,643;   -1,591
736,582;26594,193;   -0,812;    0,045
737,152;26078,240;   -1,721;   -2,045
737,722;26567,287;   -0,267;   -0,682
738,293;26281,970;   -1,358;    1,318
738,863;26131,108;    2,461;    2,318
739,433;25930,427;    5,279;    0,318
740,003;26567,202;   -0,994;   -0,682
740,573;25960,158;    2,097;   -1,591
741,143;25961,932;   -1,085;    0,318
741,713;26731,888;    1,188;   -0,500
742,283;26428,753;    0,915;    1,591
742,853;26210,891;    1,915;    1,591
743,423;25683,665;    1,733;    0,045
743,993;25832,530;   -0,358;    1,500
744,563;25220,032;    0,097;   -0,864
745,133;25154,715;   -0,812;   -0,864
745,702;25860,489;   -0,267;    1,773
746,272;25077,900;   -0,176;    0,591
746,842;24833,310;   -1,358;   -0,591
747,411;25224,357;   -0,267;   -0,318
747,981;25458,404;    0,097;    0,500
748,551;25529,724;    2,278;   -1,045
749,120;25301,680;    0,642;   -0,227
749,690;25693,999;   -0,631;    2,409
750,259;26002,683;    1,369;    2,955
750,828;25948,457;    1,551;   -1,955
751,398;26223,504;    1,278;   -0,045
751,967;25746,005;    2,187;    0,409
752,536;25983,598;   -0,813;   -0,227
753,105;26318,735;    0,096;    0,227
753,675;26117,328;    0,096;    1,773
754,244;26043,920;   -0,904;    3,591
754,813;26091,331;    0,551;    1,227
755,382;25694,923;    0,460;    0,955
755,951;26217,516;    1,551;    3,682
756,520;25787,744;   -0,085;    1,864
757,089;26340,246;    0,278;    0,500
757,658;26539,202;    1,733;    1,227
758,227;26497,158;    1,096;    0,318
758,795;26766,296;    1,187;    1,136
759,364;27023,706;   -0,086;   -0,591
759,933;25993,117;   -1,176;   -0,045
760,501;25571,982;    0,733;   -1,318
761,070;26048,756;   -2,813;   -1,409
761,639;26704,530;   -1,904;    1,318
762,207;26050,941;    1,551;   -0,955
762,776;26007,442;    0,369;    0,864
763,344;25962,216;   -0,995;    0,591
763,913;25122,809;   -0,722;    1,409
764,481;25840,219;    1,005;   -0,136
765,049;25597,175;   -1,358;    1,409
765,618;25484,040;   -0,086;    0,318
766,186;25620,269;    0,278;    0,136
766,754;25771,134;    0,005;    1,864
767,322;24829,818;   -1,995;    0,409
767,890;24852,774;   -0,722;   -1,773
768,459;25233,821;   -2,177;   -0,318
769,027;25370,504;    1,641;    3,409
769,595;24391,823;    3,278;    2,591
770,163;24840,416;    3,823;    2,955
770,730;24560,917;    0,732;   -0,136
771,298;24438,873;    0,187;   -1,409
771,866;24552,920;   -1,541;    4,955
772,434;24800,694;   -0,631;   -1,864
773,002;24993,014;    0,005;    0,682
773,569;24722,243;    0,914;    1,682
774,137;24552,290;   -0,268;   -0,045
774,705;25342,882;    0,278;   -0,136
775,272;24784,020;    0,641;    0,682
775,840;24557,158;   -0,177;    2,682
776,407;24102,205;    0,277;    1,955
776,975;23723,979;   -0,632;    0,318
777,542;24673,026;   -1,086;   -0,045
778,110;24507,255;   -1,268;   -0,045
778,677;24224,574;   -2,359;   -0,864
779,244;23996,530;    2,186;    1,045
779,812;24119,486;    1,823;    0,864
780,379;24000,897;    0,005;    1,136
780,946;24168,671;    1,005;   -0,773
781,513;24548,536;   -1,450;    0,318
782,080;23860,765;   -0,086;    2,864
782,647;24644,539;   -0,268;    3,045
783,214;24199,677;   -0,177;    3,864
783,781;23832,451;   -0,723;   -0,682
784,348;23713,407;   -0,632;    1,500
784,915;24204,090;   -3,177;    0,318
785,482;23928,046;    1,368;    2,591
786,049;24387,548;    0,186;   -0,591
786,615;24534,413;    0,277;   -0,955
787,182;24266,369;    0,186;   -0,682
787,749;23952,052;   -2,814;    1,409
788,315;23280,099;   -1,632;   -0,409
788,882;23577,237;    1,550;   -1,227
789,448;24226,011;    1,732;   -0,955
790,015;24294,967;    1,095;    3,227
790,581;23833,651;    1,459;    0,227
791,148;23741,607;    0,641;    1,045
791,714;23996,290;   -0,541;    3,136
792,280;23649,882;    0,186;    1,591
792,847;23196,929;    0,550;    2,500
793,413;23792,067;   -0,269;   -0,318
793,979;23315,114;    3,459;   -1,318
794,545;23382,888;    4,459;    2,682
795,111;22766,480;    2,186;    1,318
795,678;22969,527;    0,731;   -1,682
796,244;22632,847;    3,368;    0,136
796,810;23182,985;    1,731;    0,773
797,375;22885,304;    0,549;   -2,136
797,941;22939,806;   -0,541;    0,591
798,507;23136,126;   -0,451;   -0,955
799,073;22673,263;   -0,360;    0,591
799,639;22695,310;   -2,632;    3,136
800,205;22715,812;    0,095;    2,682
800,770;22324,041;    0,640;    1,773
801,336;22407,269;    1,368;   -0,955
801,901;22133,589;    4,549;    3,136
802,467;22684,818;   -0,542;    2,045
803,033;22002,865;   -0,087;    0,864
803,598;22187,002;    1,913;   -1,045
804,163;22181,322;    1,095;   -0,318
804,729;22191,914;   -0,178;    1,136
805,294;22604,416;    0,822;    2,227
805,859;22417,008;    0,731;   -0,409
806,425;21868,055;    1,186;    2,682
806,990;21509,284;    2,186;    4,318
807,555;22021,785;   -1,451;    2,591
808,120;21891,832;    0,822;   -0,409
808,685;22020,607;    0,185;   -2,500
809,250;21504,563;    0,004;   -0,500
809,815;21802,519;    1,913;    0,682
810,380;22329,566;   -0,269;    1,591
810,945;22852,703;   -1,087;    2,045
811,510;22024,023;    2,094;    1,591
812,075;21716,979;   -0,633;   -1,409
812,640;21718,299;    2,003;    1,409
813,204;21851,800;    0,822;   -0,227
813,769;22276,574;    2,094;   -0,045
814,334;21704,076;    0,458;    0,864
814,898;21801,668;    0,367;    0,591
815,463;21670,988;    1,276;   -0,773
816,027;21619,126;   -0,724;   -2,318
816,592;21716,718;    0,640;   -2,045
817,156;21186,038;    2,094;    1,136
817,721;21038,812;    4,276;    2,318
818,285;21043,495;    2,912;    1,500
818,849;21683,906;   -1,451;    1,682
819,414;21588,771;   -0,269;    2,955
819,978;21180,727;   -1,269;    1,773
820,542;21746,410;    2,003;    0,500
821,106;21455,184;   -0,815;    0,682
821,670;21568,322;   -0,815;    2,591
822,234;21291,733;   -0,270;    1,409
822,798;20651,961;    0,003;    0,500
823,362;20603,099;   -0,633;    4,227
823,926;19974,055;    0,094;    1,136
824,490;20197,648;   -0,997;   -0,682
825,054;20636,786;   -0,088;   -1,136
825,618;20238,287;   -1,542;   -1,500
826,181;20155,970;    0,458;   -1,318
826,745;20113,017;    1,367;   -1,045
827,309;20441,973;    1,185;    1,318
827,872;19823,475;    1,367;    0,955
828,436;20834,522;    1,185;   -0,773
828,999;20936,750;   -0,997;    1,227
829,563;19725,434;   -0,179;    1,136
830,126;19560,026;   -0,179;   -0,591
830,690;19560,891;   -1,997;    2,864
831,253;19092,302;   -0,543;    2,227
831,816;19196,439;   -1,906;    0,500
832,380;19124,032;    0,185;    0,864
832,943;19334,170;   -1,361;   -0,500
833,506;18826,944;    2,639;   -1,227
834,069;19624,264;    3,912;   -0,955
834,632;19631,947;    1,730;    1,318
835,195;19602,085;    1,003;    0,955
835,758;18781,222;   -0,997;    1,955
836,321;18682,906;    0,730;   -1,045
836,884;18765,044;   -0,725;   -0,955
837,447;18796,909;   -2,816;    1,773
838,010;19045,047;    0,366;    3,227
838,573;19317,366;   -1,179;    0,773
839,135;19295,504;   -1,361;   -0,955
839,698;18763,369;    1,275;    0,409
840,261;18308,962;    1,003;   -0,227
840,823;18191,736;   -0,543;    0,864
841,386;18428,783;   -0,452;   -2,409
841,948;18304,466;   -1,361;    1,773
842,511;18067,240;    0,912;    1,682
843,073;18228,832;    1,912;    0,227
843,636;18030,425;   -0,361;   -0,227
844,198;17928,745;    0,911;    0,591
844,760;18026,155;    1,093;    1,955
845,322;17737,111;    0,548;    1,136
845,885;18135,885;    0,730;    0,591
846,447;18560,569;   -1,998;    0,227
847,009;18166,615;    1,911;   -0,682
847,571;18454,935;    0,820;   -2,045
848,133;18600,891;   -1,089;   -1,864
848,695;18395,938;   -0,543;    1,409
849,257;17956,440;   -1,089;   -1,682
849,819;18129,305;   -0,998;   -0,409
850,381;18176,442;   -0,725;   -0,864
850,942;18542,671;    1,093;   -0,591
851,504;18479,264;    1,184;    0,227
852,066;18556,856;    1,275;   -1,591
852,628;18044,721;   -0,180;    1,955
853,189;17638,313;    1,638;    2,682
853,751;17742,451;   -0,907;    1,409
854,312;17571,225;   -0,453;   -1,682
854,874;18060,181;   -2,089;   -0,773
855,435;18587,410;   -0,907;   -1,682
855,997;18713,366;   -1,816;   -0,136
856,558;18005,413;    0,366;    1,773
857,119;18116,006;    0,820;    2,864
857,681;17845,143;    0,002;    0,318
858,242;17838,736;    1,911;   -2,136
858,803;18305,601;    0,456;   -0,773
859,364;18847,557;    0,184;   -4,773
859,925;18188,331;   -2,453;   -0,955
860,486;18107,833;   -0,453;   -0,955
861,047;17840,334;   -0,544;   -1,227
861,608;17629,745;   -1,089;   -0,773
862,169;17755,337;    0,638;   -0,045
862,730;17513,384;    0,456;    1,409
863,291;17752,704;   -0,635;   -0,500
863,852;18121,660;   -0,635;    1,955
864,412;17606,343;   -0,271;   -0,864
864,973;16216,572;   -0,089;    0,500
865,534;16084,800;   -1,726;    0,227
866,094;17562,211;    1,820;    0,227
866,655;17239,167;    1,274;    3,318
867,215;17503,850;    0,274;    0,136
867,776;17374,352;    0,547;   -0,136
868,336;17454,308;   -1,453;    0,136
868,897;16903,173;    2,638;    1,682
869,457;16674,492;    1,365;    0,318
870,017;16917,903;    0,547;   -1,227
870,578;17430,132;   -0,817;    0,773
871,138;17111,270;   -2,089;   -0,955
871,698;16657,407;   -0,817;   -1,318
872,258;16509,818;   -0,453;   -2,864
872,818;16878,956;    2,729;    0,045
873,378;16890,639;    0,638;    1,045
873,938;16439,322;    0,547;    0,500
874,498;16749,915;    0,274;   -1,955
875,058;16648,234;    2,183;    1,773
875,618;16539,554;    1,910;   -2,682
876,177;16447,874;    1,274;    0,136
876,737;16074,921;   -0,090;    1,955
877,297;16065,786;    0,183;    1,955
877,856;16068,651;   -0,362;    0,318
878,416;16020,970;    1,183;   -0,136
878,976;16235,654;   -1,817;    0,409
879,535;16414,337;    0,092;    3,136
880,095;16116,384;   -0,544;    0,045
880,654;16246,613;   -1,090;    1,318
881,213;16335,569;    2,456;    1,500
881,773;15999,525;    2,637;    2,682
882,332;16314,117;    3,365;    5,136
882,891;16189,709;    3,092;    2,136
883,451;16647,120;   -1,272;    1,682
884,010;16115,712;   -2,908;   -0,409
884,569;16212,668;   -0,999;   -0,045
885,128;16348,806;    2,819;   -1,864
885,687;16396,399;    4,455;    0,682
886,246;16118,809;    1,455;    2,136
886,805;15834,583;    2,455;    2,045
887,364;16168,903;   -0,999;   -0,500
887,922;16513,677;   -1,181;    0,045
888,481;15995,360;   -1,545;    0,591
889,040;16308,135;    1,183;    2,136
889,599;17023,182;    2,455;    1,409
890,157;17064,138;    1,455;    2,409
890,716;16683,821;   -0,090;    0,227
891,274;16526,777;    0,092;   -1,136
891,833;16948,642;    1,546;    0,864
892,391;16858,780;   -0,454;    0,500
892,950;16905,645;    1,819;   -0,773
893,508;17280,601;    0,455;   -0,409
894,067;16684,830;    0,637;    0,136
894,625;16572,058;   -0,636;   -1,500
895,183;16767,651;   -0,363;   -0,682
895,741;16642,698;    1,728;   -1,773
896,299;16520,745;   -0,545;   -2,409
896,858;16711,337;    0,819;   -1,591
897,416;16785,929;    2,728;   -1,318
897,974;16536,613;    1,819;    0,318
898,532;16673,841;    6,091;    2,682
899,089;16655,070;    2,091;   -0,682
899,647;16685,753;   -1,454;    1,318
900,205;16388,346;    1,182;    1,045
900,763;16576,211;   -0,454;    0,227
901,321;16617,894;    2,364;   -1,409
901,878;16050,487;   -1,000;   -0,773
902,436;15923,806;   -1,363;    1,318
902,994;16307,126;    4,728;    3,682
903,551;15780,446;    0,728;    0,409
904,109;16190,220;    0,182;   -1,409
904,666;15749,721;    2,455;    1,045
905,224;15583,223;    0,182;   -0,409
905,781;15300,270;    0,727;   -0,318
906,338;15384,407;   -1,363;    1,045
906,895;15340,454;    0,637;    2,045
907,453;15277,319;    1,727;    1,136
908,010;15316,639;   -0,909;    0,409
908,567;14958,232;    1,273;    0,591
909,124;14449,097;    0,364;   -1,500
909,681;14551,780;   -2,909;    0,682
910,238;14697,190;    0,636;   -1,318
910,795;15064,419;   -0,273;   -1,136
911,352;14669,419;   -2,909;   -2,682
911,909;14085,874;   -1,364;   -0,864
912,466;14565,056;   -3,182;    1,500
913,022;14095,056;   -1,636;    0,500
913,579;14472,328;   -0,909;    2,045
914,136;14211,601;    1,636;    0,955
914,692;14531,692;    0,091;   -1,227
915,249;14143,783;    1,455;    0,409
915,806;14345,237;    0,182;    1,955
916,362;14102,601;    1,909;    1,864
916,918;13663,601;    2,000;    1,045
917,475;13616,783;   -1,182;    0,955
918,031;13733,601;    3,364;   -0,045
918,587;13169,692;   -0,909;   -0,318
919,144;13395,146;   -2,273;    0,227
919,700;13688,419;    1,727;    0,773
920,256;13282,601;    0,727;    0,045
920,812;12917,783;   -0,727;   -1,045
921,368;12900,601;   -1,727;   -1,045
921,924;12552,601;    0,182;   -0,136
922,480;12133,510;   -0,545;    1,227
923,036;12760,419;    1,273;    1,955
923,592;12706,692;    0,455;    0,318
924,148;12610,510;    0,455;   -0,955
924,704;11939,965;   -1,364;   -0,409
925,259;12224,237;   -0,273;    0,591
925,815;11985,237;    1,455;    0,500
926,371;11515,237;    2,909;    1,409
926,926;11391,601;    2,091;    0,591
927,482;11045,056;   -1,364;    0,773
928,037;10925,783;    0,909;    2,045
928,593;11178,146;    1,636;    1,045
929,148;11008,328;   -1,818;   -1,500
929,704;10529,601;   -1,455;   -0,500
930,259;10766,874;    0,091;   -0,136
930,814; 9850,965;   -0,818;    1,955
931,369; 9527,419;    1,091;   -0,773
931,925; 9424,146;   -0,091;    0,136
932,480; 9338,783;   -2,818;   -2,591
933,035; 9223,237;    0,545;   -0,318
933,590; 9025,328;    0,364;   -1,773
934,145; 8646,692;   -1,364;   -0,318
934,700; 9007,056;    0,455;   -0,591
935,255; 8808,419;   -0,091;    0,045
935,809; 8069,328;    3,182;    0,864
936,364; 7249,601;   -0,455;   -0,136
936,919; 7226,146;    0,455;   -1,773
937,474; 7102,601;    1,455;    0,136
938,028; 6868,601;   -1,636;    1,136
938,583; 6348,965;    1,818;    4,682
939,138; 6639,056;    2,091;    2,136
939,692; 6105,510;    1,636;   -1,136
940,247; 5820,601;   -0,727;   -1,045
940,801; 5362,783;   -0,636;    0,227
941,355; 5244,510;   -0,364;    2,591
941,910; 4925,056;   -0,273;   -2,136
942,464; 5032,510;   -0,818;   -0,318
943,018; 4821,783;    1,000;   -0,227
943,572; 4772,146;    2,545;   -0,682
944,126; 4215,146;    0,091;   -0,409
944,681; 4107,783;    3,091;    0,227
945,235; 4084,874;    1,000;   -0,591
945,789; 4021,146;    0,364;   -1,864
946,342; 4126,783;    0,455;   -0,591
946,896; 3941,328;   -2,273;    0,955
947,450; 3709,237;    1,545;   -0,227
948,004; 3885,510;    1,727;   -0,045
948,558; 3881,692;    0,273;   -0,864
949,111; 3812,419;   -0,273;   -0,318
949,665; 3854,601;    1,636;   -0,682
950,219; 3716,783;   -0,091;   -1,045
950,772; 3794,965;   -1,909;    1,864
951,326; 3710,601;    0,545;   -0,955
951,879; 3807,146;    0,727;   -2,318
952,433; 3832,783;    0,000;    2,227
952,986; 3698,328;    2,909;    0,682
953,539; 3643,965;   -0,273;    0,591
954,093; 3556,965;    0,545;   -1,318
954,646; 3692,056;    0,909;    1,318
955,199; 3503,419;    0,000;   -0,500
955,752; 3421,419;   -0,455;    1,773
956,305; 3375,601;   -0,091;    2,955
956,858; 3515,692;    0,818;   -0,318
957,411; 3672,056;   -0,545;    2,136
957,964; 3502,510;    1,364;    2,136
958,517; 3507,510;   -1,545;    3,136
959,070; 3340,237;   -0,455;    1,955
959,623; 3413,328;    1,091;    1,500
960,176; 3204,146;    1,727;    2,045
960,728; 3187,419;   -2,727;    0,773
961,281; 3240,510;    0,545;    0,500
961,834; 3285,692;   -0,909;    0,864
962,386; 3192,419;    1,727;    1,045
962,939; 3114,510;    0,364;   -0,318
963,491; 3246,146;    0,455;    1,136
964,043; 3135,419;    1,182;    2,409
964,596; 3261,965;   -1,000;    2,227
965,148; 3120,692;   -1,000;    1,773
965,700; 3039,237;    1,091;   -0,227
966,253; 3177,419;   -0,636;    0,318
966,805; 3015,237;   -2,273;    0,773
967,357; 3067,419;    1,091;   -1,500
967,909; 3027,056;    0,455;   -1,227
968,461; 3123,874;    0,545;    3,136
969,013; 3064,237;   -0,182;   -0,864
969,565; 3153,056;   -0,455;   -1,136
970,117; 3215,601;   -0,364;    1,045
970,669; 3052,146;    0,182;   -0,136
971,220; 2927,056;   -0,455;   -1,500
971,772; 2846,874;   -0,636;   -0,318
972,324; 2969,965;    0,091;   -0,500
972,876; 2894,692;    0,818;   -0,045
973,427; 3019,874;    1,909;   -1,045
973,979; 3002,237;   -0,727;   -2,500
974,530; 3036,965;    1,818;    1,318
975,082; 3055,146;   -0,545;    1,682
975,633; 2953,237;    1,091;    1,682
976,184; 3084,874;    0,909;    0,773
976,736; 2890,328;    0,091;    0,227
977,287; 2676,874;   -0,909;   -0,500
977,838; 2851,601;    0,909;   -0,318
978,389; 2919,146;   -1,000;   -0,500
978,940; 2784,874;    0,545;   -0,409
979,491; 2815,692;    0,091;   -0,500
980,042; 2781,056;    0,182;    3,045
980,593; 2840,601;   -2,545;    0,227
981,144; 2888,237;    2,545;   -0,500
981,695; 2852,056;    1,455;    1,500
982,246; 2826,237;   -0,273;    1,045
982,797; 2987,419;   -1,727;    0,682
983,347; 3093,328;    0,364;    0,591
983,898; 3229,328;    3,091;    0,409
984,449; 3054,419;    2,182;    0,773
984,999; 2979,783;    1,455;   -1,136
985,550; 2778,783;    0,182;   -0,318
986,100; 2812,146;   -0,455;   -0,318
986,651; 2841,237;   -0,818;    0,045
987,201; 2821,419;   -1,000;   -0,591
987,751; 2872,419;    0,818;    2,864
988,302; 2862,692;    2,636;    1,500
988,852; 2910,783;    0,455;   -1,136
989,402; 2938,601;    0,091;    0,682
989,952; 2858,237;   -2,182;    0,864
990,502; 2968,328;   -0,091;    0,682
991,052; 2940,510;   -0,727;    0,045
991,602; 2815,056;   -2,909;    1,318
992,152; 2811,056;    0,455;    0,682
992,702; 2792,146;    1,364;   -0,045
993,252; 2694,419;   -3,000;   -0,500
993,802; 2782,146;   -0,273;    1,318
994,352; 3020,965;   -1,545;    1,136
994,901; 3121,510;   -0,182;    3,227
995,451; 3023,783;   -0,182;    0,318
996,000; 3103,601;    1,636;    0,318
996,550; 2829,419;    2,273;    0,227
997,100; 2825,328;    1,273;   -0,045
997,649; 3111,874;    2,182;    0,955
998,198; 2748,692;    1,727;   -1,500
998,748; 2950,601;    1,091;   -2,318
999,297; 2852,510;   -0,818;   -0,409
999,846; 2912,237;    1,000;   -0,773
1000,395; 2958,419;   -0,818;    0,500
1000,945; 2907,419;    1,818;   -0,773
1001,494; 2986,237;    2,364;    0,682
1002,043; 2987,056;    4,636;    0,864
1002,592; 2826,965;   -1,091;    1,955
1003,141; 2989,510;   -0,455;   -0,682
1003,690; 2849,965;    1,727;    0,500
1004,238; 2913,783;    1,455;   -0,045
1004,787; 2570,510;    1,364;    1,227
1005,336; 2799,146;    0,364;    0,682
1005,885; 2936,965;    1,364;   -2,773
1006,433; 3066,692;    0,545;    0,955
1006,982; 3137,328;    0,455;    1,682
1007,531; 3041,419;   -1,818;   -0,227
1008,079; 2987,056;   -2,273;    0,500
1008,627; 3138,783;   -1,455;    0,409
1009,176; 2874,056;    0,000;   -1,955
1009,724; 2898,237;    1,091;    0,864
1010,273; 2980,510;    1,273;    0,500
1010,821; 3085,874;    0,091;    1,409
1011,369; 2838,965;   -1,364;    1,318
1011,917; 2794,328;   -1,364;   -0,591
1012,465; 3078,692;    1,273;   -1,591
1013,013; 3205,510;    2,091;   -1,682
1013,561; 3075,237;    0,455;   -0,773
1014,109; 3127,874;   -1,909;    1,682
1014,657; 3020,601;    0,364;    0,591
1015,205; 3139,783;    1,636;   -0,955
1015,753; 3158,692;   -0,545;   -1,409
1016,301; 3200,783;   -2,636;    3,045
1016,848; 3194,328;   -1,273;    0,409
1017,396; 3239,056;    2,545;    0,045
1017,944; 3359,783;    1,182;    1,864
1018,491; 3131,419;    0,273;    1,409
1019,039; 3265,965;    0,455;    0,591
1019,586; 3209,510;   -1,364;    1,682
1020,134; 3295,419;    0,455;    1,500
1020,681; 3313,510;    0,182;   -1,136
1021,228; 3322,601;    2,909;   -2,227
1021,776; 3154,056;    1,182;   -1,136
1022,323; 3383,601;    0,455;    0,773
1022,870; 3315,874;   -1,000;   -0,045
1023,417; 3230,601;    2,636;    1,864
1023,964; 3349,874;    2,636;    1,227
1024,511; 3196,510;    1,000;    0,773
1025,058; 2999,692;    3,182;   -0,045
1025,605; 3057,510;   -2,273;    3,136
1026,152; 3264,237;    1,727;   -0,591
1026,699; 3007,237;    1,818;    1,318
1027,245; 3171,510;   -0,091;    0,318
1027,792; 3367,328;   -1,000;    1,409
1028,339; 3267,965;    2,364;   -0,045
1028,885; 3111,237;    1,000;   -0,227
1029,432; 3045,056;   -0,091;    0,227
1029,978; 3107,965;   -1,000;   -1,591
1030,525; 3016,328;    1,000;    0,409
1031,071; 3269,965;   -1,364;    1,136
1031,618; 3359,419;    0,364;    1,682
1032,164; 3155,692;   -0,091;    3,045
1032,710; 3186,874;    1,636;   -1,500
1033,256; 3121,510;   -0,636;   -0,136
1033,803; 3113,237;   -0,545;    1,500
1034,349; 2845,692;   -1,364;    0,136
1034,895; 3001,056;    0,000;   -0,318
1035,441; 2960,328;   -0,818;    0,318
1035,987; 2964,965;   -2,364;   -0,682
1036,533; 2977,965;   -1,455;   -0,955
1037,078; 3184,783;    1,455;    1,682
1037,624; 3005,601;    2,455;   -0,955
1038,170; 3025,601;    0,455;   -0,318
1038,716; 2923,419;    1,636;   -0,409
1039,261; 2827,692;   -2,273;   -0,773
1039,807; 2780,692;   -0,091;    3,409
1040,352; 2844,510;   -1,909;   -0,318
1040,898; 2883,328;   -1,545;   -0,682
1041,443; 2799,601;   -1,455;   -2,591
1041,989; 2828,692;    1,091;    1,591
1042,534; 2709,056;   -0,364;    2,591
1043,079; 2817,328;    2,909;    0,955
1043,625; 2612,965;    1,818;    0,500
1044,170; 2661,056;   -1,364;    1,045
1044,715; 2902,237;    2,455;    0,955
1045,260; 2743,601;    2,182;   -0,955
1045,805; 2788,692;    1,182;   -0,591
1046,350; 2719,692;    1,364;   -0,409
1046,895; 2673,237;    2,909;    1,591
1047,440; 2623,056;    5,364;    0,409
1047,985; 2527,237;    2,818;   -0,955
1048,530; 2429,965;    1,545;    1,227
1049,074; 2522,874;    0,000;    0,318
1049,619; 2492,510;   -1,364;    1,955
1050,164; 2274,874;    0,455;    0,227
1050,708; 2342,146;   -0,455;    0,045
1051,253; 2700,510;    1,273;   -2,227
1051,797; 2412,237;    0,818;   -1,318
1052,342; 2424,056;   -1,182;    1,045
1052,886; 2403,237;    0,364;   -1,409
1053,430; 2289,965;   -1,364;    0,136
1053,975; 2324,692;   -0,818;   -0,318
1054,519; 2301,328;   -0,727;    3,227
1055,063; 2297,419;    0,909;    1,318
1055,607; 2180,328;   -0,182;    0,227
1056,151; 2220,510;    2,909;    1,682
1056,695; 2148,601;    2,273;   -1,136
1057,239; 2223,601;   -1,727;   -0,682
1057,783; 2222,874;    0,818;   -1,500
1058,327; 2155,874;    0,000;    1,409
1058,871; 2380,874;   -0,545;    1,318
1059,415; 2088,601;   -0,818;   -0,045
1059,958; 2361,056;    1,455;    2,591
1060,502; 2070,146;   -1,000;   -0,773
1061,046; 1987,056;    0,364;   -0,955
1061,589; 1980,692;   -3,000;   -1,136
1062,133; 1868,146;   -1,273;    1,864
1062,676; 1802,237;    1,182;    0,864
1063,220; 1798,692;    1,091;    0,500
1063,763; 1809,965;    0,909;    1,136
1064,306; 1897,146;   -0,909;    1,864
1064,849; 1780,419;   -0,909;    0,591
1065,393; 1791,146;    2,000;   -1,500
1065,936; 1877,692;    0,182;   -0,409
1066,479; 1792,237;   -1,455;    1,318
1067,022; 1811,146;   -0,273;   -0,227
1067,565; 1708,510;   -0,091;   -1,318
1068,108; 1730,146;    0,727;   -0,591
1068,651; 1707,237;   -0,636;    1,409
1069,194; 1631,056;   -0,455;   -1,682
1069,736; 1636,874;   -1,273;    0,955
1070,279; 1615,692;   -1,364;   -0,500
1070,822; 1662,146;   -2,000;   -0,318
1071,364; 1742,510;   -0,364;    1,318
1071,907; 1571,783;   -0,727;    3,227
1072,450; 1476,601;    0,000;   -0,045
1072,992; 1477,692;   -0,273;    3,136
1073,535; 1619,601;    2,091;    2,136
1074,077; 1416,146;   -0,727;    2,045
1074,619; 1372,237;   -1,364;    0,591
1075,161; 1407,874;   -1,091;    1,500
1075,704; 1599,056;    1,545;    1,227
1076,246; 1393,419;   -0,182;    0,682
1076,788; 1313,146;   -0,364;    1,773
1077,330; 1390,419;    1,273;    2,136
1077,872; 1347,056;    0,909;    0,955
1078,414; 1559,146;    2,727;    0,773
1078,956; 1305,056;    1,273;   -0,227
1079,498; 1578,692;    1,636;    0,318
1080,040; 1274,783;    1,909;   -1,318
1080,581; 1226,601;    1,636;   -0,318
1081,123; 1152,692;    0,091;   -0,773
1081,665; 1192,783;   -1,182;   -0,955
1082,206; 1488,510;    1,364;   -0,500
1082,748; 1340,692;    0,727;    2,045
1083,289; 1239,783;   -2,000;    1,318
1083,831; 1135,056;   -0,545;    0,227
1084,372; 1169,237;    0,000;    0,591
1084,913; 1171,146;    1,091;    0,864
1085,455; 1136,510;   -1,909;   -2,045
1085,996; 1110,874;   -2,273;    0,136
1086,537; 1135,601;   -0,091;    0,864
1087,078; 1167,783;   -0,909;   -2,136
1087,619; 1199,419;   -1,273;    0,227
1088,160; 1121,601;    0,000;    1,318
1088,701; 1115,783;   -1,091;    0,682
1089,242; 1060,965;    1,364;   -2,227
1089,783; 1153,601;   -0,273;    1,409
1090,324; 1104,965;    0,455;    0,682
1090,865; 1003,692;    2,727;   -0,409
1091,405;  961,601;    0,727;    2,227
1091,946;  991,146;    0,182;   -0,955
1092,487;  914,056;    0,818;   -1,409
1093,027; 1079,965;   -1,364;   -1,500
1093,568;  927,692;   -0,364;    1,227
1094,108; 1033,419;    0,273;    1,773
1094,649;  975,510;   -1,182;    0,136
1095,189;  916,146;   -0,636;   -0,682
1095,729;  855,328;   -0,091;    0,955
1096,269;  863,419;    0,727;   -0,955
1096,810; 1167,783;   -1,364;    0,500
1097,350;  995,601;    1,364;   -0,773
1097,890;  903,783;    0,364;    1,227
1098,430; 1139,237;    2,364;    2,864
1098,970; 1024,601;    2,182;    1,682
1099,510;  891,056;    0,545;   -2,318
1100,050;  821,237;    1,000;   -1,591
1100,589;  782,056;   -0,727;   -0,318
1101,129;  905,874;    0,818;   -0,955
1101,669; 1050,783;    1,727;    2,136
1102,209;  882,328;   -0,091;    2,227
1102,748;  836,328;    0,000;    0,955
1103,288;  833,056;    1,273;   -1,227
1103,827;  863,874;    3,091;   -2,227
1104,367;  737,510;   -0,091;   -2,409
1104,906;  704,965;    1,364;   -1,136
1105,445;  775,419;    0,636;   -1,136
1105,985;  714,783;   -0,727;    1,500
1106,524;  759,692;   -1,727;   -0,682
1107,063;  735,783;   -2,727;    1,409
1107,602;  714,419;   -1,909;   -1,500
1108,141;  632,692;   -1,909;    1,500
1108,680;  733,601;   -3,455;   -0,591
1109,219;  675,328;   -0,909;   -0,500
1109,758;  668,328;    0,455;    0,682
1110,297;  648,056;    1,000;   -0,682
1110,836;  605,237;   -0,727;    0,955
1111,375;  760,237;   -2,545;    0,409
1111,913;  758,237;   -1,000;    0,773
1112,452;  698,510;   -0,273;    0,136
1112,991;  587,328;    1,091;    1,955
1113,529;  549,692;   -0,818;   -0,045
1114,068;  614,874;   -0,273;    2,955
1114,606;  513,056;   -0,364;   -0,955
1115,144;  676,510;   -1,273;    1,045
1115,683;  617,783;   -0,727;    0,318
1116,221;  662,783;   -0,455;   -0,864
1116,759;  574,874;    0,636;   -0,864
1117,297;  763,874;    0,000;    1,864
1117,836;  580,783;   -2,182;   -1,227
1118,374;  586,783;    0,182;   -0,682
1118,912;  515,510;    0,909;    2,682
1119,450;  504,146;    1,000;    0,864
1119,988;  560,874;    1,545;    2,136
1120,525; 1017,237;    5,091;    3,318
1121,063;  726,783;    1,182;    1,864
1121,601;  532,692;   -0,909;   -1,227
1122,139;  481,419;   -0,727;   -2,045
1122,676;  679,146;   -0,727;    2,773
1123,214;  612,692;   -1,182;    4,409
1123,751;  424,510;    1,727;    2,227
1124,289;  549,510;   -0,091;   -0,409
1124,826;  420,237;    1,727;    0,227
1125,364;  349,146;    1,727;   -0,955
1125,901;  535,510;    1,182;    1,227
1126,438;  644,692;    0,818;    0,955
1126,975;  387,965;   -0,727;   -0,773
1127,513;  447,874;    0,273;    2,136
1128,050;  350,601;    1,636;   -0,682
1128,587;  453,692;    2,000;   -0,227
1129,124;  492,510;    0,091;    1,318
1129,661;  353,965;    0,273;    0,227
1130,198;  517,419;    1,636;    0,773
1130,734;  453,601;    0,182;    1,409
1131,271;  318,510;   -0,909;    0,864
1131,808;  491,510;    2,909;    3,045
1132,345;  366,601;    1,545;    0,318
1132,881;  248,965;   -1,545;   -1,864
1133,418;  387,419;    0,727;   -1,136
1133,954;  322,237;    2,455;   -2,682
1134,491;  391,328;    1,364;   -0,773
1135,027;  293,601;    2,364;    0,864
1135,564;  388,783;    0,273;    2,955
1136,100;  369,146;    0,364;    2,136
1136,636;  257,692;   -1,273;   -1,045
1137,172;  355,874;    0,000;   -1,045
1137,708;  284,601;   -1,364;   -1,045
1138,245;  278,601;    1,273;   -1,227
1138,781;  231,874;    1,091;   -3,318
1139,317;  299,328;    1,273;   -1,409
1139,852;  279,056;    3,091;    0,136
1140,388;  392,237;   -1,182;   -0,409
1140,924;  281,146;   -1,091;   -2,227
1141,460;  226,328;   -1,636;    0,136
1141,996;  160,601;   -1,364;    2,682
1142,531;  201,328;    1,364;    3,318
1143,067;  418,419;    1,182;    1,045
1143,602;  471,692;   -0,091;   -0,318
1144,138;  325,328;   -2,636;    1,045
1144,673;  184,783;   -1,455;    1,409
1145,209;  257,783;   -1,909;   -0,318
1145,744;  175,146;   -0,727;    0,864
1146,279;  307,874;    1,818;   -0,136
1146,815;  232,965;    1,545;   -2,682
1147,350;  265,146;   -1,364;    0,045
1147,885;  177,783;   -0,818;   -1,318
1148,420;  177,419;   -2,273;    0,773
1148,955;  166,874;   -1,727;    1,864
1149,490;  182,601;   -0,909;   -1,591
1150,025;  167,510;    0,455;   -1,773
1150,560;  277,146;    1,091;   -0,955
1151,094;  250,510;    1,455;   -0,591
1151,629;  254,874;    1,636;    0,864
1152,164;  181,692;    1,364;    1,318
1152,698;  144,419;   -0,182;   -0,136
1153,233;  105,601;    0,091;   -0,682
1153,767;  153,965;   -3,000;   -2,318
1154,302;  201,692;   -1,455;    1,773
1154,836;  199,056;   -0,455;   -2,136
1155,371;  249,056;   -1,364;    3,682
1155,905;  198,601;   -0,636;    1,682
1156,439;  169,328;   -0,636;   -0,500
1156,973;  202,237;    0,364;    0,318
1157,507;  137,237;   -0,364;    0,682
1158,042;  159,237;   -0,727;    1,045
1158,576;  204,510;    0,182;    1,773
1159,110;  193,874;   -0,818;    2,409
1159,643;  169,965;    0,636;   -0,045
1160,177;  107,601;   -1,545;    1,500

