
Integration time [ms]:   0,040
Averaging Nr. [scans]: 11
Smoothing Nr. [pixels]: 0
Data measured with spectrometer [name]: 7318044SP
Wave   ;Sample   ;Dark     ;Reference
[nm]   ;[counts] ;[counts] ;[counts] 

186,757;   28,705;   31,551;    1,318
187,357;   56,119;   22,551;    0,955
187,958;   24,201;   15,460;   -1,591
188,558;   76,420;    8,915;   -1,227
189,159;   45,773;    6,733;   -4,500
189,759;   22,462;    7,278;   -3,591
190,360;   12,533;    2,824;   -2,136
190,960;   54,078;    2,915;   -4,136
191,560;   62,788;    3,189;   -6,591
192,161;  301,492;    4,372;   -3,500
192,761;  149,691;    4,010;   -3,227
193,361;   92,972;    1,556;   -3,773
193,962;  143,944;    2,010;   -2,682
194,562;   70,257;    1,189;   -3,955
195,162;  101,936;   -2,448;   -2,227
195,762;  251,781;   -3,176;   -0,045
196,362;  205,217;    1,370;   -2,500
196,963;   73,626;    2,006;   -0,864
197,563;  140,880;    1,551;   -0,955
198,163;   89,216;    0,096;   -0,682
198,763;  104,691;    1,733;   -0,500
199,363;  208,767;    3,096;   -0,500
199,963;  172,052;    0,369;    0,409
200,563;  145,709;    2,823;   -1,409
201,163;  115,384;    3,277;   -0,227
201,763;  207,626;    3,732;    0,318
202,363;  140,921;    1,459;    1,500
202,963;  244,356;    1,459;    1,045
203,563;  349,049;    0,277;    0,500
204,162;  208,346;    2,096;   -1,864
204,762;  197,152;    0,550;    0,591
205,362;  170,107;    3,004;    1,955
205,962;  264,832;    3,096;    1,955
206,562;  267,358;    1,823;    2,318
207,161;  237,913;   -0,087;    0,318
207,761;  387,481;    1,277;    2,409
208,361;  268,449;   -0,268;    1,409
208,960;  365,392;    0,459;    1,500
209,560;  443,443;    1,277;    1,591
210,160;  429,085;    0,550;    1,864
210,759;  379,148;    4,186;    1,227
211,359;  388,443;    1,459;    1,045
211,958;  649,194;    1,277;    2,045
212,558;  742,703;    1,732;    1,864
213,157;  582,873;    1,822;    1,500
213,757; 1024,206;    3,822;   -0,227
214,356;  717,051;    1,277;   -0,409
214,956; 1056,570;    3,095;    0,409
215,555;  684,146;    2,095;    2,136
216,154;  630,633;   -2,723;   -0,591
216,754;  640,348;    0,277;    0,773
217,353;  765,461;   -0,268;   -1,045
217,952;  629,241;   -0,178;    0,318
218,552;  869,247;    1,368;   -0,773
219,151;  774,352;    0,277;    0,955
219,750;  766,714;    0,004;   -0,227
220,349;  896,154;   -0,451;    1,045
220,948;  973,330;   -1,360;    1,136
221,548;  987,574;    0,913;    1,227
222,147; 1089,940;   -0,087;   -0,409
222,746; 1378,857;   -0,451;   -0,955
223,345; 1252,160;    0,731;    0,500
223,944; 1271,558;   -0,451;    0,773
224,543; 1443,934;    1,004;   -1,409
225,142; 1553,067;    0,094;    0,136
225,741; 1463,932;   -0,814;    1,045
226,340; 1480,176;   -0,451;   -0,955
226,939; 1930,837;   -0,996;   -0,136
227,538; 1880,310;   -0,360;   -0,773
228,137; 2041,574;   -0,814;    0,864
228,735; 2178,477;   -0,541;    1,227
229,334; 1946,829;   -0,905;   -0,227
229,933; 2321,906;    0,459;    0,591
230,532; 2423,924;    1,186;   -0,409
231,131; 2475,998;    1,732;    0,318
231,729; 2600,239;   -2,450;   -2,318
232,328; 2710,825;   -0,723;   -1,500
232,927; 2791,293;    1,004;   -0,500
233,525; 2940,853;    3,640;    0,045
234,124; 3165,528;    2,368;   -1,591
234,723; 3174,940;    0,913;   -1,045
235,321; 3313,641;    2,277;    0,136
235,920; 3547,881;    1,186;   -1,227
236,518; 3805,855;    3,459;    0,318
237,117; 3997,184;    0,004;   -0,227
237,715; 4159,439;    0,640;   -0,500
238,314; 4186,215;   -0,087;   -2,318
238,912; 4293,792;   -0,723;   -1,409
239,510; 4356,859;    0,459;   -1,227
240,109; 4533,913;    0,004;    3,773
240,707; 4572,002;   -0,996;    1,227
241,305; 4948,986;    0,550;    0,136
241,904; 5147,532;   -0,178;   -2,045
242,502; 5113,277;   -0,632;   -0,227
243,100; 5088,518;   -0,087;   -0,955
243,698; 5328,863;    0,732;    1,682
244,297; 5508,653;   -0,632;    0,682
244,895; 5356,447;   -0,269;   -2,318
245,493; 5689,112;    2,186;   -0,591
246,091; 5730,601;    1,368;   -1,318
246,689; 5730,776;    1,004;    0,591
247,287; 5907,465;    0,822;   -1,136
247,885; 6183,496;   -1,451;    1,227
248,483; 6324,245;    1,822;   -0,500
249,081; 6432,942;    0,185;    1,591
249,679; 6570,496;   -0,178;    1,682
250,277; 6846,180;   -1,723;    0,864
250,875; 6845,524;   -1,087;   -1,045
251,473; 6908,314;   -1,178;    0,500
252,071; 7096,881;    1,459;    1,045
252,669; 7273,467;   -1,814;    0,318
253,267; 7541,401;   -0,087;    0,773
253,864; 7482,556;   -0,360;    0,682
254,462; 7354,841;    1,640;    1,591
255,060; 7345,356;   -0,269;    1,318
255,658; 7685,104;    0,822;   -0,136
256,255; 8067,914;    0,186;   -2,045
256,853; 7924,405;   -0,269;    1,409
257,451; 7939,100;    0,822;    1,864
258,048; 8194,796;    1,822;    1,864
258,646; 8024,471;    1,731;   -1,045
259,243; 8215,132;   -0,087;    2,227
259,841; 8276,623;   -0,814;    0,318
260,438; 8149,924;   -0,087;    0,864
261,036; 8879,782;   -1,905;    1,409
261,633; 8777,298;   -0,087;    2,227
262,231; 8554,390;    2,731;   -0,045
262,828; 8621,467;   -0,905;    1,136
263,425; 8661,784;    0,913;   -0,591
264,023; 8926,083;    0,186;    0,045
264,620; 8466,459;   -0,360;   -0,318
265,217; 8809,655;   -2,087;    3,136
265,815; 8968,475;   -1,905;    2,136
266,412; 8737,667;    0,731;    0,136
267,009; 8767,275;   -1,451;    0,773
267,606; 8674,199;    0,822;   -0,955
268,203; 8696,112;   -0,269;   -0,591
268,801; 8980,494;    1,731;    0,591
269,398; 9288,819;   -0,360;    2,500
269,995; 9243,285;    0,277;    1,591
270,592; 9040,679;   -0,632;   -0,500
271,189; 9217,942;    0,186;    0,409
271,786; 9342,368;   -0,632;    1,227
272,383; 9152,522;   -1,087;    0,227
272,980; 9380,801;    0,277;    0,318
273,577; 9873,697;    0,004;    1,227
274,174; 9429,118;    0,822;    2,591
274,771; 9399,104;   -0,814;   -0,773
275,367; 9520,146;    2,277;    1,409
275,964; 9504,465;    0,731;   -0,500
276,561; 9613,031;    1,549;   -1,045
277,158; 9837,405;    0,095;   -1,773
277,755; 9966,669;    2,185;    0,409
278,351; 9360,647;   -0,451;   -1,500
278,948; 9682,358;   -0,815;    0,045
279,545; 9687,409;   -1,360;    2,318
280,141;10297,893;   -1,723;   -2,045
280,738;10163,091;   -0,451;   -0,136
281,334;10427,546;   -1,633;    0,591
281,931; 9811,805;   -0,087;   -1,318
282,528; 9901,625;    0,822;   -0,500
283,124;10651,568;   -1,087;   -0,500
283,721;10566,144;   -0,451;    1,409
284,317;10346,694;    0,185;    2,500
284,913;10913,670;   -1,360;    0,591
285,510;11111,124;    0,640;   -0,318
286,106;11120,467;   -2,269;   -0,955
286,703;10720,581;   -0,360;    1,955
287,299;10930,077;   -1,451;   -0,591
287,895;11161,401;    0,822;   -1,045
288,491;11733,819;    0,186;    2,136
289,088;11478,841;   -2,360;    2,409
289,684;11499,831;   -1,723;    1,500
290,280;11494,421;    0,368;    0,682
290,876;11595,603;    1,822;    5,500
291,472;11484,528;    1,276;    2,227
292,068;11594,389;    1,367;    0,227
292,665;11310,532;    2,095;    0,773
293,261;10911,500;    0,276;    2,136
293,857;11296,590;    2,913;    2,136
294,453;11275,354;    3,550;    0,955
295,049;11145,085;   -0,268;    1,955
295,644;11176,768;    0,095;    0,136
296,240;11075,269;   -0,905;   -0,136
296,836;11128,408;   -0,995;    0,318
297,432;11417,786;    1,096;   -0,500
298,028;11419,669;    0,732;    0,773
298,624;11834,790;    1,459;    1,864
299,220;12139,249;    2,368;    0,591
299,815;11810,931;    1,005;   -0,409
300,411;11611,994;    0,914;    1,773
301,007;11627,923;    1,368;    0,227
301,602;11701,479;   -0,541;   -2,318
302,198;11846,044;    0,732;   -0,773
302,794;12179,289;    1,187;   -0,500
303,389;12316,762;   -1,177;    1,045
303,985;12386,020;    0,550;    1,409
304,580;12355,283;    1,459;    1,591
305,176;12328,689;   -3,086;    0,136
305,771;12246,412;   -1,268;   -1,227
306,367;12064,059;    4,095;    0,136
306,962;12452,206;    0,641;    1,500
307,558;12175,778;   -0,450;    0,136
308,153;12117,059;    1,095;   -1,136
308,748;12351,172;   -0,814;    1,682
309,344;12300,818;   -0,632;   -1,318
309,939;12373,523;   -1,905;   -1,318
310,534;12699,762;   -0,086;   -1,682
311,130;12613,424;    0,459;   -2,500
311,725;12373,018;    1,004;   -0,500
312,320;12701,459;    2,459;    0,045
312,915;12522,586;    1,459;   -1,045
313,510;12562,239;    1,550;   -0,500
314,105;13136,675;    1,096;    1,409
314,700;12549,178;   -3,086;   -1,045
315,295;12139,737;   -0,904;    0,045
315,890;11720,285;    1,277;    0,864
316,485;12081,667;   -0,359;   -0,318
317,080;12212,218;   -3,086;    1,591
317,675;12751,647;    2,005;   -0,682
318,270;12142,438;    5,550;    3,318
318,865;12134,796;    3,278;    3,045
319,460;11982,628;   -0,904;    0,591
320,055;12292,800;   -0,541;   -1,227
320,650;11923,737;   -1,995;   -0,591
321,244;11990,648;   -0,177;   -1,409
321,839;12935,651;   -1,541;   -0,227
322,434;12820,186;   -1,086;   -1,591
323,029;12412,046;    1,732;    1,591
323,623;12231,535;    1,550;    0,773
324,218;11964,095;    2,368;    1,409
324,812;11886,204;    1,096;    1,591
325,407;11728,719;   -0,814;    2,045
326,002;11594,881;    0,277;   -0,409
326,596;11903,523;    0,914;    1,318
327,191;12133,305;    0,823;   -1,045
327,785;11714,614;   -0,813;   -0,227
328,379;11934,428;    1,368;    0,136
328,974;11729,279;    0,914;   -3,955
329,568;11928,606;    0,186;   -2,409
330,163;11749,455;    2,096;    1,045
330,757;12123,562;    2,459;    1,591
331,351;11418,255;    0,459;    0,682
331,945;11735,192;    0,914;    1,409
332,540;11339,897;   -1,723;   -0,591
333,134;11471,905;   -1,086;    0,773
333,728;11749,592;    0,005;    0,318
334,322;12089,903;   -1,177;   -0,864
334,916;11370,758;    0,277;    0,955
335,510;11691,457;   -0,450;   -0,136
336,105;11945,214;   -1,086;    1,591
336,699;11648,188;   -1,086;    0,591
337,293;11588,804;   -1,723;    0,318
337,887;11760,218;   -2,723;    1,955
338,481;11839,287;    0,459;    0,591
339,074;11973,752;   -0,359;    2,682
339,668;11797,325;   -1,632;    1,227
340,262;12066,125;    1,732;    3,227
340,856;11577,877;    1,822;   -0,682
341,450;10975,808;    1,004;    1,864
342,044;11884,622;    1,459;    0,136
342,637;11630,641;    0,913;   -2,136
343,231;11493,801;   -2,360;    0,682
343,825;11440,000;   -1,086;   -0,591
344,419;11413,319;   -1,995;    0,500
345,012;11179,842;    2,459;    4,045
345,606;11215,501;    4,641;    1,591
346,199;11065,091;   -1,813;   -0,227
346,793;10568,119;    1,914;    2,045
347,386;10742,438;   -0,813;   -1,136
347,980;10756,260;   -0,268;   -0,045
348,573;10553,586;    2,278;    0,409
349,167;10210,444;    5,278;    4,773
349,760;10565,852;    2,914;    2,682
350,354;10545,508;   -0,813;    1,136
350,947;10253,486;    1,096;    1,682
351,540; 9932,688;   -0,358;   -1,409
352,134; 9886,066;    1,096;    1,136
352,727; 9992,503;   -0,086;    1,136
353,320; 9769,220;    0,005;    0,591
353,913; 9642,561;   -1,995;    1,864
354,507; 9825,501;    0,823;   -1,227
355,100; 9821,737;    0,460;    0,864
355,693; 9044,513;    2,005;    2,409
356,286; 9080,242;    0,823;    2,773
356,879; 9444,501;   -0,722;    1,227
357,472; 9059,460;   -0,904;    1,500
358,065; 9221,876;   -0,722;    2,500
358,658; 9180,495;   -0,540;    2,318
359,251; 8821,416;   -1,631;   -0,591
359,844; 8308,585;   -1,904;   -1,136
360,437; 8483,171;   -2,995;    0,045
361,030; 8748,384;    1,369;   -0,682
361,623; 8322,979;    2,824;    0,318
362,215; 8360,618;   -0,086;    2,045
362,808; 8227,472;   -2,358;   -1,682
363,401; 8418,898;   -2,449;    0,136
363,994; 8143,084;   -0,631;   -1,500
364,586; 8071,941;    0,824;   -1,500
365,179; 8258,773;   -0,449;   -1,136
365,772; 7729,335;   -1,995;    2,045
366,364; 8099,775;    1,915;   -3,227
366,957; 8274,950;    2,279;   -0,045
367,549; 8263,092;    2,188;   -0,864
368,142; 7928,031;    1,825;   -1,500
368,734; 8141,760;    0,734;   -2,136
369,327; 8087,009;    1,643;   -0,500
369,919; 8020,958;   -1,538;    0,409
370,512; 7793,608;   -1,083;   -0,500
371,104; 7546,236;   -0,901;    1,591
371,696; 7710,195;    1,191;   -0,955
372,289; 7800,690;    0,373;    1,136
372,881; 7960,790;   -2,080;    1,318
373,473; 7889,953;   -2,170;    1,136
374,066; 7659,898;   -0,169;    0,500
374,658; 7502,424;    0,378;    1,136
375,250; 7886,562;    0,653;   -1,409
375,842; 7723,888;    0,473;   -0,045
376,434; 7604,588;   -0,435;   -0,409
377,026; 8182,338;    0,204;   -2,500
377,618; 8072,914;   -0,158;   -0,682
378,210; 7915,030;   -0,338;   -1,955
378,802; 7774,488;    0,754;   -0,591
379,394; 7709,998;    1,846;    0,682
379,986; 8329,462;    1,393;   -0,955
380,578; 8439,260;   -0,153;    0,773
381,170; 7744,426;   -0,972;    0,045
381,762; 7714,027;    0,755;    1,409
382,354; 7915,767;   -0,065;   -1,318
382,945; 8046,376;   -2,976;    0,318
383,537; 8204,529;   -2,705;   -1,955
384,129; 8212,148;   -2,160;   -1,136
384,721; 8388,280;   -0,252;    0,955
385,312; 8322,185;   -0,161;   -0,955
385,904; 8436,062;   -2,706;    1,591
386,496; 7795,674;   -0,979;    1,045
387,087; 7895,304;    1,022;    2,500
387,679; 7967,309;   -1,160;    0,045
388,270; 8099,079;    2,840;    2,045
388,862; 8240,208;    1,295;   -0,318
389,453; 8114,330;   -0,887;    1,045
390,045; 8382,843;   -0,705;   -2,682
390,636; 8307,828;    0,204;   -0,591
391,227; 8191,489;   -0,523;   -0,045
391,819; 8287,411;    0,204;    0,773
392,410; 8366,433;    1,022;    0,045
393,001; 8280,078;   -0,979;   -1,591
393,593; 8583,201;    1,930;   -0,045
394,184; 8443,817;    1,385;   -0,409
394,775; 8346,946;    1,839;    2,136
395,366; 8557,878;    1,385;    0,773
395,957; 8542,659;    0,113;    0,136
396,548; 8867,635;   -0,342;    2,682
397,139; 9178,211;   -2,433;    0,591
397,730; 8917,924;   -1,888;    0,955
398,321; 8968,524;   -1,252;    0,955
398,912; 9005,241;   -0,615;    0,136
399,503; 9069,989;   -3,524;   -1,409
400,094; 8479,300;    0,294;    1,682
400,685; 8370,532;   -0,433;    0,045
401,276; 8459,029;    0,930;   -0,955
401,867; 8787,963;   -0,888;    0,773
402,458; 8873,712;   -2,251;   -2,318
403,048; 8840,732;    1,112;    0,591
403,639; 8465,544;    0,840;    0,864
404,230; 8678,686;    2,476;    0,318
404,821; 8632,898;   -0,615;    0,045
405,411; 8772,312;    1,203;   -2,591
406,002; 8344,868;   -1,252;   -1,136
406,592; 8191,292;    2,294;    0,045
407,183; 8478,252;    0,566;   -1,500
407,774; 8421,504;    3,475;   -0,136
408,364; 8773,781;    0,930;    0,409
408,954; 8350,179;    0,384;    1,227
409,545; 8411,524;    1,021;    1,045
410,135; 7973,422;    1,293;    0,500
410,726; 8117,757;    1,838;    0,318
411,316; 8501,234;    0,111;    0,773
411,906; 8168,763;   -0,253;   -0,409
412,497; 7665,207;   -1,070;   -0,045
413,087; 8269,557;   -1,980;   -0,227
413,677; 8669,335;   -0,707;    3,864
414,267; 8502,733;    0,656;    1,409
414,857; 8529,951;   -2,980;    4,227
415,448; 8787,074;    0,839;    0,500
416,038; 8509,591;    0,020;   -0,591
416,628; 8488,862;   -0,889;    0,409
417,218; 7928,188;    0,565;    3,318
417,808; 8184,224;    0,202;   -0,409
418,398; 8658,990;    0,020;    2,682
418,988; 8666,624;    2,020;    0,591
419,578; 8917,884;   -0,707;    1,409
420,168; 9259,684;   -1,343;   -0,955
420,757; 8824,106;   -1,343;   -1,500
421,347; 8534,939;    0,111;   -0,227
421,937; 8701,317;    2,292;    1,409
422,527; 8619,850;    0,838;   -0,773
423,116; 8428,834;   -0,253;   -0,045
423,706; 8814,335;   -1,889;    0,318
424,296; 8804,232;    1,384;    0,682
424,885; 9224,323;   -0,071;   -3,045
425,475; 9508,141;    1,474;   -2,864
426,065; 9473,798;   -0,980;   -0,318
426,654; 9049,475;   -0,435;   -0,318
427,244; 9132,743;    0,020;    1,409
427,833; 8626,519;    1,383;   -0,500
428,423; 9106,285;   -0,526;    1,136
429,012; 9891,630;   -0,344;   -1,136
429,601; 9359,384;   -1,344;    0,136
430,191; 9616,350;    1,292;    4,318
430,780; 9245,719;   -0,344;   -0,409
431,369; 9145,299;    0,746;   -0,045
431,959; 9800,089;   -1,254;    0,500
432,548; 9610,140;   -1,163;   -0,045
433,137; 9734,849;   -1,254;   -1,318
433,726;10248,794;    0,292;    0,500
434,315; 9588,998;   -0,526;    2,409
434,905; 9710,364;   -1,254;    1,409
435,494; 9593,912;    0,746;    0,955
436,083;10076,792;   -0,981;   -0,955
436,672; 9984,501;    0,110;    0,500
437,261; 9514,603;    0,292;   -1,955
437,850; 9645,691;    1,383;    0,682
438,439; 9573,065;    3,291;    1,955
439,027; 9404,023;    3,655;    1,773
439,616; 9803,177;    2,927;    1,227
440,205; 9669,574;    0,200;   -2,136
440,794; 9726,389;    2,109;   -0,045
441,383;10054,235;   -1,346;   -0,591
441,971; 9899,847;   -2,436;    0,591
442,560; 9730,571;    0,563;   -1,773
443,149; 9507,768;    0,379;   -1,318
443,737; 9648,973;   -0,074;   -2,318
444,326; 9894,953;    0,018;    0,318
444,915; 9979,682;   -1,982;    0,864
445,503;10370,979;   -2,891;   -0,318
446,092; 9608,573;    0,382;    2,136
446,680;10190,027;    0,382;    0,318
447,269;10368,231;   -0,346;   -0,318
447,857;10124,898;    0,018;   -1,773
448,445;10266,155;    0,563;    1,318
449,034;10478,424;   -1,528;   -1,136
449,622;10630,884;   -1,073;    3,500
450,210; 9775,781;    2,017;    2,227
450,799;10345,642;    0,290;   -0,591
451,387;10298,996;    1,381;   -0,591
451,975; 9922,565;    2,654;    0,864
452,563;10045,242;    3,472;    2,318
453,151;10104,963;   -0,528;   -1,227
453,739;10010,361;   -1,347;    0,136
454,328; 9835,796;    2,381;   -2,136
454,916; 9546,471;    2,562;   -0,136
455,504; 9775,321;    1,017;    1,227
456,092; 9974,547;    0,017;   -1,591
456,679; 9954,533;    1,472;    0,682
457,267; 9839,109;    4,017;    1,045
457,855;10024,968;    1,017;    1,409
458,443; 9780,477;   -0,165;    1,682
459,031; 9890,295;    0,108;    2,409
459,619;10361,275;   -1,801;    2,864
460,206;10530,907;    0,835;    2,045
460,794;10561,115;   -2,983;   -0,227
461,382;10837,420;   -0,529;   -0,864
461,970;10401,174;    1,198;    1,864
462,557;10440,740;   -0,711;   -0,682
463,145;10642,277;   -3,165;   -1,682
463,732;10786,289;    2,016;   -1,045
464,320;10715,922;   -0,075;   -3,045
464,907;10376,289;    2,743;   -0,773
465,495;10260,639;    0,743;   -1,227
466,082;10416,663;   -1,984;   -0,045
466,670;10374,142;   -2,529;    1,227
467,257;10783,112;   -1,711;    2,045
467,844;10914,289;   -0,075;    0,045
468,432;10934,164;    0,834;    3,500
469,019;10466,574;    0,925;   -1,773
469,606;10957,536;    0,470;    3,682
470,193;10750,358;   -1,439;    0,227
470,780;10274,514;   -2,075;    0,864
471,368;10651,201;   -1,257;   -0,773
471,955;10491,692;    1,379;   -0,682
472,542;10083,791;    0,652;   -1,136
473,129;10322,150;   -0,166;    0,136
473,716;10055,712;    1,470;    0,591
474,303;10280,269;    0,652;   -0,864
474,890;10541,860;   -1,439;   -0,500
475,477;10558,724;   -1,621;    0,409
476,064;10432,173;    1,106;   -1,591
476,650;10381,470;    0,288;    0,318
477,237;10216,924;   -0,258;    0,955
477,824;10408,357;   -1,076;    0,864
478,411;10464,787;   -1,894;   -0,318
478,997;10630,381;    0,560;   -0,773
479,584;10712,531;    1,196;   -0,409
480,171;11449,003;   -0,440;   -0,773
480,757;11098,108;    2,651;    0,773
481,344;11388,710;    0,469;    0,409
481,931;10924,897;    1,105;    1,045
482,517;11907,327;   -1,258;    0,318
483,104;12450,498;    1,106;    2,864
483,690;12803,062;   -1,804;    0,045
484,276;13223,410;   -0,895;    0,227
484,863;12941,331;    2,469;    1,136
485,449;13574,610;   -0,077;    0,318
486,035;13555,666;   -1,986;   -0,136
486,622;13985,993;   -0,895;    0,045
487,208;13949,046;    1,378;    1,500
487,794;13817,012;    0,741;    0,318
488,380;13919,333;    0,105;   -1,409
488,967;13990,570;   -1,168;   -0,409
489,553;14070,868;   -1,895;   -1,409
490,139;14240,030;    1,559;    0,773
490,725;13679,424;    0,741;   -0,227
491,311;13221,452;    3,287;    3,045
491,897;12556,471;   -0,986;    1,500
492,483;12343,006;    0,105;    1,227
493,069;12047,917;    3,923;    0,864
493,655;12039,974;    1,650;    0,682
494,241;11960,366;    1,377;   -0,955
494,826;12386,408;    0,287;   -1,045
495,412;11847,895;    2,559;   -0,682
495,998;11987,840;   -0,805;   -0,318
496,584;12158,430;    0,377;    1,045
497,169;12135,647;    1,014;   -0,682
497,755;12064,378;    0,650;    1,227
498,341;12616,004;    0,559;    0,318
498,926;12218,342;    1,832;    1,955
499,512;12440,035;    1,286;    2,955
500,097;12579,738;    0,195;   -0,318
500,683;12508,029;   -0,350;    2,136
501,268;12856,982;   -0,169;   -0,955
501,854;12595,932;   -0,169;    1,227
502,439;12546,556;   -0,624;   -1,773
503,024;12758,948;    0,195;    0,500
503,610;12828,053;   -0,078;   -0,682
504,195;12843,879;    0,558;    1,955
504,780;12976,188;    2,922;    1,227
505,366;12762,606;    3,013;    2,864
505,951;12504,948;    0,740;    1,045
506,536;12515,126;   -3,260;   -3,682
507,121;12545,995;    0,285;   -0,318
507,706;13050,285;    2,376;    1,045
508,291;13460,227;    2,649;    1,136
508,876;12919,775;   -0,988;    2,591
509,461;12377,011;   -0,169;   -0,773
510,046;12791,655;    0,194;    0,318
510,631;13038,825;   -0,351;   -0,773
511,216;12727,514;    2,467;   -0,500
511,801;13096,657;   -0,442;    2,591
512,386;13411,932;    0,740;    0,500
512,971;13374,284;   -2,988;    0,955
513,555;12901,682;   -0,897;   -1,500
514,140;13681,666;   -0,442;   -3,136
514,725;13707,373;   -0,715;   -1,136
515,309;13831,882;   -0,533;    0,318
515,894;13279,298;   -0,624;   -2,227
516,479;13738,813;   -0,624;   -0,955
517,063;13560,577;    0,376;    1,227
517,648;13707,692;    1,012;   -1,136
518,232;13364,658;   -0,261;   -1,409
518,817;13695,365;   -0,079;    1,682
519,401;13916,751;    2,194;    0,591
519,985;13396,430;    1,103;    1,136
520,570;13287,662;    0,830;   -1,955
521,154;13611,169;    2,102;    0,591
521,738;13766,430;   -2,352;    2,409
522,323;14363,224;   -0,170;    1,682
522,907;14095,016;    0,466;   -0,136
523,491;13802,398;    0,557;    0,955
524,075;13759,923;    2,284;    0,591
524,659;13832,579;    1,466;    0,591
525,243;13302,999;    1,739;    0,409
525,827;13603,078;    0,648;   -0,045
526,411;14453,216;   -1,989;   -0,136
526,995;14657,244;   -0,352;    1,409
527,579;14271,559;   -0,443;   -1,045
528,163;14552,871;    0,375;   -1,500
528,747;14442,113;    2,466;   -0,773
529,331;14783,660;   -0,080;   -1,409
529,915;15021,188;    1,738;    0,955
530,499;14955,246;   -0,807;    1,227
531,082;14614,184;   -0,534;    1,591
531,666;14052,788;    1,374;    0,773
532,250;14764,820;    1,284;    2,682
532,833;15121,998;    0,920;    2,773
533,417;14978,133;   -1,807;    0,864
534,001;14978,917;    1,647;   -0,318
534,584;15670,622;    0,374;    0,500
535,168;15492,883;    0,465;    1,409
535,751;15549,008;    0,647;    0,045
536,334;15031,517;   -0,898;   -0,409
536,918;15640,986;    0,011;    1,591
537,501;15714,162;   -0,899;    1,318
538,085;15718,022;   -0,444;    1,045
538,668;15880,911;    0,829;    2,409
539,251;16187,164;    1,829;    3,773
539,834;16218,412;    0,101;    0,773
540,418;16134,705;   -1,990;    4,318
541,001;16252,170;   -0,990;    1,773
541,584;16295,423;    2,101;    2,227
542,167;15978,035;    1,374;    2,955
542,750;16097,394;    1,919;   -0,773
543,333;15721,471;    0,555;    2,136
543,916;16522,643;    0,192;    2,500
544,499;17128,671;   -1,354;    0,227
545,082;17138,021;    1,374;    3,591
545,665;17251,459;    1,919;    1,500
546,248;17616,017;    1,010;   -0,318
546,830;17259,136;   -0,445;    1,955
547,413;17668,152;    1,010;   -0,773
547,996;18206,744;    0,555;    0,500
548,579;17994,906;    0,919;    0,955
549,161;17818,164;    1,828;    2,682
549,744;17616,690;   -0,809;    0,409
550,326;18120,702;   -0,809;   -1,136
550,909;17832,936;    2,737;    0,591
551,492;18266,393;   -0,263;    0,227
552,074;18087,017;   -0,173;   -1,318
552,657;18618,355;    2,373;    0,045
553,239;18387,294;   -0,173;   -0,773
553,821;18351,809;   -1,082;    1,045
554,404;17845,953;    1,282;    1,136
554,986;18179,298;    0,464;    1,045
555,568;18814,783;    1,191;   -0,955
556,151;17999,581;    1,191;   -0,227
556,733;18245,359;   -0,264;   -0,864
557,315;18682,462;    0,100;    0,500
557,897;18512,496;    0,554;   -0,500
558,479;18627,359;   -1,991;    1,318
559,061;18746,268;   -0,719;   -0,864
559,643;19092,787;   -0,264;    0,045
560,225;19472,314;    1,645;    2,864
560,807;19495,333;    0,918;    0,318
561,389;18984,337;    0,554;    2,318
561,971;19728,840;    0,463;    2,136
562,553;19546,579;   -1,628;    1,591
563,135;19688,684;   -0,537;    1,136
563,717;19271,191;    3,372;    1,136
564,298;20000,830;    3,645;   -0,045
564,880;19706,695;    0,645;   -1,409
565,462;19892,876;    0,645;    1,318
566,043;21047,709;   -0,446;    2,318
566,625;20591,975;    1,918;    1,227
567,207;20473,266;    1,099;    1,682
567,788;21586,478;   -1,264;    1,500
568,370;22447,234;    1,917;   -0,500
568,951;22292,761;    0,190;    0,227
569,533;23166,864;   -0,628;   -0,500
570,114;23587,523;   -0,446;    0,682
570,695;24145,578;   -0,174;   -1,318
571,277;24656,650;   -0,265;   -1,682
571,858;25414,258;    2,008;   -1,136
572,439;26399,511;    1,554;   -1,045
573,021;26541,410;    2,099;   -2,773
573,602;27025,604;   -1,265;    0,318
574,183;27967,741;   -2,083;    2,227
574,764;28149,327;   -1,629;    0,409
575,345;28719,394;    0,917;   -0,136
575,926;29397,879;   -0,356;    0,136
576,507;29347,689;    1,099;   -0,227
577,088;30481,475;    3,099;    1,682
577,669;30505,558;    0,735;    1,955
578,250;31235,741;    0,644;   -1,045
578,831;31878,552;   -1,356;   -2,227
579,412;32131,083;   -0,810;    0,955
579,993;33102,796;    1,008;    0,227
580,573;33510,380;   -0,629;   -0,955
581,154;32473,505;    0,735;   -0,591
581,735;33321,337;    0,644;    0,773
582,315;32848,156;   -0,629;    2,136
582,896;33131,509;   -0,174;    1,227
583,477;32601,109;    0,189;    1,227
584,057;32780,764;    0,553;    0,955
584,638;33044,341;    2,553;    2,318
585,218;33001,479;   -0,538;    2,682
585,799;33221,190;    0,281;   -0,227
586,379;33194,838;    0,372;    1,591
586,959;32000,988;    0,735;    0,318
587,540;31305,073;   -0,629;    2,227
588,120;30787,911;    1,007;   -0,045
588,700;29751,077;    2,553;    2,136
589,281;29968,315;    0,462;   -0,955
589,861;29931,657;    0,099;   -1,682
590,441;29804,873;    2,371;   -2,682
591,021;28782,790;   -0,265;   -2,591
591,601;28963,192;   -0,537;    0,500
592,181;28999,291;   -0,719;   -0,773
592,761;28289,210;    0,007;    1,409
593,341;28207,859;   -0,901;    0,045
593,921;28164,988;   -0,265;    1,591
594,501;28053,111;   -0,538;    1,318
595,081;27928,099;    0,917;   -0,318
595,661;28249,042;   -1,447;    0,955
596,240;28793,042;   -0,537;    0,136
596,820;28384,414;    0,372;    1,955
597,400;28554,147;    2,008;    0,773
597,980;28808,026;    2,008;    1,045
598,559;28833,402;    2,735;   -0,227
599,139;28535,438;   -0,174;   -1,227
599,718;28469,893;   -0,174;   -0,409
600,298;28771,980;    0,735;    0,682
600,877;28908,135;    2,917;    1,409
601,457;29204,780;    2,281;    1,136
602,036;29115,458;    0,190;    2,045
602,616;29338,747;    0,644;    1,682
603,195;29671,410;   -0,355;    3,500
603,774;29184,596;   -0,901;    2,045
604,354;29090,212;    0,826;   -0,500
604,933;28572,537;    0,463;    1,864
605,512;28687,470;    3,554;    0,591
606,091;28720,153;   -0,537;    3,773
606,671;29578,117;    0,281;    0,773
607,250;28589,584;    1,644;    3,136
607,829;28898,717;    2,372;    3,227
608,408;28785,654;    1,190;    2,591
608,987;27771,103;    1,281;    3,409
609,566;28078,776;   -1,265;   -2,500
610,145;28176,276;   -1,082;    0,682
610,723;28588,060;    4,372;    6,864
611,302;27818,412;   -0,446;    1,682
611,881;27291,006;    5,008;   11,227
612,460;28120,173;    1,645;    3,955
613,039;28583,993;   -0,082;    2,045
613,617;27291,864;    1,736;    4,773
614,196;27496,842;    1,099;    1,227
614,775;27807,403;    1,009;    2,409
615,353;27859,395;    0,736;    0,864
615,932;27555,927;    0,100;    2,409
616,510;28133,943;    0,554;    0,591
617,089;27615,185;    7,100;   17,591
617,667;27342,205;    2,372;    6,136
618,246;27247,710;   -1,537;    1,318
618,824;27416,339;   -3,355;   -0,955
619,402;26947,436;   -2,900;   -1,773
619,981;27460,720;   -0,173;   -1,045
620,559;27306,997;    0,009;    1,682
621,137;26785,092;   -0,718;    1,864
621,715;26805,240;   -1,173;   -0,682
622,293;26735,872;   -0,537;   -0,773
622,871;27183,553;   -0,718;    0,500
623,450;26784,140;    0,373;   -0,864
624,028;26698,023;    0,191;   -0,955
624,606;26303,898;   -1,718;    1,682
625,183;26732,781;   -1,536;   -1,136
625,761;26350,593;    1,009;    1,136
626,339;26600,169;    1,373;    2,591
626,917;26981,375;   -0,172;   -0,045
627,495;27058,334;   -0,354;    1,318
628,073;26498,185;   -0,263;    2,864
628,650;26170,934;    0,100;    2,136
629,228;26570,967;    0,373;    4,409
629,806;25981,310;    2,282;    1,136
630,383;26291,447;    1,464;   -0,318
630,961;26043,706;    2,555;   -0,955
631,539;25794,221;    2,464;    0,227
632,116;25086,979;   11,373;   15,409
632,694;25674,460;    2,555;    6,500
633,271;25998,025;    0,828;    2,682
633,848;25936,564;    1,828;    2,045
634,426;25987,841;   -1,081;    1,773
635,003;25052,590;    1,101;   -0,409
635,580;25359,293;    1,192;    3,682
636,158;25969,976;    3,737;    1,227
636,735;25943,966;    0,555;   -0,500
637,312;26072,290;   -0,809;   -0,682
637,889;26139,233;   -4,354;   -0,682
638,466;25617,621;   -3,990;   -0,409
639,043;25621,932;    2,101;   -1,136
639,620;25997,620;   -2,262;   -0,955
640,197;26248,721;    1,100;    1,682
640,774;26434,418;   -0,172;    1,136
641,351;26850,115;    0,737;    1,136
641,928;26229,175;   -0,627;    1,409
642,505;25878,963;    0,828;   -0,500
643,082;26030,387;   -1,718;    1,227
643,658;25032,447;   -0,718;    1,500
644,235;25785,416;    1,191;    2,500
644,812;26069,204;    1,918;    0,773
645,388;25803,264;   -0,991;    1,409
645,965;25926,052;   -0,809;    1,682
646,542;26001,749;   -1,445;   -0,227
647,118;25978,355;    1,009;   -0,955
647,695;26252,506;   -0,263;    1,136
648,271;26195,566;   -0,536;    0,500
648,848;26528,081;    0,736;    2,227
649,424;26339,051;    0,827;    1,318
650,000;26079,475;   -0,354;   -1,045
650,577;25853,081;   -0,627;   -0,955
651,153;26353,232;   -1,809;    0,955
651,729;27375,201;    1,191;    0,864
652,305;27549,989;    0,645;    2,773
652,881;31974,777;   -0,082;    1,136
653,458;39028,201;    1,100;    0,227
654,034;43153,806;    0,282;    1,591
654,610;44845,958;    0,554;    0,773
655,186;46235,382;    0,645;    3,045
655,762;45964,260;   -0,991;    0,409
656,338;45995,321;    0,100;    0,136
656,913;46966,472;   -0,082;    0,409
657,489;46175,987;    0,827;   -0,318
658,065;46165,684;   -0,173;   -1,591
658,641;46876,653;   -0,900;   -0,864
659,217;46161,713;   -0,991;    0,409
659,792;45505,228;    0,645;   -0,409
660,368;45738,380;   -2,173;   -0,682
660,944;45422,804;   -2,082;    1,227
661,519;40859,500;   -0,628;    0,409
662,095;34725,834;   -1,719;    0,591
662,670;29837,439;    1,281;   -0,136
663,246;28497,318;    1,009;   -0,409
663,821;27715,287;    0,281;    1,682
664,396;27170,802;    0,009;    1,864
664,972;27454,408;    0,009;   -0,500
665,547;27784,105;    1,372;    0,136
666,122;27790,347;   -1,082;    0,318
666,698;28048,498;   -0,173;    0,318
667,273;27409,013;   -0,173;    0,136
667,848;28252,801;    2,372;    1,500
668,423;28029,770;    2,190;    2,318
668,998;28594,285;    2,827;   -0,682
669,573;29127,437;   -3,264;   -1,500
670,148;28934,042;   -1,446;   -0,682
670,723;28799,648;   -1,810;    0,318
671,298;29191,527;    2,372;    1,045
671,873;29348,405;   -0,082;   -0,136
672,448;29251,375;    0,645;    0,136
673,023;29603,162;   -1,992;   -0,227
673,597;29956,950;    0,827;    2,318
674,172;29724,192;   -0,355;    0,318
674,747;29226,889;    0,372;   -1,045
675,321;29076,040;   -0,628;    3,318
675,896;28642,283;    0,645;    1,045
676,471;29617,525;    2,645;    1,591
677,045;29464,040;   -1,264;    0,682
677,620;29479,827;    0,190;    1,136
678,194;29818,888;   -2,628;    1,136
678,769;29282,039;   -1,083;   -0,318
679,343;29522,281;   -0,628;    1,773
679,917;29447,160;   -1,446;    1,955
680,492;29544,584;    0,826;    3,227
681,066;29688,553;    3,372;    0,409
681,640;29750,068;    1,463;   -0,318
682,214;30594,219;    0,735;    0,500
682,788;30074,280;   -1,356;   -0,773
683,363;30040,249;   -1,810;    1,682
683,937;29734,491;   -1,719;   -0,318
684,511;30466,370;    0,463;   -0,591
685,085;30141,067;   -1,356;    0,318
685,659;29941,582;   -2,538;    0,864
686,232;30218,551;   -0,356;   -0,318
686,806;29934,975;   -0,901;    0,409
687,380;30596,854;   -0,174;    0,591
687,954;30853,278;   -1,174;    1,136
688,528;30511,520;   -0,719;    1,955
689,101;31259,762;   -3,992;    1,045
689,675;30861,186;   -0,356;   -0,136
690,249;30209,428;   -0,719;    0,409
690,822;30513,852;    0,280;    0,318
691,396;30603,731;   -0,265;    1,227
691,969;30013,973;    1,280;    0,136
692,543;30520,397;   -0,447;   -1,955
693,116;30233,094;   -0,265;   -1,409
693,690;30083,518;    0,099;    0,500
694,263;30581,033;   -1,083;    2,955
694,836;30614,820;    1,371;    3,591
695,410;29292,517;   -0,265;    1,773
695,983;29758,032;    0,189;    0,591
696,556;29748,547;   -0,447;   -1,045
697,129;30117,516;   -0,356;    1,409
697,703;29779,668;   -1,629;    1,955
698,276;29759,546;    1,462;   -0,773
698,849;29518,152;    1,280;    1,409
699,422;29940,485;   -1,083;    0,591
699,995;29618,273;    0,007;    0,136
700,568;30129,970;   -0,629;    3,045
701,140;30195,939;   -2,811;    1,682
701,713;29864,181;   -0,174;    2,409
702,286;29617,514;   -0,538;    0,864
702,859;29545,120;   -0,902;   -0,591
703,432;28644,362;    0,825;    0,682
704,004;29156,423;    0,462;    0,318
704,577;29004,847;   -0,629;    0,136
705,150;29586,907;    0,189;    2,500
705,722;29357,786;   -0,356;   -3,227
706,295;29147,937;   -0,175;   -0,591
706,867;29017,634;   -0,175;    1,955
707,440;29218,330;   -1,720;   -0,409
708,012;29475,300;    0,462;    0,591
708,584;29411,724;    2,462;    0,227
709,157;29686,239;    1,825;   -0,591
709,729;29308,663;    2,280;    2,045
710,301;30189,632;    0,734;    0,045
710,874;30211,875;   -1,447;   -0,227
711,446;29132,480;    0,371;    0,864
712,018;29029,813;    0,098;    0,500
712,590;28697,147;   -1,993;    1,682
713,162;29214,571;    0,825;    1,318
713,734;29529,540;    1,825;   -2,045
714,306;29470,510;   -1,902;   -0,409
714,878;28092,661;    0,825;    0,864
715,450;28864,267;    0,643;    0,864
716,022;29148,054;    1,552;    1,318
716,593;29277,660;    0,189;    0,591
717,165;29269,811;   -3,175;   -1,227
717,737;28931,054;    0,280;    0,409
718,309;28638,569;    0,280;   -0,045
718,880;28531,993;   -0,539;   -1,409
719,452;28780,326;   -0,175;   -1,591
720,024;28334,841;    0,734;   -0,591
720,595;28923,265;   -2,902;    0,955
721,167;28455,779;    0,370;   -2,045
721,738;27957,113;   -0,812;   -1,045
722,309;27930,537;   -0,993;   -1,227
722,881;27737,688;   -1,357;    0,773
723,452;28337,930;   -2,630;    2,864
724,023;28553,900;   -0,721;    2,682
724,595;28336,505;    0,007;    0,682
725,166;28093,384;    0,007;   -0,409
725,737;27739,535;    1,734;    0,227
726,308;27818,959;   -0,266;    0,318
726,879;28282,020;   -1,630;    1,227
727,450;28104,625;    0,552;   -0,045
728,021;28084,868;    3,097;    0,682
728,592;27832,837;    0,734;    0,500
729,163;28180,988;    0,643;   -0,136
729,734;28224,776;    0,188;   -0,227
730,305;28643,109;    1,734;    0,136
730,876;28955,170;    0,188;    2,955
731,447;28649,503;    2,188;    2,682
732,017;28722,836;    1,097;    1,864
732,588;28203,078;    0,734;    1,227
733,159;28378,229;    0,643;   -1,045
733,729;28251,290;    0,006;    0,409
734,300;27487,532;    0,915;    0,864
734,870;27883,138;    3,461;    0,591
735,441;28496,562;    0,370;   -0,591
736,011;28236,622;    0,643;   -1,591
736,582;28219,046;   -0,812;    0,045
737,152;27701,561;   -1,721;   -2,045
737,722;28144,985;   -0,267;   -0,682
738,293;27854,227;   -1,358;    1,318
738,863;27684,378;    2,461;    2,318
739,433;27483,621;    5,279;    0,318
740,003;28164,226;   -0,994;   -0,682
740,573;27525,378;    2,097;   -1,591
741,143;27523,256;   -1,085;    0,318
741,713;28292,953;    1,188;   -0,500
742,283;27947,104;    0,915;    1,591
742,853;27726,983;    1,915;    1,591
743,423;27263,225;    1,733;    0,045
743,993;27350,922;   -0,358;    1,500
744,563;26697,982;    0,097;   -0,864
745,133;26637,406;   -0,812;   -0,864
745,702;27324,285;   -0,267;    1,773
746,272;26575,072;   -0,176;    0,591
746,842;26317,587;   -1,358;   -0,591
747,411;26747,375;   -0,267;   -0,318
747,981;26943,981;    0,097;    0,500
748,551;26968,678;    2,278;   -1,045
749,120;26816,465;    0,642;   -0,227
749,690;27236,707;   -0,631;    2,409
750,259;27531,950;    1,369;    2,955
750,828;27470,010;    1,551;   -1,955
751,398;27750,707;    1,278;   -0,045
751,967;27250,676;    2,187;    0,409
752,536;27454,737;   -0,813;   -0,227
753,105;27845,979;    0,096;    0,227
753,675;27673,403;    0,096;    1,773
754,244;27644,645;   -0,904;    3,591
754,813;27705,978;    0,551;    1,227
755,382;27302,675;    0,460;    0,955
755,951;27830,099;    1,551;    3,682
756,520;27368,795;   -0,085;    1,864
757,089;27925,038;    0,278;    0,500
757,658;28069,734;    1,733;    1,227
758,227;28091,068;    1,096;    0,318
758,795;28395,310;    1,187;    1,136
759,364;28589,461;   -0,086;   -0,591
759,933;27609,249;   -1,176;   -0,045
760,501;27161,127;    0,733;   -1,318
761,070;27582,006;   -2,813;   -1,409
761,639;28329,066;   -1,904;    1,318
762,207;27651,581;    1,551;   -0,955
762,776;27549,278;    0,369;    0,864
763,344;27533,611;   -0,995;    0,591
763,913;26690,126;   -0,722;    1,409
764,481;27430,732;    1,005;   -0,136
765,049;27150,156;   -1,358;    1,409
765,618;27036,307;   -0,086;    0,318
766,186;27158,186;    0,278;    0,136
766,754;27388,519;    0,005;    1,864
767,322;26335,488;   -1,995;    0,409
767,890;26394,367;   -0,722;   -1,773
768,459;26800,336;   -2,177;   -0,318
769,027;26993,487;    1,641;    3,409
769,595;25961,548;    3,278;    2,591
770,163;26335,517;    3,823;    2,955
770,730;26070,578;    0,732;   -0,136
771,298;25907,274;    0,187;   -1,409
771,866;26081,335;   -1,541;    4,955
772,434;26376,850;   -0,631;   -1,864
773,002;26540,001;    0,005;    0,682
773,569;26175,607;    0,914;    1,682
774,137;25986,758;   -0,268;   -0,045
774,705;26822,909;    0,278;   -0,136
775,272;26257,879;    0,641;    0,682
775,840;25981,576;   -0,177;    2,682
776,407;25535,272;    0,277;    1,955
776,975;25139,696;   -0,632;    0,318
777,542;26208,302;   -1,086;   -0,045
778,110;25988,181;   -1,268;   -0,045
778,677;25683,787;   -2,359;   -0,864
779,244;25452,301;    2,186;    1,045
779,812;25546,907;    1,823;    0,864
780,379;25380,968;    0,005;    1,136
780,946;25622,573;    1,005;   -0,773
781,513;25992,907;   -1,450;    0,318
782,080;25365,603;   -0,086;    2,864
782,647;26090,300;   -0,268;    3,045
783,214;25661,270;   -0,177;    3,864
783,781;25277,966;   -0,723;   -0,682
784,348;25176,027;   -0,632;    1,500
784,915;25666,269;   -3,177;    0,318
785,482;25397,693;    1,368;    2,591
786,049;25852,662;    0,186;   -0,591
786,615;25953,450;    0,277;   -0,955
787,182;25695,783;    0,186;   -0,682
787,749;25355,116;   -2,814;    1,409
788,315;24691,904;   -1,632;   -0,409
788,882;24995,691;    1,550;   -1,227
789,448;25679,934;    1,732;   -0,955
790,015;25740,994;    1,095;    3,227
790,581;25305,418;    1,459;    0,227
791,148;25180,842;    0,641;    1,045
791,714;25416,266;   -0,541;    3,136
792,280;25062,599;    0,186;    1,591
792,847;24615,478;    0,550;    2,500
793,413;25192,447;   -0,269;   -0,318
793,979;24710,326;    3,459;   -1,318
794,545;24774,295;    4,459;    2,682
795,111;24189,265;    2,186;    1,318
795,678;24350,598;    0,731;   -1,682
796,244;24008,295;    3,368;    0,136
796,810;24596,082;    1,731;    0,773
797,375;24337,870;    0,549;   -2,136
797,941;24334,385;   -0,541;    0,591
798,507;24472,627;   -0,451;   -0,955
799,073;23974,596;   -0,360;    0,591
799,639;24004,748;   -2,632;    3,136
800,205;24064,354;    0,095;    2,682
800,770;23650,323;    0,640;    1,773
801,336;23748,383;    1,368;   -0,955
801,901;23386,989;    4,549;    3,136
802,467;23978,868;   -0,542;    2,045
803,033;23354,655;   -0,087;    0,864
803,598;23558,352;    1,913;   -1,045
804,163;23582,958;    1,095;   -0,318
804,729;23512,109;   -0,178;    1,136
805,294;23913,533;    0,822;    2,227
805,859;23733,685;    0,731;   -0,409
806,425;23140,018;    1,186;    2,682
806,990;22844,896;    2,186;    4,318
807,555;23331,957;   -1,451;    2,591
808,120;23152,926;    0,822;   -0,409
808,685;23266,077;    0,185;   -2,500
809,250;22760,229;    0,004;   -0,500
809,815;23114,016;    1,913;    0,682
810,380;23619,168;   -0,269;    1,591
810,945;24142,319;   -1,087;    2,045
811,510;23314,016;    2,094;    1,591
812,075;23067,349;   -0,633;   -1,409
812,640;23081,045;    2,003;    1,409
813,204;23150,106;    0,822;   -0,227
813,769;23614,257;    2,094;   -0,045
814,334;23022,681;    0,458;    0,864
814,898;23085,014;    0,367;    0,591
815,463;22954,438;    1,276;   -0,773
816,027;22909,862;   -0,724;   -2,318
816,592;22998,104;    0,640;   -2,045
817,156;22525,165;    2,094;    1,136
817,721;22348,316;    4,276;    2,318
818,285;22296,104;    2,912;    1,500
818,849;22970,164;   -1,451;    1,682
819,414;22888,315;   -0,269;    2,955
819,978;22458,012;   -1,269;    1,773
820,542;23050,800;    2,003;    0,500
821,106;22729,406;   -0,815;    0,682
821,670;22859,466;   -0,815;    2,591
822,234;22563,799;   -0,270;    1,409
822,798;21884,314;    0,003;    0,500
823,362;21832,829;   -0,633;    4,227
823,926;21144,162;    0,094;    1,136
824,490;21404,222;   -0,997;   -0,682
825,054;21852,737;   -0,088;   -1,136
825,618;21422,161;   -1,542;   -1,500
826,181;21385,404;    0,458;   -1,318
826,745;21344,191;    1,367;   -1,045
827,309;21666,161;    1,185;    1,318
827,872;21046,676;    1,367;    0,955
828,436;22059,918;    1,185;   -0,773
828,999;22076,069;   -0,997;    1,227
829,563;20845,948;   -0,179;    1,136
830,126;20692,372;   -0,179;   -0,591
830,690;20687,068;   -1,997;    2,864
831,253;20237,401;   -0,543;    2,227
831,816;20341,735;   -1,906;    0,500
832,380;20258,159;    0,185;    0,864
832,943;20520,128;   -1,361;   -0,500
833,506;19974,825;    2,639;   -1,227
834,069;20766,885;    3,912;   -0,955
834,632;20858,855;    1,730;    1,318
835,195;20757,642;    1,003;    0,955
835,758;19926,794;   -0,997;    1,955
836,321;19788,581;    0,730;   -1,045
836,884;19903,369;   -0,725;   -0,955
837,447;19908,429;   -2,816;    1,773
838,010;20163,671;    0,366;    3,227
838,573;20458,641;   -1,179;    0,773
839,135;20431,338;   -1,361;   -0,955
839,698;19871,853;    1,275;    0,409
840,261;19414,186;    1,003;   -0,227
840,823;19268,610;   -0,543;    0,864
841,386;19568,034;   -0,452;   -2,409
841,948;19426,094;   -1,361;    1,773
842,511;19179,154;    0,912;    1,682
843,073;19246,851;    1,912;    0,227
843,636;19047,639;   -0,361;   -0,227
844,198;19025,154;    0,911;    0,591
844,760;19117,850;    1,093;    1,955
845,322;18799,729;    0,548;    1,136
845,885;19206,971;    0,730;    0,591
846,447;19667,213;   -1,998;    0,227
847,009;19222,092;    1,911;   -0,682
847,571;19549,425;    0,820;   -2,045
848,133;19668,940;   -1,089;   -1,864
848,695;19503,455;   -0,543;    1,409
849,257;19042,424;   -1,089;   -1,682
849,819;19163,848;   -0,998;   -0,409
850,381;19212,636;   -0,725;   -0,864
850,942;19602,242;    1,093;   -0,591
851,504;19572,393;    1,184;    0,227
852,066;19608,454;    1,275;   -1,591
852,628;19103,059;   -0,180;    1,955
853,189;18666,483;    1,638;    2,682
853,751;18811,635;   -0,907;    1,409
854,312;18616,513;   -0,453;   -1,682
854,874;19127,664;   -2,089;   -0,773
855,435;19633,998;   -0,907;   -1,682
855,997;19820,785;   -1,816;   -0,136
856,558;19105,664;    0,366;    1,773
857,119;19214,088;    0,820;    2,864
857,681;18869,057;    0,002;    0,318
858,242;18890,845;    1,911;   -2,136
858,803;19345,087;    0,456;   -0,773
859,364;19934,966;    0,184;   -4,773
859,925;19253,117;   -2,453;   -0,955
860,486;19147,723;   -0,453;   -0,955
861,047;18887,238;   -0,544;   -1,227
861,608;18688,753;   -1,089;   -0,773
862,169;18813,086;    0,638;   -0,045
862,730;18601,873;    0,456;    1,409
863,291;18831,388;   -0,635;   -0,500
863,852;19190,449;   -0,635;    1,955
864,412;18675,145;   -0,271;   -0,864
864,973;17211,660;   -0,089;    0,500
865,534;17047,539;   -1,726;    0,227
866,094;18574,417;    1,820;    0,227
866,655;18237,023;    1,274;    3,318
867,215;18517,084;    0,274;    0,136
867,776;18415,962;    0,547;   -0,136
868,336;18488,023;   -1,453;    0,136
868,897;17942,174;    2,638;    1,682
869,457;17644,689;    1,365;    0,318
870,017;17896,749;    0,547;   -1,227
870,578;18431,900;   -0,817;    0,773
871,138;18105,143;   -2,089;   -0,955
871,698;17608,658;   -0,817;   -1,318
872,258;17490,991;   -0,453;   -2,864
872,818;17870,506;    2,729;    0,045
873,378;17846,475;    0,638;    1,045
873,938;17415,263;    0,547;    0,500
874,498;17779,778;    0,274;   -1,955
875,058;17650,747;    2,183;    1,773
875,618;17495,717;    1,910;   -2,682
876,177;17462,050;    1,274;    0,136
876,737;17042,019;   -0,090;    1,955
877,297;17048,534;    0,183;    1,955
877,856;17025,413;   -0,362;    0,318
878,416;16946,291;    1,183;   -0,136
878,976;17213,988;   -1,817;    0,409
879,535;17379,412;    0,092;    3,136
880,095;17093,563;   -0,544;    0,045
880,654;17219,533;   -1,090;    1,318
881,213;17297,502;    2,456;    1,500
881,773;16946,290;    2,637;    2,682
882,332;17251,350;    3,365;    5,136
882,891;17106,683;    3,092;    2,136
883,451;17618,471;   -1,272;    1,682
884,010;17063,895;   -2,908;   -0,409
884,569;17151,864;   -0,999;   -0,045
885,128;17280,288;    2,819;   -1,864
885,687;17353,712;    4,455;    0,682
886,246;17031,318;    1,455;    2,136
886,805;16835,197;    2,455;    2,045
887,364;17137,075;   -0,999;   -0,500
887,922;17476,136;   -1,181;    0,045
888,481;17003,560;   -1,545;    0,591
889,040;17324,620;    1,183;    2,136
889,599;17982,135;    2,455;    1,409
890,157;18050,559;    1,455;    2,409
890,716;17749,529;   -0,090;    0,227
891,274;17533,316;    0,092;   -1,136
891,833;17993,558;    1,546;    0,864
892,391;17828,346;   -0,454;    0,500
892,950;17879,315;    1,819;   -0,773
893,508;18281,830;    0,455;   -0,409
894,067;17626,163;    0,637;    0,136
894,625;17540,406;   -0,636;   -1,500
895,183;17785,012;   -0,363;   -0,682
895,741;17665,708;    1,728;   -1,773
896,299;17517,314;   -0,545;   -2,409
896,858;17719,465;    0,819;   -1,591
897,416;17827,980;    2,728;   -1,318
897,974;17557,859;    1,819;    0,318
898,532;17687,101;    6,091;    2,682
899,089;17581,161;    2,091;   -0,682
899,647;17606,858;   -1,454;    1,318
900,205;17358,100;    1,182;    1,045
900,763;17598,888;   -0,454;    0,227
901,321;17597,403;    2,364;   -1,409
901,878;16999,463;   -1,000;   -0,773
902,436;16872,796;   -1,363;    1,318
902,994;17260,129;    4,728;    3,682
903,551;16689,190;    0,728;    0,409
904,109;17118,614;    0,182;   -1,409
904,666;16684,038;    2,455;    1,045
905,224;16477,098;    0,182;   -0,409
905,781;16190,522;    0,727;   -0,318
906,338;16289,037;   -1,363;    1,045
906,895;16207,552;    0,637;    2,045
907,453;16142,431;    1,727;    1,136
908,010;16170,855;   -0,909;    0,409
908,567;15831,097;    1,273;    0,591
909,124;15374,521;    0,364;   -1,500
909,681;15444,127;   -2,909;    0,682
910,238;15570,369;    0,636;   -1,318
910,795;15870,520;   -0,273;   -1,136
911,352;15498,884;   -2,909;   -2,682
911,909;14927,611;   -1,364;   -0,864
912,466;15426,702;   -3,182;    1,500
913,022;14998,429;   -1,636;    0,500
913,579;15310,975;   -0,909;    2,045
914,136;14986,429;    1,636;    0,955
914,692;15341,157;    0,091;   -1,227
915,249;14951,338;    1,455;    0,409
915,806;15154,975;    0,182;    1,955
916,362;14886,975;    1,909;    1,864
916,918;14474,702;    2,000;    1,045
917,475;14437,611;   -1,182;    0,955
918,031;14517,247;    3,364;   -0,045
918,587;13944,975;   -0,909;   -0,318
919,144;14170,247;   -2,273;    0,227
919,700;14511,429;    1,727;    0,773
920,256;14072,247;    0,727;    0,045
920,812;13688,520;   -0,727;   -1,045
921,368;13701,702;   -1,727;   -1,045
921,924;13330,793;    0,182;   -0,136
922,480;12872,157;   -0,545;    1,227
923,036;13509,157;    1,273;    1,955
923,592;13401,429;    0,455;    0,318
924,148;13346,611;    0,455;   -0,955
924,704;12632,157;   -1,364;   -0,409
925,259;12916,793;   -0,273;    0,591
925,815;12678,338;    1,455;    0,500
926,371;12179,884;    2,909;    1,409
926,926;12039,520;    2,091;    0,591
927,482;11698,338;   -1,364;    0,773
928,037;11555,611;    0,909;    2,045
928,593;11816,793;    1,636;    1,045
929,148;11660,247;   -1,818;   -1,500
929,704;11165,429;   -1,455;   -0,500
930,259;11363,520;    0,091;   -0,136
930,814;10407,702;   -0,818;    1,955
931,369;10076,157;    1,091;   -0,773
931,925;10005,975;   -0,091;    0,136
932,480; 9916,793;   -2,818;   -2,591
933,035; 9756,066;    0,545;   -0,318
933,590; 9529,793;    0,364;   -1,773
934,145; 9169,975;   -1,364;   -0,318
934,700; 9517,247;    0,455;   -0,591
935,255; 9307,338;   -0,091;    0,045
935,809; 8543,611;    3,182;    0,864
936,364; 7685,702;   -0,455;   -0,136
936,919; 7646,157;    0,455;   -1,773
937,474; 7541,702;    1,455;    0,136
938,028; 7280,429;   -1,636;    1,136
938,583; 6723,520;    1,818;    4,682
939,138; 7042,793;    2,091;    2,136
939,692; 6465,429;    1,636;   -1,136
940,247; 6160,975;   -0,727;   -1,045
940,801; 5677,338;   -0,636;    0,227
941,355; 5595,157;   -0,364;    2,591
941,910; 5253,157;   -0,273;   -2,136
942,464; 5337,702;   -0,818;   -0,318
943,018; 5099,793;    1,000;   -0,227
943,572; 5040,793;    2,545;   -0,682
944,126; 4439,429;    0,091;   -0,409
944,681; 4338,247;    3,091;    0,227
945,235; 4321,247;    1,000;   -0,591
945,789; 4277,157;    0,364;   -1,864
946,342; 4350,975;    0,455;   -0,591
946,896; 4174,066;   -2,273;    0,955
947,450; 3932,429;    1,545;   -0,227
948,004; 4103,520;    1,727;   -0,045
948,558; 4117,975;    0,273;   -0,864
949,111; 4031,793;   -0,273;   -0,318
949,665; 4050,884;    1,636;   -0,682
950,219; 3916,429;   -0,091;   -1,045
950,772; 4016,611;   -1,909;    1,864
951,326; 3919,702;    0,545;   -0,955
951,879; 4011,066;    0,727;   -2,318
952,433; 4042,520;    0,000;    2,227
952,986; 3881,975;    2,909;    0,682
953,539; 3834,247;   -0,273;    0,591
954,093; 3769,520;    0,545;   -1,318
954,646; 3902,884;    0,909;    1,318
955,199; 3712,247;    0,000;   -0,500
955,752; 3586,702;   -0,455;    1,773
956,305; 3551,247;   -0,091;    2,955
956,858; 3726,066;    0,818;   -0,318
957,411; 3892,793;   -0,545;    2,136
957,964; 3739,520;    1,364;    2,136
958,517; 3719,429;   -1,545;    3,136
959,070; 3546,884;   -0,455;    1,955
959,623; 3601,429;    1,091;    1,500
960,176; 3372,157;    1,727;    2,045
960,728; 3352,793;   -2,727;    0,773
961,281; 3416,520;    0,545;    0,500
961,834; 3462,702;   -0,909;    0,864
962,386; 3382,975;    1,727;    1,045
962,939; 3314,157;    0,364;   -0,318
963,491; 3442,338;    0,455;    1,136
964,043; 3320,884;    1,182;    2,409
964,596; 3442,884;   -1,000;    2,227
965,148; 3280,247;   -1,000;    1,773
965,700; 3212,884;    1,091;   -0,227
966,253; 3352,247;   -0,636;    0,318
966,805; 3169,702;   -2,273;    0,773
967,357; 3232,066;    1,091;   -1,500
967,909; 3194,338;    0,455;   -1,227
968,461; 3332,247;    0,545;    3,136
969,013; 3248,520;   -0,182;   -0,864
969,565; 3329,702;   -0,455;   -1,136
970,117; 3356,884;   -0,364;    1,045
970,669; 3219,793;    0,182;   -0,136
971,220; 3091,975;   -0,455;   -1,500
971,772; 3000,884;   -0,636;   -0,318
972,324; 3120,702;    0,091;   -0,500
972,876; 3063,520;    0,818;   -0,045
973,427; 3211,066;    1,909;   -1,045
973,979; 3165,429;   -0,727;   -2,500
974,530; 3225,066;    1,818;    1,318
975,082; 3227,702;   -0,545;    1,682
975,633; 3097,247;    1,091;    1,682
976,184; 3237,975;    0,909;    0,773
976,736; 3049,884;    0,091;    0,227
977,287; 2842,611;   -0,909;   -0,500
977,838; 3022,520;    0,909;   -0,318
978,389; 3080,066;   -1,000;   -0,500
978,940; 2945,702;    0,545;   -0,409
979,491; 2988,247;    0,091;   -0,500
980,042; 2952,247;    0,182;    3,045
980,593; 2998,611;   -2,545;    0,227
981,144; 3046,520;    2,545;   -0,500
981,695; 2999,338;    1,455;    1,500
982,246; 2983,157;   -0,273;    1,045
982,797; 3162,338;   -1,727;    0,682
983,347; 3242,611;    0,364;    0,591
983,898; 3392,793;    3,091;    0,409
984,449; 3218,702;    2,182;    0,773
984,999; 3134,429;    1,455;   -1,136
985,550; 2909,520;    0,182;   -0,318
986,100; 2951,429;   -0,455;   -0,318
986,651; 3002,975;   -0,818;    0,045
987,201; 2976,611;   -1,000;   -0,591
987,751; 3056,157;    0,818;    2,864
988,302; 3026,429;    2,636;    1,500
988,852; 3058,975;    0,455;   -1,136
989,402; 3098,247;    0,091;    0,682
989,952; 2996,338;   -2,182;    0,864
990,502; 3118,157;   -0,091;    0,682
991,052; 3103,884;   -0,727;    0,045
991,602; 2952,884;   -2,909;    1,318
992,152; 2949,066;    0,455;    0,682
992,702; 2923,884;    1,364;   -0,045
993,252; 2859,884;   -3,000;   -0,500
993,802; 2940,611;   -0,273;    1,318
994,352; 3179,884;   -1,545;    1,136
994,901; 3276,975;   -0,182;    3,227
995,451; 3196,793;   -0,182;    0,318
996,000; 3282,975;    1,636;    0,318
996,550; 2991,884;    2,273;    0,227
997,100; 2993,247;    1,273;   -0,045
997,649; 3287,884;    2,182;    0,955
998,198; 2920,066;    1,727;   -1,500
998,748; 3097,975;    1,091;   -2,318
999,297; 3012,975;   -0,818;   -0,409
999,846; 3060,702;    1,000;   -0,773
1000,395; 3115,429;   -0,818;    0,500
1000,945; 3052,429;    1,818;   -0,773
1001,494; 3152,611;    2,364;    0,682
1002,043; 3134,520;    4,636;    0,864
1002,592; 2990,520;   -1,091;    1,955
1003,141; 3141,157;   -0,455;   -0,682
1003,690; 2982,338;    1,727;    0,500
1004,238; 3075,793;    1,455;   -0,045
1004,787; 2712,247;    1,364;    1,227
1005,336; 2937,157;    0,364;    0,682
1005,885; 3091,793;    1,364;   -2,773
1006,433; 3247,429;    0,545;    0,955
1006,982; 3298,520;    0,455;    1,682
1007,531; 3205,884;   -1,818;   -0,227
1008,079; 3165,157;   -2,273;    0,500
1008,627; 3314,066;   -1,455;    0,409
1009,176; 3049,793;    0,000;   -1,955
1009,724; 3096,884;    1,091;    0,864
1010,273; 3138,157;    1,273;    0,500
1010,821; 3261,066;    0,091;    1,409
1011,369; 2985,247;   -1,364;    1,318
1011,917; 2964,066;   -1,364;   -0,591
1012,465; 3252,884;    1,273;   -1,591
1013,013; 3383,247;    2,091;   -1,682
1013,561; 3239,884;    0,455;   -0,773
1014,109; 3271,338;   -1,909;    1,682
1014,657; 3156,793;    0,364;    0,591
1015,205; 3312,157;    1,636;   -0,955
1015,753; 3342,247;   -0,545;   -1,409
1016,301; 3384,884;   -2,636;    3,045
1016,848; 3363,975;   -1,273;    0,409
1017,396; 3400,429;    2,545;    0,045
1017,944; 3543,247;    1,182;    1,864
1018,491; 3283,429;    0,273;    1,409
1019,039; 3438,975;    0,455;    0,591
1019,586; 3385,157;   -1,364;    1,682
1020,134; 3480,066;    0,455;    1,500
1020,681; 3490,247;    0,182;   -1,136
1021,228; 3509,975;    2,909;   -2,227
1021,776; 3338,611;    1,182;   -1,136
1022,323; 3567,157;    0,455;    0,773
1022,870; 3494,338;   -1,000;   -0,045
1023,417; 3365,793;    2,636;    1,864
1023,964; 3548,611;    2,636;    1,227
1024,511; 3364,429;    1,000;    0,773
1025,058; 3159,338;    3,182;   -0,045
1025,605; 3224,884;   -2,273;    3,136
1026,152; 3430,975;    1,727;   -0,591
1026,699; 3144,338;    1,818;    1,318
1027,245; 3333,884;   -0,091;    0,318
1027,792; 3557,793;   -1,000;    1,409
1028,339; 3413,975;    2,364;   -0,045
1028,885; 3259,429;    1,000;   -0,227
1029,432; 3219,793;   -0,091;    0,227
1029,978; 3273,520;   -1,000;   -1,591
1030,525; 3166,247;    1,000;    0,409
1031,071; 3448,793;   -1,364;    1,136
1031,618; 3518,884;    0,364;    1,682
1032,164; 3332,702;   -0,091;    3,045
1032,710; 3368,066;    1,636;   -1,500
1033,256; 3273,520;   -0,636;   -0,136
1033,803; 3275,884;   -0,545;    1,500
1034,349; 2987,247;   -1,364;    0,136
1034,895; 3164,429;    0,000;   -0,318
1035,441; 3142,702;   -0,818;    0,318
1035,987; 3140,702;   -2,364;   -0,682
1036,533; 3130,884;   -1,455;   -0,955
1037,078; 3313,247;    1,455;    1,682
1037,624; 3140,429;    2,455;   -0,955
1038,170; 3179,793;    0,455;   -0,318
1038,716; 3077,338;    1,636;   -0,409
1039,261; 2979,793;   -2,273;   -0,773
1039,807; 2913,338;   -0,091;    3,409
1040,352; 2977,884;   -1,909;   -0,318
1040,898; 3042,702;   -1,545;   -0,682
1041,443; 2942,520;   -1,455;   -2,591
1041,989; 2925,975;    1,091;    1,591
1042,534; 2842,793;   -0,364;    2,591
1043,079; 2958,611;    2,909;    0,955
1043,625; 2739,338;    1,818;    0,500
1044,170; 2810,975;   -1,364;    1,045
1044,715; 3035,611;    2,455;    0,955
1045,260; 2855,884;    2,182;   -0,955
1045,805; 2932,247;    1,182;   -0,591
1046,350; 2873,247;    1,364;   -0,409
1046,895; 2813,702;    2,909;    1,591
1047,440; 2737,793;    5,364;    0,409
1047,985; 2654,066;    2,818;   -0,955
1048,530; 2575,157;    1,545;    1,227
1049,074; 2640,157;    0,000;    0,318
1049,619; 2621,884;   -1,364;    1,955
1050,164; 2428,702;    0,455;    0,227
1050,708; 2446,975;   -0,455;    0,045
1051,253; 2795,338;    1,273;   -2,227
1051,797; 2514,157;    0,818;   -1,318
1052,342; 2555,066;   -1,182;    1,045
1052,886; 2534,520;    0,364;   -1,409
1053,430; 2424,157;   -1,364;    0,136
1053,975; 2440,702;   -0,818;   -0,318
1054,519; 2412,884;   -0,727;    3,227
1055,063; 2407,520;    0,909;    1,318
1055,607; 2288,884;   -0,182;    0,227
1056,151; 2325,793;    2,909;    1,682
1056,695; 2252,611;    2,273;   -1,136
1057,239; 2338,157;   -1,727;   -0,682
1057,783; 2325,611;    0,818;   -1,500
1058,327; 2262,066;    0,000;    1,409
1058,871; 2488,338;   -0,545;    1,318
1059,415; 2186,247;   -0,818;   -0,045
1059,958; 2440,520;    1,455;    2,591
1060,502; 2159,338;   -1,000;   -0,773
1061,046; 2089,611;    0,364;   -0,955
1061,589; 2076,066;   -3,000;   -1,136
1062,133; 1951,611;   -1,273;    1,864
1062,676; 1885,611;    1,182;    0,864
1063,220; 1876,520;    1,091;    0,500
1063,763; 1904,338;    0,909;    1,136
1064,306; 1976,157;   -0,909;    1,864
1064,849; 1862,884;   -0,909;    0,591
1065,393; 1859,429;    2,000;   -1,500
1065,936; 1981,611;    0,182;   -0,409
1066,479; 1886,429;   -1,455;    1,318
1067,022; 1881,520;   -0,273;   -0,227
1067,565; 1786,975;   -0,091;   -1,318
1068,108; 1828,247;    0,727;   -0,591
1068,651; 1807,066;   -0,636;    1,409
1069,194; 1722,702;   -0,455;   -1,682
1069,736; 1712,066;   -1,273;    0,955
1070,279; 1698,520;   -1,364;   -0,500
1070,822; 1742,157;   -2,000;   -0,318
1071,364; 1807,429;   -0,364;    1,318
1071,907; 1642,975;   -0,727;    3,227
1072,450; 1556,066;    0,000;   -0,045
1072,992; 1534,429;   -0,273;    3,136
1073,535; 1680,338;    2,091;    2,136
1074,077; 1475,611;   -0,727;    2,045
1074,619; 1448,338;   -1,364;    0,591
1075,161; 1455,429;   -1,091;    1,500
1075,704; 1639,429;    1,545;    1,227
1076,246; 1452,975;   -0,182;    0,682
1076,788; 1396,793;   -0,364;    1,773
1077,330; 1483,702;    1,273;    2,136
1077,872; 1413,247;    0,909;    0,955
1078,414; 1629,520;    2,727;    0,773
1078,956; 1375,338;    1,273;   -0,227
1079,498; 1613,884;    1,636;    0,318
1080,040; 1332,702;    1,909;   -1,318
1080,581; 1281,247;    1,636;   -0,318
1081,123; 1212,429;    0,091;   -0,773
1081,665; 1258,975;   -1,182;   -0,955
1082,206; 1543,429;    1,364;   -0,500
1082,748; 1406,611;    0,727;    2,045
1083,289; 1283,884;   -2,000;    1,318
1083,831; 1186,884;   -0,545;    0,227
1084,372; 1225,793;    0,000;    0,591
1084,913; 1222,520;    1,091;    0,864
1085,455; 1204,793;   -1,909;   -2,045
1085,996; 1167,975;   -2,273;    0,136
1086,537; 1175,520;   -0,091;    0,864
1087,078; 1216,429;   -0,909;   -2,136
1087,619; 1252,975;   -1,273;    0,227
1088,160; 1157,157;    0,000;    1,318
1088,701; 1157,702;   -1,091;    0,682
1089,242; 1095,338;    1,364;   -2,227
1089,783; 1200,429;   -0,273;    1,409
1090,324; 1151,702;    0,455;    0,682
1090,865; 1038,611;    2,727;   -0,409
1091,405; 1009,793;    0,727;    2,227
1091,946; 1031,611;    0,182;   -0,955
1092,487;  968,520;    0,818;   -1,409
1093,027; 1119,884;   -1,364;   -1,500
1093,568;  980,066;   -0,364;    1,227
1094,108; 1077,338;    0,273;    1,773
1094,649; 1007,975;   -1,182;    0,136
1095,189;  951,975;   -0,636;   -0,682
1095,729;  901,157;   -0,091;    0,955
1096,269;  900,429;    0,727;   -0,955
1096,810; 1211,611;   -1,364;    0,500
1097,350; 1038,702;    1,364;   -0,773
1097,890;  939,975;    0,364;    1,227
1098,430; 1202,793;    2,364;    2,864
1098,970; 1073,338;    2,182;    1,682
1099,510;  939,611;    0,545;   -2,318
1100,050;  861,884;    1,000;   -1,591
1100,589;  820,884;   -0,727;   -0,318
1101,129;  942,157;    0,818;   -0,955
1101,669; 1095,702;    1,727;    2,136
1102,209;  919,338;   -0,091;    2,227
1102,748;  877,611;    0,000;    0,955
1103,288;  858,884;    1,273;   -1,227
1103,827;  882,611;    3,091;   -2,227
1104,367;  770,975;   -0,091;   -2,409
1104,906;  727,066;    1,364;   -1,136
1105,445;  796,429;    0,636;   -1,136
1105,985;  744,066;   -0,727;    1,500
1106,524;  797,520;   -1,727;   -0,682
1107,063;  769,429;   -2,727;    1,409
1107,602;  742,520;   -1,909;   -1,500
1108,141;  658,066;   -1,909;    1,500
1108,680;  756,247;   -3,455;   -0,591
1109,219;  698,338;   -0,909;   -0,500
1109,758;  701,611;    0,455;    0,682
1110,297;  673,975;    1,000;   -0,682
1110,836;  619,429;   -0,727;    0,955
1111,375;  785,520;   -2,545;    0,409
1111,913;  793,793;   -1,000;    0,773
1112,452;  723,429;   -0,273;    0,136
1112,991;  618,247;    1,091;    1,955
1113,529;  577,157;   -0,818;   -0,045
1114,068;  640,975;   -0,273;    2,955
1114,606;  542,066;   -0,364;   -0,955
1115,144;  708,247;   -1,273;    1,045
1115,683;  649,157;   -0,727;    0,318
1116,221;  692,793;   -0,455;   -0,864
1116,759;  591,066;    0,636;   -0,864
1117,297;  781,247;    0,000;    1,864
1117,836;  596,884;   -2,182;   -1,227
1118,374;  611,702;    0,182;   -0,682
1118,912;  547,975;    0,909;    2,682
1119,450;  541,520;    1,000;    0,864
1119,988;  590,429;    1,545;    2,136
1120,525; 1035,520;    5,091;    3,318
1121,063;  729,066;    1,182;    1,864
1121,601;  540,793;   -0,909;   -1,227
1122,139;  508,066;   -0,727;   -2,045
1122,676;  701,247;   -0,727;    2,773
1123,214;  622,157;   -1,182;    4,409
1123,751;  442,066;    1,727;    2,227
1124,289;  580,884;   -0,091;   -0,409
1124,826;  444,066;    1,727;    0,227
1125,364;  376,157;    1,727;   -0,955
1125,901;  562,157;    1,182;    1,227
1126,438;  677,793;    0,818;    0,955
1126,975;  395,884;   -0,727;   -0,773
1127,513;  465,520;    0,273;    2,136
1128,050;  372,975;    1,636;   -0,682
1128,587;  476,975;    2,000;   -0,227
1129,124;  510,338;    0,091;    1,318
1129,661;  371,066;    0,273;    0,227
1130,198;  540,793;    1,636;    0,773
1130,734;  492,429;    0,182;    1,409
1131,271;  341,157;   -0,909;    0,864
1131,808;  513,066;    2,909;    3,045
1132,345;  389,338;    1,545;    0,318
1132,881;  257,429;   -1,545;   -1,864
1133,418;  393,066;    0,727;   -1,136
1133,954;  335,429;    2,455;   -2,682
1134,491;  408,520;    1,364;   -0,773
1135,027;  311,611;    2,364;    0,864
1135,564;  401,793;    0,273;    2,955
1136,100;  384,975;    0,364;    2,136
1136,636;  271,157;   -1,273;   -1,045
1137,172;  356,338;    0,000;   -1,045
1137,708;  289,247;   -1,364;   -1,045
1138,245;  289,429;    1,273;   -1,227
1138,781;  239,066;    1,091;   -3,318
1139,317;  305,157;    1,273;   -1,409
1139,852;  299,247;    3,091;    0,136
1140,388;  420,338;   -1,182;   -0,409
1140,924;  298,520;   -1,091;   -2,227
1141,460;  224,247;   -1,636;    0,136
1141,996;  168,338;   -1,364;    2,682
1142,531;  216,702;    1,364;    3,318
1143,067;  432,157;    1,182;    1,045
1143,602;  490,884;   -0,091;   -0,318
1144,138;  331,066;   -2,636;    1,045
1144,673;  197,520;   -1,455;    1,409
1145,209;  267,702;   -1,909;   -0,318
1145,744;  191,066;   -0,727;    0,864
1146,279;  319,066;    1,818;   -0,136
1146,815;  239,520;    1,545;   -2,682
1147,350;  283,157;   -1,364;    0,045
1147,885;  193,338;   -0,818;   -1,318
1148,420;  197,975;   -2,273;    0,773
1148,955;  170,611;   -1,727;    1,864
1149,490;  196,157;   -0,909;   -1,591
1150,025;  184,611;    0,455;   -1,773
1150,560;  293,975;    1,091;   -0,955
1151,094;  264,975;    1,455;   -0,591
1151,629;  262,702;    1,636;    0,864
1152,164;  187,520;    1,364;    1,318
1152,698;  151,429;   -0,182;   -0,136
1153,233;  110,338;    0,091;   -0,682
1153,767;  156,793;   -3,000;   -2,318
1154,302;  199,975;   -1,455;    1,773
1154,836;  200,793;   -0,455;   -2,136
1155,371;  260,157;   -1,364;    3,682
1155,905;  203,793;   -0,636;    1,682
1156,439;  170,338;   -0,636;   -0,500
1156,973;  212,247;    0,364;    0,318
1157,507;  136,975;   -0,364;    0,682
1158,042;  170,520;   -0,727;    1,045
1158,576;  221,520;    0,182;    1,773
1159,110;  215,157;   -0,818;    2,409
1159,643;  181,520;    0,636;   -0,045
1160,177;  114,884;   -1,545;    1,500

