
Integration time [ms]:   0,040
Averaging Nr. [scans]: 11
Smoothing Nr. [pixels]: 0
Data measured with spectrometer [name]: 7318044SP
Wave   ;Sample   ;Dark     ;Reference
[nm]   ;[counts] ;[counts] ;[counts] 

186,757;   35,503;   31,551;    1,318
187,357;   45,102;   22,551;    0,955
187,958;   29,611;   15,460;   -1,591
188,558;   51,836;    8,915;   -1,227
189,159;   34,601;    6,733;   -4,500
189,759;   19,763;    7,278;   -3,591
190,360;   13,839;    2,824;   -2,136
190,960;   29,889;    2,915;   -4,136
191,560;   34,511;    3,189;   -6,591
192,161;  148,811;    4,372;   -3,500
192,761;   82,741;    4,010;   -3,227
193,361;   55,642;    1,556;   -3,773
193,962;   79,301;    2,010;   -2,682
194,562;   36,248;    1,189;   -3,955
195,162;   39,522;   -2,448;   -2,227
195,762;  115,233;   -3,176;   -0,045
196,362;   77,686;    1,370;   -2,500
196,963;   36,492;    2,006;   -0,864
197,563;   61,124;    1,551;   -0,955
198,163;   33,110;    0,096;   -0,682
198,763;   41,132;    1,733;   -0,500
199,363;   82,354;    3,096;   -0,500
199,963;   57,926;    0,369;    0,409
200,563;   51,673;    2,823;   -1,409
201,163;   39,736;    3,277;   -0,227
201,763;   67,661;    3,732;    0,318
202,363;   40,246;    1,459;    1,500
202,963;   76,588;    1,459;    1,045
203,563;  131,700;    0,277;    0,500
204,162;   71,760;    2,096;   -1,864
204,762;   59,316;    0,550;    0,591
205,362;   44,874;    3,004;    1,955
205,962;   82,812;    3,096;    1,955
206,562;   80,198;    1,823;    2,318
207,161;   59,204;   -0,087;    0,318
207,761;  156,112;    1,277;    2,409
208,361;   82,972;   -0,268;    1,409
208,960;  118,769;    0,459;    1,500
209,560;  124,634;    1,277;    1,591
210,160;  133,605;    0,550;    1,864
210,759;  109,278;    4,186;    1,227
211,359;  101,405;    1,459;    1,045
211,958;  248,468;    1,277;    2,045
212,558;  271,196;    1,732;    1,864
213,157;  184,665;    1,822;    1,500
213,757;  402,859;    3,822;   -0,227
214,356;  234,441;    1,277;   -0,409
214,956;  413,000;    3,095;    0,409
215,555;  205,843;    2,095;    2,136
216,154;  169,030;   -2,723;   -0,591
216,754;  168,182;    0,277;    0,773
217,353;  216,497;   -0,268;   -1,045
217,952;  123,700;   -0,178;    0,318
218,552;  263,896;    1,368;   -0,773
219,151;  185,627;    0,277;    0,955
219,750;  180,287;    0,004;   -0,227
220,349;  170,785;   -0,451;    1,045
220,948;  296,450;   -1,360;    1,136
221,548;  213,624;    0,913;    1,227
222,147;  274,554;   -0,087;   -0,409
222,746;  456,405;   -0,451;   -0,955
223,345;  334,389;    0,731;    0,500
223,944;  338,189;   -0,451;    0,773
224,543;  376,721;    1,004;   -1,409
225,142;  426,230;    0,094;    0,136
225,741;  379,471;   -0,814;    1,045
226,340;  369,097;   -0,451;   -0,955
226,939;  566,888;   -0,996;   -0,136
227,538;  385,704;   -0,360;   -0,773
228,137;  572,490;   -0,814;    0,864
228,735;  518,111;   -0,541;    1,227
229,334;  374,354;   -0,905;   -0,227
229,933;  643,030;    0,459;    0,591
230,532;  691,850;    1,186;   -0,409
231,131;  772,462;    1,732;    0,318
231,729;  633,864;   -2,450;   -2,318
232,328;  551,905;   -0,723;   -1,500
232,927;  559,003;    1,004;   -0,500
233,525;  541,548;    3,640;    0,045
234,124;  639,935;    2,368;   -1,591
234,723;  538,965;    0,913;   -1,045
235,321;  562,291;    2,277;    0,136
235,920;  643,970;    1,186;   -1,227
236,518;  859,296;    3,459;    0,318
237,117;  667,180;    0,004;   -0,227
237,715;  679,545;    0,640;   -0,500
238,314;  766,077;   -0,087;   -2,318
238,912;  978,354;   -0,723;   -1,409
239,510;  810,567;    0,459;   -1,227
240,109;  971,796;    0,004;    3,773
240,707;  920,776;   -0,996;    1,227
241,305;  767,068;    0,550;    0,136
241,904;  925,886;   -0,178;   -2,045
242,502; 1035,658;   -0,632;   -0,227
243,100;  910,879;   -0,087;   -0,955
243,698;  888,335;    0,732;    1,682
244,297;  938,641;   -0,632;    0,682
244,895;  931,443;   -0,269;   -2,318
245,493; 1181,316;    2,186;   -0,591
246,091; 1144,705;    1,368;   -1,318
246,689; 1086,599;    1,004;    0,591
247,287; 1043,216;    0,822;   -1,136
247,885; 1046,880;   -1,451;    1,227
248,483;  996,196;    1,822;   -0,500
249,081; 1093,979;    0,185;    1,591
249,679; 1171,469;   -0,178;    1,682
250,277; 1054,229;   -1,723;    0,864
250,875; 1197,712;   -1,087;   -1,045
251,473; 1095,109;   -1,178;    0,500
252,071; 1204,105;    1,459;    1,045
252,669; 1156,553;   -1,814;    0,318
253,267; 1125,337;   -0,087;    0,773
253,864; 1118,397;   -0,360;    0,682
254,462; 1329,017;    1,640;    1,591
255,060; 1066,942;   -0,269;    1,318
255,658; 1065,553;    0,822;   -0,136
256,255; 1252,382;    0,186;   -2,045
256,853; 1281,516;   -0,269;    1,409
257,451; 1243,831;    0,822;    1,864
258,048; 1784,120;    1,822;    1,864
258,646; 1353,456;    1,731;   -1,045
259,243; 1480,426;   -0,087;    2,227
259,841; 1376,290;   -0,814;    0,318
260,438; 1220,072;   -0,087;    0,864
261,036; 1394,116;   -1,905;    1,409
261,633; 1345,128;   -0,087;    2,227
262,231; 1277,240;    2,731;   -0,045
262,828; 1315,102;   -0,905;    1,136
263,425; 1343,999;    0,913;   -0,591
264,023; 1379,578;    0,186;    0,045
264,620; 1458,335;   -0,360;   -0,318
265,217; 1614,568;   -2,087;    3,136
265,815; 1354,494;   -1,905;    2,136
266,412; 1468,234;    0,731;    0,136
267,009; 1510,089;   -1,451;    0,773
267,606; 1624,820;    0,822;   -0,955
268,203; 1373,090;   -0,269;   -0,591
268,801; 1472,543;    1,731;    0,591
269,398; 1434,294;   -0,360;    2,500
269,995; 1572,465;    0,277;    1,591
270,592; 1420,813;   -0,632;   -0,500
271,189; 1409,753;    0,186;    0,409
271,786; 1432,837;   -0,632;    1,227
272,383; 1685,146;   -1,087;    0,227
272,980; 1529,750;    0,277;    0,318
273,577; 1554,269;    0,004;    1,227
274,174; 1402,880;    0,822;    2,591
274,771; 1505,462;   -0,814;   -0,773
275,367; 1975,436;    2,277;    1,409
275,964; 1795,899;    0,731;   -0,500
276,561; 1606,689;    1,549;   -1,045
277,158; 1544,560;    0,095;   -1,773
277,755; 1805,434;    2,185;    0,409
278,351; 1536,805;   -0,451;   -1,500
278,948; 1664,050;   -0,815;    0,045
279,545; 1545,238;   -1,360;    2,318
280,141; 1949,044;   -1,723;   -2,045
280,738; 1752,705;   -0,451;   -0,136
281,334; 1599,021;   -1,633;    0,591
281,931; 1522,422;   -0,087;   -1,318
282,528; 1630,624;    0,822;   -0,500
283,124; 1873,290;   -1,087;   -0,500
283,721; 1831,452;   -0,451;    1,409
284,317; 1655,810;    0,185;    2,500
284,913; 1954,841;   -1,360;    0,591
285,510; 2284,932;    0,640;   -0,318
286,106; 2095,277;   -2,269;   -0,955
286,703; 1666,272;   -0,360;    1,955
287,299; 1682,745;   -1,451;   -0,591
287,895; 1773,068;    0,822;   -1,045
288,491; 1883,567;    0,186;    2,136
289,088; 1929,242;   -2,360;    2,409
289,684; 1938,735;   -1,723;    1,500
290,280; 2087,362;    0,368;    0,682
290,876; 2086,770;    1,822;    5,500
291,472; 1973,383;    1,276;    2,227
292,068; 1984,307;    1,367;    0,227
292,665; 1781,927;    2,095;    0,773
293,261; 1672,147;    0,276;    2,136
293,857; 1848,696;    2,913;    2,136
294,453; 1795,379;    3,550;    0,955
295,049; 1962,561;   -0,268;    1,955
295,644; 1819,614;    0,095;    0,136
296,240; 1717,262;   -0,905;   -0,136
296,836; 1871,204;   -0,995;    0,318
297,432; 2041,756;    1,096;   -0,500
298,028; 2109,130;    0,732;    0,773
298,624; 1998,431;    1,459;    1,864
299,220; 2026,745;    2,368;    0,591
299,815; 1925,845;    1,005;   -0,409
300,411; 1990,561;    0,914;    1,773
301,007; 2100,085;    1,368;    0,227
301,602; 1922,047;   -0,541;   -2,318
302,198; 2056,298;    0,732;   -0,773
302,794; 2000,513;    1,187;   -0,500
303,389; 2023,286;   -1,177;    1,045
303,985; 2076,326;    0,550;    1,409
304,580; 2136,589;    1,459;    1,591
305,176; 2030,647;   -3,086;    0,136
305,771; 1908,969;   -1,268;   -1,227
306,367; 2281,161;    4,095;    0,136
306,962; 2150,956;    0,641;    1,500
307,558; 2017,674;   -0,450;    0,136
308,153; 2093,390;    1,095;   -1,136
308,748; 1998,476;   -0,814;    1,682
309,344; 2329,984;   -0,632;   -1,318
309,939; 2400,308;   -1,905;   -1,318
310,534; 2175,010;   -0,086;   -1,682
311,130; 2057,138;    0,459;   -2,500
311,725; 1920,440;    1,004;   -0,500
312,320; 2080,891;    2,459;    0,045
312,915; 2219,843;    1,459;   -1,045
313,510; 2411,096;    1,550;   -0,500
314,105; 2336,418;    1,096;    1,409
314,700; 2010,811;   -3,086;   -1,045
315,295; 2012,589;   -0,904;    0,045
315,890; 1882,472;    1,277;    0,864
316,485; 2004,197;   -0,359;   -0,318
317,080; 2002,896;   -3,086;    1,591
317,675; 2331,724;    2,005;   -0,682
318,270; 2399,101;    5,550;    3,318
318,865; 2362,722;    3,278;    3,045
319,460; 2146,860;   -0,904;    0,591
320,055; 2119,854;   -0,541;   -1,227
320,650; 2017,592;   -1,995;   -0,591
321,244; 2039,020;   -0,177;   -1,409
321,839; 2341,765;   -1,541;   -0,227
322,434; 2332,709;   -1,086;   -1,591
323,029; 2174,363;    1,732;    1,591
323,623; 2103,294;    1,550;    0,773
324,218; 2181,985;    2,368;    1,409
324,812; 2115,801;    1,096;    1,591
325,407; 2083,860;   -0,814;    2,045
326,002; 2132,613;    0,277;   -0,409
326,596; 2161,039;    0,914;    1,318
327,191; 2107,356;    0,823;   -1,045
327,785; 1964,493;   -0,813;   -0,227
328,379; 2133,997;    1,368;    0,136
328,974; 2017,002;    0,914;   -3,955
329,568; 2167,821;    0,186;   -2,409
330,163; 2189,761;    2,096;    1,045
330,757; 2167,237;    2,459;    1,591
331,351; 1999,349;    0,459;    0,682
331,945; 2075,134;    0,914;    1,409
332,540; 2120,819;   -1,723;   -0,591
333,134; 2100,626;   -1,086;    0,773
333,728; 2095,996;    0,005;    0,318
334,322; 2154,245;   -1,177;   -0,864
334,916; 1920,605;    0,277;    0,955
335,510; 2143,688;   -0,450;   -0,136
336,105; 2226,265;   -1,086;    1,591
336,699; 2032,137;   -1,086;    0,591
337,293; 2027,842;   -1,723;    0,318
337,887; 2008,077;   -2,723;    1,955
338,481; 2158,627;    0,459;    0,591
339,074; 2335,135;   -0,359;    2,682
339,668; 2260,055;   -1,632;    1,227
340,262; 2875,010;    1,732;    3,227
340,856; 2359,386;    1,822;   -0,682
341,450; 1927,153;    1,004;    1,864
342,044; 2145,569;    1,459;    0,136
342,637; 2230,615;    0,913;   -2,136
343,231; 2230,659;   -2,360;    0,682
343,825; 2013,576;   -1,086;   -0,591
344,419; 2051,225;   -1,995;    0,500
345,012; 2572,731;    2,459;    4,045
345,606; 2359,545;    4,641;    1,591
346,199; 2060,718;   -1,813;   -0,227
346,793; 2113,183;    1,914;    2,045
347,386; 2008,690;   -0,813;   -1,136
347,980; 1862,462;   -0,268;   -0,045
348,573; 1950,762;    2,278;    0,409
349,167; 2123,122;    5,278;    4,773
349,760; 2180,794;    2,914;    2,682
350,354; 2067,364;   -0,813;    1,136
350,947; 2078,685;    1,096;    1,682
351,540; 1846,115;   -0,358;   -1,409
352,134; 1715,162;    1,096;    1,136
352,727; 1786,296;   -0,086;    1,136
353,320; 1808,879;    0,005;    0,591
353,913; 1659,974;   -1,995;    1,864
354,507; 1914,868;    0,823;   -1,227
355,100; 1858,777;    0,460;    0,864
355,693; 2113,948;    2,005;    2,409
356,286; 1857,238;    0,823;    2,773
356,879; 1796,733;   -0,722;    1,227
357,472; 1676,874;   -0,904;    1,500
358,065; 1796,628;   -0,722;    2,500
358,658; 1680,627;   -0,540;    2,318
359,251; 1554,930;   -1,631;   -0,591
359,844; 1652,856;   -1,904;   -1,136
360,437; 1786,893;   -2,995;    0,045
361,030; 1721,561;    1,369;   -0,682
361,623; 1607,251;    2,824;    0,318
362,215; 1810,861;   -0,086;    2,045
362,808; 1648,769;   -2,358;   -1,682
363,401; 1640,853;   -2,449;    0,136
363,994; 1841,985;   -0,631;   -1,500
364,586; 1617,918;    0,824;   -1,500
365,179; 1591,106;   -0,449;   -1,136
365,772; 1344,124;   -1,995;    2,045
366,364; 1504,262;    1,915;   -3,227
366,957; 1683,752;    2,279;   -0,045
367,549; 1571,667;    2,188;   -0,864
368,142; 1523,836;    1,825;   -1,500
368,734; 1530,544;    0,734;   -2,136
369,327; 1467,531;    1,643;   -0,500
369,919; 1493,666;   -1,538;    0,409
370,512; 1530,312;   -1,083;   -0,500
371,104; 1704,832;   -0,901;    1,591
371,696; 1789,848;    1,191;   -0,955
372,289; 1650,350;    0,373;    1,136
372,881; 1618,372;   -2,080;    1,318
373,473; 1451,337;   -2,170;    1,136
374,066; 1546,629;   -0,169;    0,500
374,658; 1503,108;    0,378;    1,136
375,250; 1519,571;    0,653;   -1,409
375,842; 1532,870;    0,473;   -0,045
376,434; 1466,493;   -0,435;   -0,409
377,026; 1622,219;    0,204;   -2,500
377,618; 1598,297;   -0,158;   -0,682
378,210; 1505,811;   -0,338;   -1,955
378,802; 1405,778;    0,754;   -0,591
379,394; 1866,813;    1,846;    0,682
379,986; 1726,697;    1,393;   -0,955
380,578; 1648,998;   -0,153;    0,773
381,170; 1770,008;   -0,972;    0,045
381,762; 1639,857;    0,755;    1,409
382,354; 1601,413;   -0,065;   -1,318
382,945; 1539,928;   -2,976;    0,318
383,537; 1528,830;   -2,705;   -1,955
384,129; 1574,267;   -2,160;   -1,136
384,721; 1684,665;   -0,252;    0,955
385,312; 1565,711;   -0,161;   -0,955
385,904; 1736,982;   -2,706;    1,591
386,496; 1471,744;   -0,979;    1,045
387,087; 1650,190;    1,022;    2,500
387,679; 1594,390;   -1,160;    0,045
388,270; 1658,680;    2,840;    2,045
388,862; 1602,289;    1,295;   -0,318
389,453; 1474,957;   -0,887;    1,045
390,045; 1604,498;   -0,705;   -2,682
390,636; 1565,996;    0,204;   -0,591
391,227; 1530,416;   -0,523;   -0,045
391,819; 1599,035;    0,204;    0,773
392,410; 1816,937;    1,022;    0,045
393,001; 1647,465;   -0,979;   -1,591
393,593; 1739,513;    1,930;   -0,045
394,184; 1759,040;    1,385;   -0,409
394,775; 1542,696;    1,839;    2,136
395,366; 1628,786;    1,385;    0,773
395,957; 1767,336;    0,113;    0,136
396,548; 1717,545;   -0,342;    2,682
397,139; 1918,761;   -2,433;    0,591
397,730; 1748,569;   -1,888;    0,955
398,321; 1753,112;   -1,252;    0,955
398,912; 1691,510;   -0,615;    0,136
399,503; 1781,485;   -3,524;   -1,409
400,094; 1667,095;    0,294;    1,682
400,685; 1651,148;   -0,433;    0,045
401,276; 1561,391;    0,930;   -0,955
401,867; 1625,677;   -0,888;    0,773
402,458; 1635,174;   -2,251;   -2,318
403,048; 1764,601;    1,112;    0,591
403,639; 1583,134;    0,840;    0,864
404,230; 1852,090;    2,476;    0,318
404,821; 1877,394;   -0,615;    0,045
405,411; 1779,216;    1,203;   -2,591
406,002; 1583,545;   -1,252;   -1,136
406,592; 1838,194;    2,294;    0,045
407,183; 1734,149;    0,566;   -1,500
407,774; 1656,222;    3,475;   -0,136
408,364; 1679,627;    0,930;    0,409
408,954; 1755,424;    0,384;    1,227
409,545; 1758,651;    1,021;    1,045
410,135; 1575,436;    1,293;    0,500
410,726; 1565,829;    1,838;    0,318
411,316; 1830,192;    0,111;    0,773
411,906; 1596,982;   -0,253;   -0,409
412,497; 1511,340;   -1,070;   -0,045
413,087; 1581,835;   -1,980;   -0,227
413,677; 1644,016;   -0,707;    3,864
414,267; 1575,042;    0,656;    1,409
414,857; 1535,678;   -2,980;    4,227
415,448; 1614,733;    0,839;    0,500
416,038; 1579,541;    0,020;   -0,591
416,628; 1586,608;   -0,889;    0,409
417,218; 1634,359;    0,565;    3,318
417,808; 1811,449;    0,202;   -0,409
418,398; 1697,923;    0,020;    2,682
418,988; 1595,448;    2,020;    0,591
419,578; 1697,102;   -0,707;    1,409
420,168; 1810,285;   -1,343;   -0,955
420,757; 1865,829;   -1,343;   -1,500
421,347; 1634,234;    0,111;   -0,227
421,937; 1634,648;    2,292;    1,409
422,527; 1771,753;    0,838;   -0,773
423,116; 1870,822;   -0,253;   -0,045
423,706; 1672,922;   -1,889;    0,318
424,296; 1543,983;    1,384;    0,682
424,885; 1836,619;   -0,071;   -3,045
425,475; 1834,209;    1,474;   -2,864
426,065; 1694,911;   -0,980;   -0,318
426,654; 1621,810;   -0,435;   -0,318
427,244; 1966,456;    0,020;    1,409
427,833; 1835,350;    1,383;   -0,500
428,423; 1730,367;   -0,526;    1,136
429,012; 1915,500;   -0,344;   -1,136
429,601; 1914,807;   -1,344;    0,136
430,191; 1822,057;    1,292;    4,318
430,780; 1602,301;   -0,344;   -0,409
431,369; 1910,186;    0,746;   -0,045
431,959; 1947,448;   -1,254;    0,500
432,548; 1784,407;   -1,163;   -0,045
433,137; 1719,406;   -1,254;   -1,318
433,726; 1942,543;    0,292;    0,500
434,315; 1833,219;   -0,526;    2,409
434,905; 1943,916;   -1,254;    1,409
435,494; 2009,530;    0,746;    0,955
436,083; 1912,886;   -0,981;   -0,955
436,672; 1903,885;    0,110;    0,500
437,261; 1846,483;    0,292;   -1,955
437,850; 2184,873;    1,383;    0,682
438,439; 2195,970;    3,291;    1,955
439,027; 2267,818;    3,655;    1,773
439,616; 2285,760;    2,927;    1,227
440,205; 1984,560;    0,200;   -2,136
440,794; 1836,290;    2,109;   -0,045
441,383; 1821,934;   -1,346;   -0,591
441,971; 1697,510;   -2,436;    0,591
442,560; 1688,240;    0,563;   -1,773
443,149; 1548,214;    0,379;   -1,318
443,737; 1696,842;   -0,074;   -2,318
444,326; 1747,921;    0,018;    0,318
444,915; 1798,942;   -1,982;    0,864
445,503; 1872,231;   -2,891;   -0,318
446,092; 2065,260;    0,382;    2,136
446,680; 2097,668;    0,382;    0,318
447,269; 2038,798;   -0,346;   -0,318
447,857; 1899,644;    0,018;   -1,773
448,445; 1897,027;    0,563;    1,318
449,034; 1926,851;   -1,528;   -1,136
449,622; 1894,957;   -1,073;    3,500
450,210; 2230,150;    2,017;    2,227
450,799; 2194,073;    0,290;   -0,591
451,387; 1997,107;    1,381;   -0,591
451,975; 1959,124;    2,654;    0,864
452,563; 2138,303;    3,472;    2,318
453,151; 1868,193;   -0,528;   -1,227
453,739; 1883,169;   -1,347;    0,136
454,328; 2066,241;    2,381;   -2,136
454,916; 1903,941;    2,562;   -0,136
455,504; 1922,357;    1,017;    1,227
456,092; 1864,985;    0,017;   -1,591
456,679; 1759,025;    1,472;    0,682
457,267; 2397,871;    4,017;    1,045
457,855; 1952,865;    1,017;    1,409
458,443; 1643,589;   -0,165;    1,682
459,031; 2024,909;    0,108;    2,409
459,619; 2010,709;   -1,801;    2,864
460,206; 1851,485;    0,835;    2,045
460,794; 1910,337;   -2,983;   -0,227
461,382; 2015,884;   -0,529;   -0,864
461,970; 1860,420;    1,198;    1,864
462,557; 1859,577;   -0,711;   -0,682
463,145; 2064,224;   -3,165;   -1,682
463,732; 2320,797;    2,016;   -1,045
464,320; 2021,799;   -0,075;   -3,045
464,907; 2170,750;    2,743;   -0,773
465,495; 2019,830;    0,743;   -1,227
466,082; 1914,032;   -1,984;   -0,045
466,670; 1823,546;   -2,529;    1,227
467,257; 1880,424;   -1,711;    2,045
467,844; 2055,201;   -0,075;    0,045
468,432; 2031,902;    0,834;    3,500
469,019; 1862,955;    0,925;   -1,773
469,606; 2001,436;    0,470;    3,682
470,193; 2034,064;   -1,439;    0,227
470,780; 1977,623;   -2,075;    0,864
471,368; 1930,989;   -1,257;   -0,773
471,955; 1987,945;    1,379;   -0,682
472,542; 1856,068;    0,652;   -1,136
473,129; 1756,121;   -0,166;    0,136
473,716; 1698,829;    1,470;    0,591
474,303; 1764,586;    0,652;   -0,864
474,890; 1827,480;   -1,439;   -0,500
475,477; 1987,852;   -1,621;    0,409
476,064; 1856,561;    1,106;   -1,591
476,650; 1904,261;    0,288;    0,318
477,237; 1805,352;   -0,258;    0,955
477,824; 1802,084;   -1,076;    0,864
478,411; 1698,296;   -1,894;   -0,318
478,997; 1747,460;    0,560;   -0,773
479,584; 1677,270;    1,196;   -0,409
480,171; 2087,635;   -0,440;   -0,773
480,757; 2137,956;    2,651;    0,773
481,344; 2005,569;    0,469;    0,409
481,931; 1718,510;    1,105;    1,045
482,517; 2144,090;   -1,258;    0,318
483,104; 2312,629;    1,106;    2,864
483,690; 2260,038;   -1,804;    0,045
484,276; 2283,737;   -0,895;    0,227
484,863; 2506,815;    2,469;    1,136
485,449; 2408,190;   -0,077;    0,318
486,035; 2323,891;   -1,986;   -0,136
486,622; 2547,939;   -0,895;    0,045
487,208; 2411,599;    1,378;    1,500
487,794; 2328,981;    0,741;    0,318
488,380; 2395,374;    0,105;   -1,409
488,967; 2372,415;   -1,168;   -0,409
489,553; 2386,361;   -1,895;   -1,409
490,139; 2515,023;    1,559;    0,773
490,725; 2334,007;    0,741;   -0,227
491,311; 2242,836;    3,287;    3,045
491,897; 1993,608;   -0,986;    1,500
492,483; 2027,279;    0,105;    1,227
493,069; 2699,664;    3,923;    0,864
493,655; 2199,773;    1,650;    0,682
494,241; 2044,147;    1,377;   -0,955
494,826; 2173,346;    0,287;   -1,045
495,412; 2104,442;    2,559;   -0,682
495,998; 2065,937;   -0,805;   -0,318
496,584; 2076,928;    0,377;    1,045
497,169; 1987,270;    1,014;   -0,682
497,755; 1906,534;    0,650;    1,227
498,341; 2333,346;    0,559;    0,318
498,926; 2374,855;    1,832;    1,955
499,512; 2098,321;    1,286;    2,955
500,097; 1985,718;    0,195;   -0,318
500,683; 2027,992;   -0,350;    2,136
501,268; 2092,028;   -0,169;   -0,955
501,854; 2082,748;   -0,169;    1,227
502,439; 1995,533;   -0,624;   -1,773
503,024; 2096,318;    0,195;    0,500
503,610; 2149,551;   -0,078;   -0,682
504,195; 2000,994;    0,558;    1,955
504,780; 2148,542;    2,922;    1,227
505,366; 2272,997;    3,013;    2,864
505,951; 2087,813;    0,740;    1,045
506,536; 2047,365;   -3,260;   -3,682
507,121; 2050,735;    0,285;   -0,318
507,706; 2139,052;    2,376;    1,045
508,291; 2103,465;    2,649;    1,136
508,876; 1974,843;   -0,988;    2,591
509,461; 1931,527;   -0,169;   -0,773
510,046; 2070,199;    0,194;    0,318
510,631; 2071,943;   -0,351;   -0,773
511,216; 1957,694;    2,467;   -0,500
511,801; 2140,768;   -0,442;    2,591
512,386; 2143,695;    0,740;    0,500
512,971; 2156,934;   -2,988;    0,955
513,555; 2170,552;   -0,897;   -1,500
514,140; 2298,572;   -0,442;   -3,136
514,725; 2321,412;   -0,715;   -1,136
515,309; 2250,503;   -0,533;    0,318
515,894; 2113,392;   -0,624;   -2,227
516,479; 2185,270;   -0,624;   -0,955
517,063; 2117,862;    0,376;    1,227
517,648; 2155,013;    1,012;   -1,136
518,232; 1951,028;   -0,261;   -1,409
518,817; 2120,508;   -0,079;    1,682
519,401; 2309,685;    2,194;    0,591
519,985; 2035,474;    1,103;    1,136
520,570; 1947,295;    0,830;   -1,955
521,154; 2126,137;    2,102;    0,591
521,738; 2364,376;   -2,352;    2,409
522,323; 2406,774;   -0,170;    1,682
522,907; 2233,690;    0,466;   -0,136
523,491; 2122,644;    0,557;    0,955
524,075; 2069,124;    2,284;    0,591
524,659; 2222,782;    1,466;    0,591
525,243; 2078,211;    1,739;    0,409
525,827; 2041,497;    0,648;   -0,045
526,411; 2204,509;   -1,989;   -0,136
526,995; 2398,655;   -0,352;    1,409
527,579; 2327,848;   -0,443;   -1,045
528,163; 2328,457;    0,375;   -1,500
528,747; 2483,291;    2,466;   -0,773
529,331; 2482,039;   -0,080;   -1,409
529,915; 2309,038;    1,738;    0,955
530,499; 2356,214;   -0,807;    1,227
531,082; 2379,818;   -0,534;    1,591
531,666; 2362,490;    1,374;    0,773
532,250; 2403,134;    1,284;    2,682
532,833; 2573,318;    0,920;    2,773
533,417; 2383,808;   -1,807;    0,864
534,001; 2402,190;    1,647;   -0,318
534,584; 2516,602;    0,374;    0,500
535,168; 2359,662;    0,465;    1,409
535,751; 2643,964;    0,647;    0,045
536,334; 2265,918;   -0,898;   -0,409
536,918; 2399,514;    0,011;    1,591
537,501; 2388,997;   -0,899;    1,318
538,085; 2419,830;   -0,444;    1,045
538,668; 2392,037;    0,829;    2,409
539,251; 2740,335;    1,829;    3,773
539,834; 2608,547;    0,101;    0,773
540,418; 2653,610;   -1,990;    4,318
541,001; 2755,393;   -0,990;    1,773
541,584; 2574,550;    2,101;    2,227
542,167; 2537,038;    1,374;    2,955
542,750; 2513,088;    1,919;   -0,773
543,333; 2229,488;    0,555;    2,136
543,916; 2596,344;    0,192;    2,500
544,499; 2561,399;   -1,354;    0,227
545,082; 2642,257;    1,374;    3,591
545,665; 2632,869;    1,919;    1,500
546,248; 2738,398;    1,010;   -0,318
546,830; 2655,408;   -0,445;    1,955
547,413; 2771,204;    1,010;   -0,773
547,996; 2936,303;    0,555;    0,500
548,579; 2678,009;    0,919;    0,955
549,161; 2788,867;    1,828;    2,682
549,744; 2676,299;   -0,809;    0,409
550,326; 2802,330;   -0,809;   -1,136
550,909; 3057,717;    2,737;    0,591
551,492; 2954,876;   -0,263;    0,227
552,074; 2915,388;   -0,173;   -1,318
552,657; 3066,489;    2,373;    0,045
553,239; 2894,928;   -0,173;   -0,773
553,821; 2858,445;   -1,082;    1,045
554,404; 2841,832;    1,282;    1,136
554,986; 2995,195;    0,464;    1,045
555,568; 3047,179;    1,191;   -0,955
556,151; 3067,022;    1,191;   -0,227
556,733; 2914,301;   -0,264;   -0,864
557,315; 2954,055;    0,100;    0,500
557,897; 2716,626;    0,554;   -0,500
558,479; 2778,207;   -1,991;    1,318
559,061; 2912,567;   -0,719;   -0,864
559,643; 3057,534;   -0,264;    0,045
560,225; 3070,219;    1,645;    2,864
560,807; 3045,715;    0,918;    0,318
561,389; 2934,619;    0,554;    2,318
561,971; 3013,190;    0,463;    2,136
562,553; 3046,042;   -1,628;    1,591
563,135; 3135,093;   -0,537;    1,136
563,717; 3236,164;    3,372;    1,136
564,298; 3273,774;    3,645;   -0,045
564,880; 3025,143;    0,645;   -1,409
565,462; 3010,597;    0,645;    1,318
566,043; 3479,288;   -0,446;    2,318
566,625; 3371,454;    1,918;    1,227
567,207; 3202,634;    1,099;    1,682
567,788; 3411,891;   -1,264;    1,500
568,370; 3680,535;    1,917;   -0,500
568,951; 3475,355;    0,190;    0,227
569,533; 3775,564;   -0,628;   -0,500
570,114; 3969,064;   -0,446;    0,682
570,695; 4072,833;   -0,174;   -1,318
571,277; 4039,468;   -0,265;   -1,682
571,858; 4335,413;    2,008;   -1,136
572,439; 4554,213;    1,554;   -1,045
573,021; 4505,288;    2,099;   -2,773
573,602; 4648,001;   -1,265;    0,318
574,183; 4868,101;   -2,083;    2,227
574,764; 4862,869;   -1,629;    0,409
575,345; 4953,216;    0,917;   -0,136
575,926; 5122,204;   -0,356;    0,136
576,507; 5162,986;    1,099;   -0,227
577,088; 5489,163;    3,099;    1,682
577,669; 5536,717;    0,735;    1,955
578,250; 5816,556;    0,644;   -1,045
578,831; 5814,880;   -1,356;   -2,227
579,412; 5747,469;   -0,810;    0,955
579,993; 6238,691;    1,008;    0,227
580,573; 6288,438;   -0,629;   -0,955
581,154; 5674,191;    0,735;   -0,591
581,735; 6069,788;    0,644;    0,773
582,315; 5756,242;   -0,629;    2,136
582,896; 6066,324;   -0,174;    1,227
583,477; 5811,230;    0,189;    1,227
584,057; 5913,959;    0,553;    0,955
584,638; 6014,236;    2,553;    2,318
585,218; 6064,110;   -0,538;    2,682
585,799; 6049,359;    0,281;   -0,227
586,379; 6030,618;    0,372;    1,591
586,959; 5694,020;    0,735;    0,318
587,540; 5466,456;   -0,629;    2,227
588,120; 5275,974;    1,007;   -0,045
588,700; 5020,087;    2,553;    2,136
589,281; 5304,883;    0,462;   -0,955
589,861; 5169,978;    0,099;   -1,682
590,441; 5109,277;    2,371;   -2,682
591,021; 4687,131;   -0,265;   -2,591
591,601; 4935,517;   -0,537;    0,500
592,181; 5059,280;   -0,719;   -0,773
592,761; 4631,465;    0,007;    1,409
593,341; 4745,091;   -0,901;    0,045
593,921; 4689,885;   -0,265;    1,591
594,501; 4605,843;   -0,538;    1,318
595,081; 4550,679;    0,917;   -0,318
595,661; 4812,930;   -1,447;    0,955
596,240; 5016,250;   -0,537;    0,136
596,820; 4833,969;    0,372;    1,955
597,400; 4668,526;    2,008;    0,773
597,980; 4805,680;    2,008;    1,045
598,559; 4850,481;    2,735;   -0,227
599,139; 4781,571;   -0,174;   -1,227
599,718; 4700,026;   -0,174;   -0,409
600,298; 4851,668;    0,735;    0,682
600,877; 5079,180;    2,917;    1,409
601,457; 5158,171;    2,281;    1,136
602,036; 5046,230;    0,190;    2,045
602,616; 4977,665;    0,644;    1,682
603,195; 5144,156;   -0,355;    3,500
603,774; 4917,787;   -0,901;    2,045
604,354; 4880,721;    0,826;   -0,500
604,933; 4752,381;    0,463;    1,864
605,512; 4916,761;    3,554;    0,591
606,091; 4935,864;   -0,537;    3,773
606,671; 5150,182;    0,281;    0,773
607,250; 4905,939;    1,644;    3,136
607,829; 4976,957;    2,372;    3,227
608,408; 4900,466;    1,190;    2,591
608,987; 4610,817;    1,281;    3,409
609,566; 4565,945;   -1,265;   -2,500
610,145; 4696,418;   -1,082;    0,682
610,723; 4928,483;    4,372;    6,864
611,302; 4533,591;   -0,446;    1,682
611,881; 4414,802;    5,008;   11,227
612,460; 4616,752;    1,645;    3,955
613,039; 4800,638;   -0,082;    2,045
613,617; 4294,840;    1,736;    4,773
614,196; 4325,575;    1,099;    1,227
614,775; 4531,602;    1,009;    2,409
615,353; 4495,250;    0,736;    0,864
615,932; 4438,472;    0,100;    2,409
616,510; 4674,224;    0,554;    0,591
617,089; 4734,967;    7,100;   17,591
617,667; 4595,578;    2,372;    6,136
618,246; 4308,130;   -1,537;    1,318
618,824; 4394,912;   -3,355;   -0,955
619,402; 4221,291;   -2,900;   -1,773
619,981; 4456,732;   -0,173;   -1,045
620,559; 4463,137;    0,009;    1,682
621,137; 4400,040;   -0,718;    1,864
621,715; 4061,378;   -1,173;   -0,682
622,293; 4100,202;   -0,537;   -0,773
622,871; 4472,237;   -0,718;    0,500
623,450; 4259,800;    0,373;   -0,864
624,028; 4313,945;    0,191;   -0,955
624,606; 4131,148;   -1,718;    1,682
625,183; 4163,023;   -1,536;   -1,136
625,761; 4105,645;    1,009;    1,136
626,339; 4423,673;    1,373;    2,591
626,917; 4338,693;   -0,172;   -0,045
627,495; 4386,470;   -0,354;    1,318
628,073; 4177,886;   -0,263;    2,864
628,650; 4075,333;    0,100;    2,136
629,228; 4256,109;    0,373;    4,409
629,806; 3893,817;    2,282;    1,136
630,383; 4030,829;    1,464;   -0,318
630,961; 3993,822;    2,555;   -0,955
631,539; 3868,612;    2,464;    0,227
632,116; 4158,731;   11,373;   15,409
632,694; 4079,314;    2,555;    6,500
633,271; 3933,383;    0,828;    2,682
633,848; 4052,866;    1,828;    2,045
634,426; 3986,227;   -1,081;    1,773
635,003; 3732,135;    1,101;   -0,409
635,580; 3911,075;    1,192;    3,682
636,158; 3930,128;    3,737;    1,227
636,735; 3858,115;    0,555;   -0,500
637,312; 3867,118;   -0,809;   -0,682
637,889; 3919,784;   -4,354;   -0,682
638,466; 3823,258;   -3,990;   -0,409
639,043; 3778,827;    2,101;   -1,136
639,620; 3839,897;   -2,262;   -0,955
640,197; 3996,428;    1,100;    1,682
640,774; 4112,920;   -0,172;    1,136
641,351; 4200,322;    0,737;    1,136
641,928; 4075,086;   -0,627;    1,409
642,505; 4071,215;    0,828;   -0,500
643,082; 4084,252;   -1,718;    1,227
643,658; 3659,381;   -0,718;    1,500
644,235; 3855,782;    1,191;    2,500
644,812; 3924,183;    1,918;    0,773
645,388; 3866,675;   -0,991;    1,409
645,965; 3762,077;   -0,809;    1,682
646,542; 3813,205;   -1,445;   -0,227
647,118; 4111,061;    1,009;   -0,955
647,695; 4044,917;   -0,263;    1,136
648,271; 3943,591;   -0,536;    0,500
648,848; 4026,083;    0,736;    2,227
649,424; 4062,666;    0,827;    1,318
650,000; 3776,249;   -0,354;   -1,045
650,577; 3852,741;   -0,627;   -0,955
651,153; 4022,415;   -1,809;    0,955
651,729; 4174,816;    1,191;    0,864
652,305; 4316,126;    0,645;    2,773
652,881; 5337,073;   -0,082;    1,136
653,458; 7251,383;    1,100;    0,227
654,034; 8378,239;    0,282;    1,591
654,610; 8630,277;    0,554;    0,773
655,186; 9151,132;    0,645;    3,045
655,762; 8834,988;   -0,991;    0,409
656,338; 8825,662;    0,100;    0,136
656,913; 9298,063;   -0,082;    0,409
657,489; 8939,737;    0,827;   -0,318
658,065; 9010,956;   -0,173;   -1,591
658,641; 9369,176;   -0,900;   -0,864
659,217; 8938,123;   -0,991;    0,409
659,792; 8517,796;    0,645;   -0,409
660,368; 8735,652;   -2,173;   -0,682
660,944; 8947,326;   -2,082;    1,227
661,519; 7653,636;   -0,628;    0,409
662,095; 6034,492;   -1,719;    0,591
662,670; 4726,621;    1,281;   -0,136
663,246; 4530,113;    1,009;   -0,409
663,821; 4400,969;    0,281;    1,682
664,396; 4048,006;    0,009;    1,864
664,972; 4164,498;    0,009;   -0,500
665,547; 4353,718;    1,372;    0,136
666,122; 4277,392;   -1,082;    0,318
666,698; 4407,065;   -0,173;    0,318
667,273; 4019,103;   -0,173;    0,136
667,848; 4326,504;    2,372;    1,500
668,423; 4281,996;    2,190;    2,318
668,998; 4313,670;    2,827;   -0,682
669,573; 4493,435;   -3,264;   -1,500
670,148; 4540,564;   -1,446;   -0,682
670,723; 4263,147;   -1,810;    0,318
671,298; 4585,457;    2,372;    1,045
671,873; 4485,494;   -0,082;   -0,136
672,448; 4484,714;    0,645;    0,136
673,023; 4601,206;   -1,992;   -0,227
673,597; 4757,425;    0,827;    2,318
674,172; 4671,917;   -0,355;    0,318
674,747; 4482,773;    0,372;   -1,045
675,321; 4297,811;   -0,628;    3,318
675,896; 4141,576;    0,645;    1,045
676,471; 4471,977;    2,645;    1,591
677,045; 4360,105;   -1,264;    0,682
677,620; 4333,597;    0,190;    1,136
678,194; 4511,180;   -2,628;    1,136
678,769; 4430,854;   -1,083;   -0,318
679,343; 4542,165;   -0,628;    1,773
679,917; 4484,020;   -1,446;    1,955
680,492; 4412,785;    0,826;    3,227
681,066; 4465,823;    3,372;    0,409
681,640; 4500,042;    1,463;   -0,318
682,214; 4765,716;    0,735;    0,500
682,788; 4588,481;   -1,356;   -0,773
683,363; 4511,882;   -1,810;    1,682
683,937; 4373,920;   -1,719;   -0,318
684,511; 4715,412;    0,463;   -0,591
685,085; 4610,995;   -1,356;    0,318
685,659; 4453,032;   -2,538;    0,864
686,232; 4620,979;   -0,356;   -0,318
686,806; 4521,017;   -0,901;    0,409
687,380; 4731,872;   -0,174;    0,591
687,954; 4808,183;   -1,174;    1,136
688,528; 4709,857;   -0,719;    1,955
689,101; 5028,985;   -3,992;    1,045
689,675; 4769,568;   -0,356;   -0,136
690,249; 4586,242;   -0,719;    0,409
690,822; 4741,462;    0,280;    0,318
691,396; 4701,681;   -0,265;    1,227
691,969; 4494,991;    1,280;    0,136
692,543; 4735,847;   -0,447;   -1,955
693,116; 4508,612;   -0,265;   -1,409
693,690; 4519,922;    0,099;    0,500
694,263; 4761,596;   -1,083;    2,955
694,836; 4858,179;    1,371;    3,591
695,410; 4361,944;   -0,265;    1,773
695,983; 4472,891;    0,189;    0,591
696,556; 4461,292;   -0,447;   -1,045
697,129; 4624,238;   -0,356;    1,409
697,703; 4445,640;   -1,629;    1,955
698,276; 4523,404;    1,462;   -0,773
698,849; 4442,624;    1,280;    1,409
699,422; 4479,298;   -1,083;    0,591
699,995; 4401,335;    0,007;    0,136
700,568; 4585,464;   -0,629;    3,045
701,140; 4565,774;   -2,811;    1,682
701,713; 4600,721;   -0,174;    2,409
702,286; 4505,667;   -0,538;    0,864
702,859; 4403,887;   -0,902;   -0,591
703,432; 4224,743;    0,825;    0,682
704,004; 4298,507;    0,462;    0,318
704,577; 4152,000;   -0,629;    0,136
705,150; 4365,855;    0,189;    2,500
705,722; 4397,438;   -0,356;   -3,227
706,295; 4356,658;   -0,175;   -0,591
706,867; 4199,877;   -0,175;    1,955
707,440; 4398,915;   -1,720;   -0,409
708,012; 4469,679;    0,462;    0,591
708,584; 4361,717;    2,462;    0,227
709,157; 4485,118;    1,825;   -0,591
709,729; 4498,429;    2,280;    2,045
710,301; 4828,102;    0,734;    0,045
710,874; 4792,413;   -1,447;   -0,227
711,446; 4229,814;    0,371;    0,864
712,018; 4289,306;    0,098;    0,500
712,590; 4170,889;   -1,993;    1,682
713,162; 4459,199;    0,825;    1,318
713,734; 4466,055;    1,825;   -2,045
714,306; 4428,547;   -1,902;   -0,409
714,878; 4034,767;    0,825;    0,864
715,450; 4357,168;    0,643;    0,864
716,022; 4443,933;    1,552;    1,318
716,593; 4508,698;    0,189;    0,591
717,165; 4525,644;   -3,175;   -1,227
717,737; 4500,500;    0,280;    0,409
718,309; 4386,992;    0,280;   -0,045
718,880; 4316,848;   -0,539;   -1,409
719,452; 4467,249;   -0,175;   -1,591
720,024; 4382,105;    0,734;   -0,591
720,595; 4497,688;   -2,902;    0,955
721,167; 4307,998;    0,370;   -2,045
721,738; 4129,036;   -0,812;   -1,045
722,309; 4174,255;   -0,993;   -1,227
722,881; 4069,111;   -1,357;    0,773
723,452; 4349,876;   -2,630;    2,864
724,023; 4436,731;   -0,721;    2,682
724,595; 4407,405;    0,007;    0,682
725,166; 4227,897;    0,007;   -0,409
725,737; 4211,026;    1,734;    0,227
726,308; 4268,518;   -0,266;    0,318
726,879; 4266,647;   -1,630;    1,227
727,450; 4281,775;    0,552;   -0,045
728,021; 4191,994;    3,097;    0,682
728,592; 4233,850;    0,734;    0,500
729,163; 4422,615;    0,643;   -0,136
729,734; 4408,289;    0,188;   -0,227
730,305; 4425,508;    1,734;    0,136
730,876; 4478,728;    0,188;    2,955
731,447; 4595,947;    2,188;    2,682
732,017; 4549,803;    1,097;    1,864
732,588; 4429,295;    0,734;    1,227
733,159; 4491,514;    0,643;   -1,045
733,729; 4308,461;    0,006;    0,409
734,300; 4179,499;    0,915;    0,864
734,870; 4299,445;    3,461;    0,591
735,441; 4450,301;    0,370;   -0,591
736,011; 4276,520;    0,643;   -1,591
736,582; 4268,922;   -0,812;    0,045
737,152; 4052,505;   -1,721;   -2,045
737,722; 4301,360;   -0,267;   -0,682
738,293; 4117,307;   -1,358;    1,318
738,863; 4182,254;    2,461;    2,318
739,433; 4296,564;    5,279;    0,318
740,003; 4434,511;   -0,994;   -0,682
740,573; 4274,366;    2,097;   -1,591
741,143; 4303,131;   -1,085;    0,318
741,713; 4411,260;    1,188;   -0,500
742,283; 4338,206;    0,915;    1,591
742,853; 4272,608;    1,915;    1,591
743,423; 4056,736;    1,733;    0,045
743,993; 4070,228;   -0,358;    1,500
744,563; 3808,084;    0,097;   -0,864
745,133; 3846,212;   -0,812;   -0,864
745,702; 4150,068;   -0,267;    1,773
746,272; 3937,106;   -0,176;    0,591
746,842; 3937,689;   -1,358;   -0,591
747,411; 4008,272;   -0,267;   -0,318
747,981; 3982,855;    0,097;    0,500
748,551; 4028,983;    2,278;   -1,045
749,120; 4056,112;    0,642;   -0,227
749,690; 4166,786;   -0,631;    2,409
750,259; 4297,096;    1,369;    2,955
750,828; 4245,679;    1,551;   -1,955
751,398; 4275,717;    1,278;   -0,045
751,967; 4272,027;    2,187;    0,409
752,536; 4249,701;   -0,813;   -0,227
753,105; 4446,920;    0,096;    0,227
753,675; 4229,503;    0,096;    1,773
754,244; 4206,995;   -0,904;    3,591
754,813; 4250,306;    0,551;    1,227
755,382; 4087,889;    0,460;    0,955
755,951; 4215,472;    1,551;    3,682
756,520; 4208,146;   -0,085;    1,864
757,089; 4495,547;    0,278;    0,500
757,658; 4348,493;    1,733;    1,227
758,227; 4291,986;    1,096;    0,318
758,795; 4390,841;    1,187;    1,136
759,364; 4602,970;   -0,086;   -0,591
759,933; 4126,189;   -1,176;   -0,045
760,501; 4065,499;    0,733;   -1,318
761,070; 4224,173;   -2,813;   -1,409
761,639; 4606,847;   -1,904;    1,318
762,207; 4236,158;    1,551;   -0,955
762,776; 4297,377;    0,369;    0,864
763,344; 4235,778;   -0,995;    0,591
763,913; 3752,998;   -0,722;    1,409
764,481; 4353,399;    1,005;   -0,136
765,049; 4259,891;   -1,358;    1,409
765,618; 4156,383;   -0,086;    0,318
766,186; 4184,148;    0,278;    0,136
766,754; 4238,913;    0,005;    1,864
767,322; 3821,314;   -1,995;    0,409
767,890; 3770,351;   -0,722;   -1,773
768,459; 4063,389;   -2,177;   -0,318
769,027; 4187,790;    1,641;    3,409
769,595; 3806,191;    3,278;    2,591
770,163; 3916,138;    3,823;    2,955
770,730; 3879,903;    0,732;   -0,136
771,298; 3851,213;    0,187;   -1,409
771,866; 3908,705;   -1,541;    4,955
772,434; 3937,834;   -0,631;   -1,864
773,002; 4168,326;    0,005;    0,682
773,569; 4050,454;    0,914;    1,682
774,137; 3989,583;   -0,268;   -0,045
774,705; 4207,802;    0,278;   -0,136
775,272; 3958,931;    0,641;    0,682
775,840; 4074,605;   -0,177;    2,682
776,407; 3865,279;    0,277;    1,955
776,975; 3571,589;   -0,632;    0,318
777,542; 3947,263;   -1,086;   -0,045
778,110; 3947,210;   -1,268;   -0,045
778,677; 3790,883;   -2,359;   -0,864
779,244; 3768,194;    2,186;    1,045
779,812; 3842,050;    1,823;    0,864
780,379; 3826,087;    0,005;    1,136
780,946; 3847,306;    1,005;   -0,773
781,513; 3945,344;   -1,450;    0,318
782,080; 3704,654;   -0,086;    2,864
782,647; 3940,601;   -0,268;    3,045
783,214; 3816,911;   -0,177;    3,864
783,781; 3772,858;   -0,723;   -0,682
784,348; 3785,532;   -0,632;    1,500
784,915; 3796,479;   -3,177;    0,318
785,482; 3837,243;    1,368;    2,591
786,049; 4039,099;    0,186;   -0,591
786,615; 4025,137;    0,277;   -0,955
787,182; 3913,629;    0,186;   -0,682
787,749; 3820,485;   -2,814;    1,409
788,315; 3588,886;   -1,632;   -0,409
788,882; 3755,923;    1,550;   -1,227
789,448; 4046,870;    1,732;   -0,955
790,015; 3974,089;    1,095;    3,227
790,581; 3903,127;    1,459;    0,227
791,148; 3751,801;    0,641;    1,045
791,714; 3820,111;   -0,541;    3,136
792,280; 3768,058;    0,186;    1,591
792,847; 3662,550;    0,550;    2,500
793,413; 3791,951;   -0,269;   -0,318
793,979; 3714,625;    3,459;   -1,318
794,545; 3961,299;    4,459;    2,682
795,111; 3689,337;    2,186;    1,318
795,678; 3653,647;    0,731;   -1,682
796,244; 3713,230;    3,368;    0,136
796,810; 3844,449;    1,731;    0,773
797,375; 3769,305;    0,549;   -2,136
797,941; 3512,706;   -0,541;    0,591
798,507; 3499,562;   -0,451;   -0,955
799,073; 3425,054;   -0,360;    0,591
799,639; 3557,364;   -2,632;    3,136
800,205; 3488,038;    0,095;    2,682
800,770; 3361,258;    0,640;    1,773
801,336; 3292,841;    1,368;   -0,955
801,901; 3645,151;    4,549;    3,136
802,467; 3654,916;   -0,542;    2,045
803,033; 3277,499;   -0,087;    0,864
803,598; 3325,809;    1,913;   -1,045
804,163; 3406,301;    1,095;   -0,318
804,729; 3460,066;   -0,178;    1,136
805,294; 3458,286;    0,822;    2,227
805,859; 3348,050;    0,731;   -0,409
806,425; 3533,088;    1,186;    2,682
806,990; 3430,307;    2,186;    4,318
807,555; 3422,799;   -1,451;    2,591
808,120; 3488,382;    0,822;   -0,409
808,685; 3344,784;    0,185;   -2,500
809,250; 3151,639;    0,004;   -0,500
809,815; 3278,677;    1,913;    0,682
810,380; 3508,806;   -0,269;    1,591
810,945; 3629,934;   -1,087;    2,045
811,510; 3458,881;    2,094;    1,591
812,075; 3262,645;   -0,633;   -1,409
812,640; 3465,138;    2,003;    1,409
813,204; 3416,448;    0,822;   -0,227
813,769; 3648,758;    2,094;   -0,045
814,334; 3496,614;    0,458;    0,864
814,898; 3400,833;    0,367;    0,591
815,463; 3302,144;    1,276;   -0,773
816,027; 3261,636;   -0,724;   -2,318
816,592; 3375,037;    0,640;   -2,045
817,156; 3200,802;    2,094;    1,136
817,721; 3222,476;    4,276;    2,318
818,285; 3165,604;    2,912;    1,500
818,849; 3378,187;   -1,451;    1,682
819,414; 3253,043;   -0,269;    2,955
819,978; 3153,626;   -1,269;    1,773
820,542; 3534,664;    2,003;    0,500
821,106; 3397,974;   -0,815;    0,682
821,670; 3467,830;   -0,815;    2,591
822,234; 3249,685;   -0,270;    1,409
822,798; 3083,177;    0,003;    0,500
823,362; 3355,397;   -0,633;    4,227
823,926; 3054,253;    0,094;    1,136
824,490; 3159,563;   -0,997;   -0,682
825,054; 3210,055;   -0,088;   -1,136
825,618; 3075,456;   -1,542;   -1,500
826,181; 3055,130;    0,458;   -1,318
826,745; 3058,077;    1,367;   -1,045
827,309; 3333,296;    1,185;    1,318
827,872; 3131,152;    1,367;    0,955
828,436; 3303,644;    1,185;   -0,773
828,999; 3374,136;   -0,997;    1,227
829,563; 3131,265;   -0,179;    1,136
830,126; 3053,666;   -0,179;   -0,591
830,690; 2992,249;   -1,997;    2,864
831,253; 2806,286;   -0,543;    2,227
831,816; 2897,142;   -1,906;    0,500
832,380; 2827,271;    0,185;    0,864
832,943; 2918,672;   -1,361;   -0,500
833,506; 2843,800;    2,639;   -1,227
834,069; 3159,565;    3,912;   -0,955
834,632; 3133,694;    1,730;    1,318
835,195; 3081,640;    1,003;    0,955
835,758; 2891,223;   -0,997;    1,955
836,321; 2789,352;    0,730;   -1,045
836,884; 2857,208;   -0,725;   -0,955
837,447; 2920,791;   -2,816;    1,773
838,010; 2976,101;    0,366;    3,227
838,573; 3100,866;   -1,179;    0,773
839,135; 3076,358;   -1,361;   -0,955
839,698; 2864,577;    1,275;    0,409
840,261; 2756,524;    1,003;   -0,227
840,823; 2724,471;   -0,543;    0,864
841,386; 2776,508;   -0,452;   -2,409
841,948; 2996,909;   -1,361;    1,773
842,511; 2734,401;    0,912;    1,682
843,073; 2936,621;    1,912;    0,227
843,636; 2761,658;   -0,361;   -0,227
844,198; 2866,605;    0,911;    0,591
844,760; 2878,279;    1,093;    1,955
845,322; 2634,044;    0,548;    1,136
845,885; 2810,172;    0,730;    0,591
846,447; 2920,664;   -1,998;    0,227
847,009; 3051,520;    1,911;   -0,682
847,571; 2874,285;    0,820;   -2,045
848,133; 2853,777;   -1,089;   -1,864
848,695; 2764,269;   -0,543;    1,409
849,257; 2735,398;   -1,089;   -1,682
849,819; 2889,163;   -0,998;   -0,409
850,381; 2789,564;   -0,725;   -0,864
850,942; 2878,965;    1,093;   -0,591
851,504; 2818,639;    1,184;    0,227
852,066; 2835,040;    1,275;   -1,591
852,628; 2810,532;   -0,180;    1,955
853,189; 2578,297;    1,638;    2,682
853,751; 2693,516;   -0,907;    1,409
854,312; 2738,009;   -0,453;   -1,682
854,874; 2907,864;   -2,089;   -0,773
855,435; 2880,266;   -0,907;   -1,682
855,997; 3029,303;   -1,816;   -0,136
856,558; 2843,159;    0,366;    1,773
857,119; 2732,106;    0,820;    2,864
857,681; 2624,234;    0,002;    0,318
858,242; 2750,726;    1,911;   -2,136
858,803; 2944,855;    0,456;   -0,773
859,364; 3029,347;    0,184;   -4,773
859,925; 2926,021;   -2,453;   -0,955
860,486; 2855,422;   -0,453;   -0,955
861,047; 2702,550;   -0,544;   -1,227
861,608; 2671,952;   -1,089;   -0,773
862,169; 2724,262;    0,638;   -0,045
862,730; 2659,027;    0,456;    1,409
863,291; 2778,701;   -0,635;   -0,500
863,852; 2804,193;   -0,635;    1,955
864,412; 2667,685;   -0,271;   -0,864
864,973; 2550,359;   -0,089;    0,500
865,534; 2658,487;   -1,726;    0,227
866,094; 2762,161;    1,820;    0,227
866,655; 2733,108;    1,274;    3,318
867,215; 2748,327;    0,274;    0,136
867,776; 2670,456;    0,547;   -0,136
868,336; 2676,130;   -1,453;    0,136
868,897; 2891,258;    2,638;    1,682
869,457; 2705,387;    1,365;    0,318
870,017; 2670,970;    0,547;   -1,227
870,578; 2773,644;   -0,817;    0,773
871,138; 2571,045;   -2,089;   -0,955
871,698; 2438,810;   -0,817;   -1,318
872,258; 2483,029;   -0,453;   -2,864
872,818; 2760,430;    2,729;    0,045
873,378; 2641,922;    0,638;    1,045
873,938; 2519,505;    0,547;    0,500
874,498; 2493,452;    0,274;   -1,955
875,058; 2479,035;    2,183;    1,773
875,618; 2466,891;    1,910;   -2,682
876,177; 2491,746;    1,274;    0,136
876,737; 2285,420;   -0,090;    1,955
877,297; 2645,276;    0,183;    1,955
877,856; 2584,496;   -0,362;    0,318
878,416; 2382,533;    1,183;   -0,136
878,976; 2408,662;   -1,817;    0,409
879,535; 2518,699;    0,092;    3,136
880,095; 2486,282;   -0,544;    0,045
880,654; 2364,683;   -1,090;    1,318
881,213; 2624,630;    2,456;    1,500
881,773; 2421,759;    2,637;    2,682
882,332; 3010,978;    3,365;    5,136
882,891; 2564,652;    3,092;    2,136
883,451; 2613,689;   -1,272;    1,682
884,010; 2434,363;   -2,908;   -0,409
884,569; 2443,219;   -0,999;   -0,045
885,128; 2616,529;    2,819;   -1,864
885,687; 2855,022;    4,455;    0,682
886,246; 2948,241;    1,455;    2,136
886,805; 2605,188;    2,455;    2,045
887,364; 2456,225;   -0,999;   -0,500
887,922; 2466,990;   -1,181;    0,045
888,481; 2427,937;   -1,545;    0,591
889,040; 2616,065;    1,183;    2,136
889,599; 2638,194;    2,455;    1,409
890,157; 2635,049;    1,455;    2,409
890,716; 2474,814;   -0,090;    0,227
891,274; 2489,852;    0,092;   -1,136
891,833; 2643,253;    1,546;    0,864
892,391; 2410,018;   -0,454;    0,500
892,950; 2613,328;    1,819;   -0,773
893,508; 2567,911;    0,455;   -0,409
894,067; 2346,858;    0,637;    0,136
894,625; 2392,895;   -0,636;   -1,500
895,183; 2431,024;   -0,363;   -0,682
895,741; 2650,880;    1,728;   -1,773
896,299; 2470,008;   -0,545;   -2,409
896,858; 2422,864;    0,819;   -1,591
897,416; 2536,901;    2,728;   -1,318
897,974; 2469,121;    1,819;    0,318
898,532; 2849,704;    6,091;    2,682
899,089; 2549,560;    2,091;   -0,682
899,647; 2463,961;   -1,454;    1,318
900,205; 2494,453;    1,182;    1,045
900,763; 2567,945;   -0,454;    0,227
901,321; 2573,892;    2,364;   -1,409
901,878; 2325,929;   -1,000;   -0,773
902,436; 2326,967;   -1,363;    1,318
902,994; 3065,823;    4,728;    3,682
903,551; 2555,406;    0,728;    0,409
904,109; 2554,261;    0,182;   -1,409
904,666; 2476,390;    2,455;    1,045
905,224; 2354,246;    0,182;   -0,409
905,781; 2407,374;    0,727;   -0,318
906,338; 2357,502;   -1,363;    1,045
906,895; 2262,267;    0,637;    2,045
907,453; 2459,032;    1,727;    1,136
908,010; 2369,979;   -0,909;    0,409
908,567; 2247,198;    1,273;    0,591
909,124; 2039,872;    0,364;   -1,500
909,681; 2044,182;   -2,909;    0,682
910,238; 2228,038;    0,636;   -1,318
910,795; 2310,712;   -0,273;   -1,136
911,352; 2238,894;   -2,909;   -2,682
911,909; 2119,985;   -1,364;   -0,864
912,466; 2253,258;   -3,182;    1,500
913,022; 2109,167;   -1,636;    0,500
913,579; 2301,348;   -0,909;    2,045
914,136; 2161,167;    1,636;    0,955
914,692; 2282,076;    0,091;   -1,227
915,249; 2134,712;    1,455;    0,409
915,806; 2211,439;    0,182;    1,955
916,362; 2163,258;    1,909;    1,864
916,918; 1972,348;    2,000;    1,045
917,475; 2180,076;   -1,182;    0,955
918,031; 2039,530;    3,364;   -0,045
918,587; 2050,348;   -0,909;   -0,318
919,144; 2047,985;   -2,273;    0,227
919,700; 2053,439;    1,727;    0,773
920,256; 1962,439;    0,727;    0,045
920,812; 1927,621;   -0,727;   -1,045
921,368; 1938,258;   -1,727;   -1,045
921,924; 1832,439;    0,182;   -0,136
922,480; 1854,712;   -0,545;    1,227
923,036; 1984,985;    1,273;    1,955
923,592; 1924,712;    0,455;    0,318
924,148; 1933,167;    0,455;   -0,955
924,704; 1966,621;   -1,364;   -0,409
925,259; 1951,076;   -0,273;    0,591
925,815; 1830,803;    1,455;    0,500
926,371; 1752,712;    2,909;    1,409
926,926; 1852,894;    2,091;    0,591
927,482; 1788,439;   -1,364;    0,773
928,037; 1736,076;    0,909;    2,045
928,593; 1951,076;    1,636;    1,045
929,148; 1744,712;   -1,818;   -1,500
929,704; 1703,803;   -1,455;   -0,500
930,259; 1613,076;    0,091;   -0,136
930,814; 1714,258;   -0,818;    1,955
931,369; 1627,348;    1,091;   -0,773
931,925; 1444,167;   -0,091;    0,136
932,480; 1506,621;   -2,818;   -2,591
933,035; 1902,894;    0,545;   -0,318
933,590; 1751,076;    0,364;   -1,773
934,145; 1345,167;   -1,364;   -0,318
934,700; 1312,712;    0,455;   -0,591
935,255; 1359,076;   -0,091;    0,045
935,809; 1605,530;    3,182;    0,864
936,364; 1149,258;   -0,455;   -0,136
936,919; 1184,530;    0,455;   -1,773
937,474; 1104,712;    1,455;    0,136
938,028; 1124,803;   -1,636;    1,136
938,583; 1466,712;    1,818;    4,682
939,138; 1156,985;    2,091;    2,136
939,692;  961,712;    1,636;   -1,136
940,247;  966,258;   -0,727;   -1,045
940,801; 1032,530;   -0,636;    0,227
941,355;  943,439;   -0,364;    2,591
941,910;  784,621;   -0,273;   -2,136
942,464;  838,803;   -0,818;   -0,318
943,018; 1115,530;    1,000;   -0,227
943,572;  925,439;    2,545;   -0,682
944,126;  935,439;    0,091;   -0,409
944,681;  789,985;    3,091;    0,227
945,235;  719,348;    1,000;   -0,591
945,789;  674,712;    0,364;   -1,864
946,342; 1031,439;    0,455;   -0,591
946,896;  733,621;   -2,273;    0,955
947,450;  681,530;    1,545;   -0,227
948,004;  976,258;    1,727;   -0,045
948,558;  765,439;    0,273;   -0,864
949,111;  753,167;   -0,273;   -0,318
949,665;  986,348;    1,636;   -0,682
950,219;  926,439;   -0,091;   -1,045
950,772;  846,439;   -1,909;    1,864
951,326;  849,803;    0,545;   -0,955
951,879;  748,167;    0,727;   -2,318
952,433;  900,439;    0,000;    2,227
952,986;  703,894;    2,909;    0,682
953,539;  635,530;   -0,273;    0,591
954,093;  592,258;    0,545;   -1,318
954,646;  768,076;    0,909;    1,318
955,199;  666,803;    0,000;   -0,500
955,752;  878,894;   -0,455;    1,773
956,305;  710,985;   -0,091;    2,955
956,858;  779,621;    0,818;   -0,318
957,411;  868,167;   -0,545;    2,136
957,964;  721,258;    1,364;    2,136
958,517;  635,803;   -1,545;    3,136
959,070;  589,803;   -0,455;    1,955
959,623;  910,894;    1,091;    1,500
960,176;  829,258;    1,727;    2,045
960,728;  796,439;   -2,727;    0,773
961,281;  738,712;    0,545;    0,500
961,834;  651,348;   -0,909;    0,864
962,386;  648,712;    1,727;    1,045
962,939;  596,076;    0,364;   -0,318
963,491;  660,530;    0,455;    1,136
964,043;  581,076;    1,182;    2,409
964,596;  784,712;   -1,000;    2,227
965,148;  676,258;   -1,000;    1,773
965,700;  580,076;    1,091;   -0,227
966,253;  761,258;   -0,636;    0,318
966,805;  718,803;   -2,273;    0,773
967,357;  628,076;    1,091;   -1,500
967,909;  762,076;    0,455;   -1,227
968,461;  622,712;    0,545;    3,136
969,013;  573,167;   -0,182;   -0,864
969,565;  742,258;   -0,455;   -1,136
970,117; 1031,348;   -0,364;    1,045
970,669;  741,985;    0,182;   -0,136
971,220;  503,621;   -0,455;   -1,500
971,772;  608,530;   -0,636;   -0,318
972,324;  725,803;    0,091;   -0,500
972,876;  629,167;    0,818;   -0,045
973,427;  770,803;    1,909;   -1,045
973,979;  833,167;   -0,727;   -2,500
974,530;  602,530;    1,818;    1,318
975,082;  674,348;   -0,545;    1,682
975,633;  616,803;    1,091;    1,682
976,184;  709,712;    0,909;    0,773
976,736;  685,803;    0,091;    0,227
977,287;  677,258;   -0,909;   -0,500
977,838;  648,894;    0,909;   -0,318
978,389;  668,076;   -1,000;   -0,500
978,940;  495,348;    0,545;   -0,409
979,491;  498,076;    0,091;   -0,500
980,042;  610,985;    0,182;    3,045
980,593;  599,621;   -2,545;    0,227
981,144;  724,621;    2,545;   -0,500
981,695;  796,894;    1,455;    1,500
982,246;  723,167;   -0,273;    1,045
982,797;  572,348;   -1,727;    0,682
983,347;  742,439;    0,364;    0,591
983,898;  974,258;    3,091;    0,409
984,449;  917,076;    2,182;    0,773
984,999;  712,894;    1,455;   -1,136
985,550;  664,076;    0,182;   -0,318
986,100;  503,894;   -0,455;   -0,318
986,651;  492,348;   -0,818;    0,045
987,201;  539,621;   -1,000;   -0,591
987,751;  563,348;    0,818;    2,864
988,302;  625,439;    2,636;    1,500
988,852;  664,348;    0,455;   -1,136
989,402;  752,348;    0,091;    0,682
989,952;  767,803;   -2,182;    0,864
990,502;  599,167;   -0,091;    0,682
991,052;  480,076;   -0,727;    0,045
991,602;  519,621;   -2,909;    1,318
992,152;  589,985;    0,455;    0,682
992,702;  621,167;    1,364;   -0,045
993,252;  558,621;   -3,000;   -0,500
993,802;  675,348;   -0,273;    1,318
994,352;  642,439;   -1,545;    1,136
994,901;  540,894;   -0,182;    3,227
995,451;  531,712;   -0,182;    0,318
996,000;  579,167;    1,636;    0,318
996,550;  561,530;    2,273;    0,227
997,100;  611,439;    1,273;   -0,045
997,649;  785,803;    2,182;    0,955
998,198;  567,258;    1,727;   -1,500
998,748;  707,530;    1,091;   -2,318
999,297;  621,985;   -0,818;   -0,409
999,846;  771,348;    1,000;   -0,773
1000,395;  673,712;   -0,818;    0,500
1000,945;  802,894;    1,818;   -0,773
1001,494;  801,348;    2,364;    0,682
1002,043;  769,621;    4,636;    0,864
1002,592;  564,530;   -1,091;    1,955
1003,141;  572,258;   -0,455;   -0,682
1003,690;  735,076;    1,727;    0,500
1004,238;  601,712;    1,455;   -0,045
1004,787;  479,621;    1,364;    1,227
1005,336;  710,348;    0,364;    0,682
1005,885;  650,076;    1,364;   -2,773
1006,433;  641,712;    0,545;    0,955
1006,982;  889,712;    0,455;    1,682
1007,531;  692,803;   -1,818;   -0,227
1008,079;  626,985;   -2,273;    0,500
1008,627;  579,439;   -1,455;    0,409
1009,176;  586,712;    0,000;   -1,955
1009,724;  532,985;    1,091;    0,864
1010,273;  714,712;    1,273;    0,500
1010,821;  586,985;    0,091;    1,409
1011,369;  523,439;   -1,364;    1,318
1011,917;  553,348;   -1,364;   -0,591
1012,465;  668,621;    1,273;   -1,591
1013,013;  654,530;    2,091;   -1,682
1013,561;  763,258;    0,455;   -0,773
1014,109;  875,348;   -1,909;    1,682
1014,657;  728,621;    0,364;    0,591
1015,205;  597,076;    1,636;   -0,955
1015,753;  538,530;   -0,545;   -1,409
1016,301;  640,258;   -2,636;    3,045
1016,848;  715,348;   -1,273;    0,409
1017,396;  734,530;    2,545;    0,045
1017,944;  729,348;    1,182;    1,864
1018,491;  604,712;    0,273;    1,409
1019,039;  970,803;    0,455;    0,591
1019,586;  686,894;   -1,364;    1,682
1020,134;  673,894;    0,455;    1,500
1020,681;  761,621;    0,182;   -1,136
1021,228;  649,894;    2,909;   -2,227
1021,776;  624,803;    1,182;   -1,136
1022,323;  887,712;    0,455;    0,773
1022,870;  786,530;   -1,000;   -0,045
1023,417;  850,530;    2,636;    1,864
1023,964;  652,712;    2,636;    1,227
1024,511;  635,258;    1,000;    0,773
1025,058;  637,076;    3,182;   -0,045
1025,605;  604,712;   -2,273;    3,136
1026,152;  858,530;    1,727;   -0,591
1026,699;  674,985;    1,818;    1,318
1027,245;  658,985;   -0,091;    0,318
1027,792;  609,076;   -1,000;    1,409
1028,339;  837,985;    2,364;   -0,045
1028,885;  684,985;    1,000;   -0,227
1029,432;  620,439;   -0,091;    0,227
1029,978;  758,985;   -1,000;   -1,591
1030,525;  730,439;    1,000;    0,409
1031,071;  604,076;   -1,364;    1,136
1031,618;  933,985;    0,364;    1,682
1032,164;  724,076;   -0,091;    3,045
1032,710;  778,439;    1,636;   -1,500
1033,256;  726,076;   -0,636;   -0,136
1033,803;  564,076;   -0,545;    1,500
1034,349;  419,258;   -1,364;    0,136
1034,895;  477,621;    0,000;   -0,318
1035,441;  563,803;   -0,818;    0,318
1035,987;  614,803;   -2,364;   -0,682
1036,533;  693,167;   -1,455;   -0,955
1037,078;  917,076;    1,455;    1,682
1037,624;  734,167;    2,455;   -0,955
1038,170;  596,530;    0,455;   -0,318
1038,716;  683,258;    1,636;   -0,409
1039,261;  541,621;   -2,273;   -0,773
1039,807;  558,803;   -0,091;    3,409
1040,352;  600,621;   -1,909;   -0,318
1040,898;  592,348;   -1,545;   -0,682
1041,443;  499,621;   -1,455;   -2,591
1041,989;  835,894;    1,091;    1,591
1042,534;  595,621;   -0,364;    2,591
1043,079;  483,985;    2,909;    0,955
1043,625;  606,258;    1,818;    0,500
1044,170;  636,530;   -1,364;    1,045
1044,715;  859,894;    2,455;    0,955
1045,260;  733,712;    2,182;   -0,955
1045,805;  569,985;    1,182;   -0,591
1046,350;  526,803;    1,364;   -0,409
1046,895;  728,985;    2,909;    1,591
1047,440;  715,985;    5,364;    0,409
1047,985;  561,258;    2,818;   -0,955
1048,530;  524,530;    1,545;    1,227
1049,074;  597,621;    0,000;    0,318
1049,619;  527,258;   -1,364;    1,955
1050,164;  499,167;    0,455;    0,227
1050,708;  592,530;   -0,455;    0,045
1051,253;  890,894;    1,273;   -2,227
1051,797;  654,894;    0,818;   -1,318
1052,342;  470,803;   -1,182;    1,045
1052,886;  581,803;    0,364;   -1,409
1053,430;  434,348;   -1,364;    0,136
1053,975;  541,167;   -0,818;   -0,318
1054,519;  559,167;   -0,727;    3,227
1055,063;  643,530;    0,909;    1,318
1055,607;  615,712;   -0,182;    0,227
1056,151;  599,076;    2,909;    1,682
1056,695;  495,167;    2,273;   -1,136
1057,239;  498,894;   -1,727;   -0,682
1057,783;  549,894;    0,818;   -1,500
1058,327;  621,530;    0,000;    1,409
1058,871;  795,621;   -0,545;    1,318
1059,415;  634,258;   -0,818;   -0,045
1059,958;  826,076;    1,455;    2,591
1060,502;  561,712;   -1,000;   -0,773
1061,046;  431,803;    0,364;   -0,955
1061,589;  412,803;   -3,000;   -1,136
1062,133;  373,530;   -1,273;    1,864
1062,676;  420,803;    1,182;    0,864
1063,220;  462,712;    1,091;    0,500
1063,763;  494,985;    0,909;    1,136
1064,306;  534,803;   -0,909;    1,864
1064,849;  516,258;   -0,909;    0,591
1065,393;  490,803;    2,000;   -1,500
1065,936;  513,167;    0,182;   -0,409
1066,479;  403,621;   -1,455;    1,318
1067,022;  432,076;   -0,273;   -0,227
1067,565;  399,076;   -0,091;   -1,318
1068,108;  372,712;    0,727;   -0,591
1068,651;  341,258;   -0,636;    1,409
1069,194;  343,258;   -0,455;   -1,682
1069,736;  374,348;   -1,273;    0,955
1070,279;  331,439;   -1,364;   -0,500
1070,822;  439,439;   -2,000;   -0,318
1071,364;  576,076;   -0,364;    1,318
1071,907;  414,258;   -0,727;    3,227
1072,450;  253,076;    0,000;   -0,045
1072,992;  339,894;   -0,273;    3,136
1073,535;  442,439;    2,091;    2,136
1074,077;  326,803;   -0,727;    2,045
1074,619;  333,258;   -1,364;    0,591
1075,161;  360,076;   -1,091;    1,500
1075,704;  506,894;    1,545;    1,227
1076,246;  335,439;   -0,182;    0,682
1076,788;  260,167;   -0,364;    1,773
1077,330;  270,530;    1,273;    2,136
1077,872;  318,894;    0,909;    0,955
1078,414;  520,894;    2,727;    0,773
1078,956;  356,348;    1,273;   -0,227
1079,498;  520,167;    1,636;    0,318
1080,040;  351,621;    1,909;   -1,318
1080,581;  298,712;    1,636;   -0,318
1081,123;  222,985;    0,091;   -0,773
1081,665;  245,258;   -1,182;   -0,955
1082,206;  480,530;    1,364;   -0,500
1082,748;  382,803;    0,727;    2,045
1083,289;  274,167;   -2,000;    1,318
1083,831;  261,712;   -0,545;    0,227
1084,372;  313,712;    0,000;    0,591
1084,913;  312,258;    1,091;    0,864
1085,455;  247,803;   -1,909;   -2,045
1085,996;  252,530;   -2,273;    0,136
1086,537;  295,803;   -0,091;    0,864
1087,078;  299,076;   -0,909;   -2,136
1087,619;  357,985;   -1,273;    0,227
1088,160;  303,258;    0,000;    1,318
1088,701;  276,985;   -1,091;    0,682
1089,242;  253,439;    1,364;   -2,227
1089,783;  319,439;   -0,273;    1,409
1090,324;  296,985;    0,455;    0,682
1090,865;  225,712;    2,727;   -0,409
1091,405;  192,439;    0,727;    2,227
1091,946;  238,712;    0,182;   -0,955
1092,487;  178,348;    0,818;   -1,409
1093,027;  317,530;   -1,364;   -1,500
1093,568;  228,894;   -0,364;    1,227
1094,108;  290,712;    0,273;    1,773
1094,649;  238,076;   -1,182;    0,136
1095,189;  203,621;   -0,636;   -0,682
1095,729;  199,258;   -0,091;    0,955
1096,269;  189,348;    0,727;   -0,955
1096,810;  384,530;   -1,364;    0,500
1097,350;  302,167;    1,364;   -0,773
1097,890;  232,803;    0,364;    1,227
1098,430;  424,439;    2,364;    2,864
1098,970;  350,076;    2,182;    1,682
1099,510;  212,985;    0,545;   -2,318
1100,050;  193,348;    1,000;   -1,591
1100,589;  199,076;   -0,727;   -0,318
1101,129;  270,258;    0,818;   -0,955
1101,669;  377,803;    1,727;    2,136
1102,209;  272,076;   -0,091;    2,227
1102,748;  232,167;    0,000;    0,955
1103,288;  240,348;    1,273;   -1,227
1103,827;  228,712;    3,091;   -2,227
1104,367;  170,985;   -0,091;   -2,409
1104,906;  176,530;    1,364;   -1,136
1105,445;  227,803;    0,636;   -1,136
1105,985;  196,530;   -0,727;    1,500
1106,524;  212,894;   -1,727;   -0,682
1107,063;  205,985;   -2,727;    1,409
1107,602;  173,439;   -1,909;   -1,500
1108,141;  147,803;   -1,909;    1,500
1108,680;  227,530;   -3,455;   -0,591
1109,219;  192,076;   -0,909;   -0,500
1109,758;  183,348;    0,455;    0,682
1110,297;  176,348;    1,000;   -0,682
1110,836;  136,803;   -0,727;    0,955
1111,375;  202,348;   -2,545;    0,409
1111,913;  236,621;   -1,000;    0,773
1112,452;  193,439;   -0,273;    0,136
1112,991;  132,621;    1,091;    1,955
1113,529;  129,258;   -0,818;   -0,045
1114,068;  172,894;   -0,273;    2,955
1114,606;  130,076;   -0,364;   -0,955
1115,144;  213,985;   -1,273;    1,045
1115,683;  176,530;   -0,727;    0,318
1116,221;  207,894;   -0,455;   -0,864
1116,759;  151,803;    0,636;   -0,864
1117,297;  256,530;    0,000;    1,864
1117,836;  156,803;   -2,182;   -1,227
1118,374;  162,985;    0,182;   -0,682
1118,912;  151,894;    0,909;    2,682
1119,450;  146,621;    1,000;    0,864
1119,988;  151,258;    1,545;    2,136
1120,525;  468,258;    5,091;    3,318
1121,063;  263,167;    1,182;    1,864
1121,601;  148,803;   -0,909;   -1,227
1122,139;  125,439;   -0,727;   -2,045
1122,676;  252,167;   -0,727;    2,773
1123,214;  213,985;   -1,182;    4,409
1123,751;  117,348;    1,727;    2,227
1124,289;  164,894;   -0,091;   -0,409
1124,826;  118,167;    1,727;    0,227
1125,364;   78,076;    1,727;   -0,955
1125,901;  200,712;    1,182;    1,227
1126,438;  227,439;    0,818;    0,955
1126,975;   84,348;   -0,727;   -0,773
1127,513;  110,803;    0,273;    2,136
1128,050;   78,167;    1,636;   -0,682
1128,587;  121,439;    2,000;   -0,227
1129,124;  151,530;    0,091;    1,318
1129,661;   95,530;    0,273;    0,227
1130,198;  184,803;    1,636;    0,773
1130,734;  140,621;    0,182;    1,409
1131,271;   76,167;   -0,909;    0,864
1131,808;  163,439;    2,909;    3,045
1132,345;  100,712;    1,545;    0,318
1132,881;   42,985;   -1,545;   -1,864
1133,418;  115,348;    0,727;   -1,136
1133,954;   82,076;    2,455;   -2,682
1134,491;  119,985;    1,364;   -0,773
1135,027;   74,348;    2,364;    0,864
1135,564;  121,348;    0,273;    2,955
1136,100;  111,258;    0,364;    2,136
1136,636;   63,894;   -1,273;   -1,045
1137,172;   93,348;    0,000;   -1,045
1137,708;   71,076;   -1,364;   -1,045
1138,245;   66,076;    1,273;   -1,227
1138,781;   49,894;    1,091;   -3,318
1139,317;   72,348;    1,273;   -1,409
1139,852;   84,348;    3,091;    0,136
1140,388;  124,530;   -1,182;   -0,409
1140,924;   79,439;   -1,091;   -2,227
1141,460;   55,348;   -1,636;    0,136
1141,996;   27,258;   -1,364;    2,682
1142,531;   48,439;    1,364;    3,318
1143,067;  150,167;    1,182;    1,045
1143,602;  184,894;   -0,091;   -0,318
1144,138;  105,348;   -2,636;    1,045
1144,673;   47,439;   -1,455;    1,409
1145,209;   69,530;   -1,909;   -0,318
1145,744;   37,803;   -0,727;    0,864
1146,279;   90,076;    1,818;   -0,136
1146,815;   60,803;    1,545;   -2,682
1147,350;   87,985;   -1,364;    0,045
1147,885;   46,985;   -0,818;   -1,318
1148,420;   46,530;   -2,273;    0,773
1148,955;   40,712;   -1,727;    1,864
1149,490;   48,621;   -0,909;   -1,591
1150,025;   37,894;    0,455;   -1,773
1150,560;   86,803;    1,091;   -0,955
1151,094;   74,258;    1,455;   -0,591
1151,629;   71,258;    1,636;    0,864
1152,164;   48,348;    1,364;    1,318
1152,698;   31,076;   -0,182;   -0,136
1153,233;   19,803;    0,091;   -0,682
1153,767;   35,348;   -3,000;   -2,318
1154,302;   52,258;   -1,455;    1,773
1154,836;   50,894;   -0,455;   -2,136
1155,371;   68,076;   -1,364;    3,682
1155,905;   52,348;   -0,636;    1,682
1156,439;   43,712;   -0,636;   -0,500
1156,973;   55,167;    0,364;    0,318
1157,507;   31,348;   -0,364;    0,682
1158,042;   41,894;   -0,727;    1,045
1158,576;   56,712;    0,182;    1,773
1159,110;   55,985;   -0,818;    2,409
1159,643;   42,076;    0,636;   -0,045
1160,177;   25,712;   -1,545;    1,500

