
Integration time [ms]:   0,040
Averaging Nr. [scans]: 11
Smoothing Nr. [pixels]: 0
Data measured with spectrometer [name]: 7318044SP
Wave   ;Sample   ;Dark     ;Reference
[nm]   ;[counts] ;[counts] ;[counts] 

186,757;   30,605;   31,551;    1,318
187,357;   59,748;   22,551;    0,955
187,958;   32,467;   15,460;   -1,591
188,558;   83,775;    8,915;   -1,227
189,159;   54,857;    6,733;   -4,500
189,759;   13,909;    7,278;   -3,591
190,360;   16,436;    2,824;   -2,136
190,960;   60,801;    2,915;   -4,136
191,560;   65,425;    3,189;   -6,591
192,161;  304,955;    4,372;   -3,500
192,761;  153,798;    4,010;   -3,227
193,361;   97,807;    1,556;   -3,773
193,962;  148,047;    2,010;   -2,682
194,562;   78,259;    1,189;   -3,955
195,162;   96,024;   -2,448;   -2,227
195,762;  253,594;   -3,176;   -0,045
196,362;  196,939;    1,370;   -2,500
196,963;   70,710;    2,006;   -0,864
197,563;  144,327;    1,551;   -0,955
198,163;   88,479;    0,096;   -0,682
198,763;  105,863;    1,733;   -0,500
199,363;  209,576;    3,096;   -0,500
199,963;  171,042;    0,369;    0,409
200,563;  154,880;    2,823;   -1,409
201,163;  132,281;    3,277;   -0,227
201,763;  214,160;    3,732;    0,318
202,363;  149,728;    1,459;    1,500
202,963;  265,252;    1,459;    1,045
203,563;  367,764;    0,277;    0,500
204,162;  218,788;    2,096;   -1,864
204,762;  213,411;    0,550;    0,591
205,362;  184,276;    3,004;    1,955
205,962;  282,639;    3,096;    1,955
206,562;  276,345;    1,823;    2,318
207,161;  239,172;   -0,087;    0,318
207,761;  391,105;    1,277;    2,409
208,361;  276,345;   -0,268;    1,409
208,960;  375,379;    0,459;    1,500
209,560;  434,611;    1,277;    1,591
210,160;  423,254;    0,550;    1,864
210,759;  389,407;    4,186;    1,227
211,359;  401,701;    1,459;    1,045
211,958;  672,726;    1,277;    2,045
212,558;  745,326;    1,732;    1,864
213,157;  581,587;    1,822;    1,500
213,757; 1019,374;    3,822;   -0,227
214,356;  728,946;    1,277;   -0,409
214,956; 1070,466;    3,095;    0,409
215,555;  694,949;    2,095;    2,136
216,154;  637,072;   -2,723;   -0,591
216,754;  653,060;    0,277;    0,773
217,353;  789,356;   -0,268;   -1,045
217,952;  649,589;   -0,178;    0,318
218,552;  874,231;    1,368;   -0,773
219,151;  773,154;    0,277;    0,955
219,750;  778,424;    0,004;   -0,227
220,349;  908,138;   -0,451;    1,045
220,948;  971,677;   -1,360;    1,136
221,548;  997,104;    0,913;    1,227
222,147; 1116,379;   -0,087;   -0,409
222,746; 1385,659;   -0,451;   -0,955
223,345; 1263,507;    0,731;    0,500
223,944; 1281,997;   -0,451;    0,773
224,543; 1445,828;    1,004;   -1,409
225,142; 1558,505;    0,094;    0,136
225,741; 1480,461;   -0,814;    1,045
226,340; 1507,706;   -0,451;   -0,955
226,939; 1940,640;   -0,996;   -0,136
227,538; 1907,657;   -0,360;   -0,773
228,137; 2058,923;   -0,814;    0,864
228,735; 2212,280;   -0,541;    1,227
229,334; 1959,268;   -0,905;   -0,227
229,933; 2313,527;    0,459;    0,591
230,532; 2446,909;    1,186;   -0,409
231,131; 2492,075;    1,732;    0,318
231,729; 2659,406;   -2,450;   -2,318
232,328; 2757,083;   -0,723;   -1,500
232,927; 2839,279;    1,004;   -0,500
233,525; 2969,656;    3,640;    0,045
234,124; 3192,240;    2,368;   -1,591
234,723; 3195,470;    0,913;   -1,045
235,321; 3346,080;    2,277;    0,136
235,920; 3574,685;    1,186;   -1,227
236,518; 3830,112;    3,459;    0,318
237,117; 4020,714;    0,004;   -0,227
237,715; 4194,333;    0,640;   -0,500
238,314; 4231,836;   -0,087;   -2,318
238,912; 4340,596;   -0,723;   -1,409
239,510; 4373,299;    0,459;   -1,227
240,109; 4550,809;    0,004;    3,773
240,707; 4575,170;   -0,996;    1,227
241,305; 4992,427;    0,550;    0,136
241,904; 5192,336;   -0,178;   -2,045
242,502; 5142,445;   -0,632;   -0,227
243,100; 5109,957;   -0,087;   -0,955
243,698; 5346,667;    0,732;    1,682
244,297; 5562,184;   -0,632;    0,682
244,895; 5378,704;   -0,269;   -2,318
245,493; 5711,550;    2,186;   -0,591
246,091; 5751,221;    1,368;   -1,318
246,689; 5740,034;    1,004;    0,591
247,287; 5918,541;    0,822;   -1,136
247,885; 6223,388;   -1,451;    1,227
248,483; 6333,320;    1,822;   -0,500
249,081; 6463,107;    0,185;    1,591
249,679; 6612,206;   -0,178;    1,682
250,277; 6886,255;   -1,723;    0,864
250,875; 6899,236;   -1,087;   -1,045
251,473; 6910,480;   -1,178;    0,500
252,071; 7123,957;    1,459;    1,045
252,669; 7292,542;   -1,814;    0,318
253,267; 7570,111;   -0,087;    0,773
253,864; 7510,268;   -0,360;    0,682
254,462; 7355,916;    1,640;    1,591
255,060; 7346,249;   -0,269;    1,318
255,658; 7693,088;    0,822;   -0,136
256,255; 8113,898;    0,186;   -2,045
256,853; 7965,116;   -0,269;    1,409
257,451; 7966,720;    0,822;    1,864
258,048; 8237,690;    1,822;    1,864
258,646; 8005,819;    1,731;   -1,045
259,243; 8205,661;   -0,087;    2,227
259,841; 8282,698;   -0,814;    0,318
260,438; 8173,362;   -0,087;    0,864
261,036; 8883,586;   -1,905;    1,409
261,633; 8795,100;   -0,087;    2,227
262,231; 8536,466;    2,731;   -0,045
262,828; 8626,089;   -0,905;    1,136
263,425; 8692,860;    0,913;   -0,591
264,023; 8983,431;    0,186;    0,045
264,620; 8525,443;   -0,360;   -0,318
265,217; 8878,276;   -2,087;    3,136
265,815; 9000,731;   -1,905;    2,136
266,412; 8746,197;    0,731;    0,136
267,009; 8776,169;   -1,451;    0,773
267,606; 8683,364;    0,822;   -0,955
268,203; 8694,460;   -0,269;   -0,591
268,801; 9004,387;    1,731;    0,591
269,398; 9265,712;   -0,360;    2,500
269,995; 9226,998;    0,277;    1,591
270,592; 9027,392;   -0,632;   -0,500
271,189; 9250,926;    0,186;    0,409
271,786; 9370,444;   -0,632;    1,227
272,383; 9185,961;   -1,087;    0,227
272,980; 9389,694;    0,277;    0,318
273,577; 9862,592;    0,004;    1,227
274,174; 9444,558;    0,822;    2,591
274,771; 9399,542;   -0,814;   -0,773
275,367; 9554,495;    2,277;    1,409
275,964; 9521,632;    0,731;   -0,500
276,561; 9627,924;    1,549;   -1,045
277,158; 9837,752;    0,095;   -1,773
277,755; 9977,743;    2,185;    0,409
278,351; 9380,267;   -0,451;   -1,500
278,948; 9701,978;   -0,815;    0,045
279,545; 9701,574;   -1,360;    2,318
280,141;10296,878;   -1,723;   -2,045
280,738;10162,803;   -0,451;   -0,136
281,334;10435,257;   -1,633;    0,591
281,931; 9812,242;   -0,087;   -1,318
282,528; 9937,789;    0,822;   -0,500
283,124;10641,098;   -1,087;   -0,500
283,721;10536,763;   -0,451;    1,409
284,317;10346,858;    0,185;    2,500
284,913;10910,834;   -1,360;    0,591
285,510;11100,197;    0,640;   -0,318
286,106;11135,632;   -2,269;   -0,955
286,703;10754,291;   -0,360;    1,955
287,299;10940,698;   -1,451;   -0,591
287,895;11179,112;    0,822;   -1,045
288,491;11765,257;    0,186;    2,136
289,088;11455,097;   -2,360;    2,409
289,684;11518,724;   -1,723;    1,500
290,280;11535,314;    0,368;    0,682
290,876;11595,950;    1,822;    5,500
291,472;11492,693;    1,276;    2,227
292,068;11583,735;    1,367;    0,227
292,665;11330,061;    2,095;    0,773
293,261;10953,756;    0,276;    2,136
293,857;11307,939;    2,913;    2,136
294,453;11303,975;    3,550;    0,955
295,049;11131,436;   -0,268;    1,955
295,644;11177,845;    0,095;    0,136
296,240;11065,801;   -0,905;   -0,136
296,836;11110,760;   -0,995;    0,318
297,432;11414,411;    1,096;   -0,500
298,028;11438,839;    0,732;    0,773
298,624;11898,687;    1,459;    1,864
299,220;12169,873;    2,368;    0,591
299,815;11808,283;    1,005;   -0,409
300,411;11614,072;    0,914;    1,773
301,007;11611,639;    1,368;    0,227
301,602;11675,012;   -0,541;   -2,318
302,198;11846,851;    0,732;   -0,773
302,794;12180,186;    1,187;   -0,500
303,389;12319,477;   -1,177;    1,045
303,985;12350,099;    0,550;    1,409
304,580;12320,998;    1,459;    1,591
305,176;12305,131;   -3,086;    0,136
305,771;12243,399;   -1,268;   -1,227
306,367;12055,045;    4,095;    0,136
306,962;12440,739;    0,641;    1,500
307,558;12192,038;   -0,450;    0,136
308,153;12087,773;    1,095;   -1,136
308,748;12367,159;   -0,814;    1,682
309,344;12325,805;   -0,632;   -1,318
309,939;12394,147;   -1,905;   -1,318
310,534;12684,749;   -0,086;   -1,682
311,130;12634,957;    0,459;   -2,500
311,725;12370,551;    1,004;   -0,500
312,320;12693,264;    2,459;    0,045
312,915;12506,755;    1,459;   -1,045
313,510;12628,135;    1,550;   -0,500
314,105;13129,118;    1,096;    1,409
314,700;12546,529;   -3,086;   -1,045
315,295;12127,907;   -0,904;    0,045
315,890;11702,545;    1,277;    0,864
316,485;12074,381;   -0,359;   -0,318
317,080;12179,751;   -3,086;    1,591
317,675;12757,998;    2,005;   -0,682
318,270;12150,972;    5,550;    3,318
318,865;12174,603;    3,278;    3,045
319,460;12007,434;   -0,904;    0,591
320,055;12276,244;   -0,541;   -1,227
320,650;11934,272;   -1,995;   -0,591
321,244;11991,001;   -0,177;   -1,409
321,839;12940,002;   -1,541;   -0,227
322,434;12810,537;   -1,086;   -1,591
323,029;12455,035;    1,732;    1,591
323,623;12240,159;    1,550;    0,773
324,218;11999,265;    2,368;    1,409
324,812;11888,829;    1,096;    1,591
325,407;11710,071;   -0,814;    2,045
326,002;11583,505;    0,277;   -0,409
326,596;11912,148;    0,914;    1,318
327,191;12156,111;    0,823;   -1,045
327,785;11698,693;   -0,813;   -0,227
328,379;11904,962;    1,368;    0,136
328,974;11703,812;    0,914;   -3,955
329,568;11944,867;    0,186;   -2,409
330,163;11766,897;    2,096;    1,045
330,757;12127,003;    2,459;    1,591
331,351;11435,424;    0,459;    0,682
331,945;11729,816;    0,914;    1,409
332,540;11349,793;   -1,723;   -0,591
333,134;11507,074;   -1,086;    0,773
333,728;11758,125;    0,005;    0,318
334,322;12084,982;   -1,177;   -0,864
334,916;11363,108;    0,277;    0,955
335,510;11711,717;   -0,450;   -0,136
336,105;11954,202;   -1,086;    1,591
336,699;11665,902;   -1,086;    0,591
337,293;11579,064;   -1,723;    0,318
337,887;11745,479;   -2,723;    1,955
338,481;11855,274;    0,459;    0,591
339,074;11985,284;   -0,359;    2,682
339,668;11825,494;   -1,632;    1,227
340,262;12057,385;    1,732;    3,227
340,856;11560,954;    1,822;   -0,682
341,450;10937,976;    1,004;    1,864
342,044;11869,700;    1,459;    0,136
342,637;11625,263;    0,913;   -2,136
343,231;11502,603;   -2,360;    0,682
343,825;11415,624;   -1,086;   -0,591
344,419;11425,398;   -1,995;    0,500
345,012;11190,558;    2,459;    4,045
345,606;11184,580;    4,641;    1,591
346,199;11058,171;   -1,813;   -0,227
346,793;10582,381;    1,914;    2,045
347,386;10788,427;   -0,813;   -1,136
347,980;10759,886;   -0,268;   -0,045
348,573;10558,303;    2,278;    0,409
349,167;10221,072;    5,278;    4,773
349,760;10594,570;    2,914;    2,682
350,354;10542,683;   -0,813;    1,136
350,947;10280,024;    1,096;    1,682
351,540; 9955,590;   -0,358;   -1,409
352,134; 9891,603;    1,096;    1,136
352,727; 9967,220;   -0,086;    1,136
353,320; 9788,665;    0,005;    0,591
353,913; 9653,370;   -1,995;    1,864
354,507; 9815,673;    0,823;   -1,227
355,100; 9806,000;    0,460;    0,864
355,693; 9010,868;    2,005;    2,409
356,286; 9076,869;    0,823;    2,773
356,879; 9467,037;   -0,722;    1,227
357,472; 9076,906;   -0,904;    1,500
358,065; 9297,050;   -0,722;    2,500
358,658; 9193,486;   -0,540;    2,318
359,251; 8843,498;   -1,631;   -0,591
359,844; 8319,122;   -1,904;   -1,136
360,437; 8465,980;   -2,995;    0,045
361,030; 8741,556;    1,369;   -0,682
361,623; 8346,244;    2,824;    0,318
362,215; 8381,155;   -0,086;    2,045
362,808; 8246,373;   -2,358;   -1,682
363,401; 8425,254;   -2,449;    0,136
363,994; 8158,986;   -0,631;   -1,500
364,586; 8097,753;    0,824;   -1,500
365,179; 8295,495;   -0,449;   -1,136
365,772; 7786,508;   -1,995;    2,045
366,364; 8088,860;    1,915;   -3,227
366,957; 8271,401;    2,279;   -0,045
367,549; 8311,634;    2,188;   -0,864
368,142; 7938,483;    1,825;   -1,500
368,734; 8140,487;    0,734;   -2,136
369,327; 8081,645;    1,643;   -0,500
369,919; 8021,777;   -1,538;    0,409
370,512; 7804,611;   -1,083;   -0,500
371,104; 7536,515;   -0,901;    1,591
371,696; 7671,660;    1,191;   -0,955
372,289; 7805,976;    0,373;    1,136
372,881; 7967,353;   -2,080;    1,318
373,473; 7878,247;   -2,170;    1,136
374,066; 7655,562;   -0,169;    0,500
374,658; 7508,098;    0,378;    1,136
375,250; 7886,608;    0,653;   -1,409
375,842; 7725,489;    0,473;   -0,045
376,434; 7619,106;   -0,435;   -0,409
377,026; 8232,321;    0,204;   -2,500
377,618; 8114,271;   -0,158;   -0,682
378,210; 7954,851;   -0,338;   -1,955
378,802; 7801,497;    0,754;   -0,591
379,394; 7737,558;    1,846;    0,682
379,986; 8323,571;    1,393;   -0,955
380,578; 8427,098;   -0,153;    0,773
381,170; 7769,351;   -0,972;    0,045
381,762; 7746,492;    0,755;    1,409
382,354; 7939,043;   -0,065;   -1,318
382,945; 8017,009;   -2,976;    0,318
383,537; 8186,608;   -2,705;   -1,955
384,129; 8208,947;   -2,160;   -1,136
384,721; 8378,440;   -0,252;    0,955
385,312; 8321,799;   -0,161;   -0,955
385,904; 8403,313;   -2,706;    1,591
386,496; 7774,744;   -0,979;    1,045
387,087; 7922,922;    1,022;    2,500
387,679; 7994,566;   -1,160;    0,045
388,270; 8094,972;    2,840;    2,045
388,862; 8223,465;    1,295;   -0,318
389,453; 8125,677;   -0,887;    1,045
390,045; 8385,281;   -0,705;   -2,682
390,636; 8333,359;    0,204;   -0,591
391,227; 8189,564;   -0,523;   -0,045
391,819; 8287,030;    0,204;    0,773
392,410; 8337,233;    1,022;    0,045
393,001; 8261,602;   -0,979;   -1,591
393,593; 8547,725;    1,930;   -0,045
394,184; 8417,160;    1,385;   -0,409
394,775; 8344,380;    1,839;    2,136
395,366; 8556,495;    1,385;    0,773
395,957; 8541,550;    0,113;    0,136
396,548; 8876,616;   -0,342;    2,682
397,139; 9183,830;   -2,433;    0,591
397,730; 8922,359;   -1,888;    0,955
398,321; 8966,868;   -1,252;    0,955
398,912; 8996,312;   -0,615;    0,136
399,503; 9068,514;   -3,524;   -1,409
400,094; 8507,824;    0,294;    1,682
400,685; 8365,148;   -0,433;    0,045
401,276; 8451,646;    0,930;   -0,955
401,867; 8779,760;   -0,888;    0,773
402,458; 8878,238;   -2,251;   -2,318
403,048; 8854,075;    1,112;    0,591
403,639; 8474,979;    0,840;    0,864
404,230; 8690,756;    2,476;    0,318
404,821; 8635,514;   -0,615;    0,045
405,411; 8771,836;    1,203;   -2,591
406,002; 8371,938;   -1,252;   -1,136
406,592; 8188,906;    2,294;    0,045
407,183; 8497,683;    0,566;   -1,500
407,774; 8437,027;    3,475;   -0,136
408,364; 8747,031;    0,930;    0,409
408,954; 8341,429;    0,384;    1,227
409,545; 8425,320;    1,021;    1,045
410,135; 7940,580;    1,293;    0,500
410,726; 8081,095;    1,838;    0,318
411,316; 8517,209;    0,111;    0,773
411,906; 8170,556;   -0,253;   -0,409
412,497; 7640,456;   -1,070;   -0,045
413,087; 8281,988;   -1,980;   -0,227
413,677; 8674,764;   -0,707;    3,864
414,267; 8529,253;    0,656;    1,409
414,857; 8551,289;   -2,980;    4,227
415,448; 8822,959;    0,839;    0,500
416,038; 8485,203;    0,020;   -0,591
416,628; 8465,837;   -0,889;    0,409
417,218; 7877,070;    0,565;    3,318
417,808; 8161,925;    0,202;   -0,409
418,398; 8654,418;    0,020;    2,682
418,988; 8666,779;    2,020;    0,591
419,578; 8941,495;   -0,707;    1,409
420,168; 9270,750;   -1,343;   -0,955
420,757; 8846,173;   -1,343;   -1,500
421,347; 8537,275;    0,111;   -0,227
421,937; 8715,199;    2,292;    1,409
422,527; 8625,641;    0,838;   -0,773
423,116; 8449,353;   -0,253;   -0,045
423,706; 8833,308;   -1,889;    0,318
424,296; 8808,205;    1,384;    0,682
424,885; 9197,478;   -0,071;   -3,045
425,475; 9486,659;    1,474;   -2,864
426,065; 9423,952;   -0,980;   -0,318
426,654; 9046,082;   -0,435;   -0,318
427,244; 9137,716;    0,020;    1,409
427,833; 8594,128;    1,383;   -0,500
428,423; 9126,347;   -0,526;    1,136
429,012; 9891,328;   -0,344;   -1,136
429,601; 9377,536;   -1,344;    0,136
430,191; 9581,684;    1,292;    4,318
430,780; 9221,872;   -0,344;   -0,409
431,369; 9137,178;    0,746;   -0,045
431,959; 9807,422;   -1,254;    0,500
432,548; 9596,291;   -1,163;   -0,045
433,137; 9691,272;   -1,254;   -1,318
433,726;10259,218;    0,292;    0,500
434,315; 9615,785;   -0,526;    2,409
434,905; 9724,422;   -1,254;    1,409
435,494; 9611,334;    0,746;    0,955
436,083;10093,307;   -0,981;   -0,955
436,672; 9930,652;    0,110;    0,500
437,261; 9506,661;    0,292;   -1,955
437,850; 9627,023;    1,383;    0,682
438,439; 9635,305;    3,291;    1,955
439,027; 9443,989;    3,655;    1,773
439,616; 9768,688;    2,927;    1,227
440,205; 9650,177;    0,200;   -2,136
440,794; 9769,445;    2,109;   -0,045
441,383;10058,200;   -1,346;   -0,591
441,971; 9938,085;   -2,436;    0,591
442,560; 9770,262;    0,563;   -1,773
443,149; 9513,993;    0,379;   -1,318
443,737; 9643,025;   -0,074;   -2,318
444,326; 9898,007;    0,018;    0,318
444,915; 9970,555;   -1,982;    0,864
445,503;10365,488;   -2,891;   -0,318
446,092; 9623,082;    0,382;    2,136
446,680;10151,536;    0,382;    0,318
447,269;10363,921;   -0,346;   -0,318
447,857;10126,678;    0,018;   -1,773
448,445;10234,935;    0,563;    1,318
449,034;10484,113;   -1,528;   -1,136
449,622;10620,482;   -1,073;    3,500
450,210; 9815,105;    2,017;    2,227
450,799;10346,329;    0,290;   -0,591
451,387;10301,410;    1,381;   -0,591
451,975; 9964,161;    2,654;    0,864
452,563;10045,203;    3,472;    2,318
453,151;10125,468;   -0,528;   -1,227
453,739;10043,228;   -1,347;    0,136
454,328; 9889,663;    2,381;   -2,136
454,916; 9594,156;    2,562;   -0,136
455,504; 9764,916;    1,017;    1,227
456,092; 9946,688;    0,017;   -1,591
456,679; 9931,583;    1,472;    0,682
457,267; 9839,431;    4,017;    1,045
457,855;10038,925;    1,017;    1,409
458,443; 9798,797;   -0,165;    1,682
459,031; 9906,616;    0,108;    2,409
459,619;10384,232;   -1,801;    2,864
460,206;10539,137;    0,835;    2,045
460,794;10601,072;   -2,983;   -0,227
461,382;10841,558;   -0,529;   -0,864
461,970;10401,039;    1,198;    1,864
462,557;10440,513;   -0,711;   -0,682
463,145;10641,415;   -3,165;   -1,682
463,732;10791,698;    2,016;   -1,045
464,320;10777,694;   -0,075;   -3,045
464,907;10383,789;    2,743;   -0,773
465,495;10295,682;    0,743;   -1,227
466,082;10460,071;   -1,984;   -0,045
466,670;10409,641;   -2,529;    1,227
467,257;10767,883;   -1,711;    2,045
467,844;10909,424;   -0,075;    0,045
468,432;10999,572;    0,834;    3,500
469,019;10449,344;    0,925;   -1,773
469,606;10942,216;    0,470;    3,682
470,193;10754,946;   -1,439;    0,227
470,780;10293,102;   -2,075;    0,864
471,368;10670,243;   -1,257;   -0,773
471,955;10456,189;    1,379;   -0,682
472,542;10099,378;    0,652;   -1,136
473,129;10319,193;   -0,166;    0,136
473,716;10060,300;    1,470;    0,591
474,303;10263,221;    0,652;   -0,864
474,890;10599,900;   -1,439;   -0,500
475,477;10564,674;   -1,621;    0,409
476,064;10462,394;    1,106;   -1,591
476,650;10427,419;    0,288;    0,318
477,237;10268,055;   -0,258;    0,955
477,824;10444,851;   -1,076;    0,864
478,411;10452,736;   -1,894;   -0,318
478,997;10639,693;    0,560;   -0,773
479,584;10748,569;    1,196;   -0,409
480,171;11428,951;   -0,440;   -0,773
480,757;11084,691;    2,651;    0,773
481,344;11424,021;    0,469;    0,409
481,931;10915,386;    1,105;    1,045
482,517;11901,545;   -1,258;    0,318
483,104;12508,900;    1,106;    2,864
483,690;12830,736;   -1,804;    0,045
484,276;13223,810;   -0,895;    0,227
484,863;12934,459;    2,469;    1,136
485,449;13591,828;   -0,077;    0,318
486,035;13626,975;   -1,986;   -0,136
486,622;14046,394;   -0,895;    0,045
487,208;14009,719;    1,378;    1,500
487,794;13863,684;    0,741;    0,318
488,380;13968,186;    0,105;   -1,409
488,967;14013,785;   -1,168;   -0,409
489,553;14073,539;   -1,895;   -1,409
490,139;14265,701;    1,559;    0,773
490,725;13692,004;    0,741;   -0,227
491,311;13254,214;    3,287;    3,045
491,897;12579,232;   -0,986;    1,500
492,483;12377,585;    0,105;    1,227
493,069;12058,315;    3,923;    0,864
493,655;12072,461;    1,650;    0,682
494,241;11978,763;    1,377;   -0,955
494,826;12404,624;    0,287;   -1,045
495,412;11841,202;    2,559;   -0,682
495,998;12017,418;   -0,805;   -0,318
496,584;12162,281;    0,377;    1,045
497,169;12181,861;    1,014;   -0,682
497,755;12131,318;    0,650;    1,227
498,341;12671,127;    0,559;    0,318
498,926;12210,464;    1,832;    1,955
499,512;12448,518;    1,286;    2,955
500,097;12612,222;    0,195;   -0,318
500,683;12543,150;   -0,350;    2,136
501,268;12908,467;   -0,169;   -0,955
501,854;12615,325;   -0,169;    1,227
502,439;12544,494;   -0,624;   -1,773
503,024;12762,523;    0,195;    0,500
503,610;12823,537;   -0,078;   -0,682
504,195;12833,636;    0,558;    1,955
504,780;12942,309;    2,922;    1,227
505,366;12788,728;    3,013;    2,864
505,951;12485,067;    0,740;    1,045
506,536;12537,699;   -3,260;   -3,682
507,121;12560,296;    0,285;   -0,318
507,706;13084,587;    2,376;    1,045
508,291;13465,709;    2,649;    1,136
508,876;12962,437;   -0,988;    2,591
509,461;12390,128;   -0,169;   -0,773
510,046;12821,864;    0,194;    0,318
510,631;13063,125;   -0,351;   -0,773
511,216;12732,359;    2,467;   -0,500
511,801;13065,412;   -0,442;    2,591
512,386;13408,595;    0,740;    0,500
512,971;13345,037;   -2,988;    0,955
513,555;12896,617;   -0,897;   -1,500
514,140;13694,601;   -0,442;   -3,136
514,725;13705,489;   -0,715;   -1,136
515,309;13822,998;   -0,533;    0,318
515,894;13267,051;   -0,624;   -2,227
516,479;13731,565;   -0,624;   -0,955
517,063;13547,511;    0,376;    1,227
517,648;13717,808;    1,012;   -1,136
518,232;13357,499;   -0,261;   -1,409
518,817;13688,752;   -0,079;    1,682
519,401;13900,592;    2,194;    0,591
519,985;13393,635;    1,103;    1,136
520,570;13298,594;    0,830;   -1,955
521,154;13593,373;    2,102;    0,591
521,738;13740,542;   -2,352;    2,409
522,323;14329,973;   -0,170;    1,682
522,907;14107,673;    0,466;   -0,136
523,491;13775,873;    0,557;    0,955
524,075;13759,126;    2,284;    0,591
524,659;13849,147;    1,466;    0,591
525,243;13324,658;    1,739;    0,409
525,827;13593,645;    0,648;   -0,045
526,411;14434,692;   -1,989;   -0,136
526,995;14623,084;   -0,352;    1,409
527,579;14237,670;   -0,443;   -1,045
528,163;14531,617;    0,375;   -1,500
528,747;14444,587;    2,466;   -0,773
529,331;14779,498;   -0,080;   -1,409
529,915;14983,116;    1,738;    0,955
530,499;14917,266;   -0,807;    1,227
531,082;14631,567;   -0,534;    1,591
531,666;14067,170;    1,374;    0,773
532,250;14756,476;    1,284;    2,682
532,833;15097,471;    0,920;    2,773
533,417;14996,061;   -1,807;    0,864
534,001;14948,208;    1,647;   -0,318
534,584;15650,185;    0,374;    0,500
535,168;15514,263;    0,465;    1,409
535,751;15533,572;    0,647;    0,045
536,334;14974,990;   -0,898;   -0,409
536,918;15590,095;    0,011;    1,591
537,501;15695,906;   -0,899;    1,318
538,085;15677,221;   -0,444;    1,045
538,668;15872,928;    0,829;    2,409
539,251;16203,544;    1,829;    3,773
539,834;16225,248;    0,101;    0,773
540,418;16123,085;   -1,990;    4,318
541,001;16257,459;   -0,990;    1,773
541,584;16265,255;    2,101;    2,227
542,167;15958,414;    1,374;    2,955
542,750;16120,228;    1,919;   -0,773
543,333;15728,940;    0,555;    2,136
543,916;16487,385;    0,192;    2,500
544,499;17116,413;   -1,354;    0,227
545,082;17118,035;    1,374;    3,591
545,665;17231,110;    1,919;    1,500
546,248;17581,758;    1,010;   -0,318
546,830;17260,332;   -0,445;    1,955
547,413;17666,075;    1,010;   -0,773
547,996;18207,303;    0,555;    0,500
548,579;18013,100;    0,919;    0,955
549,161;17765,358;    1,828;    2,682
549,744;17581,429;   -0,809;    0,409
550,326;18105,622;   -0,809;   -1,136
550,909;17871,493;    2,737;    0,591
551,492;18269,677;   -0,263;    0,227
552,074;18024,664;   -0,173;   -1,318
552,657;18585,365;    2,373;    0,045
553,239;18362,304;   -0,173;   -0,773
553,821;18283,366;   -1,082;    1,045
554,404;17789,600;    1,282;    1,136
554,986;18201,763;    0,464;    1,045
555,568;18801,793;    1,191;   -0,955
556,151;17976,864;    1,191;   -0,227
556,733;18201,096;   -0,264;   -0,864
557,315;18692,198;    0,100;    0,500
557,897;18498,687;    0,554;   -0,500
558,479;18619,368;   -1,991;    1,318
559,061;18739,821;   -0,719;   -0,864
559,643;19070,887;   -0,264;    0,045
560,225;19460,415;    1,645;    2,864
560,807;19491,341;    0,918;    0,318
561,389;18972,072;    0,554;    2,318
561,971;19733,756;    0,463;    2,136
562,553;19503,860;   -1,628;    1,591
563,135;19633,419;   -0,537;    1,136
563,717;19218,017;    3,372;    1,136
564,298;19941,383;    3,645;   -0,045
564,880;19720,610;    0,645;   -1,409
565,462;19879,882;    0,645;    1,318
566,043;21044,807;   -0,446;    2,318
566,625;20637,710;    1,918;    1,227
567,207;20447,364;    1,099;    1,682
567,788;21577,030;   -1,264;    1,500
568,370;22433,785;    1,917;   -0,500
568,951;22279,222;    0,190;    0,227
569,533;23138,687;   -0,628;   -0,500
570,114;23600,257;   -0,446;    0,682
570,695;24121,856;   -0,174;   -1,318
571,277;24637,019;   -0,265;   -1,682
571,858;25358,082;    2,008;   -1,136
572,439;26296,244;    1,554;   -1,045
573,021;26551,505;    2,099;   -2,773
573,602;27072,426;   -1,265;    0,318
574,183;27958,200;   -2,083;    2,227
574,764;28126,058;   -1,629;    0,409
575,345;28683,670;    0,917;   -0,136
575,926;29348,428;   -0,356;    0,136
576,507;29333,693;    1,099;   -0,227
577,088;30436,479;    3,099;    1,682
577,669;30488,379;    0,735;    1,955
578,250;31190,563;    0,644;   -1,045
578,831;31898,281;   -1,356;   -2,227
579,412;32154,177;   -0,810;    0,955
579,993;33105,163;    1,008;    0,227
580,573;33477,656;   -0,629;   -0,955
581,154;32426,327;    0,735;   -0,591
581,735;33268,704;    0,644;    0,773
582,315;32741,341;   -0,629;    2,136
582,896;33164,422;   -0,174;    1,227
583,477;32580,748;    0,189;    1,227
584,057;32769,494;    0,553;    0,955
584,638;33093,345;    2,553;    2,318
585,218;32993,573;   -0,538;    2,682
585,799;33202,375;    0,281;   -0,227
586,379;33224,933;    0,372;    1,591
586,959;32000,991;    0,735;    0,318
587,540;31289,166;   -0,629;    2,227
588,120;30805,004;    1,007;   -0,045
588,700;29727,170;    2,553;    2,136
589,281;30011,955;    0,462;   -0,955
589,861;29962,932;    0,099;   -1,682
590,441;29781,058;    2,371;   -2,682
591,021;28770,157;   -0,265;   -2,591
591,601;28944,014;   -0,537;    0,500
592,181;28963,477;   -0,719;   -0,773
592,761;28269,485;    0,007;    1,409
593,341;28180,408;   -0,901;    0,045
593,921;28161,901;   -0,265;    1,591
594,501;28010,478;   -0,538;    1,318
595,081;27848,376;    0,917;   -0,318
595,661;28193,683;   -1,447;    0,955
596,240;28748,319;   -0,537;    0,136
596,820;28388,237;    0,372;    1,955
597,400;28591,424;    2,008;    0,773
597,980;28812,667;    2,008;    1,045
598,559;28831,315;    2,735;   -0,227
599,139;28552,988;   -0,174;   -1,227
599,718;28456,260;   -0,174;   -0,409
600,298;28669,075;    0,735;    0,682
600,877;28893,231;    2,917;    1,409
601,457;29193,512;    2,281;    1,136
602,036;29100,463;    0,190;    2,045
602,616;29329,479;    0,644;    1,682
603,195;29667,688;   -0,355;    3,500
603,774;29210,146;   -0,901;    2,045
604,354;29079,581;    0,826;   -0,500
604,933;28590,633;    0,463;    1,864
605,512;28691,748;    3,554;    0,591
606,091;28718,795;   -0,537;    3,773
606,671;29595,850;    0,281;    0,773
607,250;28624,589;    1,644;    3,136
607,829;28851,905;    2,372;    3,227
608,408;28732,387;    1,190;    2,591
608,987;27754,110;    1,281;    3,409
609,566;28065,870;   -1,265;   -2,500
610,145;28212,920;   -1,082;    0,682
610,723;28603,703;    4,372;    6,864
611,302;27827,328;   -0,446;    1,682
611,881;27296,649;    5,008;   11,227
612,460;28164,544;    1,645;    3,955
613,039;28594,274;   -0,082;    2,045
613,617;27310,325;    1,736;    4,773
614,196;27546,213;    1,099;    1,227
614,775;27833,048;    1,009;    2,409
615,353;27761,585;    0,736;    0,864
615,932;27477,298;    0,100;    2,409
616,510;28052,042;    0,554;    0,591
617,089;27578,648;    7,100;   17,591
617,667;27316,214;    2,372;    6,136
618,246;27167,446;   -1,537;    1,318
618,824;27348,529;   -3,355;   -0,955
619,402;26917,899;   -2,900;   -1,773
619,981;27392,184;   -0,173;   -1,045
620,559;27221,370;    0,009;    1,682
621,137;26789,465;   -0,718;    1,864
621,715;26831,067;   -1,173;   -0,682
622,293;26726,790;   -0,537;   -0,773
622,871;27180,653;   -0,718;    0,500
623,450;26752,969;    0,373;   -0,864
624,028;26665,851;    0,191;   -0,955
624,606;26271,181;   -1,718;    1,682
625,183;26692,246;   -1,536;   -1,136
625,761;26289,967;    1,009;    1,136
626,339;26562,542;    1,373;    2,591
626,917;27028,113;   -0,172;   -0,045
627,495;27046,073;   -0,354;    1,318
628,073;26432,105;   -0,263;    2,864
628,650;26118,400;    0,100;    2,136
629,228;26541,795;    0,373;    4,409
629,806;26001,230;    2,282;    1,136
630,383;26266,822;    1,464;   -0,318
630,961;26027,899;    2,555;   -0,955
631,539;25734,233;    2,464;    0,227
632,116;25072,808;   11,373;   15,409
632,694;25706,925;    2,555;    6,500
633,271;26035,310;    0,828;    2,682
633,848;25936,395;    1,828;    2,045
634,426;25943,127;   -1,081;    1,773
635,003;25078,059;    1,101;   -0,409
635,580;25343,217;    1,192;    3,682
636,158;25890,263;    3,737;    1,227
636,735;25897,615;    0,555;   -0,500
637,312;26060,756;   -0,809;   -0,682
637,889;26161,155;   -4,354;   -0,682
638,466;25605,454;   -3,990;   -0,409
639,043;25599,129;    2,101;   -1,136
639,620;26012,364;   -2,262;   -0,955
640,197;26268,551;    1,100;    1,682
640,774;26374,066;   -0,172;    1,136
641,351;26839,854;    0,737;    1,136
641,928;26219,641;   -0,627;    1,409
642,505;25853,611;    0,828;   -0,500
643,082;25976,580;   -1,718;    1,227
643,658;25021,913;   -0,718;    1,500
644,235;25765,428;    1,191;    2,500
644,812;26067,943;    1,918;    0,773
645,388;25782,730;   -0,991;    1,409
645,965;25924,427;   -0,809;    1,682
646,542;25947,487;   -1,445;   -0,227
647,118;25913,184;    1,009;   -0,955
647,695;26224,608;   -0,263;    1,136
648,271;26156,123;   -0,536;    0,500
648,848;26474,728;    0,736;    2,227
649,424;26271,334;    0,827;    1,318
650,000;26046,940;   -0,354;   -1,045
650,577;25869,091;   -0,627;   -0,955
651,153;26390,060;   -1,809;    0,955
651,729;27426,030;    1,191;    0,864
652,305;27619,454;    0,645;    2,773
652,881;32037,059;   -0,082;    1,136
653,458;39007,120;    1,100;    0,227
654,034;43147,362;    0,282;    1,591
654,610;44804,149;    0,554;    0,773
655,186;46203,846;    0,645;    3,045
655,762;45957,179;   -0,991;    0,409
656,338;45936,057;    0,100;    0,136
656,913;46877,663;   -0,082;    0,409
657,489;46211,632;    0,827;   -0,318
658,065;46200,147;   -0,173;   -1,591
658,641;46855,117;   -0,900;   -0,864
659,217;46166,904;   -0,991;    0,409
659,792;45518,419;    0,645;   -0,409
660,368;45806,661;   -2,173;   -0,682
660,944;45484,994;   -2,082;    1,227
661,519;40923,327;   -0,628;    0,409
662,095;34699,751;   -1,719;    0,591
662,670;29823,629;    1,281;   -0,136
663,246;28439,599;    1,009;   -0,409
663,821;27683,477;    0,281;    1,682
664,396;27161,538;    0,009;    1,864
664,972;27412,780;    0,009;   -0,500
665,547;27702,931;    1,372;    0,136
666,122;27751,900;   -1,082;    0,318
666,698;28066,597;   -0,173;    0,318
667,273;27402,475;   -0,173;    0,136
667,848;28226,627;    2,372;    1,500
668,423;28017,596;    2,190;    2,318
668,998;28610,747;    2,827;   -0,682
669,573;29114,626;   -3,264;   -1,500
670,148;28951,049;   -1,446;   -0,682
670,723;28793,564;   -1,810;    0,318
671,298;29212,897;    2,372;    1,045
671,873;29322,685;   -0,082;   -0,136
672,448;29292,381;    0,645;    0,136
673,023;29654,169;   -1,992;   -0,227
673,597;29934,593;    0,827;    2,318
674,172;29702,108;   -0,355;    0,318
674,747;29223,895;    0,372;   -1,045
675,321;29024,683;   -0,628;    3,318
675,896;28633,198;    0,645;    1,045
676,471;29596,167;    2,645;    1,591
677,045;29446,955;   -1,264;    0,682
677,620;29465,106;    0,190;    1,136
678,194;29785,893;   -2,628;    1,136
678,769;29298,317;   -1,083;   -0,318
679,343;29526,650;   -0,628;    1,773
679,917;29401,165;   -1,446;    1,955
680,492;29533,771;    0,826;    3,227
681,066;29695,558;    3,372;    0,409
681,640;29668,255;    1,463;   -0,318
682,214;30540,952;    0,735;    0,500
682,788;30026,557;   -1,356;   -0,773
683,363;29977,890;   -1,810;    1,682
683,937;29692,405;   -1,719;   -0,318
684,511;30478,647;    0,463;   -0,591
685,085;30117,435;   -1,356;    0,318
685,659;29902,404;   -2,538;    0,864
686,232;30138,828;   -0,356;   -0,318
686,806;29907,070;   -0,901;    0,409
687,380;30589,949;   -0,174;    0,591
687,954;30784,554;   -1,174;    1,136
688,528;30449,251;   -0,719;    1,955
689,101;31247,039;   -3,992;    1,045
689,675;30830,917;   -0,356;   -0,136
690,249;30272,614;   -0,719;    0,409
690,822;30538,583;    0,280;    0,318
691,396;30642,098;   -0,265;    1,227
691,969;30040,885;    1,280;    0,136
692,543;30522,673;   -0,447;   -1,955
693,116;30198,097;   -0,265;   -1,409
693,690;30053,793;    0,099;    0,500
694,263;30585,854;   -1,083;    2,955
694,836;30581,096;    1,371;    3,591
695,410;29202,974;   -0,265;    1,773
695,983;29739,125;    0,189;    0,591
696,556;29739,549;   -0,447;   -1,045
697,129;30088,519;   -0,356;    1,409
697,703;29767,034;   -1,629;    1,955
698,276;29714,730;    1,462;   -0,773
698,849;29539,245;    1,280;    1,409
699,422;29916,851;   -1,083;    0,591
699,995;29640,093;    0,007;    0,136
700,568;30159,426;   -0,629;    3,045
701,140;30134,032;   -2,811;    1,682
701,713;29827,546;   -0,174;    2,409
702,286;29605,607;   -0,538;    0,864
702,859;29564,394;   -0,902;   -0,591
703,432;28617,455;    0,825;    0,682
704,004;29096,515;    0,462;    0,318
704,577;29001,939;   -0,629;    0,136
705,150;29584,272;    0,189;    2,500
705,722;29382,605;   -0,356;   -3,227
706,295;29141,301;   -0,175;   -0,591
706,867;28991,816;   -0,175;    1,955
707,440;29170,876;   -1,720;   -0,409
708,012;29452,846;    0,462;    0,591
708,584;29425,633;    2,462;    0,227
709,157;29689,057;    1,825;   -0,591
709,729;29325,390;    2,280;    2,045
710,301;30205,996;    0,734;    0,045
710,874;30204,147;   -1,447;   -0,227
711,446;29102,298;    0,371;    0,864
712,018;28977,631;    0,098;    0,500
712,590;28721,237;   -1,993;    1,682
713,162;29272,116;    0,825;    1,318
713,734;29494,721;    1,825;   -2,045
714,306;29420,691;   -1,902;   -0,409
714,878;28079,205;    0,825;    0,864
715,450;28890,629;    0,643;    0,864
716,022;29143,962;    1,552;    1,318
716,593;29277,386;    0,189;    0,591
717,165;29230,083;   -3,175;   -1,227
717,737;28946,052;    0,280;    0,409
718,309;28610,749;    0,280;   -0,045
718,880;28584,537;   -0,539;   -1,409
719,452;28790,324;   -0,175;   -1,591
720,024;28327,657;    0,734;   -0,591
720,595;28948,626;   -2,902;    0,955
721,167;28472,687;    0,370;   -2,045
721,738;27984,474;   -0,812;   -1,045
722,309;27880,807;   -0,993;   -1,227
722,881;27714,049;   -1,357;    0,773
723,452;28383,201;   -2,630;    2,864
724,023;28554,715;   -0,721;    2,682
724,595;28309,321;    0,007;    0,682
725,166;28066,200;    0,007;   -0,409
725,737;27710,078;    1,734;    0,227
726,308;27781,502;   -0,266;    0,318
726,879;28208,926;   -1,630;    1,227
727,450;28106,441;    0,552;   -0,045
728,021;28086,319;    3,097;    0,682
728,592;27861,561;    0,734;    0,500
729,163;28218,985;    0,643;   -0,136
729,734;28188,864;    0,188;   -0,227
730,305;28543,015;    1,734;    0,136
730,876;28931,166;    0,188;    2,955
731,447;28651,953;    2,188;    2,682
732,017;28753,832;    1,097;    1,864
732,588;28257,256;    0,734;    1,227
733,159;28426,043;    0,643;   -1,045
733,729;28196,467;    0,006;    0,409
734,300;27501,255;    0,915;    0,864
734,870;27870,042;    3,461;    0,591
735,441;28476,194;    0,370;   -0,591
736,011;28245,345;    0,643;   -1,591
736,582;28201,587;   -0,812;    0,045
737,152;27716,011;   -1,721;   -2,045
737,722;28110,344;   -0,267;   -0,682
738,293;27816,495;   -1,358;    1,318
738,863;27693,010;    2,461;    2,318
739,433;27526,252;    5,279;    0,318
740,003;28117,403;   -0,994;   -0,682
740,573;27494,282;    2,097;   -1,591
741,143;27488,342;   -1,085;    0,318
741,713;28336,948;    1,188;   -0,500
742,283;27992,644;    0,915;    1,591
742,853;27710,432;    1,915;    1,591
743,423;27185,947;    1,733;    0,045
743,993;27302,916;   -0,358;    1,500
744,563;26707,794;    0,097;   -0,864
745,133;26625,673;   -0,812;   -0,864
745,702;27351,460;   -0,267;    1,773
746,272;26556,430;   -0,176;    0,591
746,842;26305,490;   -1,358;   -0,591
747,411;26754,368;   -0,267;   -0,318
747,981;26969,611;    0,097;    0,500
748,551;26975,125;    2,278;   -1,045
749,120;26865,186;    0,642;   -0,227
749,690;27169,701;   -0,631;    2,409
750,259;27517,852;    1,369;    2,955
750,828;27414,003;    1,551;   -1,955
751,398;27736,790;    1,278;   -0,045
751,967;27136,396;    2,187;    0,409
752,536;27406,547;   -0,813;   -0,227
753,105;27849,335;    0,096;    0,227
753,675;27678,395;    0,096;    1,773
754,244;27619,637;   -0,904;    3,591
754,813;27670,243;    0,551;    1,227
755,382;27220,758;    0,460;    0,955
755,951;27790,273;    1,551;    3,682
756,520;27304,242;   -0,085;    1,864
757,089;27897,757;    0,278;    0,500
757,658;28059,726;    1,733;    1,227
758,227;28043,241;    1,096;    0,318
758,795;28374,301;    1,187;    1,136
759,364;28626,998;   -0,086;   -0,591
759,933;27603,876;   -1,176;   -0,045
760,501;27137,118;    0,733;   -1,318
761,070;27621,179;   -2,813;   -1,409
761,639;28368,057;   -1,904;    1,318
762,207;27615,663;    1,551;   -0,955
762,776;27581,269;    0,369;    0,864
763,344;27567,693;   -0,995;    0,591
763,913;26691,389;   -0,722;    1,409
764,481;27392,177;    1,005;   -0,136
765,049;27183,055;   -1,358;    1,409
765,618;27027,115;   -0,086;    0,318
766,186;27187,267;    0,278;    0,136
766,754;27361,872;    0,005;    1,864
767,322;26346,660;   -1,995;    0,409
767,890;26373,266;   -0,722;   -1,773
768,459;26766,871;   -2,177;   -0,318
769,027;26929,204;    1,641;    3,409
769,595;25895,537;    3,278;    2,591
770,163;26329,870;    3,823;    2,955
770,730;26022,476;    0,732;   -0,136
771,298;25935,264;    0,187;   -1,409
771,866;26063,233;   -1,541;    4,955
772,434;26328,748;   -0,631;   -1,864
773,002;26508,899;    0,005;    0,682
773,569;26164,868;    0,914;    1,682
774,137;25976,656;   -0,268;   -0,045
774,705;26775,444;    0,278;   -0,136
775,272;26274,504;    0,641;    0,682
775,840;26002,019;   -0,177;    2,682
776,407;25529,261;    0,277;    1,955
776,975;25146,776;   -0,632;    0,318
777,542;26155,927;   -1,086;   -0,045
778,110;25998,532;   -1,268;   -0,045
778,677;25710,684;   -2,359;   -0,864
779,244;25465,017;    2,186;    1,045
779,812;25557,441;    1,823;    0,864
780,379;25380,137;    0,005;    1,136
780,946;25632,197;    1,005;   -0,773
781,513;25949,621;   -1,450;    0,318
782,080;25301,500;   -0,086;    2,864
782,647;26092,742;   -0,268;    3,045
783,214;25596,348;   -0,177;    3,864
783,781;25226,681;   -0,723;   -0,682
784,348;25151,468;   -0,632;    1,500
784,915;25661,074;   -3,177;    0,318
785,482;25401,771;    1,368;    2,591
786,049;25815,649;    0,186;   -0,591
786,615;25956,618;    0,277;   -0,955
787,182;25686,588;    0,186;   -0,682
787,749;25371,466;   -2,814;    1,409
788,315;24703,617;   -1,632;   -0,409
788,882;24982,041;    1,550;   -1,227
789,448;25672,556;    1,732;   -0,955
790,015;25693,253;    1,095;    3,227
790,581;25258,495;    1,459;    0,227
791,148;25121,828;    0,641;    1,045
791,714;25364,252;   -0,541;    3,136
792,280;25026,585;    0,186;    1,591
792,847;24596,827;    0,550;    2,500
793,413;25192,069;   -0,269;   -0,318
793,979;24690,766;    3,459;   -1,318
794,545;24756,462;    4,459;    2,682
795,111;24148,795;    2,186;    1,318
795,678;24337,674;    0,731;   -1,682
796,244;23992,279;    3,368;    0,136
796,810;24546,612;    1,731;    0,773
797,375;24286,309;    0,549;   -2,136
797,941;24301,460;   -0,541;    0,591
798,507;24410,248;   -0,451;   -0,955
799,073;24018,399;   -0,360;    0,591
799,639;24099,914;   -2,632;    3,136
800,205;24124,883;    0,095;    2,682
800,770;23641,671;    0,640;    1,773
801,336;23727,822;    1,368;   -0,955
801,901;23394,610;    4,549;    3,136
802,467;23976,033;   -0,542;    2,045
803,033;23346,821;   -0,087;    0,864
803,598;23574,336;    1,913;   -1,045
804,163;23518,942;    1,095;   -0,318
804,729;23514,184;   -0,178;    1,136
805,294;23928,517;    0,822;    2,227
805,859;23711,759;    0,731;   -0,409
806,425;23147,910;    1,186;    2,682
806,990;22820,607;    2,186;    4,318
807,555;23410,121;   -1,451;    2,591
808,120;23226,000;    0,822;   -0,409
808,685;23293,606;    0,185;   -2,500
809,250;22758,393;    0,004;   -0,500
809,815;23071,544;    1,913;    0,682
810,380;23614,968;   -0,269;    1,591
810,945;24134,210;   -1,087;    2,045
811,510;23313,180;    2,094;    1,591
812,075;22988,331;   -0,633;   -1,409
812,640;23038,755;    2,003;    1,409
813,204;23139,724;    0,822;   -0,227
813,769;23582,421;    2,094;   -0,045
814,334;23002,299;    0,458;    0,864
814,898;23040,814;    0,367;    0,591
815,463;22914,420;    1,276;   -0,773
816,027;22940,571;   -0,724;   -2,318
816,592;23021,086;    0,640;   -2,045
817,156;22518,510;    2,094;    1,136
817,721;22313,752;    4,276;    2,318
818,285;22266,358;    2,912;    1,500
818,849;22976,509;   -1,451;    1,682
819,414;22885,660;   -0,269;    2,955
819,978;22452,902;   -1,269;    1,773
820,542;23027,780;    2,003;    0,500
821,106;22696,477;   -0,815;    0,682
821,670;22768,901;   -0,815;    2,591
822,234;22563,416;   -0,270;    1,409
822,798;21891,840;    0,003;    0,500
823,362;21866,264;   -0,633;    4,227
823,926;21165,778;    0,094;    1,136
824,490;21380,839;   -0,997;   -0,682
825,054;21831,717;   -0,088;   -1,136
825,618;21400,323;   -1,542;   -1,500
826,181;21368,929;    0,458;   -1,318
826,745;21320,353;    1,367;   -1,045
827,309;21617,867;    1,185;    1,318
827,872;21034,109;    1,367;    0,955
828,436;22037,806;    1,185;   -0,773
828,999;22085,503;   -0,997;    1,227
829,563;20856,018;   -0,179;    1,136
830,126;20690,532;   -0,179;   -0,591
830,690;20680,956;   -1,997;    2,864
831,253;20236,107;   -0,543;    2,227
831,816;20377,804;   -1,906;    0,500
832,380;20274,683;    0,185;    0,864
832,943;20490,743;   -1,361;   -0,500
833,506;19984,894;    2,639;   -1,227
834,069;20738,682;    3,912;   -0,955
834,632;20812,378;    1,730;    1,318
835,195;20752,893;    1,003;    0,955
835,758;19964,862;   -0,997;    1,955
836,321;19775,195;    0,730;   -1,045
836,884;19909,074;   -0,725;   -0,955
837,447;19921,861;   -2,816;    1,773
838,010;20181,376;    0,366;    3,227
838,573;20433,618;   -1,179;    0,773
839,135;20425,042;   -1,361;   -0,955
839,698;19863,284;    1,275;    0,409
840,261;19366,708;    1,003;   -0,227
840,823;19254,678;   -0,543;    0,864
841,386;19542,829;   -0,452;   -2,409
841,948;19386,707;   -1,361;    1,773
842,511;19137,949;    0,912;    1,682
843,073;19262,373;    1,912;    0,227
843,636;19066,979;   -0,361;   -0,227
844,198;18979,767;    0,911;    0,591
844,760;19089,736;    1,093;    1,955
845,322;18746,433;    0,548;    1,136
845,885;19177,402;    0,730;    0,591
846,447;19649,371;   -1,998;    0,227
847,009;19192,068;    1,911;   -0,682
847,571;19516,037;    0,820;   -2,045
848,133;19654,279;   -1,089;   -1,864
848,695;19489,158;   -0,543;    1,409
849,257;19032,582;   -1,089;   -1,682
849,819;19176,551;   -0,998;   -0,409
850,381;19237,248;   -0,725;   -0,864
850,942;19590,672;    1,093;   -0,591
851,504;19565,550;    1,184;    0,227
852,066;19596,701;    1,275;   -1,591
852,628;19132,762;   -0,180;    1,955
853,189;18696,095;    1,638;    2,682
853,751;18797,791;   -0,907;    1,409
854,312;18588,124;   -0,453;   -1,682
854,874;19129,094;   -2,089;   -0,773
855,435;19640,699;   -0,907;   -1,682
855,997;19803,032;   -1,816;   -0,136
856,558;19099,729;    0,366;    1,773
857,119;19188,244;    0,820;    2,864
857,681;18837,668;    0,002;    0,318
858,242;18919,001;    1,911;   -2,136
858,803;19345,516;    0,456;   -0,773
859,364;19948,849;    0,184;   -4,773
859,925;19230,636;   -2,453;   -0,955
860,486;19137,696;   -0,453;   -0,955
861,047;18867,484;   -0,544;   -1,227
861,608;18628,181;   -1,089;   -0,773
862,169;18792,695;    0,638;   -0,045
862,730;18562,756;    0,456;    1,409
863,291;18822,452;   -0,635;   -0,500
863,852;19206,149;   -0,635;    1,955
864,412;18640,664;   -0,271;   -0,864
864,973;17214,633;   -0,089;    0,500
865,534;17077,784;   -1,726;    0,227
866,094;18588,481;    1,820;    0,227
866,655;18238,450;    1,274;    3,318
867,215;18526,511;    0,274;    0,136
867,776;18377,844;    0,547;   -0,136
868,336;18469,358;   -1,453;    0,136
868,897;17937,146;    2,638;    1,682
869,457;17633,115;    1,365;    0,318
870,017;17863,176;    0,547;   -1,227
870,578;18412,327;   -0,817;    0,773
871,138;18123,842;   -2,089;   -0,955
871,698;17650,266;   -0,817;   -1,318
872,258;17533,235;   -0,453;   -2,864
872,818;17897,659;    2,729;    0,045
873,378;17858,083;    0,638;    1,045
873,938;17384,234;    0,547;    0,500
874,498;17741,567;    0,274;   -1,955
875,058;17626,173;    2,183;    1,773
875,618;17475,597;    1,910;   -2,682
876,177;17385,202;    1,274;    0,136
876,737;16988,990;   -0,090;    1,955
877,297;17011,232;    0,183;    1,955
877,856;17006,019;   -0,362;    0,318
878,416;16944,443;    1,183;   -0,136
878,976;17181,504;   -1,817;    0,409
879,535;17340,109;    0,092;    3,136
880,095;17084,351;   -0,544;    0,045
880,654;17225,139;   -1,090;    1,318
881,213;17292,654;    2,456;    1,500
881,773;16949,078;    2,637;    2,682
882,332;17264,774;    3,365;    5,136
882,891;17160,471;    3,092;    2,136
883,451;17628,986;   -1,272;    1,682
884,010;17077,773;   -2,908;   -0,409
884,569;17122,016;   -0,999;   -0,045
885,128;17275,803;    2,819;   -1,864
885,687;17333,136;    4,455;    0,682
886,246;17034,924;    1,455;    2,136
886,805;16814,711;    2,455;    2,045
887,364;17120,590;   -0,999;   -0,500
887,922;17468,741;   -1,181;    0,045
888,481;16948,528;   -1,545;    0,591
889,040;17251,861;    1,183;    2,136
889,599;17969,285;    2,455;    1,409
890,157;18022,618;    1,455;    2,409
890,716;17685,042;   -0,090;    0,227
891,274;17514,648;    0,092;   -1,136
891,833;17967,799;    1,546;    0,864
892,391;17842,223;   -0,454;    0,500
892,950;17892,374;    1,819;   -0,773
893,508;18274,434;    0,455;   -0,409
894,067;17605,040;    0,637;    0,136
894,625;17519,646;   -0,636;   -1,500
895,183;17742,433;   -0,363;   -0,682
895,741;17620,312;    1,728;   -1,773
896,299;17525,009;   -0,545;   -2,409
896,858;17706,523;    0,819;   -1,591
897,416;17846,947;    2,728;   -1,318
897,974;17558,917;    1,819;    0,318
898,532;17678,704;    6,091;    2,682
899,089;17574,674;    2,091;   -0,682
899,647;17608,916;   -1,454;    1,318
900,205;17324,340;    1,182;    1,045
900,763;17575,127;   -0,454;    0,227
901,321;17587,642;    2,364;   -1,409
901,878;16989,702;   -1,000;   -0,773
902,436;16865,399;   -1,363;    1,318
902,994;17228,277;    4,728;    3,682
903,551;16644,792;    0,728;    0,409
904,109;17055,398;    0,182;   -1,409
904,666;16650,822;    2,455;    1,045
905,224;16497,882;    0,182;   -0,409
905,781;16179,579;    0,727;   -0,318
906,338;16292,366;   -1,363;    1,045
906,895;16243,245;    0,637;    2,045
907,453;16152,487;    1,727;    1,136
908,010;16201,547;   -0,909;    0,409
908,567;15854,516;    1,273;    0,591
909,124;15382,122;    0,364;   -1,500
909,681;15425,546;   -2,909;    0,682
910,238;15584,061;    0,636;   -1,318
910,795;15903,394;   -0,273;   -1,136
911,352;15530,212;   -2,909;   -2,682
911,909;14897,939;   -1,364;   -0,864
912,466;15409,394;   -3,182;    1,500
913,022;14965,667;   -1,636;    0,500
913,579;15319,667;   -0,909;    2,045
914,136;14985,848;    1,636;    0,955
914,692;15329,121;    0,091;   -1,227
915,249;14938,030;    1,455;    0,409
915,806;15163,394;    0,182;    1,955
916,362;14883,939;    1,909;    1,864
916,918;14448,758;    2,000;    1,045
917,475;14380,485;   -1,182;    0,955
918,031;14466,939;    3,364;   -0,045
918,587;13936,848;   -0,909;   -0,318
919,144;14176,394;   -2,273;    0,227
919,700;14511,303;    1,727;    0,773
920,256;14046,394;    0,727;    0,045
920,812;13653,030;   -0,727;   -1,045
921,368;13695,576;   -1,727;   -1,045
921,924;13308,303;    0,182;   -0,136
922,480;12873,394;   -0,545;    1,227
923,036;13477,394;    1,273;    1,955
923,592;13424,848;    0,455;    0,318
924,148;13355,848;    0,455;   -0,955
924,704;12617,121;   -1,364;   -0,409
925,259;12900,758;   -0,273;    0,591
925,815;12648,030;    1,455;    0,500
926,371;12193,212;    2,909;    1,409
926,926;12054,303;    2,091;    0,591
927,482;11651,667;   -1,364;    0,773
928,037;11547,939;    0,909;    2,045
928,593;11793,576;    1,636;    1,045
929,148;11677,848;   -1,818;   -1,500
929,704;11154,848;   -1,455;   -0,500
930,259;11369,576;    0,091;   -0,136
930,814;10441,394;   -0,818;    1,955
931,369;10118,576;    1,091;   -0,773
931,925;10015,667;   -0,091;    0,136
932,480; 9908,303;   -2,818;   -2,591
933,035; 9728,121;    0,545;   -0,318
933,590; 9512,303;    0,364;   -1,773
934,145; 9148,576;   -1,364;   -0,318
934,700; 9512,485;    0,455;   -0,591
935,255; 9296,303;   -0,091;    0,045
935,809; 8589,030;    3,182;    0,864
936,364; 7718,848;   -0,455;   -0,136
936,919; 7647,394;    0,455;   -1,773
937,474; 7526,848;    1,455;    0,136
938,028; 7285,576;   -1,636;    1,136
938,583; 6752,030;    1,818;    4,682
939,138; 7048,030;    2,091;    2,136
939,692; 6455,030;    1,636;   -1,136
940,247; 6162,485;   -0,727;   -1,045
940,801; 5719,848;   -0,636;    0,227
941,355; 5590,576;   -0,364;    2,591
941,910; 5229,848;   -0,273;   -2,136
942,464; 5329,030;   -0,818;   -0,318
943,018; 5137,212;    1,000;   -0,227
943,572; 5070,667;    2,545;   -0,682
944,126; 4473,030;    0,091;   -0,409
944,681; 4341,303;    3,091;    0,227
945,235; 4329,758;    1,000;   -0,591
945,789; 4277,939;    0,364;   -1,864
946,342; 4347,485;    0,455;   -0,591
946,896; 4175,303;   -2,273;    0,955
947,450; 3933,030;    1,545;   -0,227
948,004; 4103,667;    1,727;   -0,045
948,558; 4121,303;    0,273;   -0,864
949,111; 4042,485;   -0,273;   -0,318
949,665; 4052,485;    1,636;   -0,682
950,219; 3942,667;   -0,091;   -1,045
950,772; 4038,212;   -1,909;    1,864
951,326; 3905,121;    0,545;   -0,955
951,879; 4010,212;    0,727;   -2,318
952,433; 4037,848;    0,000;    2,227
952,986; 3889,030;    2,909;    0,682
953,539; 3854,212;   -0,273;    0,591
954,093; 3774,303;    0,545;   -1,318
954,646; 3894,485;    0,909;    1,318
955,199; 3701,758;    0,000;   -0,500
955,752; 3592,576;   -0,455;    1,773
956,305; 3555,758;   -0,091;    2,955
956,858; 3719,485;    0,818;   -0,318
957,411; 3892,121;   -0,545;    2,136
957,964; 3722,303;    1,364;    2,136
958,517; 3721,939;   -1,545;    3,136
959,070; 3549,576;   -0,455;    1,955
959,623; 3605,848;    1,091;    1,500
960,176; 3382,667;    1,727;    2,045
960,728; 3352,030;   -2,727;    0,773
961,281; 3421,667;    0,545;    0,500
961,834; 3468,758;   -0,909;    0,864
962,386; 3381,576;    1,727;    1,045
962,939; 3315,939;    0,364;   -0,318
963,491; 3453,303;    0,455;    1,136
964,043; 3319,121;    1,182;    2,409
964,596; 3447,939;   -1,000;    2,227
965,148; 3269,121;   -1,000;    1,773
965,700; 3191,303;    1,091;   -0,227
966,253; 3357,030;   -0,636;    0,318
966,805; 3184,303;   -2,273;    0,773
967,357; 3240,848;    1,091;   -1,500
967,909; 3183,758;    0,455;   -1,227
968,461; 3302,576;    0,545;    3,136
969,013; 3245,121;   -0,182;   -0,864
969,565; 3316,212;   -0,455;   -1,136
970,117; 3365,939;   -0,364;    1,045
970,669; 3219,576;    0,182;   -0,136
971,220; 3093,394;   -0,455;   -1,500
971,772; 3003,485;   -0,636;   -0,318
972,324; 3111,121;    0,091;   -0,500
972,876; 3058,667;    0,818;   -0,045
973,427; 3207,667;    1,909;   -1,045
973,979; 3172,758;   -0,727;   -2,500
974,530; 3212,939;    1,818;    1,318
975,082; 3226,576;   -0,545;    1,682
975,633; 3124,212;    1,091;    1,682
976,184; 3246,848;    0,909;    0,773
976,736; 3057,394;    0,091;    0,227
977,287; 2847,667;   -0,909;   -0,500
977,838; 3029,485;    0,909;   -0,318
978,389; 3085,394;   -1,000;   -0,500
978,940; 2942,667;    0,545;   -0,409
979,491; 3002,939;    0,091;   -0,500
980,042; 2947,758;    0,182;    3,045
980,593; 3021,848;   -2,545;    0,227
981,144; 3049,939;    2,545;   -0,500
981,695; 2996,667;    1,455;    1,500
982,246; 2971,848;   -0,273;    1,045
982,797; 3151,576;   -1,727;    0,682
983,347; 3254,758;    0,364;    0,591
983,898; 3384,939;    3,091;    0,409
984,449; 3218,576;    2,182;    0,773
984,999; 3134,758;    1,455;   -1,136
985,550; 2908,485;    0,182;   -0,318
986,100; 2959,939;   -0,455;   -0,318
986,651; 2997,485;   -0,818;    0,045
987,201; 2979,485;   -1,000;   -0,591
987,751; 3055,303;    0,818;    2,864
988,302; 3037,939;    2,636;    1,500
988,852; 3066,485;    0,455;   -1,136
989,402; 3110,939;    0,091;    0,682
989,952; 3018,939;   -2,182;    0,864
990,502; 3152,667;   -0,091;    0,682
991,052; 3082,667;   -0,727;    0,045
991,602; 2969,576;   -2,909;    1,318
992,152; 2950,667;    0,455;    0,682
992,702; 2944,485;    1,364;   -0,045
993,252; 2871,485;   -3,000;   -0,500
993,802; 2932,485;   -0,273;    1,318
994,352; 3171,303;   -1,545;    1,136
994,901; 3283,212;   -0,182;    3,227
995,451; 3187,758;   -0,182;    0,318
996,000; 3267,939;    1,636;    0,318
996,550; 2972,212;    2,273;    0,227
997,100; 2979,576;    1,273;   -0,045
997,649; 3261,758;    2,182;    0,955
998,198; 2905,667;    1,727;   -1,500
998,748; 3091,667;    1,091;   -2,318
999,297; 3021,848;   -0,818;   -0,409
999,846; 3061,939;    1,000;   -0,773
1000,395; 3108,030;   -0,818;    0,500
1000,945; 3039,848;    1,818;   -0,773
1001,494; 3151,848;    2,364;    0,682
1002,043; 3141,121;    4,636;    0,864
1002,592; 2989,485;   -1,091;    1,955
1003,141; 3152,939;   -0,455;   -0,682
1003,690; 3000,939;    1,727;    0,500
1004,238; 3071,212;    1,455;   -0,045
1004,787; 2730,030;    1,364;    1,227
1005,336; 2955,303;    0,364;    0,682
1005,885; 3104,394;    1,364;   -2,773
1006,433; 3247,121;    0,545;    0,955
1006,982; 3293,121;    0,455;    1,682
1007,531; 3193,576;   -1,818;   -0,227
1008,079; 3164,848;   -2,273;    0,500
1008,627; 3328,121;   -1,455;    0,409
1009,176; 3051,848;    0,000;   -1,955
1009,724; 3081,030;    1,091;    0,864
1010,273; 3129,212;    1,273;    0,500
1010,821; 3247,303;    0,091;    1,409
1011,369; 2991,848;   -1,364;    1,318
1011,917; 2968,212;   -1,364;   -0,591
1012,465; 3245,030;    1,273;   -1,591
1013,013; 3375,394;    2,091;   -1,682
1013,561; 3245,303;    0,455;   -0,773
1014,109; 3284,485;   -1,909;    1,682
1014,657; 3156,485;    0,364;    0,591
1015,205; 3293,939;    1,636;   -0,955
1015,753; 3329,667;   -0,545;   -1,409
1016,301; 3356,485;   -2,636;    3,045
1016,848; 3361,121;   -1,273;    0,409
1017,396; 3395,485;    2,545;    0,045
1017,944; 3514,030;    1,182;    1,864
1018,491; 3286,667;    0,273;    1,409
1019,039; 3408,303;    0,455;    0,591
1019,586; 3347,212;   -1,364;    1,682
1020,134; 3476,303;    0,455;    1,500
1020,681; 3486,303;    0,182;   -1,136
1021,228; 3518,667;    2,909;   -2,227
1021,776; 3341,303;    1,182;   -1,136
1022,323; 3558,485;    0,455;    0,773
1022,870; 3488,576;   -1,000;   -0,045
1023,417; 3377,667;    2,636;    1,864
1023,964; 3524,030;    2,636;    1,227
1024,511; 3368,212;    1,000;    0,773
1025,058; 3177,394;    3,182;   -0,045
1025,605; 3220,030;   -2,273;    3,136
1026,152; 3424,848;    1,727;   -0,591
1026,699; 3170,939;    1,818;    1,318
1027,245; 3340,212;   -0,091;    0,318
1027,792; 3548,576;   -1,000;    1,409
1028,339; 3421,030;    2,364;   -0,045
1028,885; 3262,030;    1,000;   -0,227
1029,432; 3222,485;   -0,091;    0,227
1029,978; 3284,121;   -1,000;   -1,591
1030,525; 3179,394;    1,000;    0,409
1031,071; 3437,485;   -1,364;    1,136
1031,618; 3534,939;    0,364;    1,682
1032,164; 3326,576;   -0,091;    3,045
1032,710; 3358,212;    1,636;   -1,500
1033,256; 3279,485;   -0,636;   -0,136
1033,803; 3276,485;   -0,545;    1,500
1034,349; 3010,212;   -1,364;    0,136
1034,895; 3162,848;    0,000;   -0,318
1035,441; 3140,212;   -0,818;    0,318
1035,987; 3128,576;   -2,364;   -0,682
1036,533; 3127,576;   -1,455;   -0,955
1037,078; 3311,030;    1,455;    1,682
1037,624; 3138,030;    2,455;   -0,955
1038,170; 3178,303;    0,455;   -0,318
1038,716; 3070,030;    1,636;   -0,409
1039,261; 3000,121;   -2,273;   -0,773
1039,807; 2943,303;   -0,091;    3,409
1040,352; 3004,030;   -1,909;   -0,318
1040,898; 3039,394;   -1,545;   -0,682
1041,443; 2952,758;   -1,455;   -2,591
1041,989; 2937,212;    1,091;    1,591
1042,534; 2830,939;   -0,364;    2,591
1043,079; 2966,667;    2,909;    0,955
1043,625; 2757,303;    1,818;    0,500
1044,170; 2794,758;   -1,364;    1,045
1044,715; 3038,303;    2,455;    0,955
1045,260; 2854,485;    2,182;   -0,955
1045,805; 2921,121;    1,182;   -0,591
1046,350; 2870,121;    1,364;   -0,409
1046,895; 2808,758;    2,909;    1,591
1047,440; 2743,485;    5,364;    0,409
1047,985; 2647,485;    2,818;   -0,955
1048,530; 2574,485;    1,545;    1,227
1049,074; 2635,758;    0,000;    0,318
1049,619; 2621,121;   -1,364;    1,955
1050,164; 2404,576;    0,455;    0,227
1050,708; 2449,303;   -0,455;    0,045
1051,253; 2804,212;    1,273;   -2,227
1051,797; 2517,667;    0,818;   -1,318
1052,342; 2543,303;   -1,182;    1,045
1052,886; 2539,667;    0,364;   -1,409
1053,430; 2438,030;   -1,364;    0,136
1053,975; 2438,121;   -0,818;   -0,318
1054,519; 2397,939;   -0,727;    3,227
1055,063; 2396,394;    0,909;    1,318
1055,607; 2278,212;   -0,182;    0,227
1056,151; 2318,758;    2,909;    1,682
1056,695; 2243,848;    2,273;   -1,136
1057,239; 2306,576;   -1,727;   -0,682
1057,783; 2315,485;    0,818;   -1,500
1058,327; 2247,394;    0,000;    1,409
1058,871; 2467,848;   -0,545;    1,318
1059,415; 2185,848;   -0,818;   -0,045
1059,958; 2440,030;    1,455;    2,591
1060,502; 2159,394;   -1,000;   -0,773
1061,046; 2080,030;    0,364;   -0,955
1061,589; 2060,394;   -3,000;   -1,136
1062,133; 1947,030;   -1,273;    1,864
1062,676; 1883,848;    1,182;    0,864
1063,220; 1883,030;    1,091;    0,500
1063,763; 1892,303;    0,909;    1,136
1064,306; 1973,667;   -0,909;    1,864
1064,849; 1859,758;   -0,909;    0,591
1065,393; 1865,212;    2,000;   -1,500
1065,936; 1979,758;    0,182;   -0,409
1066,479; 1868,848;   -1,455;    1,318
1067,022; 1899,121;   -0,273;   -0,227
1067,565; 1793,758;   -0,091;   -1,318
1068,108; 1826,303;    0,727;   -0,591
1068,651; 1808,848;   -0,636;    1,409
1069,194; 1723,303;   -0,455;   -1,682
1069,736; 1722,758;   -1,273;    0,955
1070,279; 1713,667;   -1,364;   -0,500
1070,822; 1741,939;   -2,000;   -0,318
1071,364; 1824,939;   -0,364;    1,318
1071,907; 1651,030;   -0,727;    3,227
1072,450; 1560,848;    0,000;   -0,045
1072,992; 1547,667;   -0,273;    3,136
1073,535; 1674,758;    2,091;    2,136
1074,077; 1481,212;   -0,727;    2,045
1074,619; 1437,485;   -1,364;    0,591
1075,161; 1468,576;   -1,091;    1,500
1075,704; 1658,939;    1,545;    1,227
1076,246; 1464,303;   -0,182;    0,682
1076,788; 1379,394;   -0,364;    1,773
1077,330; 1470,212;    1,273;    2,136
1077,872; 1434,939;    0,909;    0,955
1078,414; 1636,212;    2,727;    0,773
1078,956; 1381,848;    1,273;   -0,227
1079,498; 1621,030;    1,636;    0,318
1080,040; 1337,394;    1,909;   -1,318
1080,581; 1262,485;    1,636;   -0,318
1081,123; 1198,939;    0,091;   -0,773
1081,665; 1247,848;   -1,182;   -0,955
1082,206; 1535,394;    1,364;   -0,500
1082,748; 1388,121;    0,727;    2,045
1083,289; 1276,939;   -2,000;    1,318
1083,831; 1194,121;   -0,545;    0,227
1084,372; 1221,576;    0,000;    0,591
1084,913; 1218,848;    1,091;    0,864
1085,455; 1208,485;   -1,909;   -2,045
1085,996; 1172,394;   -2,273;    0,136
1086,537; 1177,121;   -0,091;    0,864
1087,078; 1216,030;   -0,909;   -2,136
1087,619; 1236,576;   -1,273;    0,227
1088,160; 1166,758;    0,000;    1,318
1088,701; 1165,848;   -1,091;    0,682
1089,242; 1098,939;    1,364;   -2,227
1089,783; 1201,939;   -0,273;    1,409
1090,324; 1161,030;    0,455;    0,682
1090,865; 1046,758;    2,727;   -0,409
1091,405; 1005,121;    0,727;    2,227
1091,946; 1042,848;    0,182;   -0,955
1092,487;  974,030;    0,818;   -1,409
1093,027; 1122,212;   -1,364;   -1,500
1093,568;  976,030;   -0,364;    1,227
1094,108; 1070,030;    0,273;    1,773
1094,649; 1019,212;   -1,182;    0,136
1095,189;  950,758;   -0,636;   -0,682
1095,729;  887,303;   -0,091;    0,955
1096,269;  899,394;    0,727;   -0,955
1096,810; 1222,667;   -1,364;    0,500
1097,350; 1036,303;    1,364;   -0,773
1097,890;  946,303;    0,364;    1,227
1098,430; 1189,394;    2,364;    2,864
1098,970; 1065,667;    2,182;    1,682
1099,510;  929,394;    0,545;   -2,318
1100,050;  858,485;    1,000;   -1,591
1100,589;  827,303;   -0,727;   -0,318
1101,129;  943,030;    0,818;   -0,955
1101,669; 1096,485;    1,727;    2,136
1102,209;  917,121;   -0,091;    2,227
1102,748;  867,030;    0,000;    0,955
1103,288;  859,485;    1,273;   -1,227
1103,827;  889,576;    3,091;   -2,227
1104,367;  773,576;   -0,091;   -2,409
1104,906;  727,212;    1,364;   -1,136
1105,445;  793,939;    0,636;   -1,136
1105,985;  739,394;   -0,727;    1,500
1106,524;  785,394;   -1,727;   -0,682
1107,063;  761,758;   -2,727;    1,409
1107,602;  750,576;   -1,909;   -1,500
1108,141;  677,939;   -1,909;    1,500
1108,680;  771,121;   -3,455;   -0,591
1109,219;  692,485;   -0,909;   -0,500
1109,758;  694,848;    0,455;    0,682
1110,297;  678,485;    1,000;   -0,682
1110,836;  625,667;   -0,727;    0,955
1111,375;  780,212;   -2,545;    0,409
1111,913;  786,394;   -1,000;    0,773
1112,452;  726,394;   -0,273;    0,136
1112,991;  611,394;    1,091;    1,955
1113,529;  572,848;   -0,818;   -0,045
1114,068;  636,485;   -0,273;    2,955
1114,606;  539,576;   -0,364;   -0,955
1115,144;  696,667;   -1,273;    1,045
1115,683;  636,030;   -0,727;    0,318
1116,221;  684,121;   -0,455;   -0,864
1116,759;  601,394;    0,636;   -0,864
1117,297;  786,576;    0,000;    1,864
1117,836;  596,939;   -2,182;   -1,227
1118,374;  599,394;    0,182;   -0,682
1118,912;  546,212;    0,909;    2,682
1119,450;  524,394;    1,000;    0,864
1119,988;  581,576;    1,545;    2,136
1120,525; 1034,667;    5,091;    3,318
1121,063;  741,030;    1,182;    1,864
1121,601;  547,212;   -0,909;   -1,227
1122,139;  502,303;   -0,727;   -2,045
1122,676;  687,848;   -0,727;    2,773
1123,214;  616,667;   -1,182;    4,409
1123,751;  439,758;    1,727;    2,227
1124,289;  572,121;   -0,091;   -0,409
1124,826;  443,394;    1,727;    0,227
1125,364;  364,030;    1,727;   -0,955
1125,901;  550,848;    1,182;    1,227
1126,438;  666,212;    0,818;    0,955
1126,975;  388,758;   -0,727;   -0,773
1127,513;  458,394;    0,273;    2,136
1128,050;  364,939;    1,636;   -0,682
1128,587;  479,485;    2,000;   -0,227
1129,124;  511,758;    0,091;    1,318
1129,661;  378,303;    0,273;    0,227
1130,198;  538,394;    1,636;    0,773
1130,734;  482,848;    0,182;    1,409
1131,271;  349,303;   -0,909;    0,864
1131,808;  518,667;    2,909;    3,045
1132,345;  383,394;    1,545;    0,318
1132,881;  261,576;   -1,545;   -1,864
1133,418;  396,212;    0,727;   -1,136
1133,954;  332,303;    2,455;   -2,682
1134,491;  412,485;    1,364;   -0,773
1135,027;  304,121;    2,364;    0,864
1135,564;  391,939;    0,273;    2,955
1136,100;  375,939;    0,364;    2,136
1136,636;  273,848;   -1,273;   -1,045
1137,172;  370,758;    0,000;   -1,045
1137,708;  284,030;   -1,364;   -1,045
1138,245;  294,667;    1,273;   -1,227
1138,781;  233,848;    1,091;   -3,318
1139,317;  312,030;    1,273;   -1,409
1139,852;  301,848;    3,091;    0,136
1140,388;  418,303;   -1,182;   -0,409
1140,924;  298,030;   -1,091;   -2,227
1141,460;  232,121;   -1,636;    0,136
1141,996;  168,121;   -1,364;    2,682
1142,531;  217,667;    1,364;    3,318
1143,067;  435,485;    1,182;    1,045
1143,602;  489,121;   -0,091;   -0,318
1144,138;  329,485;   -2,636;    1,045
1144,673;  190,030;   -1,455;    1,409
1145,209;  261,303;   -1,909;   -0,318
1145,744;  189,576;   -0,727;    0,864
1146,279;  323,394;    1,818;   -0,136
1146,815;  234,848;    1,545;   -2,682
1147,350;  285,576;   -1,364;    0,045
1147,885;  191,939;   -0,818;   -1,318
1148,420;  195,576;   -2,273;    0,773
1148,955;  177,212;   -1,727;    1,864
1149,490;  201,394;   -0,909;   -1,591
1150,025;  178,030;    0,455;   -1,773
1150,560;  297,667;    1,091;   -0,955
1151,094;  264,848;    1,455;   -0,591
1151,629;  269,485;    1,636;    0,864
1152,164;  195,121;    1,364;    1,318
1152,698;  145,758;   -0,182;   -0,136
1153,233;  107,212;    0,091;   -0,682
1153,767;  151,939;   -3,000;   -2,318
1154,302;  206,758;   -1,455;    1,773
1154,836;  193,939;   -0,455;   -2,136
1155,371;  255,576;   -1,364;    3,682
1155,905;  207,576;   -0,636;    1,682
1156,439;  178,303;   -0,636;   -0,500
1156,973;  220,758;    0,364;    0,318
1157,507;  148,848;   -0,364;    0,682
1158,042;  181,758;   -0,727;    1,045
1158,576;  224,485;    0,182;    1,773
1159,110;  203,485;   -0,818;    2,409
1159,643;  184,576;    0,636;   -0,045
1160,177;  120,485;   -1,545;    1,500

