
Integration time [ms]:   0,040
Averaging Nr. [scans]: 11
Smoothing Nr. [pixels]: 0
Data measured with spectrometer [name]: 7318044SP
Wave   ;Sample   ;Dark     ;Reference
[nm]   ;[counts] ;[counts] ;[counts] 

186,757;   30,714;   31,551;    1,318
187,357;   63,181;   22,551;    0,955
187,958;   36,062;   15,460;   -1,591
188,558;   79,531;    8,915;   -1,227
189,159;   46,001;    6,733;   -4,500
189,759;   10,788;    7,278;   -3,591
190,360;   20,455;    2,824;   -2,136
190,960;   55,970;    2,915;   -4,136
191,560;   68,571;    3,189;   -6,591
192,161;  297,644;    4,372;   -3,500
192,761;  139,878;    4,010;   -3,227
193,361;   92,713;    1,556;   -3,773
193,962;  147,455;    2,010;   -2,682
194,562;   73,478;    1,189;   -3,955
195,162;  106,837;   -2,448;   -2,227
195,762;  260,907;   -3,176;   -0,045
196,362;  211,461;    1,370;   -2,500
196,963;   85,412;    2,006;   -0,864
197,563;  152,986;    1,551;   -0,955
198,163;  100,313;    0,096;   -0,682
198,763;  120,423;    1,733;   -0,500
199,363;  227,849;    3,096;   -0,500
199,963;  188,871;    0,369;    0,409
200,563;  163,637;    2,823;   -1,409
201,163;  140,224;    3,277;   -0,227
201,763;  235,766;    3,732;    0,318
202,363;  171,015;    1,459;    1,500
202,963;  280,814;    1,459;    1,045
203,563;  384,564;    0,277;    0,500
204,162;  239,294;    2,096;   -1,864
204,762;  235,142;    0,550;    0,591
205,362;  198,099;    3,004;    1,955
205,962;  299,860;    3,096;    1,955
206,562;  297,487;    1,823;    2,318
207,161;  272,209;   -0,087;    0,318
207,761;  421,336;    1,277;    2,409
208,361;  298,932;   -0,268;    1,409
208,960;  400,272;    0,459;    1,500
209,560;  463,871;    1,277;    1,591
210,160;  449,225;    0,550;    1,864
210,759;  417,158;    4,186;    1,227
211,359;  425,790;    1,459;    1,045
211,958;  687,954;    1,277;    2,045
212,558;  769,405;    1,732;    1,864
213,157;  602,777;    1,822;    1,500
213,757; 1044,885;    3,822;   -0,227
214,356;  747,996;    1,277;   -0,409
214,956; 1083,945;    3,095;    0,409
215,555;  710,616;    2,095;    2,136
216,154;  653,010;   -2,723;   -0,591
216,754;  666,190;    0,277;    0,773
217,353;  797,055;   -0,268;   -1,045
217,952;  658,872;   -0,178;    0,318
218,552;  890,691;    1,368;   -0,773
219,151;  788,093;    0,277;    0,955
219,750;  785,531;    0,004;   -0,227
220,349;  927,028;   -0,451;    1,045
220,948;  985,128;   -1,360;    1,136
221,548; 1010,142;    0,913;    1,227
222,147; 1107,987;   -0,087;   -0,409
222,746; 1394,944;   -0,451;   -0,955
223,345; 1279,948;    0,731;    0,500
223,944; 1286,813;   -0,451;    0,773
224,543; 1461,259;    1,004;   -1,409
225,142; 1570,567;    0,094;    0,136
225,741; 1478,424;   -0,814;    1,045
226,340; 1495,821;   -0,451;   -0,955
226,939; 1946,986;   -0,996;   -0,136
227,538; 1910,452;   -0,360;   -0,773
228,137; 2053,586;   -0,814;    0,864
228,735; 2210,767;   -0,541;    1,227
229,334; 1960,948;   -0,905;   -0,227
229,933; 2334,737;    0,459;    0,591
230,532; 2441,547;    1,186;   -0,409
231,131; 2484,300;    1,732;    0,318
231,729; 2628,552;   -2,450;   -2,318
232,328; 2749,792;   -0,723;   -1,500
232,927; 2830,720;    1,004;   -0,500
233,525; 2957,960;    3,640;    0,045
234,124; 3171,335;    2,368;   -1,591
234,723; 3207,340;    0,913;   -1,045
235,321; 3349,139;    2,277;    0,136
235,920; 3574,825;    1,186;   -1,227
236,518; 3820,624;    3,459;    0,318
237,117; 3994,294;    0,004;   -0,227
237,715; 4138,463;    0,640;   -0,500
238,314; 4188,640;   -0,087;   -2,318
238,912; 4287,125;   -0,723;   -1,409
239,510; 4349,123;    0,459;   -1,227
240,109; 4514,836;    0,004;    3,773
240,707; 4553,899;   -0,996;    1,227
241,305; 4925,389;    0,550;    0,136
241,904; 5108,026;   -0,178;   -2,045
242,502; 5087,573;   -0,632;   -0,227
243,100; 5048,007;   -0,087;   -0,955
243,698; 5300,540;    0,732;    1,682
244,297; 5468,130;   -0,632;    0,682
244,895; 5316,228;   -0,269;   -2,318
245,493; 5613,023;    2,186;   -0,591
246,091; 5672,899;    1,368;   -1,318
246,689; 5653,080;    1,004;    0,591
247,287; 5819,776;    0,822;   -1,136
247,885; 6102,517;   -1,451;    1,227
248,483; 6187,472;    1,822;   -0,500
249,081; 6304,681;    0,185;    1,591
249,679; 6471,527;   -0,178;    1,682
250,277; 6765,694;   -1,723;    0,864
250,875; 6722,190;   -1,087;   -1,045
251,473; 6745,052;   -1,178;    0,500
252,071; 6934,108;    1,459;    1,045
252,669; 7066,450;   -1,814;    0,318
253,267; 7350,745;   -0,087;    0,773
253,864; 7293,594;   -0,360;    0,682
254,462; 7143,060;    1,640;    1,591
255,060; 7146,420;   -0,269;    1,318
255,658; 7477,086;    0,822;   -0,136
256,255; 7898,321;    0,186;   -2,045
256,853; 7762,608;   -0,269;    1,409
257,451; 7743,294;    0,822;    1,864
258,048; 8001,382;    1,822;    1,864
258,646; 7771,241;    1,731;   -1,045
259,243; 7953,789;   -0,087;    2,227
259,841; 7991,692;   -0,814;    0,318
260,438; 7891,669;   -0,087;    0,864
261,036; 8590,070;   -1,905;    1,409
261,633; 8519,451;   -0,087;    2,227
262,231; 8279,387;    2,731;   -0,045
262,828; 8359,429;   -0,905;    1,136
263,425; 8399,926;    0,913;   -0,591
264,023; 8662,966;    0,186;    0,045
264,620; 8225,876;   -0,360;   -0,318
265,217; 8577,541;   -2,087;    3,136
265,815; 8679,316;   -1,905;    2,136
266,412; 8444,724;    0,731;    0,136
267,009; 8486,294;   -1,451;    0,773
267,606; 8403,423;    0,822;   -0,955
268,203; 8377,376;   -0,269;   -0,591
268,801; 8662,116;    1,731;    0,591
269,398; 8931,822;   -0,360;    2,500
269,995; 8916,975;    0,277;    1,591
270,592; 8704,614;   -0,632;   -0,500
271,189; 8919,943;    0,186;    0,409
271,786; 9039,139;   -0,632;    1,227
272,383; 8838,890;   -1,087;    0,227
272,980; 9047,628;    0,277;    0,318
273,577; 9512,606;    0,004;    1,227
274,174; 9074,912;    0,822;    2,591
274,771; 9030,540;   -0,814;   -0,773
275,367; 9195,060;    2,277;    1,409
275,964; 9153,220;    0,731;   -0,500
276,561; 9257,452;    1,549;   -1,045
277,158; 9495,527;    0,095;   -1,773
277,755; 9592,590;    2,185;    0,409
278,351; 8970,877;   -0,451;   -1,500
278,948; 9316,559;   -0,815;    0,045
279,545; 9332,399;   -1,360;    2,318
280,141; 9920,655;   -1,723;   -2,045
280,738; 9805,357;   -0,451;   -0,136
281,334;10013,367;   -1,633;    0,591
281,931; 9391,814;   -0,087;   -1,318
282,528; 9496,659;    0,822;   -0,500
283,124;10224,151;   -1,087;   -0,500
283,721;10124,266;   -0,451;    1,409
284,317; 9939,057;    0,185;    2,500
284,913;10473,237;   -1,360;    0,591
285,510;10652,418;    0,640;   -0,318
286,106;10669,924;   -2,269;   -0,955
286,703;10274,254;   -0,360;    1,955
287,299;10452,329;   -1,451;   -0,591
287,895;10705,452;    0,822;   -1,045
288,491;11270,822;    0,186;    2,136
289,088;10993,161;   -2,360;    2,409
289,684;11041,722;   -1,723;    1,500
290,280;11046,017;    0,368;    0,682
290,876;11145,118;    1,822;    5,500
291,472;11019,012;    1,276;    2,227
292,068;11115,199;    1,367;    0,227
292,665;10831,965;    2,095;    0,773
293,261;10441,763;    0,276;    2,136
293,857;10875,379;    2,913;    2,136
294,453;10771,009;    3,550;    0,955
295,049;10658,306;   -0,268;    1,955
295,644;10689,203;    0,095;    0,136
296,240;10605,161;   -0,905;   -0,136
296,836;10636,873;   -0,995;    0,318
297,432;10905,892;    1,096;   -0,500
298,028;10932,044;    0,732;    0,773
298,624;11368,785;    1,459;    1,864
299,220;11614,475;    2,368;    0,591
299,815;11281,454;    1,005;   -0,409
300,411;11056,487;    0,914;    1,773
301,007;11081,314;    1,368;    0,227
301,602;11133,299;   -0,541;   -2,318
302,198;11289,762;    0,732;   -0,773
302,794;11630,806;    1,187;   -0,500
303,389;11754,536;   -1,177;    1,045
303,985;11823,780;    0,550;    1,409
304,580;11772,351;    1,459;    1,591
305,176;11741,366;   -3,086;    0,136
305,771;11682,312;   -1,268;   -1,227
306,367;11531,195;    4,095;    0,136
306,962;11869,026;    0,641;    1,500
307,558;11611,783;   -0,450;    0,136
308,153;11523,912;    1,095;   -1,136
308,748;11742,514;   -0,814;    1,682
309,344;11709,044;   -0,632;   -1,318
309,939;11776,886;   -1,905;   -1,318
310,534;12109,738;   -0,086;   -1,682
311,130;12023,212;    0,459;   -2,500
311,725;11760,854;    1,004;   -0,500
312,320;12086,724;    2,459;    0,045
312,915;11885,102;    1,459;   -1,045
313,510;11940,612;    1,550;   -0,500
314,105;12447,044;    1,096;    1,409
314,700;11858,323;   -3,086;   -1,045
315,295;11507,533;   -0,904;    0,045
315,890;11103,207;    1,277;    0,864
316,485;11454,764;   -0,359;   -0,318
317,080;11553,482;   -3,086;    1,591
317,675;12084,907;    2,005;   -0,682
318,270;11508,038;    5,550;    3,318
318,865;11559,583;    3,278;    3,045
319,460;11380,087;   -0,904;    0,591
320,055;11637,456;   -0,541;   -1,227
320,650;11293,876;   -1,995;   -0,591
321,244;11357,368;   -0,177;   -1,409
321,839;12288,870;   -1,541;   -0,227
322,434;12172,361;   -1,086;   -1,591
323,029;11801,436;    1,732;    1,591
323,623;11613,150;    1,550;    0,773
324,218;11334,249;    2,368;    1,409
324,812;11232,807;    1,096;    1,591
325,407;11066,359;   -0,814;    2,045
326,002;10948,057;    0,277;   -0,409
326,596;11289,321;    0,914;    1,318
327,191;11471,781;    0,823;   -1,045
327,785;11098,048;   -0,813;   -0,227
328,379;11287,721;    1,368;    0,136
328,974;11074,570;    0,914;   -3,955
329,568;11304,565;    0,186;   -2,409
330,163;11128,922;    2,096;    1,045
330,757;11463,099;    2,459;    1,591
331,351;10805,122;    0,459;    0,682
331,945;11107,624;    0,914;    1,409
332,540;10705,669;   -1,723;   -0,591
333,134;10834,798;   -1,086;    0,773
333,728;11072,093;    0,005;    0,318
334,322;11416,295;   -1,177;   -0,864
334,916;10718,502;    0,277;    0,955
335,510;11058,424;   -0,450;   -0,136
336,105;11314,690;   -1,086;    1,591
336,699;10962,216;   -1,086;    0,591
337,293;10949,106;   -1,723;    0,318
337,887;11089,937;   -2,723;    1,955
338,481;11186,335;    0,459;    0,591
339,074;11326,501;   -0,359;    2,682
339,668;11163,740;   -1,632;    1,227
340,262;11420,556;    1,732;    3,227
340,856;10970,205;    1,822;   -0,682
341,450;10340,908;    1,004;    1,864
342,044;11207,652;    1,459;    0,136
342,637;10989,199;    0,913;   -2,136
343,231;10858,173;   -2,360;    0,682
343,825;10830,397;   -1,086;   -0,591
344,419;10754,355;   -1,995;    0,500
345,012;10561,743;    2,459;    4,045
345,606;10542,890;    4,641;    1,591
346,199;10397,185;   -1,813;   -0,227
346,793; 9952,333;    1,914;    2,045
347,386;10127,230;   -0,813;   -1,136
347,980;10121,628;   -0,268;   -0,045
348,573; 9941,768;    2,278;    0,409
349,167; 9593,635;    5,278;    4,773
349,760; 9952,030;    2,914;    2,682
350,354; 9948,211;   -0,813;    1,136
350,947; 9649,528;    1,096;    1,682
351,540; 9375,739;   -0,358;   -1,409
352,134; 9307,879;    1,096;    1,136
352,727; 9389,352;   -0,086;    1,136
353,320; 9190,458;    0,005;    0,591
353,913; 9038,402;   -1,995;    1,864
354,507; 9231,223;    0,823;   -1,227
355,100; 9237,492;    0,460;    0,864
355,693; 8464,012;    2,005;    2,409
356,286; 8517,605;    0,823;    2,773
356,879; 8866,213;   -0,722;    1,227
357,472; 8478,337;   -0,904;    1,500
358,065; 8684,204;   -0,722;    2,500
358,658; 8631,576;   -0,540;    2,318
359,251; 8304,032;   -1,631;   -0,591
359,844; 7772,112;   -1,904;   -1,136
360,437; 7916,372;   -2,995;    0,045
361,030; 8204,365;    1,369;   -0,682
361,623; 7793,741;    2,824;    0,318
362,215; 7856,233;   -0,086;    2,045
362,808; 7697,601;   -2,358;   -1,682
363,401; 7918,614;   -2,449;    0,136
363,994; 7639,941;   -0,631;   -1,500
364,586; 7550,679;    0,824;   -1,500
365,179; 7755,698;   -0,449;   -1,136
365,772; 7233,804;   -1,995;    2,045
366,364; 7561,008;    1,915;   -3,227
366,957; 7750,522;    2,279;   -0,045
367,549; 7752,181;    2,188;   -0,864
368,142; 7399,800;    1,825;   -1,500
368,734; 7605,797;    0,734;   -2,136
369,327; 7574,602;    1,643;   -0,500
369,919; 7499,003;   -1,538;    0,409
370,512; 7285,274;   -1,083;   -0,500
371,104; 7047,458;   -0,901;    1,591
371,696; 7219,419;    1,191;   -0,955
372,289; 7297,982;    0,373;    1,136
372,881; 7446,329;   -2,080;    1,318
373,473; 7371,175;   -2,170;    1,136
374,066; 7200,057;   -0,169;    0,500
374,658; 7037,538;    0,378;    1,136
375,250; 7392,118;    0,653;   -1,409
375,842; 7233,224;    0,473;   -0,045
376,434; 7117,152;   -0,435;   -0,409
377,026; 7656,790;    0,204;   -2,500
377,618; 7571,920;   -0,158;   -0,682
378,210; 7431,070;   -0,338;   -1,955
378,802; 7271,840;    0,754;   -0,591
379,394; 7227,963;    1,846;    0,682
379,986; 7794,321;    1,393;   -0,955
380,578; 7914,271;   -0,153;    0,773
381,170; 7270,004;   -0,972;    0,045
381,762; 7218,455;    0,755;    1,409
382,354; 7402,670;   -0,065;   -1,318
382,945; 7515,190;   -2,976;    0,318
383,537; 7661,238;   -2,705;   -1,955
384,129; 7687,985;   -2,160;   -1,136
384,721; 7852,720;   -0,252;    0,955
385,312; 7799,323;   -0,161;   -0,955
385,904; 7880,908;   -2,706;    1,591
386,496; 7264,703;   -0,979;    1,045
387,087; 7414,298;    1,022;    2,500
387,679; 7448,551;   -1,160;    0,045
388,270; 7582,717;    2,840;    2,045
388,862; 7673,850;    1,295;   -0,318
389,453; 7592,570;   -0,887;    1,045
390,045; 7831,358;   -0,705;   -2,682
390,636; 7797,763;    0,204;   -0,591
391,227; 7640,150;   -0,523;   -0,045
391,819; 7757,980;    0,204;    0,773
392,410; 7803,057;    1,022;    0,045
393,001; 7748,953;   -0,979;   -1,591
393,593; 8015,449;    1,930;   -0,045
394,184; 7877,591;    1,385;   -0,409
394,775; 7787,350;    1,839;    2,136
395,366; 7981,749;    1,385;    0,773
395,957; 7980,452;    0,113;    0,136
396,548; 8283,561;   -0,342;    2,682
397,139; 8582,170;   -2,433;    0,591
397,730; 8329,081;   -1,888;    0,955
398,321; 8390,825;   -1,252;    0,955
398,912; 8412,406;   -0,615;    0,136
399,503; 8463,617;   -3,524;   -1,409
400,094; 7948,386;    0,294;    1,682
400,685; 7809,943;   -0,433;    0,045
401,276; 7886,029;    0,930;   -0,955
401,867; 8185,496;   -0,888;    0,773
402,458; 8251,451;   -2,251;   -2,318
403,048; 8251,410;    1,112;    0,591
403,639; 7898,753;    0,840;    0,864
404,230; 8138,442;    2,476;    0,318
404,821; 8065,072;   -0,615;    0,045
405,411; 8170,569;    1,203;   -2,591
406,002; 7794,987;   -1,252;   -1,136
406,592; 7631,459;    2,294;    0,045
407,183; 7908,330;    0,566;   -1,500
407,774; 7858,200;    3,475;   -0,136
408,364; 8174,527;    0,930;    0,409
408,954; 7783,867;    0,384;    1,227
409,545; 7838,684;    1,021;    1,045
410,135; 7392,884;    1,293;    0,500
410,726; 7550,222;    1,838;    0,318
411,316; 7906,258;    0,111;    0,773
411,906; 7608,303;   -0,253;   -0,409
412,497; 7135,036;   -1,070;   -0,045
413,087; 7752,098;   -1,980;   -0,227
413,677; 8116,070;   -0,707;    3,864
414,267; 7941,673;    0,656;    1,409
414,857; 7958,496;   -2,980;    4,227
415,448; 8223,314;    0,839;    0,500
416,038; 7909,166;    0,020;   -0,591
416,628; 7864,159;   -0,889;    0,409
417,218; 7374,502;    0,565;    3,318
417,808; 7636,597;    0,202;   -0,409
418,398; 8064,992;    0,020;    2,682
418,988; 8078,601;    2,020;    0,591
419,578; 8353,771;   -0,707;    1,409
420,168; 8657,304;   -1,343;   -0,955
420,757; 8228,526;   -1,343;   -1,500
421,347; 7922,616;    0,111;   -0,227
421,937; 8087,462;    2,292;    1,409
422,527; 8053,835;    0,838;   -0,773
423,116; 7873,749;   -0,253;   -0,045
423,706; 8237,545;   -1,889;    0,318
424,296; 8215,817;    1,384;    0,682
424,885; 8611,089;   -0,071;   -3,045
425,475; 8876,827;    1,474;   -2,864
426,065; 8800,674;   -0,980;   -0,318
426,654; 8449,945;   -0,435;   -0,318
427,244; 8541,678;    0,020;    1,409
427,833; 7986,764;    1,383;   -0,500
428,423; 8489,998;   -0,526;    1,136
429,012; 9245,198;   -0,344;   -1,136
429,601; 8706,602;   -1,344;    0,136
430,191; 8962,614;    1,292;    4,318
430,780; 8618,969;   -0,344;   -0,409
431,369; 8543,602;    0,746;   -0,045
431,959; 9165,364;   -1,254;    0,500
432,548; 8957,851;   -1,163;   -0,045
433,137; 9077,950;   -1,254;   -1,318
433,726; 9597,307;    0,292;    0,500
434,315; 8985,465;   -0,526;    2,409
434,905; 9064,886;   -1,254;    1,409
435,494; 8959,448;    0,746;    0,955
436,083; 9425,644;   -0,981;   -0,955
436,672; 9296,288;    0,110;    0,500
437,261; 8885,182;    0,292;   -1,955
437,850; 9003,053;    1,383;    0,682
438,439; 8933,594;    3,291;    1,955
439,027; 8794,599;    3,655;    1,773
439,616; 9164,734;    2,927;    1,227
440,205; 9040,600;    0,200;   -2,136
440,794; 9097,101;    2,109;   -0,045
441,383; 9355,724;   -1,346;   -0,591
441,971; 9228,994;   -2,436;    0,591
442,560; 9082,041;    0,563;   -1,773
443,149; 8824,717;    0,379;   -1,318
443,737; 8992,850;   -0,074;   -2,318
444,326; 9242,679;    0,018;    0,318
444,915; 9303,070;   -1,982;    0,864
445,503; 9668,426;   -2,891;   -0,318
446,092; 8927,432;    0,382;    2,136
446,680; 9473,260;    0,382;    0,318
447,269; 9645,054;   -0,346;   -0,318
447,857; 9444,067;    0,018;   -1,773
448,445; 9560,739;    0,563;    1,318
449,034; 9796,311;   -1,528;   -1,136
449,622; 9910,857;   -1,073;    3,500
450,210; 9135,704;    2,017;    2,227
450,799; 9670,618;    0,290;   -0,591
451,387; 9655,381;    1,381;   -0,591
451,975; 9274,374;    2,654;    0,864
452,563; 9368,513;    3,472;    2,318
453,151; 9420,714;   -0,528;   -1,227
453,739; 9374,530;   -1,347;    0,136
454,328; 9208,491;    2,381;   -2,136
454,916; 8919,078;    2,562;   -0,136
455,504; 9122,643;    1,017;    1,227
456,092; 9277,392;    0,017;   -1,591
456,679; 9272,182;    1,472;    0,682
457,267; 9177,105;    4,017;    1,045
457,855; 9371,264;    1,017;    1,409
458,443; 9120,280;   -0,165;    1,682
459,031; 9247,179;    0,108;    2,409
459,619; 9703,049;   -1,801;    2,864
460,206; 9818,722;    0,835;    2,045
460,794; 9922,944;   -2,983;   -0,227
461,382;10122,177;   -0,529;   -0,864
461,970; 9732,116;    1,198;    1,864
462,557; 9776,508;   -0,711;   -0,682
463,145; 9957,107;   -3,165;   -1,682
463,732;10125,219;    2,016;   -1,045
464,320;10057,266;   -0,075;   -3,045
464,907; 9701,139;    2,743;   -0,773
465,495; 9585,595;    0,743;   -1,227
466,082; 9738,931;   -1,984;   -0,045
466,670; 9695,025;   -2,529;    1,227
467,257;10092,304;   -1,711;    2,045
467,844;10248,250;   -0,075;    0,045
468,432;10274,738;    0,834;    3,500
469,019; 9769,726;    0,925;   -1,773
469,606;10268,776;    0,470;    3,682
470,193;10071,224;   -1,439;    0,227
470,780; 9659,174;   -2,075;    0,864
471,368;10017,308;   -1,257;   -0,773
471,955; 9771,211;    1,379;   -0,682
472,542; 9419,895;    0,652;   -1,136
473,129; 9635,911;   -0,166;    0,136
473,716; 9400,331;    1,470;    0,591
474,303; 9614,332;    0,652;   -0,864
474,890; 9910,395;   -1,439;   -0,500
475,477; 9918,464;   -1,621;    0,409
476,064; 9806,211;    1,106;   -1,591
476,650; 9728,466;    0,288;    0,318
477,237; 9604,193;   -0,258;    0,955
477,824; 9759,864;   -1,076;    0,864
478,411; 9761,770;   -1,894;   -0,318
478,997; 9975,331;    0,560;   -0,773
479,584;10046,776;    1,196;   -0,409
480,171;10739,313;   -0,440;   -0,773
480,757;10380,998;    2,651;    0,773
481,344;10667,375;    0,469;    0,409
481,931;10175,672;    1,105;    1,045
482,517;11143,376;   -1,258;    0,318
483,104;11667,109;    1,106;    2,864
483,690;11920,384;   -1,804;    0,045
484,276;12309,247;   -0,895;    0,227
484,863;12075,057;    2,469;    1,136
485,449;12667,260;   -0,077;    0,318
486,035;12690,657;   -1,986;   -0,136
486,622;13096,733;   -0,895;    0,045
487,208;13053,439;    1,378;    1,500
487,794;12918,119;    0,741;    0,318
488,380;13033,306;    0,105;   -1,409
488,967;13089,878;   -1,168;   -0,409
489,553;13154,353;   -1,895;   -1,409
490,139;13328,505;    1,559;    0,773
490,725;12795,236;    0,741;   -0,227
491,311;12428,111;    3,287;    3,045
491,897;11774,568;   -0,986;    1,500
492,483;11583,422;    0,105;    1,227
493,069;11322,813;    3,923;    0,864
493,655;11300,947;    1,650;    0,682
494,241;11195,731;    1,377;   -0,955
494,826;11628,625;    0,287;   -1,045
495,412;11072,746;    2,559;   -0,682
495,998;11262,144;   -0,805;   -0,318
496,584;11409,166;    0,377;    1,045
497,169;11386,325;    1,014;   -0,682
497,755;11368,773;    0,650;    1,227
498,341;11893,142;    0,559;    0,318
498,926;11453,032;    1,832;    1,955
499,512;11626,752;    1,286;    2,955
500,097;11765,457;    0,195;   -0,318
500,683;11722,812;   -0,350;    2,136
501,268;12090,117;   -0,169;   -0,955
501,854;11792,458;   -0,169;    1,227
502,439;11735,477;   -0,624;   -1,773
503,024;11974,887;    0,195;    0,500
503,610;12044,916;   -0,078;   -0,682
504,195;12028,772;    0,558;    1,955
504,780;12134,938;    2,922;    1,227
505,366;11990,661;    3,013;    2,864
505,951;11728,554;    0,740;    1,045
506,536;11775,672;   -3,260;   -3,682
507,121;11786,876;    0,285;   -0,318
507,706;12272,332;    2,376;    1,045
508,291;12646,100;    2,649;    1,136
508,876;12151,259;   -0,988;    2,591
509,461;11601,972;   -0,169;   -0,773
510,046;12012,364;    0,194;    0,318
510,631;12261,261;   -0,351;   -0,773
511,216;11922,240;    2,467;   -0,500
511,801;12287,280;   -0,442;    2,591
512,386;12563,963;    0,740;    0,500
512,971;12548,255;   -2,988;    0,955
513,555;12072,939;   -0,897;   -1,500
514,140;12845,156;   -0,442;   -3,136
514,725;12863,693;   -0,715;   -1,136
515,309;13012,052;   -0,533;    0,318
515,894;12441,567;   -0,624;   -2,227
516,479;12870,937;   -0,624;   -0,955
517,063;12716,385;    0,376;    1,227
517,648;12871,479;    1,012;   -1,136
518,232;12529,907;   -0,261;   -1,409
518,817;12858,059;   -0,079;    1,682
519,401;13086,388;    2,194;    0,591
519,985;12606,110;    1,103;    1,136
520,570;12472,971;    0,830;   -1,955
521,154;12750,950;    2,102;    0,591
521,738;12950,878;   -2,352;    2,409
522,323;13506,310;   -0,170;    1,682
522,907;13235,755;    0,466;   -0,136
523,491;12957,575;    0,557;    0,955
524,075;12956,182;    2,284;    0,591
524,659;13037,474;    1,466;    0,591
525,243;12514,325;    1,739;    0,409
525,827;12762,970;    0,648;   -0,045
526,411;13566,110;   -1,989;   -0,136
526,995;13784,723;   -0,352;    1,409
527,579;13401,930;   -0,443;   -1,045
528,163;13681,607;    0,375;   -1,500
528,747;13615,240;    2,466;   -0,773
529,331;13914,631;   -0,080;   -1,409
529,915;14145,094;    1,738;    0,955
530,499;14114,972;   -0,807;    1,227
531,082;13791,110;   -0,534;    1,591
531,666;13197,019;    1,374;    0,773
532,250;13896,575;    1,284;    2,682
532,833;14220,167;    0,920;    2,773
533,417;14096,563;   -1,807;    0,864
534,001;14061,333;    1,647;   -0,318
534,584;14721,105;    0,374;    0,500
535,168;14591,559;    0,465;    1,409
535,751;14644,778;    0,647;    0,045
536,334;14121,511;   -0,898;   -0,409
536,918;14686,085;    0,011;    1,591
537,501;14783,458;   -0,899;    1,318
538,085;14775,736;   -0,444;    1,045
538,668;14943,434;    0,829;    2,409
539,251;15259,405;    1,829;    3,773
539,834;15282,129;    0,101;    0,773
540,418;15184,815;   -1,990;    4,318
541,001;15315,870;   -0,990;    1,773
541,584;15282,417;    2,101;    2,227
542,167;14974,030;    1,374;    2,955
542,750;15164,249;    1,919;   -0,773
543,333;14737,150;    0,555;    2,136
543,916;15505,802;    0,192;    2,500
544,499;16091,596;   -1,354;    0,227
545,082;16110,204;    1,374;    3,591
545,665;16218,502;    1,919;    1,500
546,248;16559,331;    1,010;   -0,318
546,830;16230,025;   -0,445;    1,955
547,413;16639,192;    1,010;   -0,773
547,996;17189,625;    0,555;    0,500
548,579;16972,696;    0,919;    0,955
549,161;16781,577;    1,828;    2,682
549,744;16566,649;   -0,809;    0,409
550,326;17064,014;   -0,809;   -1,136
550,909;16818,538;    2,737;    0,591
551,492;17227,283;   -0,263;    0,227
552,074;17028,302;   -0,173;   -1,318
552,657;17519,726;    2,373;    0,045
553,239;17319,821;   -0,173;   -0,773
553,821;17269,989;   -1,082;    1,045
554,404;16765,695;    1,282;    1,136
554,986;17129,703;    0,464;    1,045
555,568;17687,434;    1,191;   -0,955
556,151;16900,223;    1,191;   -0,227
556,733;17157,973;   -0,264;   -0,864
557,315;17613,267;    0,100;    0,500
557,897;17384,052;    0,554;   -0,500
558,479;17534,175;   -1,991;    1,318
559,061;17648,013;   -0,719;   -0,864
559,643;17986,155;   -0,264;    0,045
560,225;18344,860;    1,645;    2,864
560,807;18378,973;    0,918;    0,318
561,389;17882,947;    0,554;    2,318
561,971;18582,336;    0,463;    2,136
562,553;18391,590;   -1,628;    1,591
563,135;18491,709;   -0,537;    1,136
563,717;18124,678;    3,372;    1,136
564,298;18787,079;    3,645;   -0,045
564,880;18569,260;    0,645;   -1,409
565,462;18762,169;    0,645;    1,318
566,043;19865,813;   -0,446;    2,318
566,625;19370,358;    1,918;    1,227
567,207;19170,461;    1,099;    1,682
567,788;20307,465;   -1,264;    1,500
568,370;21124,087;    1,917;   -0,500
568,951;20903,712;    0,190;    0,227
569,533;21745,551;   -0,628;   -0,500
570,114;22175,668;   -0,446;    0,682
570,695;22628,876;   -0,174;   -1,318
571,277;23118,430;   -0,265;   -1,682
571,858;23846,090;    2,008;   -1,136
572,439;24717,687;    1,554;   -1,045
573,021;24841,208;    2,099;   -2,773
573,602;25302,108;   -1,265;    0,318
574,183;26263,360;   -2,083;    2,227
574,764;26324,418;   -1,629;    0,409
575,345;26846,516;    0,917;   -0,136
575,926;27473,863;   -0,356;    0,136
576,507;27454,562;    1,099;   -0,227
577,088;28512,441;    3,099;    1,682
577,669;28442,878;    0,735;    1,955
578,250;29215,450;    0,644;   -1,045
578,831;29847,807;   -1,356;   -2,227
579,412;30085,576;   -0,810;    0,955
579,993;30972,911;    1,008;    0,227
580,573;31361,033;   -0,629;   -0,955
581,154;30345,545;    0,735;   -0,591
581,735;31151,847;    0,644;    0,773
582,315;30636,574;   -0,629;    2,136
582,896;31000,872;   -0,174;    1,227
583,477;30459,616;    0,189;    1,227
584,057;30654,335;    0,553;    0,955
584,638;30969,457;    2,553;    2,318
585,218;30912,152;   -0,538;    2,682
585,799;31141,995;    0,281;   -0,227
586,379;31129,895;    0,372;    1,591
586,959;29953,693;    0,735;    0,318
587,540;29309,895;   -0,629;    2,227
588,120;28870,763;    1,007;   -0,045
588,700;27865,141;    2,553;    2,136
589,281;28139,427;    0,462;   -0,955
589,861;28044,643;    0,099;   -1,682
590,441;27917,792;    2,371;   -2,682
591,021;26958,456;   -0,265;   -2,591
591,601;27179,103;   -0,537;    0,500
592,181;27150,222;   -0,719;   -0,773
592,761;26470,237;    0,007;    1,409
593,341;26411,935;   -0,901;    0,045
593,921;26368,410;   -0,265;    1,591
594,501;26272,451;   -0,538;    1,318
595,081;26170,076;    0,917;   -0,318
595,661;26525,326;   -1,447;    0,955
596,240;26963,134;   -0,537;    0,136
596,820;26570,515;    0,372;    1,955
597,400;26809,536;    2,008;    0,773
597,980;27045,431;    2,008;    1,045
598,559;27084,988;    2,735;   -0,227
599,139;26815,538;   -0,174;   -1,227
599,718;26691,356;   -0,174;   -0,409
600,298;26908,928;    0,735;    0,682
600,877;27176,615;    2,917;    1,409
601,457;27406,360;    2,281;    1,136
602,036;27324,739;    0,190;    2,045
602,616;27548,885;    0,644;    1,682
603,195;27893,996;   -0,355;    3,500
603,774;27361,515;   -0,901;    2,045
604,354;27272,577;    0,826;   -0,500
604,933;26754,646;    0,463;    1,864
605,512;26938,275;    3,554;    0,591
606,091;27001,506;   -0,537;    3,773
606,671;27803,876;    0,281;    0,773
607,250;26901,877;    1,644;    3,136
607,829;27158,498;    2,372;    3,227
608,408;27059,929;    1,190;    2,591
608,987;26064,999;    1,281;    3,409
609,566;26318,599;   -1,265;   -2,500
610,145;26495,971;   -1,082;    0,682
610,723;26875,004;    4,372;    6,864
611,302;26169,447;   -0,446;    1,682
611,881;25670,998;    5,008;   11,227
612,460;26515,606;    1,645;    3,955
613,039;26948,986;   -0,082;    2,045
613,617;25677,167;    1,736;    4,773
614,196;25877,909;    1,099;    1,227
614,775;26184,591;    1,009;    2,409
615,353;26129,553;    0,736;    0,864
615,932;25832,252;    0,100;    2,409
616,510;26407,590;    0,554;    0,591
617,089;25964,859;    7,100;   17,591
617,667;25742,979;    2,372;    6,136
618,246;25623,820;   -1,537;    1,318
618,824;25821,429;   -3,355;   -0,955
619,402;25348,975;   -2,900;   -1,773
619,981;25807,511;   -0,173;   -1,045
620,559;25705,566;    0,009;    1,682
621,137;25316,903;   -0,718;    1,864
621,715;25324,027;   -1,173;   -0,682
622,293;25223,781;   -0,537;   -0,773
622,871;25655,267;   -0,718;    0,500
623,450;25267,251;    0,373;   -0,864
624,028;25175,323;    0,191;   -0,955
624,606;24783,437;   -1,718;    1,682
625,183;25156,578;   -1,536;   -1,136
625,761;24732,578;    1,009;    1,136
626,339;25038,046;    1,373;    2,591
626,917;25463,291;   -0,172;   -0,045
627,495;25513,687;   -0,354;    1,318
628,073;24943,435;   -0,263;    2,864
628,650;24632,602;    0,100;    2,136
629,228;25086,552;    0,373;    4,409
629,806;24475,694;    2,282;    1,136
630,383;24776,834;    1,464;   -0,318
630,961;24594,089;    2,555;   -0,955
631,539;24342,348;    2,464;    0,227
632,116;23675,725;   11,373;   15,409
632,694;24267,563;    2,555;    6,500
633,271;24549,663;    0,828;    2,682
633,848;24440,854;    1,828;    2,045
634,426;24512,080;   -1,081;    1,773
635,003;23658,843;    1,101;   -0,409
635,580;23910,931;    1,192;    3,682
636,158;24490,192;    3,737;    1,227
636,735;24504,784;    0,555;   -0,500
637,312;24660,827;   -0,809;   -0,682
637,889;24816,319;   -4,354;   -0,682
638,466;24219,927;   -3,990;   -0,409
639,043;24225,120;    2,101;   -1,136
639,620;24534,816;   -2,262;   -0,955
640,197;24866,401;    1,100;    1,682
640,774;25004,630;   -0,172;    1,136
641,351;25381,858;    0,737;    1,136
641,928;24746,723;   -0,627;    1,409
642,505;24421,043;    0,828;   -0,500
643,082;24546,272;   -1,718;    1,227
643,658;23624,501;   -0,718;    1,500
644,235;24390,457;    1,191;    2,500
644,812;24638,867;    1,918;    0,773
645,388;24391,096;   -0,991;    1,409
645,965;24480,961;   -0,809;    1,682
646,542;24526,644;   -1,445;   -0,227
647,118;24537,873;    1,009;   -0,955
647,695;24825,829;   -0,263;    1,136
648,271;24751,330;   -0,536;    0,500
648,848;25023,196;    0,736;    2,227
649,424;24860,879;    0,827;    1,318
650,000;24636,653;   -0,354;   -1,045
650,577;24443,064;   -0,627;   -0,955
651,153;24869,383;   -1,809;    0,955
651,729;25854,067;    1,191;    0,864
652,305;25977,659;    0,645;    2,773
652,881;29930,160;   -0,082;    1,136
653,458;36474,116;    1,100;    0,227
654,034;40252,709;    0,282;    1,591
654,610;41804,665;    0,554;    0,773
655,186;43149,257;    0,645;    3,045
655,762;42843,213;   -0,991;    0,409
656,338;42836,624;    0,100;    0,136
656,913;43838,307;   -0,082;    0,409
657,489;43127,172;    0,827;   -0,318
658,065;43113,855;   -0,173;   -1,591
658,641;43758,993;   -0,900;   -0,864
659,217;43155,677;   -0,991;    0,409
659,792;42515,087;    0,645;   -0,409
660,368;42765,407;   -2,173;   -0,682
660,944;42529,545;   -2,082;    1,227
661,519;38424,591;   -0,628;    0,409
662,095;32774,275;   -1,719;    0,591
662,670;28146,594;    1,281;   -0,136
663,246;26948,460;    1,009;   -0,409
663,821;26187,143;    0,281;    1,682
664,396;25677,644;    0,009;    1,864
664,972;25900,055;    0,009;   -0,500
665,547;26249,738;    1,372;    0,136
666,122;26219,785;   -1,082;    0,318
666,698;26554,923;   -0,173;    0,318
667,273;25881,333;   -0,173;    0,136
667,848;26679,289;    2,372;    1,500
668,423;26457,155;    2,190;    2,318
668,998;27024,292;    2,827;   -0,682
669,573;27546,248;   -3,264;   -1,500
670,148;27368,295;   -1,446;   -0,682
670,723;27219,251;   -1,810;    0,318
671,298;27583,935;    2,372;    1,045
671,873;27737,072;   -0,082;   -0,136
672,448;27649,756;    0,645;    0,136
673,023;27984,803;   -1,992;   -0,227
673,597;28316,759;    0,827;    2,318
674,172;28101,078;   -0,355;    0,318
674,747;27612,853;    0,372;   -1,045
675,321;27434,990;   -0,628;    3,318
675,896;26995,310;    0,645;    1,045
676,471;28000,357;    2,645;    1,591
677,045;27790,040;   -1,264;    0,682
677,620;27876,905;    0,190;    1,136
678,194;28173,589;   -2,628;    1,136
678,769;27741,454;   -1,083;   -0,318
679,343;27947,955;   -0,628;    1,773
679,917;27809,911;   -1,446;    1,955
680,492;27911,231;    0,826;    3,227
681,066;28000,005;    3,372;    0,409
681,640;28037,961;    1,463;   -0,318
682,214;28833,644;    0,735;    0,500
682,788;28426,691;   -1,356;   -0,773
683,363;28337,375;   -1,810;    1,682
683,937;28057,149;   -1,719;   -0,318
684,511;28803,377;    0,463;   -0,591
685,085;28495,243;   -1,356;    0,318
685,659;28262,380;   -2,538;    0,864
686,232;28495,882;   -0,356;   -0,318
686,806;28234,383;   -0,901;    0,409
687,380;28913,885;   -0,174;    0,591
687,954;29161,023;   -1,174;    1,136
688,528;28763,888;   -0,719;    1,955
689,101;29576,753;   -3,992;    1,045
689,675;29184,072;   -0,356;   -0,136
690,249;28504,392;   -0,719;    0,409
690,822;28815,894;    0,280;    0,318
691,396;28900,668;   -0,265;    1,227
691,969;28339,169;    1,280;    0,136
692,543;28811,762;   -0,447;   -1,955
693,116;28518,445;   -0,265;   -1,409
693,690;28405,674;    0,099;    0,500
694,263;28961,721;   -1,083;    2,955
694,836;28984,858;    1,371;    3,591
695,410;27644,178;   -0,265;    1,773
695,983;28043,407;    0,189;    0,591
696,556;28069,999;   -0,447;   -1,045
697,129;28491,592;   -0,356;    1,409
697,703;28098,639;   -1,629;    1,955
698,276;28081,140;    1,462;   -0,773
698,849;27885,460;    1,280;    1,409
699,422;28275,961;   -1,083;    0,591
699,995;27963,190;    0,007;    0,136
700,568;28505,782;   -0,629;    3,045
701,140;28489,647;   -2,811;    1,682
701,713;28201,876;   -0,174;    2,409
702,286;27972,196;   -0,538;    0,864
702,859;27908,243;   -0,902;   -0,591
703,432;27113,290;    0,825;    0,682
704,004;27540,155;    0,462;    0,318
704,577;27416,111;   -0,629;    0,136
705,150;27981,794;    0,189;    2,500
705,722;27747,932;   -0,356;   -3,227
706,295;27488,342;   -0,175;   -0,591
706,867;27357,480;   -0,175;    1,955
707,440;27568,618;   -1,720;   -0,409
708,012;27835,847;    0,462;    0,591
708,584;27790,712;    2,462;    0,227
709,157;28048,850;    1,825;   -0,591
709,729;27714,988;    2,280;    2,045
710,301;28575,580;    0,734;    0,045
710,874;28566,990;   -1,447;   -0,227
711,446;27452,219;    0,371;    0,864
712,018;27333,993;    0,098;    0,500
712,590;27051,677;   -1,993;    1,682
713,162;27592,360;    0,825;    1,318
713,734;27931,589;    1,825;   -2,045
714,306;27783,817;   -1,902;   -0,409
714,878;26472,137;    0,825;    0,864
715,450;27313,729;    0,643;    0,864
716,022;27607,776;    1,552;    1,318
716,593;27724,460;    0,189;    0,591
717,165;27640,416;   -3,175;   -1,227
717,737;27306,099;    0,280;    0,409
718,309;27025,328;    0,280;   -0,045
718,880;26978,375;   -0,539;   -1,409
719,452;27189,422;   -0,175;   -1,591
720,024;26767,650;    0,734;   -0,591
720,595;27359,061;   -2,902;    0,955
721,167;26924,562;    0,370;   -2,045
721,738;26415,518;   -0,812;   -1,045
722,309;26368,656;   -0,993;   -1,227
722,881;26162,612;   -1,357;    0,773
723,452;26785,932;   -2,630;    2,864
724,023;26939,251;   -0,721;    2,682
724,595;26770,480;    0,007;    0,682
725,166;26547,709;    0,007;   -0,409
725,737;26163,029;    1,734;    0,227
726,308;26228,985;   -0,266;    0,318
726,879;26697,941;   -1,630;    1,227
727,450;26530,988;    0,552;   -0,045
728,021;26512,580;    3,097;    0,682
728,592;26300,627;    0,734;    0,500
729,163;26624,310;    0,643;   -0,136
729,734;26656,721;    0,188;   -0,227
730,305;26989,040;    1,734;    0,136
730,876;27318,087;    0,188;    2,955
731,447;26988,589;    2,188;    2,682
732,017;27138,636;    1,097;    1,864
732,588;26607,683;    0,734;    1,227
733,159;26759,366;    0,643;   -1,045
733,729;26607,595;    0,006;    0,409
734,300;25908,460;    0,915;    0,864
734,870;26365,416;    3,461;    0,591
735,441;26901,008;    0,370;   -0,591
736,011;26667,419;    0,643;   -1,591
736,582;26589,647;   -0,812;    0,045
737,152;26053,331;   -1,721;   -2,045
737,722;26549,650;   -0,267;   -0,682
738,293;26251,425;   -1,358;    1,318
738,863;26138,562;    2,461;    2,318
739,433;25937,700;    5,279;    0,318
740,003;26582,293;   -0,994;   -0,682
740,573;26003,521;    2,097;   -1,591
741,143;25981,296;   -1,085;    0,318
741,713;26708,706;    1,188;   -0,500
742,283;26412,208;    0,915;    1,591
742,853;26185,982;    1,915;    1,591
743,423;25687,301;    1,733;    0,045
743,993;25825,803;   -0,358;    1,500
744,563;25234,123;    0,097;   -0,864
745,133;25117,624;   -0,812;   -0,864
745,702;25819,944;   -0,267;    1,773
746,272;25021,809;   -0,176;    0,591
746,842;24811,947;   -1,358;   -0,591
747,411;25213,084;   -0,267;   -0,318
747,981;25485,131;    0,097;    0,500
748,551;25512,633;    2,278;   -1,045
749,120;25328,316;    0,642;   -0,227
749,690;25692,818;   -0,631;    2,409
750,259;26014,319;    1,369;    2,955
750,828;25955,639;    1,551;   -1,955
751,398;26195,504;    1,278;   -0,045
751,967;25657,460;    2,187;    0,409
752,536;25917,598;   -0,813;   -0,227
753,105;26358,463;    0,096;    0,227
753,675;26175,146;    0,096;    1,773
754,244;26105,011;   -0,904;    3,591
754,813;26130,513;    0,551;    1,227
755,382;25742,923;    0,460;    0,955
755,951;26251,243;    1,551;    3,682
756,520;25779,199;   -0,085;    1,864
757,089;26316,700;    0,278;    0,500
757,658;26421,838;    1,733;    1,227
758,227;26443,976;    1,096;    0,318
758,795;26792,114;    1,187;    1,136
759,364;27018,979;   -0,086;   -0,591
759,933;26024,117;   -1,176;   -0,045
760,501;25554,255;    0,733;   -1,318
761,070;26029,665;   -2,813;   -1,409
761,639;26712,894;   -1,904;    1,318
762,207;26077,486;    1,551;   -0,955
762,776;26053,260;    0,369;    0,864
763,344;25970,216;   -0,995;    0,591
763,913;25103,809;   -0,722;    1,409
764,481;25804,401;    1,005;   -0,136
765,049;25621,175;   -1,358;    1,409
765,618;25534,768;   -0,086;    0,318
766,186;25629,178;    0,278;    0,136
766,754;25825,680;    0,005;    1,864
767,322;24831,727;   -1,995;    0,409
767,890;24827,319;   -0,722;   -1,773
768,459;25241,821;   -2,177;   -0,318
769,027;25352,595;    1,641;    3,409
769,595;24351,096;    3,278;    2,591
770,163;24821,598;    3,823;    2,955
770,730;24581,917;    0,732;   -0,136
771,298;24440,328;    0,187;   -1,409
771,866;24547,557;   -1,541;    4,955
772,434;24898,058;   -0,631;   -1,864
773,002;25075,287;    0,005;    0,682
773,569;24727,243;    0,914;    1,682
774,137;24473,835;   -0,268;   -0,045
774,705;25286,155;    0,278;   -0,136
775,272;24809,202;    0,641;    0,682
775,840;24603,431;   -0,177;    2,682
776,407;24123,568;    0,277;    1,955
776,975;23732,706;   -0,632;    0,318
777,542;24762,753;   -1,086;   -0,045
778,110;24579,345;   -1,268;   -0,045
778,677;24229,301;   -2,359;   -0,864
779,244;24015,712;    2,186;    1,045
779,812;24111,668;    1,823;    0,864
780,379;23984,806;    0,005;    1,136
780,946;24208,035;    1,005;   -0,773
781,513;24575,991;   -1,450;    0,318
782,080;23919,401;   -0,086;    2,864
782,647;24645,994;   -0,268;    3,045
783,214;24212,677;   -0,177;    3,864
783,781;23829,997;   -0,723;   -0,682
784,348;23727,134;   -0,632;    1,500
784,915;24173,545;   -3,177;    0,318
785,482;23894,137;    1,368;    2,591
786,049;24399,730;    0,186;   -0,591
786,615;24519,686;    0,277;   -0,955
787,182;24290,096;    0,186;   -0,682
787,749;23966,689;   -2,814;    1,409
788,315;23264,554;   -1,632;   -0,409
788,882;23584,055;    1,550;   -1,227
789,448;24257,829;    1,732;   -0,955
790,015;24260,785;    1,095;    3,227
790,581;23823,560;    1,459;    0,227
791,148;23731,788;    0,641;    1,045
791,714;23984,835;   -0,541;    3,136
792,280;23666,246;    0,186;    1,591
792,847;23237,111;    0,550;    2,500
793,413;23775,612;   -0,269;   -0,318
793,979;23300,841;    3,459;   -1,318
794,545;23399,615;    4,459;    2,682
795,111;22792,480;    2,186;    1,318
795,678;23002,436;    0,731;   -1,682
796,244;22633,120;    3,368;    0,136
796,810;23187,348;    1,731;    0,773
797,375;22880,577;    0,549;   -2,136
797,941;22930,442;   -0,541;    0,591
798,507;23074,944;   -0,451;   -0,955
799,073;22622,900;   -0,360;    0,591
799,639;22708,856;   -2,632;    3,136
800,205;22748,448;    0,095;    2,682
800,770;22322,950;    0,640;    1,773
801,336;22397,178;    1,368;   -0,955
801,901;22058,953;    4,549;    3,136
802,467;22628,454;   -0,542;    2,045
803,033;21990,956;   -0,087;    0,864
803,598;22240,821;    1,913;   -1,045
804,163;22259,413;    1,095;   -0,318
804,729;22201,005;   -0,178;    1,136
805,294;22613,325;    0,822;    2,227
805,859;22353,463;    0,731;   -0,409
806,425;21800,237;    1,186;    2,682
806,990;21495,466;    2,186;    4,318
807,555;21998,604;   -1,451;    2,591
808,120;21891,378;    0,822;   -0,409
808,685;21927,152;    0,185;   -2,500
809,250;21467,835;    0,004;   -0,500
809,815;21792,246;    1,913;    0,682
810,380;22318,293;   -0,269;    1,591
810,945;22857,158;   -1,087;    2,045
811,510;22031,478;    2,094;    1,591
812,075;21729,706;   -0,633;   -1,409
812,640;21783,026;    2,003;    1,409
813,204;21788,891;    0,822;   -0,227
813,769;22297,847;    2,094;   -0,045
814,334;21696,076;    0,458;    0,864
814,898;21800,668;    0,367;    0,591
815,463;21653,079;    1,276;   -0,773
816,027;21640,944;   -0,724;   -2,318
816,592;21702,082;    0,640;   -2,045
817,156;21181,220;    2,094;    1,136
817,721;21049,448;    4,276;    2,318
818,285;21070,222;    2,912;    1,500
818,849;21679,997;   -1,451;    1,682
819,414;21603,953;   -0,269;    2,955
819,978;21183,181;   -1,269;    1,773
820,542;21754,501;    2,003;    0,500
821,106;21468,912;   -0,815;    0,682
821,670;21561,868;   -0,815;    2,591
822,234;21282,460;   -0,270;    1,409
822,798;20726,325;    0,003;    0,500
823,362;20638,099;   -0,633;    4,227
823,926;19947,783;    0,094;    1,136
824,490;20175,739;   -0,997;   -0,682
825,054;20642,422;   -0,088;   -1,136
825,618;20259,378;   -1,542;   -1,500
826,181;20234,607;    0,458;   -1,318
826,745;20108,290;    1,367;   -1,045
827,309;20440,337;    1,185;    1,318
827,872;19853,747;    1,367;    0,955
828,436;20861,431;    1,185;   -0,773
828,999;20930,932;   -0,997;    1,227
829,563;19728,161;   -0,179;    1,136
830,126;19540,117;   -0,179;   -0,591
830,690;19591,164;   -1,997;    2,864
831,253;19092,574;   -0,543;    2,227
831,816;19197,803;   -1,906;    0,500
832,380;19158,214;    0,185;    0,864
832,943;19344,261;   -1,361;   -0,500
833,506;18806,035;    2,639;   -1,227
834,069;19624,173;    3,912;   -0,955
834,632;19717,401;    1,730;    1,318
835,195;19620,266;    1,003;    0,955
835,758;18820,404;   -0,997;    1,955
836,321;18647,997;    0,730;   -1,045
836,884;18786,225;   -0,725;   -0,955
837,447;18812,181;   -2,816;    1,773
838,010;19082,410;    0,366;    3,227
838,573;19359,366;   -1,179;    0,773
839,135;19300,413;   -1,361;   -0,955
839,698;18768,187;    1,275;    0,409
840,261;18337,052;    1,003;   -0,227
840,823;18134,372;   -0,543;    0,864
841,386;18427,964;   -0,452;   -2,409
841,948;18296,375;   -1,361;    1,773
842,511;18060,331;    0,912;    1,682
843,073;18197,742;    1,912;    0,227
843,636;18018,788;   -0,361;   -0,227
844,198;17896,199;    0,911;    0,591
844,760;18048,428;    1,093;    1,955
845,322;17699,293;    0,548;    1,136
845,885;18126,885;    0,730;    0,591
846,447;18575,659;   -1,998;    0,227
847,009;18132,161;    1,911;   -0,682
847,571;18436,571;    0,820;   -2,045
848,133;18565,618;   -1,089;   -1,864
848,695;18382,756;   -0,543;    1,409
849,257;17982,258;   -1,089;   -1,682
849,819;18147,396;   -0,998;   -0,409
850,381;18187,624;   -0,725;   -0,864
850,942;18521,035;    1,093;   -0,591
851,504;18500,445;    1,184;    0,227
852,066;18488,856;    1,275;   -1,591
852,628;18090,903;   -0,180;    1,955
853,189;17614,859;    1,638;    2,682
853,751;17717,451;   -0,907;    1,409
854,312;17550,498;   -0,453;   -1,682
854,874;18044,909;   -2,089;   -0,773
855,435;18571,319;   -0,907;   -1,682
855,997;18692,003;   -1,816;   -0,136
856,558;18006,413;    0,366;    1,773
857,119;18147,278;    0,820;    2,864
857,681;17797,416;    0,002;    0,318
858,242;17860,372;    1,911;   -2,136
858,803;18321,419;    0,456;   -0,773
859,364;18871,921;    0,184;   -4,773
859,925;18182,877;   -2,453;   -0,955
860,486;18065,742;   -0,453;   -0,955
861,047;17839,879;   -0,544;   -1,227
861,608;17630,199;   -1,089;   -0,773
862,169;17774,428;    0,638;   -0,045
862,730;17559,657;    0,456;    1,409
863,291;17756,067;   -0,635;   -0,500
863,852;18144,750;   -0,635;    1,955
864,412;17628,979;   -0,271;   -0,864
864,973;16201,117;   -0,089;    0,500
865,534;16058,346;   -1,726;    0,227
866,094;17582,938;    1,820;    0,227
866,655;17204,894;    1,274;    3,318
867,215;17489,850;    0,274;    0,136
867,776;17371,988;    0,547;   -0,136
868,336;17471,944;   -1,453;    0,136
868,897;16928,991;    2,638;    1,682
869,457;16676,401;    1,365;    0,318
870,017;16912,812;    0,547;   -1,227
870,578;17395,859;   -0,817;    0,773
871,138;17112,088;   -2,089;   -0,955
871,698;16662,589;   -0,817;   -1,318
872,258;16527,636;   -0,453;   -2,864
872,818;16895,410;    2,729;    0,045
873,378;16850,003;    0,638;    1,045
873,938;16395,868;    0,547;    0,500
874,498;16790,187;    0,274;   -1,955
875,058;16657,689;    2,183;    1,773
875,618;16478,281;    1,910;   -2,682
876,177;16426,510;    1,274;    0,136
876,737;16000,739;   -0,090;    1,955
877,297;16022,604;    0,183;    1,955
877,856;16040,742;   -0,362;    0,318
878,416;16020,789;    1,183;   -0,136
878,976;16246,926;   -1,817;    0,409
879,535;16408,428;    0,092;    3,136
880,095;16128,657;   -0,544;    0,045
880,654;16281,158;   -1,090;    1,318
881,213;16335,750;    2,456;    1,500
881,773;15973,252;    2,637;    2,682
882,332;16321,117;    3,365;    5,136
882,891;16210,073;    3,092;    2,136
883,451;16643,393;   -1,272;    1,682
884,010;16069,621;   -2,908;   -0,409
884,569;16205,032;   -0,999;   -0,045
885,128;16331,261;    2,819;   -1,864
885,687;16358,580;    4,455;    0,682
886,246;16063,627;    1,455;    2,136
886,805;15877,311;    2,455;    2,045
887,364;16122,358;   -0,999;   -0,500
887,922;16499,768;   -1,181;    0,045
888,481;16017,270;   -1,545;    0,591
889,040;16373,135;    1,183;    2,136
889,599;17020,091;    2,455;    1,409
890,157;17064,138;    1,455;    2,409
890,716;16755,366;   -0,090;    0,227
891,274;16508,868;    0,092;   -1,136
891,833;16919,551;    1,546;    0,864
892,391;16804,598;   -0,454;    0,500
892,950;16907,009;    1,819;   -0,773
893,508;17313,874;    0,455;   -0,409
894,067;16683,012;    0,637;    0,136
894,625;16537,877;   -0,636;   -1,500
895,183;16767,560;   -0,363;   -0,682
895,741;16633,516;    1,728;   -1,773
896,299;16516,654;   -0,545;   -2,409
896,858;16679,519;    0,819;   -1,591
897,416;16755,566;    2,728;   -1,318
897,974;16562,431;    1,819;    0,318
898,532;16667,569;    6,091;    2,682
899,089;16594,888;    2,091;   -0,682
899,647;16673,117;   -1,454;    1,318
900,205;16357,255;    1,182;    1,045
900,763;16598,211;   -0,454;    0,227
901,321;16607,258;    2,364;   -1,409
901,878;16009,668;   -1,000;   -0,773
902,436;15944,988;   -1,363;    1,318
902,994;16320,399;    4,728;    3,682
903,551;15719,718;    0,728;    0,409
904,109;16147,038;    0,182;   -1,409
904,666;15767,176;    2,455;    1,045
905,224;15593,859;    0,182;   -0,409
905,781;15315,633;    0,727;   -0,318
906,338;15404,135;   -1,363;    1,045
906,895;15350,454;    0,637;    2,045
907,453;15275,683;    1,727;    1,136
908,010;15312,548;   -0,909;    0,409
908,567;14978,050;    1,273;    0,591
909,124;14478,006;    0,364;   -1,500
909,681;14535,507;   -2,909;    0,682
910,238;14706,009;    0,636;   -1,318
910,795;15011,692;   -0,273;   -1,136
911,352;14634,056;   -2,909;   -2,682
911,909;14048,419;   -1,364;   -0,864
912,466;14564,965;   -3,182;    1,500
913,022;14125,419;   -1,636;    0,500
913,579;14481,510;   -0,909;    2,045
914,136;14202,146;    1,636;    0,955
914,692;14475,874;    0,091;   -1,227
915,249;14116,510;    1,455;    0,409
915,806;14352,965;    0,182;    1,955
916,362;14074,874;    1,909;    1,864
916,918;13613,328;    2,000;    1,045
917,475;13588,419;   -1,182;    0,955
918,031;13690,965;    3,364;   -0,045
918,587;13164,510;   -0,909;   -0,318
919,144;13389,328;   -2,273;    0,227
919,700;13716,874;    1,727;    0,773
920,256;13270,874;    0,727;    0,045
920,812;12923,146;   -0,727;   -1,045
921,368;12947,056;   -1,727;   -1,045
921,924;12595,237;    0,182;   -0,136
922,480;12147,601;   -0,545;    1,227
923,036;12754,510;    1,273;    1,955
923,592;12694,601;    0,455;    0,318
924,148;12628,419;    0,455;   -0,955
924,704;11930,510;   -1,364;   -0,409
925,259;12260,783;   -0,273;    0,591
925,815;11974,783;    1,455;    0,500
926,371;11508,146;    2,909;    1,409
926,926;11394,601;    2,091;    0,591
927,482;11034,237;   -1,364;    0,773
928,037;10911,601;    0,909;    2,045
928,593;11168,783;    1,636;    1,045
929,148;11042,783;   -1,818;   -1,500
929,704;10534,419;   -1,455;   -0,500
930,259;10757,237;    0,091;   -0,136
930,814; 9834,510;   -0,818;    1,955
931,369; 9537,510;    1,091;   -0,773
931,925; 9404,874;   -0,091;    0,136
932,480; 9295,056;   -2,818;   -2,591
933,035; 9173,237;    0,545;   -0,318
933,590; 8984,692;    0,364;   -1,773
934,145; 8645,510;   -1,364;   -0,318
934,700; 9007,601;    0,455;   -0,591
935,255; 8803,056;   -0,091;    0,045
935,809; 8086,237;    3,182;    0,864
936,364; 7242,056;   -0,455;   -0,136
936,919; 7201,965;    0,455;   -1,773
937,474; 7102,692;    1,455;    0,136
938,028; 6859,328;   -1,636;    1,136
938,583; 6346,237;    1,818;    4,682
939,138; 6658,328;    2,091;    2,136
939,692; 6099,692;    1,636;   -1,136
940,247; 5805,056;   -0,727;   -1,045
940,801; 5355,510;   -0,636;    0,227
941,355; 5249,056;   -0,364;    2,591
941,910; 4937,692;   -0,273;   -2,136
942,464; 5032,601;   -0,818;   -0,318
943,018; 4833,874;    1,000;   -0,227
943,572; 4801,056;    2,545;   -0,682
944,126; 4208,692;    0,091;   -0,409
944,681; 4112,237;    3,091;    0,227
945,235; 4092,783;    1,000;   -0,591
945,789; 4011,510;    0,364;   -1,864
946,342; 4130,237;    0,455;   -0,591
946,896; 3930,146;   -2,273;    0,955
947,450; 3695,965;    1,545;   -0,227
948,004; 3895,601;    1,727;   -0,045
948,558; 3891,874;    0,273;   -0,864
949,111; 3814,328;   -0,273;   -0,318
949,665; 3854,237;    1,636;   -0,682
950,219; 3714,237;   -0,091;   -1,045
950,772; 3794,965;   -1,909;    1,864
951,326; 3726,056;    0,545;   -0,955
951,879; 3825,874;    0,727;   -2,318
952,433; 3841,328;    0,000;    2,227
952,986; 3671,237;    2,909;    0,682
953,539; 3633,965;   -0,273;    0,591
954,093; 3557,874;    0,545;   -1,318
954,646; 3692,783;    0,909;    1,318
955,199; 3499,328;    0,000;   -0,500
955,752; 3396,692;   -0,455;    1,773
956,305; 3369,419;   -0,091;    2,955
956,858; 3522,692;    0,818;   -0,318
957,411; 3714,056;   -0,545;    2,136
957,964; 3535,146;    1,364;    2,136
958,517; 3513,328;   -1,545;    3,136
959,070; 3349,056;   -0,455;    1,955
959,623; 3414,419;    1,091;    1,500
960,176; 3194,056;    1,727;    2,045
960,728; 3183,965;   -2,727;    0,773
961,281; 3239,601;    0,545;    0,500
961,834; 3276,783;   -0,909;    0,864
962,386; 3213,510;    1,727;    1,045
962,939; 3135,783;    0,364;   -0,318
963,491; 3262,419;    0,455;    1,136
964,043; 3158,419;    1,182;    2,409
964,596; 3259,419;   -1,000;    2,227
965,148; 3101,328;   -1,000;    1,773
965,700; 3031,692;    1,091;   -0,227
966,253; 3172,783;   -0,636;    0,318
966,805; 3008,056;   -2,273;    0,773
967,357; 3050,237;    1,091;   -1,500
967,909; 3012,237;    0,455;   -1,227
968,461; 3128,965;    0,545;    3,136
969,013; 3064,510;   -0,182;   -0,864
969,565; 3126,056;   -0,455;   -1,136
970,117; 3200,510;   -0,364;    1,045
970,669; 3043,965;    0,182;   -0,136
971,220; 2925,056;   -0,455;   -1,500
971,772; 2822,874;   -0,636;   -0,318
972,324; 2941,419;    0,091;   -0,500
972,876; 2903,965;    0,818;   -0,045
973,427; 3031,692;    1,909;   -1,045
973,979; 3009,692;   -0,727;   -2,500
974,530; 3050,510;    1,818;    1,318
975,082; 3050,056;   -0,545;    1,682
975,633; 2948,965;    1,091;    1,682
976,184; 3093,328;    0,909;    0,773
976,736; 2879,601;    0,091;    0,227
977,287; 2681,783;   -0,909;   -0,500
977,838; 2869,056;    0,909;   -0,318
978,389; 2907,874;   -1,000;   -0,500
978,940; 2801,783;    0,545;   -0,409
979,491; 2824,783;    0,091;   -0,500
980,042; 2785,419;    0,182;    3,045
980,593; 2844,056;   -2,545;    0,227
981,144; 2885,874;    2,545;   -0,500
981,695; 2862,601;    1,455;    1,500
982,246; 2827,510;   -0,273;    1,045
982,797; 2969,056;   -1,727;    0,682
983,347; 3085,601;    0,364;    0,591
983,898; 3239,874;    3,091;    0,409
984,449; 3066,419;    2,182;    0,773
984,999; 2978,056;    1,455;   -1,136
985,550; 2760,601;    0,182;   -0,318
986,100; 2793,783;   -0,455;   -0,318
986,651; 2821,237;   -0,818;    0,045
987,201; 2812,692;   -1,000;   -0,591
987,751; 2890,601;    0,818;    2,864
988,302; 2886,328;    2,636;    1,500
988,852; 2903,146;    0,455;   -1,136
989,402; 2938,965;    0,091;    0,682
989,952; 2868,419;   -2,182;    0,864
990,502; 2974,783;   -0,091;    0,682
991,052; 2925,874;   -0,727;    0,045
991,602; 2801,874;   -2,909;    1,318
992,152; 2801,237;    0,455;    0,682
992,702; 2768,874;    1,364;   -0,045
993,252; 2700,146;   -3,000;   -0,500
993,802; 2786,601;   -0,273;    1,318
994,352; 3012,783;   -1,545;    1,136
994,901; 3112,419;   -0,182;    3,227
995,451; 3026,056;   -0,182;    0,318
996,000; 3099,692;    1,636;    0,318
996,550; 2834,237;    2,273;    0,227
997,100; 2812,874;    1,273;   -0,045
997,649; 3095,419;    2,182;    0,955
998,198; 2756,237;    1,727;   -1,500
998,748; 2940,874;    1,091;   -2,318
999,297; 2857,965;   -0,818;   -0,409
999,846; 2916,419;    1,000;   -0,773
1000,395; 2960,237;   -0,818;    0,500
1000,945; 2924,692;    1,818;   -0,773
1001,494; 3016,692;    2,364;    0,682
1002,043; 2975,601;    4,636;    0,864
1002,592; 2828,783;   -1,091;    1,955
1003,141; 2975,328;   -0,455;   -0,682
1003,690; 2838,328;    1,727;    0,500
1004,238; 2907,056;    1,455;   -0,045
1004,787; 2560,510;    1,364;    1,227
1005,336; 2791,692;    0,364;    0,682
1005,885; 2936,965;    1,364;   -2,773
1006,433; 3054,965;    0,545;    0,955
1006,982; 3122,783;    0,455;    1,682
1007,531; 3053,874;   -1,818;   -0,227
1008,079; 2986,328;   -2,273;    0,500
1008,627; 3136,328;   -1,455;    0,409
1009,176; 2862,601;    0,000;   -1,955
1009,724; 2915,328;    1,091;    0,864
1010,273; 2982,237;    1,273;    0,500
1010,821; 3092,146;    0,091;    1,409
1011,369; 2835,237;   -1,364;    1,318
1011,917; 2809,328;   -1,364;   -0,591
1012,465; 3091,237;    1,273;   -1,591
1013,013; 3193,419;    2,091;   -1,682
1013,561; 3092,965;    0,455;   -0,773
1014,109; 3126,874;   -1,909;    1,682
1014,657; 3012,692;    0,364;    0,591
1015,205; 3144,237;    1,636;   -0,955
1015,753; 3167,510;   -0,545;   -1,409
1016,301; 3192,510;   -2,636;    3,045
1016,848; 3201,510;   -1,273;    0,409
1017,396; 3244,965;    2,545;    0,045
1017,944; 3355,601;    1,182;    1,864
1018,491; 3112,692;    0,273;    1,409
1019,039; 3258,237;    0,455;    0,591
1019,586; 3177,419;   -1,364;    1,682
1020,134; 3286,874;    0,455;    1,500
1020,681; 3314,146;    0,182;   -1,136
1021,228; 3329,874;    2,909;   -2,227
1021,776; 3146,056;    1,182;   -1,136
1022,323; 3377,965;    0,455;    0,773
1022,870; 3301,692;   -1,000;   -0,045
1023,417; 3198,237;    2,636;    1,864
1023,964; 3352,874;    2,636;    1,227
1024,511; 3182,146;    1,000;    0,773
1025,058; 3010,601;    3,182;   -0,045
1025,605; 3055,237;   -2,273;    3,136
1026,152; 3271,601;    1,727;   -0,591
1026,699; 2990,965;    1,818;    1,318
1027,245; 3170,056;   -0,091;    0,318
1027,792; 3377,146;   -1,000;    1,409
1028,339; 3254,965;    2,364;   -0,045
1028,885; 3104,328;    1,000;   -0,227
1029,432; 3041,146;   -0,091;    0,227
1029,978; 3100,510;   -1,000;   -1,591
1030,525; 3023,510;    1,000;    0,409
1031,071; 3268,146;   -1,364;    1,136
1031,618; 3362,692;    0,364;    1,682
1032,164; 3156,783;   -0,091;    3,045
1032,710; 3202,328;    1,636;   -1,500
1033,256; 3114,237;   -0,636;   -0,136
1033,803; 3094,965;   -0,545;    1,500
1034,349; 2833,056;   -1,364;    0,136
1034,895; 2993,783;    0,000;   -0,318
1035,441; 2973,874;   -0,818;    0,318
1035,987; 2959,783;   -2,364;   -0,682
1036,533; 2971,510;   -1,455;   -0,955
1037,078; 3165,237;    1,455;    1,682
1037,624; 2971,510;    2,455;   -0,955
1038,170; 3029,692;    0,455;   -0,318
1038,716; 2919,419;    1,636;   -0,409
1039,261; 2837,328;   -2,273;   -0,773
1039,807; 2781,510;   -0,091;    3,409
1040,352; 2846,874;   -1,909;   -0,318
1040,898; 2883,874;   -1,545;   -0,682
1041,443; 2793,056;   -1,455;   -2,591
1041,989; 2807,328;    1,091;    1,591
1042,534; 2694,783;   -0,364;    2,591
1043,079; 2824,601;    2,909;    0,955
1043,625; 2604,965;    1,818;    0,500
1044,170; 2651,874;   -1,364;    1,045
1044,715; 2909,510;    2,455;    0,955
1045,260; 2735,328;    2,182;   -0,955
1045,805; 2792,237;    1,182;   -0,591
1046,350; 2717,056;    1,364;   -0,409
1046,895; 2663,601;    2,909;    1,591
1047,440; 2610,510;    5,364;    0,409
1047,985; 2524,419;    2,818;   -0,955
1048,530; 2454,419;    1,545;    1,227
1049,074; 2489,146;    0,000;    0,318
1049,619; 2482,328;   -1,364;    1,955
1050,164; 2285,965;    0,455;    0,227
1050,708; 2341,328;   -0,455;    0,045
1051,253; 2696,419;    1,273;   -2,227
1051,797; 2407,601;    0,818;   -1,318
1052,342; 2436,510;   -1,182;    1,045
1052,886; 2409,874;    0,364;   -1,409
1053,430; 2296,510;   -1,364;    0,136
1053,975; 2315,783;   -0,818;   -0,318
1054,519; 2297,237;   -0,727;    3,227
1055,063; 2307,146;    0,909;    1,318
1055,607; 2189,328;   -0,182;    0,227
1056,151; 2230,510;    2,909;    1,682
1056,695; 2148,783;    2,273;   -1,136
1057,239; 2207,419;   -1,727;   -0,682
1057,783; 2229,056;    0,818;   -1,500
1058,327; 2168,237;    0,000;    1,409
1058,871; 2390,692;   -0,545;    1,318
1059,415; 2107,328;   -0,818;   -0,045
1059,958; 2354,419;    1,455;    2,591
1060,502; 2087,419;   -1,000;   -0,773
1061,046; 2011,965;    0,364;   -0,955
1061,589; 1968,601;   -3,000;   -1,136
1062,133; 1852,783;   -1,273;    1,864
1062,676; 1782,510;    1,182;    0,864
1063,220; 1795,965;    1,091;    0,500
1063,763; 1835,328;    0,909;    1,136
1064,306; 1894,146;   -0,909;    1,864
1064,849; 1776,056;   -0,909;    0,591
1065,393; 1792,328;    2,000;   -1,500
1065,936; 1895,692;    0,182;   -0,409
1066,479; 1791,419;   -1,455;    1,318
1067,022; 1810,783;   -0,273;   -0,227
1067,565; 1693,692;   -0,091;   -1,318
1068,108; 1736,783;    0,727;   -0,591
1068,651; 1715,419;   -0,636;    1,409
1069,194; 1634,510;   -0,455;   -1,682
1069,736; 1643,328;   -1,273;    0,955
1070,279; 1622,056;   -1,364;   -0,500
1070,822; 1664,692;   -2,000;   -0,318
1071,364; 1748,328;   -0,364;    1,318
1071,907; 1573,328;   -0,727;    3,227
1072,450; 1490,237;    0,000;   -0,045
1072,992; 1471,056;   -0,273;    3,136
1073,535; 1604,965;    2,091;    2,136
1074,077; 1404,146;   -0,727;    2,045
1074,619; 1371,419;   -1,364;    0,591
1075,161; 1411,328;   -1,091;    1,500
1075,704; 1585,601;    1,545;    1,227
1076,246; 1390,965;   -0,182;    0,682
1076,788; 1330,874;   -0,364;    1,773
1077,330; 1400,056;    1,273;    2,136
1077,872; 1364,146;    0,909;    0,955
1078,414; 1578,328;    2,727;    0,773
1078,956; 1314,601;    1,273;   -0,227
1079,498; 1559,237;    1,636;    0,318
1080,040; 1282,783;    1,909;   -1,318
1080,581; 1210,965;    1,636;   -0,318
1081,123; 1138,056;    0,091;   -0,773
1081,665; 1190,146;   -1,182;   -0,955
1082,206; 1474,965;    1,364;   -0,500
1082,748; 1342,146;    0,727;    2,045
1083,289; 1222,146;   -2,000;    1,318
1083,831; 1139,328;   -0,545;    0,227
1084,372; 1168,692;    0,000;    0,591
1084,913; 1170,783;    1,091;    0,864
1085,455; 1144,056;   -1,909;   -2,045
1085,996; 1115,965;   -2,273;    0,136
1086,537; 1125,874;   -0,091;    0,864
1087,078; 1162,056;   -0,909;   -2,136
1087,619; 1215,237;   -1,273;    0,227
1088,160; 1135,237;    0,000;    1,318
1088,701; 1102,783;   -1,091;    0,682
1089,242; 1049,419;    1,364;   -2,227
1089,783; 1134,328;   -0,273;    1,409
1090,324; 1117,874;    0,455;    0,682
1090,865; 1000,510;    2,727;   -0,409
1091,405;  975,146;    0,727;    2,227
1091,946;  994,419;    0,182;   -0,955
1092,487;  921,146;    0,818;   -1,409
1093,027; 1082,601;   -1,364;   -1,500
1093,568;  928,328;   -0,364;    1,227
1094,108; 1023,692;    0,273;    1,773
1094,649;  980,601;   -1,182;    0,136
1095,189;  915,237;   -0,636;   -0,682
1095,729;  865,328;   -0,091;    0,955
1096,269;  855,692;    0,727;   -0,955
1096,810; 1171,146;   -1,364;    0,500
1097,350; 1000,601;    1,364;   -0,773
1097,890;  913,237;    0,364;    1,227
1098,430; 1156,237;    2,364;    2,864
1098,970; 1015,783;    2,182;    1,682
1099,510;  895,874;    0,545;   -2,318
1100,050;  833,783;    1,000;   -1,591
1100,589;  796,783;   -0,727;   -0,318
1101,129;  912,783;    0,818;   -0,955
1101,669; 1060,965;    1,727;    2,136
1102,209;  890,874;   -0,091;    2,227
1102,748;  839,056;    0,000;    0,955
1103,288;  820,874;    1,273;   -1,227
1103,827;  859,146;    3,091;   -2,227
1104,367;  737,056;   -0,091;   -2,409
1104,906;  698,874;    1,364;   -1,136
1105,445;  768,510;    0,636;   -1,136
1105,985;  713,965;   -0,727;    1,500
1106,524;  761,510;   -1,727;   -0,682
1107,063;  724,783;   -2,727;    1,409
1107,602;  717,510;   -1,909;   -1,500
1108,141;  639,328;   -1,909;    1,500
1108,680;  728,874;   -3,455;   -0,591
1109,219;  666,056;   -0,909;   -0,500
1109,758;  668,146;    0,455;    0,682
1110,297;  643,328;    1,000;   -0,682
1110,836;  592,510;   -0,727;    0,955
1111,375;  757,419;   -2,545;    0,409
1111,913;  768,419;   -1,000;    0,773
1112,452;  704,874;   -0,273;    0,136
1112,991;  581,510;    1,091;    1,955
1113,529;  548,056;   -0,818;   -0,045
1114,068;  612,328;   -0,273;    2,955
1114,606;  514,237;   -0,364;   -0,955
1115,144;  682,146;   -1,273;    1,045
1115,683;  623,692;   -0,727;    0,318
1116,221;  669,874;   -0,455;   -0,864
1116,759;  574,874;    0,636;   -0,864
1117,297;  769,419;    0,000;    1,864
1117,836;  575,510;   -2,182;   -1,227
1118,374;  579,056;    0,182;   -0,682
1118,912;  525,237;    0,909;    2,682
1119,450;  513,692;    1,000;    0,864
1119,988;  572,692;    1,545;    2,136
1120,525; 1015,146;    5,091;    3,318
1121,063;  725,237;    1,182;    1,864
1121,601;  527,874;   -0,909;   -1,227
1122,139;  487,328;   -0,727;   -2,045
1122,676;  687,328;   -0,727;    2,773
1123,214;  609,056;   -1,182;    4,409
1123,751;  420,146;    1,727;    2,227
1124,289;  551,874;   -0,091;   -0,409
1124,826;  424,601;    1,727;    0,227
1125,364;  355,146;    1,727;   -0,955
1125,901;  533,056;    1,182;    1,227
1126,438;  642,328;    0,818;    0,955
1126,975;  372,146;   -0,727;   -0,773
1127,513;  443,056;    0,273;    2,136
1128,050;  349,056;    1,636;   -0,682
1128,587;  446,783;    2,000;   -0,227
1129,124;  488,965;    0,091;    1,318
1129,661;  357,601;    0,273;    0,227
1130,198;  517,056;    1,636;    0,773
1130,734;  461,783;    0,182;    1,409
1131,271;  324,692;   -0,909;    0,864
1131,808;  501,965;    2,909;    3,045
1132,345;  377,965;    1,545;    0,318
1132,881;  248,874;   -1,545;   -1,864
1133,418;  378,692;    0,727;   -1,136
1133,954;  321,419;    2,455;   -2,682
1134,491;  395,056;    1,364;   -0,773
1135,027;  295,783;    2,364;    0,864
1135,564;  383,146;    0,273;    2,955
1136,100;  363,056;    0,364;    2,136
1136,636;  255,419;   -1,273;   -1,045
1137,172;  355,874;    0,000;   -1,045
1137,708;  278,874;   -1,364;   -1,045
1138,245;  284,601;    1,273;   -1,227
1138,781;  225,328;    1,091;   -3,318
1139,317;  296,328;    1,273;   -1,409
1139,852;  288,237;    3,091;    0,136
1140,388;  394,510;   -1,182;   -0,409
1140,924;  288,601;   -1,091;   -2,227
1141,460;  225,146;   -1,636;    0,136
1141,996;  162,783;   -1,364;    2,682
1142,531;  206,783;    1,364;    3,318
1143,067;  410,510;    1,182;    1,045
1143,602;  470,510;   -0,091;   -0,318
1144,138;  326,237;   -2,636;    1,045
1144,673;  200,692;   -1,455;    1,409
1145,209;  267,328;   -1,909;   -0,318
1145,744;  181,237;   -0,727;    0,864
1146,279;  316,056;    1,818;   -0,136
1146,815;  224,328;    1,545;   -2,682
1147,350;  262,965;   -1,364;    0,045
1147,885;  188,056;   -0,818;   -1,318
1148,420;  187,328;   -2,273;    0,773
1148,955;  161,056;   -1,727;    1,864
1149,490;  186,510;   -0,909;   -1,591
1150,025;  175,783;    0,455;   -1,773
1150,560;  282,146;    1,091;   -0,955
1151,094;  247,419;    1,455;   -0,591
1151,629;  260,965;    1,636;    0,864
1152,164;  192,237;    1,364;    1,318
1152,698;  142,419;   -0,182;   -0,136
1153,233;  101,783;    0,091;   -0,682
1153,767;  148,692;   -3,000;   -2,318
1154,302;  194,237;   -1,455;    1,773
1154,836;  197,510;   -0,455;   -2,136
1155,371;  251,874;   -1,364;    3,682
1155,905;  213,510;   -0,636;    1,682
1156,439;  175,601;   -0,636;   -0,500
1156,973;  197,874;    0,364;    0,318
1157,507;  134,328;   -0,364;    0,682
1158,042;  167,237;   -0,727;    1,045
1158,576;  217,783;    0,182;    1,773
1159,110;  201,056;   -0,818;    2,409
1159,643;  168,146;    0,636;   -0,045
1160,177;  117,692;   -1,545;    1,500

