
Integration time [ms]:   0,040
Averaging Nr. [scans]: 11
Smoothing Nr. [pixels]: 0
Data measured with spectrometer [name]: 7318044SP
Wave   ;Sample   ;Dark     ;Reference
[nm]   ;[counts] ;[counts] ;[counts] 

186,757;   18,305;   31,551;    1,318
187,357;   62,627;   22,551;    0,955
187,958;   32,346;   15,460;   -1,591
188,558;   69,929;    8,915;   -1,227
189,159;   43,736;    6,733;   -4,500
189,759;   16,880;    7,278;   -3,591
190,360;   15,767;    2,824;   -2,136
190,960;   56,039;    2,915;   -4,136
191,560;   72,020;    3,189;   -6,591
192,161;  306,991;    4,372;   -3,500
192,761;  151,822;    4,010;   -3,227
193,361;  100,830;    1,556;   -3,773
193,962;  150,714;    2,010;   -2,682
194,562;   75,578;    1,189;   -3,955
195,162;  110,169;   -2,448;   -2,227
195,762;  277,925;   -3,176;   -0,045
196,362;  206,270;    1,370;   -2,500
196,963;   78,679;    2,006;   -0,864
197,563;  158,844;    1,551;   -0,955
198,163;  100,998;    0,096;   -0,682
198,763;  110,291;    1,733;   -0,500
199,363;  226,277;    3,096;   -0,500
199,963;  171,108;    0,369;    0,409
200,563;  151,492;    2,823;   -1,409
201,163;  135,986;    3,277;   -0,227
201,763;  217,773;    3,732;    0,318
202,363;  160,796;    1,459;    1,500
202,963;  251,413;    1,459;    1,045
203,563;  374,923;    0,277;    0,500
204,162;  221,493;    2,096;   -1,864
204,762;  214,028;    0,550;    0,591
205,362;  191,801;    3,004;    1,955
205,962;  280,343;    3,096;    1,955
206,562;  273,779;    1,823;    2,318
207,161;  245,881;   -0,087;    0,318
207,761;  410,629;    1,277;    2,409
208,361;  287,869;   -0,268;    1,409
208,960;  381,358;    0,459;    1,500
209,560;  461,592;    1,277;    1,591
210,160;  443,597;    0,550;    1,864
210,759;  407,660;    4,186;    1,227
211,359;  414,865;    1,459;    1,045
211,958;  685,979;    1,277;    2,045
212,558;  761,579;    1,732;    1,864
213,157;  599,931;    1,822;    1,500
213,757; 1045,992;    3,822;   -0,227
214,356;  744,745;    1,277;   -0,409
214,956; 1079,264;    3,095;    0,409
215,555;  715,932;    2,095;    2,136
216,154;  648,328;   -2,723;   -0,591
216,754;  658,225;    0,277;    0,773
217,353;  796,246;   -0,268;   -1,045
217,952;  665,573;   -0,178;    0,318
218,552;  905,670;    1,368;   -0,773
219,151;  801,957;    0,277;    0,955
219,750;  795,683;    0,004;   -0,227
220,349;  928,850;   -0,451;    1,045
220,948;  990,480;   -1,360;    1,136
221,548; 1015,997;    0,913;    1,227
222,147; 1133,544;   -0,087;   -0,409
222,746; 1421,189;   -0,451;   -0,955
223,345; 1306,220;    0,731;    0,500
223,944; 1306,799;   -0,451;    0,773
224,543; 1490,720;    1,004;   -1,409
225,142; 1595,218;    0,094;    0,136
225,741; 1520,355;   -0,814;    1,045
226,340; 1533,690;   -0,451;   -0,955
226,939; 1964,986;   -0,996;   -0,136
227,538; 1938,732;   -0,360;   -0,773
228,137; 2088,815;   -0,814;    0,864
228,735; 2244,718;   -0,541;    1,227
229,334; 2003,433;   -0,905;   -0,227
229,933; 2371,055;    0,459;    0,591
230,532; 2497,709;    1,186;   -0,409
231,131; 2545,420;    1,732;    0,318
231,729; 2691,843;   -2,450;   -2,318
232,328; 2821,701;   -0,723;   -1,500
232,927; 2880,715;    1,004;   -0,500
233,525; 3021,276;    3,640;    0,045
234,124; 3222,949;    2,368;   -1,591
234,723; 3249,089;    0,913;   -1,045
235,321; 3415,336;    2,277;    0,136
235,920; 3650,212;    1,186;   -1,227
236,518; 3906,368;    3,459;    0,318
237,117; 4095,243;    0,004;   -0,227
237,715; 4258,770;    0,640;   -0,500
238,314; 4305,636;   -0,087;   -2,318
238,912; 4404,942;   -0,723;   -1,409
239,510; 4453,644;    0,459;   -1,227
240,109; 4603,426;    0,004;    3,773
240,707; 4660,787;   -0,996;    1,227
241,305; 5014,953;    0,550;    0,136
241,904; 5234,135;   -0,178;   -2,045
242,502; 5219,699;   -0,632;   -0,227
243,100; 5183,485;   -0,087;   -0,955
243,698; 5411,012;    0,732;    1,682
244,297; 5612,711;   -0,632;    0,682
244,895; 5445,324;   -0,269;   -2,318
245,493; 5774,534;    2,186;   -0,591
246,091; 5806,568;    1,368;   -1,318
246,689; 5799,744;    1,004;    0,591
247,287; 5984,706;    0,822;   -1,136
247,885; 6267,191;   -1,451;    1,227
248,483; 6375,486;    1,822;   -0,500
249,081; 6496,002;    0,185;    1,591
249,679; 6663,555;   -0,178;    1,682
250,277; 6937,694;   -1,723;    0,864
250,875; 6953,855;   -1,087;   -1,045
251,473; 7006,463;   -1,178;    0,500
252,071; 7181,395;    1,459;    1,045
252,669; 7361,163;   -1,814;    0,318
253,267; 7617,461;   -0,087;    0,773
253,864; 7558,433;   -0,360;    0,682
254,462; 7426,082;    1,640;    1,591
255,060; 7397,688;   -0,269;    1,318
255,658; 7759,344;    0,822;   -0,136
256,255; 8179,609;    0,186;   -2,045
256,853; 8011,464;   -0,269;    1,409
257,451; 8030,704;    0,822;    1,864
258,048; 8306,764;    1,822;    1,864
258,646; 8047,621;    1,731;   -1,045
259,243; 8238,464;   -0,087;    2,227
259,841; 8322,682;   -0,814;    0,318
260,438; 8227,074;   -0,087;    0,864
261,036; 8952,204;   -1,905;    1,409
261,633; 8847,175;   -0,087;    2,227
262,231; 8602,631;    2,731;   -0,045
262,828; 8679,889;   -0,905;    1,136
263,425; 8733,479;    0,913;   -0,591
264,023; 9040,870;    0,186;    0,045
264,620; 8588,064;   -0,360;   -0,318
265,217; 8914,805;   -2,087;    3,136
265,815; 9010,081;   -1,905;    2,136
266,412; 8802,817;    0,731;    0,136
267,009; 8846,334;   -1,451;    0,773
267,606; 8748,621;    0,822;   -0,955
268,203; 8740,261;   -0,269;   -0,591
268,801; 9030,553;    1,731;    0,591
269,398; 9350,515;   -0,360;    2,500
269,995; 9359,344;    0,277;    1,591
270,592; 9074,192;   -0,632;   -0,500
271,189; 9293,365;    0,186;    0,409
271,786; 9441,882;   -0,632;    1,227
272,383; 9240,126;   -1,087;    0,227
272,980; 9424,223;    0,277;    0,318
273,577; 9912,028;    0,004;    1,227
274,174; 9477,630;    0,822;    2,591
274,771; 9490,435;   -0,814;   -0,773
275,367; 9592,568;    2,277;    1,409
275,964; 9558,524;    0,731;   -0,500
276,561; 9677,817;    1,549;   -1,045
277,158; 9916,464;    0,095;   -1,773
277,755;10026,638;    2,185;    0,409
278,351; 9432,161;   -0,451;   -1,500
278,948; 9732,509;   -0,815;    0,045
279,545; 9758,650;   -1,360;    2,318
280,141;10350,043;   -1,723;   -2,045
280,738;10212,696;   -0,451;   -0,136
281,334;10468,242;   -1,633;    0,591
281,931; 9870,047;   -0,087;   -1,318
282,528; 9988,958;    0,822;   -0,500
283,124;10704,627;   -1,087;   -0,500
283,721;10607,568;   -0,451;    1,409
284,317;10414,663;    0,185;    2,500
284,913;10925,002;   -1,360;    0,591
285,510;11130,002;    0,640;   -0,318
286,106;11188,709;   -2,269;   -0,955
286,703;10800,186;   -0,360;    1,955
287,299;10979,591;   -1,451;   -0,591
287,895;11211,096;    0,822;   -1,045
288,491;11764,605;    0,186;    2,136
289,088;11497,901;   -2,360;    2,409
289,684;11555,708;   -1,723;    1,500
290,280;11552,570;    0,368;    0,682
290,876;11642,025;    1,822;    5,500
291,472;11554,769;    1,276;    2,227
292,068;11660,085;    1,367;    0,227
292,665;11404,045;    2,095;    0,773
293,261;10996,286;    0,276;    2,136
293,857;11386,467;    2,913;    2,136
294,453;11359,685;    3,550;    0,955
295,049;11223,142;   -0,268;    1,955
295,644;11222,735;    0,095;    0,136
296,240;11129,326;   -0,905;   -0,136
296,836;11180,647;   -0,995;    0,318
297,432;11434,206;    1,096;   -0,500
298,028;11460,634;    0,732;    0,773
298,624;11942,574;    1,459;    1,864
299,220;12190,123;    2,368;    0,591
299,815;11855,625;    1,005;   -0,409
300,411;11646,869;    0,914;    1,773
301,007;11642,980;    1,368;    0,227
301,602;11724,354;   -0,541;   -2,318
302,198;11888,646;    0,732;   -0,773
302,794;12208,164;    1,187;   -0,500
303,389;12327,091;   -1,177;    1,045
303,985;12398,259;    0,550;    1,409
304,580;12350,339;    1,459;    1,591
305,176;12349,564;   -3,086;    0,136
305,771;12294,470;   -1,268;   -1,227
306,367;12094,844;    4,095;    0,136
306,962;12491,445;    0,641;    1,500
307,558;12230,108;   -0,450;    0,136
308,153;12131,843;    1,095;   -1,136
308,748;12365,411;   -0,814;    1,682
309,344;12345,512;   -0,632;   -1,318
309,939;12412,217;   -1,905;   -1,318
310,534;12708,365;   -0,086;   -1,682
311,130;12659,845;    0,459;   -2,500
311,725;12421,530;    1,004;   -0,500
312,320;12721,516;    2,459;    0,045
312,915;12555,007;    1,459;   -1,045
313,510;12624,660;    1,550;   -0,500
314,105;13130,731;    1,096;    1,409
314,700;12550,507;   -3,086;   -1,045
315,295;12176,067;   -0,904;    0,045
315,890;11761,342;    1,277;    0,864
316,485;12134,179;   -0,359;   -0,318
317,080;12249,912;   -3,086;    1,591
317,675;12810,340;    2,005;   -0,682
318,270;12189,222;    5,550;    3,318
318,865;12205,943;    3,278;    3,045
319,460;12042,867;   -0,904;    0,591
320,055;12293,038;   -0,541;   -1,227
320,650;11936,339;   -1,995;   -0,591
321,244;12035,977;   -0,177;   -1,409
321,839;12966,889;   -1,541;   -0,227
322,434;12851,061;   -1,086;   -1,591
323,029;12454,012;    1,732;    1,591
323,623;12285,047;    1,550;    0,773
324,218;12026,878;    2,368;    1,409
324,812;11916,806;    1,096;    1,591
325,407;11740,049;   -0,814;    2,045
326,002;11665,483;    0,277;   -0,409
326,596;11930,398;    0,914;    1,318
327,191;12142,998;    0,823;   -1,045
327,785;11739,853;   -0,813;   -0,227
328,379;11966,212;    1,368;    0,136
328,974;11757,427;    0,914;   -3,955
329,568;11956,481;    0,186;   -2,409
330,163;11776,784;    2,096;    1,045
330,757;12131,256;    2,459;    1,591
331,351;11480,857;    0,459;    0,682
331,945;11770,339;    0,914;    1,409
332,540;11369,409;   -1,723;   -0,591
333,134;11525,054;   -1,086;    0,773
333,728;11759,286;    0,005;    0,318
334,322;12143,596;   -1,177;   -0,864
334,916;11428,452;    0,277;    0,955
335,510;11726,059;   -0,450;   -0,136
336,105;11962,180;   -1,086;    1,591
336,699;11669,427;   -1,086;    0,591
337,293;11623,044;   -1,723;    0,318
337,887;11770,003;   -2,723;    1,955
338,481;11851,708;    0,459;    0,591
339,074;12001,537;   -0,359;    2,682
339,668;11811,928;   -1,632;    1,227
340,262;12070,001;    1,732;    3,227
340,856;11596,208;    1,822;   -0,682
341,450;10997,048;    1,004;    1,864
342,044;11905,862;    1,459;    0,136
342,637;11656,517;    0,913;   -2,136
343,231;11534,132;   -2,360;    0,682
343,825;11496,785;   -1,086;   -0,591
344,419;11481,649;   -1,995;    0,500
345,012;11218,808;    2,459;    4,045
345,606;11211,012;    4,641;    1,591
346,199;11051,147;   -1,813;   -0,227
346,793;10620,448;    1,914;    2,045
347,386;10810,768;   -0,813;   -1,136
347,980;10793,498;   -0,268;   -0,045
348,573;10565,368;    2,278;    0,409
349,167;10218,044;    5,278;    4,773
349,760;10555,089;    2,914;    2,682
350,354;10554,290;   -0,813;    1,136
350,947;10290,086;    1,096;    1,682
351,540; 9980,834;   -0,358;   -1,409
352,134; 9929,394;    1,096;    1,136
352,727;10030,558;   -0,086;    1,136
353,320; 9798,820;    0,005;    0,591
353,913; 9649,162;   -1,995;    1,864
354,507; 9824,011;    0,823;   -1,227
355,100; 9832,338;    0,460;    0,864
355,693; 9031,931;    2,005;    2,409
356,286; 9060,297;    0,823;    2,773
356,879; 9475,192;   -0,722;    1,227
357,472; 9092,061;   -0,904;    1,500
358,065; 9274,658;   -0,722;    2,500
358,658; 9245,004;   -0,540;    2,318
359,251; 8860,198;   -1,631;   -0,591
359,844; 8334,185;   -1,904;   -1,136
360,437; 8491,590;   -2,995;    0,045
361,030; 8786,438;    1,369;   -0,682
361,623; 8346,579;    2,824;    0,318
362,215; 8403,309;   -0,086;    2,045
362,808; 8233,527;   -2,358;   -1,682
363,401; 8390,498;   -2,449;    0,136
363,994; 8135,138;   -0,631;   -1,500
364,586; 8073,085;    0,824;   -1,500
365,179; 8297,462;   -0,449;   -1,136
365,772; 7771,389;   -1,995;    2,045
366,364; 8070,192;    1,915;   -3,227
366,957; 8259,093;    2,279;   -0,045
367,549; 8278,598;    2,188;   -0,864
368,142; 7940,355;    1,825;   -1,500
368,734; 8160,446;    0,734;   -2,136
369,327; 8102,876;    1,643;   -0,500
369,919; 8024,097;   -1,538;    0,409
370,512; 7806,383;   -1,083;   -0,500
371,104; 7564,554;   -0,901;    1,591
371,696; 7724,692;    1,191;   -0,955
372,289; 7815,640;    0,373;    1,136
372,881; 7975,374;   -2,080;    1,318
373,473; 7925,535;   -2,170;    1,136
374,066; 7703,384;   -0,169;    0,500
374,658; 7546,814;    0,378;    1,136
375,250; 7926,402;    0,653;   -1,409
375,842; 7754,631;    0,473;   -0,045
376,434; 7615,872;   -0,435;   -0,409
377,026; 8222,888;    0,204;   -2,500
377,618; 8107,731;   -0,158;   -0,682
378,210; 7941,114;   -0,338;   -1,955
378,802; 7776,659;    0,754;   -0,591
379,394; 7749,166;    1,846;    0,682
379,986; 8346,355;    1,393;   -0,955
380,578; 8467,153;   -0,153;    0,773
381,170; 7776,503;   -0,972;    0,045
381,762; 7726,107;    0,755;    1,409
382,354; 7941,761;   -0,065;   -1,318
382,945; 8061,192;   -2,976;    0,318
383,537; 8232,350;   -2,705;   -1,955
384,129; 8259,064;   -2,160;   -1,136
384,721; 8411,106;   -0,252;    0,955
385,312; 8349,921;   -0,161;   -0,955
385,904; 8418,433;   -2,706;    1,591
386,496; 7801,044;   -0,979;    1,045
387,087; 7939,491;    1,022;    2,500
387,679; 7994,133;   -1,160;    0,045
388,270; 8123,538;    2,840;    2,045
388,862; 8232,031;    1,295;   -0,318
389,453; 8108,425;   -0,887;    1,045
390,045; 8392,120;   -0,705;   -2,682
390,636; 8344,832;    0,204;   -0,591
391,227; 8209,767;   -0,523;   -0,045
391,819; 8314,779;    0,204;    0,773
392,410; 8356,075;    1,022;    0,045
393,001; 8260,903;   -0,979;   -1,591
393,593; 8582,663;    1,930;   -0,045
394,184; 8439,370;    1,385;   -0,409
394,775; 8360,863;    1,839;    2,136
395,366; 8570,430;    1,385;    0,773
395,957; 8557,847;    0,113;    0,136
396,548; 8885,914;   -0,342;    2,682
397,139; 9185,852;   -2,433;    0,591
397,730; 8924,476;   -1,888;    0,955
398,321; 8983,168;   -1,252;    0,955
398,912; 9050,976;   -0,615;    0,136
399,503; 9106,632;   -3,524;   -1,409
400,094; 8539,217;    0,294;    1,682
400,685; 8370,812;   -0,433;    0,045
401,276; 8479,672;    0,930;   -0,955
401,867; 8818,333;   -0,888;    0,773
402,458; 8891,355;   -2,251;   -2,318
403,048; 8869,558;    1,112;    0,591
403,639; 8484,733;    0,840;    0,864
404,230; 8691,966;    2,476;    0,318
404,821; 8625,542;   -0,615;    0,045
405,411; 8760,593;    1,203;   -2,591
406,002; 8371,148;   -1,252;   -1,136
406,592; 8202,936;    2,294;    0,045
407,183; 8509,079;    0,566;   -1,500
407,774; 8450,786;    3,475;   -0,136
408,364; 8756,426;    0,930;    0,409
408,954; 8375,824;    0,384;    1,227
409,545; 8440,442;    1,021;    1,045
410,135; 7962,976;    1,293;    0,500
410,726; 8122,313;    1,838;    0,318
411,316; 8504,152;    0,111;    0,773
411,906; 8197,137;   -0,253;   -0,409
412,497; 7668,126;   -1,070;   -0,045
413,087; 8311,384;   -1,980;   -0,227
413,677; 8695,345;   -0,707;    3,864
414,267; 8528,198;    0,656;    1,409
414,857; 8534,598;   -2,980;    4,227
415,448; 8804,811;    0,839;    0,500
416,038; 8501,964;    0,020;   -0,591
416,628; 8472,327;   -0,889;    0,409
417,218; 7927,926;    0,565;    3,318
417,808; 8182,507;    0,202;   -0,409
418,398; 8675,364;    0,020;    2,682
418,988; 8707,544;    2,020;    0,591
419,578; 8966,259;   -0,707;    1,409
420,168; 9301,149;   -1,343;   -0,955
420,757; 8856,389;   -1,343;   -1,500
421,347; 8552,496;    0,111;   -0,227
421,937; 8737,056;    2,292;    1,409
422,527; 8659,680;    0,838;   -0,773
423,116; 8474,299;   -0,253;   -0,045
423,706; 8863,710;   -1,889;    0,318
424,296; 8837,152;    1,384;    0,682
424,885; 9220,243;   -0,071;   -3,045
425,475; 9549,335;    1,474;   -2,864
426,065; 9480,537;   -0,980;   -0,318
426,654; 9088,669;   -0,435;   -0,318
427,244; 9194,391;    0,020;    1,409
427,833; 8643,440;    1,383;   -0,500
428,423; 9128,115;   -0,526;    1,136
429,012; 9907,189;   -0,344;   -1,136
429,601; 9399,306;   -1,344;    0,136
430,191; 9635,908;    1,292;    4,318
430,780; 9227,822;   -0,344;   -0,409
431,369; 9184,585;    0,746;   -0,045
431,959; 9853,921;   -1,254;    0,500
432,548; 9639,062;   -1,163;   -0,045
433,137; 9778,135;   -1,254;   -1,318
433,726;10298,899;    0,292;    0,500
434,315; 9598,739;   -0,526;    2,409
434,905; 9723,924;   -1,254;    1,409
435,494; 9639,835;    0,746;    0,955
436,083;10131,079;   -0,981;   -0,955
436,672; 9985,243;    0,110;    0,500
437,261; 9531,708;    0,292;   -1,955
437,850; 9647,160;    1,383;    0,682
438,439; 9631,808;    3,291;    1,955
439,027; 9470,584;    3,655;    1,773
439,616; 9787,738;    2,927;    1,227
440,205; 9697,590;    0,200;   -2,136
440,794; 9791,495;    2,109;   -0,045
441,383;10058,706;   -1,346;   -0,591
441,971; 9959,500;   -2,436;    0,591
442,560; 9764,951;    0,563;   -1,773
443,149; 9529,156;    0,379;   -1,318
443,737; 9711,628;   -0,074;   -2,318
444,326; 9938,606;    0,018;    0,318
444,915; 9984,335;   -1,982;    0,864
445,503;10402,359;   -2,891;   -0,318
446,092; 9662,317;    0,382;    2,136
446,680;10206,863;    0,382;    0,318
447,269;10393,249;   -0,346;   -0,318
447,857;10174,825;    0,018;   -1,773
448,445;10276,627;    0,563;    1,318
449,034;10522,805;   -1,528;   -1,136
449,622;10668,629;   -1,073;    3,500
450,210; 9828,255;    2,017;    2,227
450,799;10379,206;    0,290;   -0,591
451,387;10392,015;    1,381;   -0,591
451,975; 9995,221;    2,654;    0,864
452,563;10075,079;    3,472;    2,318
453,151;10155,982;   -0,528;   -1,227
453,739;10057,200;   -1,347;    0,136
454,328; 9849,907;    2,381;   -2,136
454,916; 9557,673;    2,562;   -0,136
455,504; 9786,250;    1,017;    1,227
456,092; 9954,476;    0,017;   -1,591
456,679; 9953,462;    1,472;    0,682
457,267; 9866,675;    4,017;    1,045
457,855;10081,897;    1,017;    1,409
458,443; 9858,225;   -0,165;    1,682
459,031; 9950,497;    0,108;    2,409
459,619;10398,750;   -1,801;    2,864
460,206;10592,746;    0,835;    2,045
460,794;10671,409;   -2,983;   -0,227
461,382;10904,351;   -0,529;   -0,864
461,970;10477,105;    1,198;    1,864
462,557;10504,579;   -0,711;   -0,682
463,145;10697,480;   -3,165;   -1,682
463,732;10843,220;    2,016;   -1,045
464,320;10759,308;   -0,075;   -3,045
464,907;10412,948;    2,743;   -0,773
465,495;10299,572;    0,743;   -1,227
466,082;10513,413;   -1,984;   -0,045
466,670;10416,528;   -2,529;    1,227
467,257;10818,044;   -1,711;    2,045
467,844;10955,494;   -0,075;    0,045
468,432;10981,369;    0,834;    3,500
469,019;10491,053;    0,925;   -1,773
469,606;10969,832;    0,470;    3,682
470,193;10797,928;   -1,439;    0,227
470,780;10327,810;   -2,075;    0,864
471,368;10722,225;   -1,257;   -0,773
471,955;10497,897;    1,379;   -0,682
472,542;10143,633;    0,652;   -1,136
473,129;10362,629;   -0,166;    0,136
473,716;10101,372;    1,470;    0,591
474,303;10308,839;    0,652;   -0,864
474,890;10618,885;   -1,439;   -0,500
475,477;10607,931;   -1,621;    0,409
476,064;10523,563;    1,106;   -1,591
476,650;10466,131;    0,288;    0,318
477,237;10299,859;   -0,258;    0,955
477,824;10478,928;   -1,076;    0,864
478,411;10514,449;   -1,894;   -0,318
478,997;10690,316;    0,560;   -0,773
479,584;10764,830;    1,196;   -0,409
480,171;11490,484;   -0,440;   -0,773
480,757;11128,954;    2,651;    0,773
481,344;11470,464;    0,469;    0,409
481,931;10984,107;    1,105;    1,045
482,517;11960,354;   -1,258;    0,318
483,104;12551,889;    1,106;    2,864
483,690;12883,452;   -1,804;    0,045
484,276;13250,982;   -0,895;    0,227
484,863;12986,267;    2,469;    1,136
485,449;13655,456;   -0,077;    0,318
486,035;13672,240;   -1,986;   -0,136
486,622;14102,748;   -0,895;    0,045
487,208;14082,801;    1,378;    1,500
487,794;13891,949;    0,741;    0,318
488,380;13986,543;    0,105;   -1,409
488,967;14076,053;   -1,168;   -0,409
489,553;14145,716;   -1,895;   -1,409
490,139;14327,604;    1,559;    0,773
490,725;13772,726;    0,741;   -0,227
491,311;13328,845;    3,287;    3,045
491,897;12636,500;   -0,986;    1,500
492,483;12431,126;    0,105;    1,227
493,069;12140,582;    3,923;    0,864
493,655;12131,276;    1,650;    0,682
494,241;12043,031;    1,377;   -0,955
494,826;12453,709;    0,287;   -1,045
495,412;11900,833;    2,559;   -0,682
495,998;12059,325;   -0,805;   -0,318
496,584;12202,006;    0,377;    1,045
497,169;12212,586;    1,014;   -0,682
497,755;12198,318;    0,650;    1,227
498,341;12701,761;    0,559;    0,318
498,926;12287,099;    1,832;    1,955
499,512;12484,340;    1,286;    2,955
500,097;12611,678;    0,195;   -0,318
500,683;12589,878;   -0,350;    2,136
501,268;12970,832;   -0,169;   -0,955
501,854;12619,963;   -0,169;    1,227
502,439;12559,497;   -0,624;   -1,773
503,024;12778,071;    0,195;    0,500
503,610;12841,994;   -0,078;   -0,682
504,195;12893,729;    0,558;    1,955
504,780;13008,311;    2,922;    1,227
505,366;12830,001;    3,013;    2,864
505,951;12558,981;    0,740;    1,045
506,536;12571,250;   -3,260;   -3,682
507,121;12562,572;    0,285;   -0,318
507,706;13096,682;    2,376;    1,045
508,291;13490,896;    2,649;    1,136
508,876;12938,809;   -0,988;    2,591
509,461;12388,863;   -0,169;   -0,773
510,046;12766,689;    0,194;    0,318
510,631;13031,131;   -0,351;   -0,773
511,216;12739,093;    2,467;   -0,500
511,801;13068,781;   -0,442;    2,591
512,386;13400,420;    0,740;    0,500
512,971;13360,954;   -2,988;    0,955
513,555;12905,806;   -0,897;   -1,500
514,140;13676,517;   -0,442;   -3,136
514,725;13684,953;   -0,715;   -1,136
515,309;13838,371;   -0,533;    0,318
515,894;13282,969;   -0,624;   -2,227
516,479;13804,211;   -0,624;   -0,955
517,063;13584,793;    0,376;    1,227
517,648;13719,454;    1,012;   -1,136
518,232;13353,784;   -0,261;   -1,409
518,817;13710,037;   -0,079;    1,682
519,401;13903,695;    2,194;    0,591
519,985;13422,101;    1,103;    1,136
520,570;13284,970;    0,830;   -1,955
521,154;13600,114;    2,102;    0,591
521,738;13776,467;   -2,352;    2,409
522,323;14312,078;   -0,170;    1,682
522,907;14089,871;    0,466;   -0,136
523,491;13790,798;    0,557;    0,955
524,075;13750,869;    2,284;    0,591
524,659;13873,616;    1,466;    0,591
525,243;13344,581;    1,739;    0,409
525,827;13607,842;    0,648;   -0,045
526,411;14467,979;   -1,989;   -0,136
526,995;14664,735;   -0,352;    1,409
527,579;14251,960;   -0,443;   -1,045
528,163;14568,999;    0,375;   -1,500
528,747;14467,787;    2,466;   -0,773
529,331;14751,698;   -0,080;   -1,409
529,915;15003,044;    1,738;    0,955
530,499;14926,466;   -0,807;    1,227
531,082;14615,130;   -0,534;    1,591
531,666;14051,645;    1,374;    0,773
532,250;14786,949;    1,284;    2,682
532,833;15120,491;    0,920;    2,773
533,417;14976,081;   -1,807;    0,864
534,001;14965,774;    1,647;   -0,318
534,584;15688,935;    0,374;    0,500
535,168;15496,468;    0,465;    1,409
535,751;15516,501;    0,647;    0,045
536,334;14987,829;   -0,898;   -0,409
536,918;15617,206;    0,011;    1,591
537,501;15738,564;   -0,899;    1,318
538,085;15714,516;   -0,444;    1,045
538,668;15842,950;    0,829;    2,409
539,251;16146,294;    1,829;    3,773
539,834;16204,906;    0,101;    0,773
540,418;16110,200;   -1,990;    4,318
541,001;16260,210;   -0,990;    1,773
541,584;16244,554;    2,101;    2,227
542,167;15951,438;    1,374;    2,955
542,750;16099,980;    1,919;   -0,773
543,333;15703,512;    0,555;    2,136
543,916;16482,411;    0,192;    2,500
544,499;17098,348;   -1,354;    0,227
545,082;17120,698;    1,374;    3,591
545,665;17238,500;    1,919;    1,500
546,248;17599,330;    1,010;   -0,318
546,830;17226,359;   -0,445;    1,955
547,413;17674,103;    1,010;   -0,773
547,996;18222,877;    0,555;    0,500
548,579;17970,402;    0,919;    0,955
549,161;17813,297;    1,828;    2,682
549,744;17594,551;   -0,809;    0,409
550,326;18115,654;   -0,809;   -1,136
550,909;17859,707;    2,737;    0,591
551,492;18271,253;   -0,263;    0,227
552,074;18042,060;   -0,173;   -1,318
552,657;18627,034;    2,373;    0,045
553,239;18392,974;   -0,173;   -0,773
553,821;18316,488;   -1,082;    1,045
554,404;17819,723;    1,282;    1,136
554,986;18165,705;    0,464;    1,045
555,568;18760,554;    1,191;   -0,955
556,151;17979,988;    1,191;   -0,227
556,733;18226,038;   -0,264;   -0,864
557,315;18690,142;    0,100;    0,500
557,897;18525,267;    0,554;   -0,500
558,479;18656,221;   -1,991;    1,318
559,061;18762,858;   -0,719;   -0,864
559,643;19089,468;   -0,264;    0,045
560,225;19497,812;    1,645;    2,864
560,807;19495,559;    0,918;    0,318
561,389;18976,018;    0,554;    2,318
561,971;19721,158;    0,463;    2,136
562,553;19585,260;   -1,628;    1,591
563,135;19670,911;   -0,537;    1,136
563,717;19255,963;    3,372;    1,136
564,298;19995,966;    3,645;   -0,045
564,880;19745,741;    0,645;   -1,409
565,462;19884,195;    0,645;    1,318
566,043;21069,026;   -0,446;    2,318
566,625;20601,929;    1,918;    1,227
567,207;20459,312;    1,099;    1,682
567,788;21570,251;   -1,264;    1,500
568,370;22432,553;    1,917;   -0,500
568,951;22272,534;    0,190;    0,227
569,533;23157,002;   -0,628;   -0,500
570,114;23668,568;   -0,446;    0,682
570,695;24144,897;   -0,174;   -1,318
571,277;24695,697;   -0,265;   -1,682
571,858;25442,123;    2,008;   -1,136
572,439;26390,466;    1,554;   -1,045
573,021;26527,912;    2,099;   -2,773
573,602;27060,560;   -1,265;    0,318
574,183;27969,970;   -2,083;    2,227
574,764;28114,465;   -1,629;    0,409
575,345;28690,623;    0,917;   -0,136
575,926;29405,653;   -0,356;    0,136
576,507;29359,918;    1,099;   -0,227
577,088;30480,431;    3,099;    1,682
577,669;30483,150;    0,735;    1,955
578,250;31238,970;    0,644;   -1,045
578,831;31879,600;   -1,356;   -2,227
579,412;32180,403;   -0,810;    0,955
579,993;33154,480;    1,008;    0,227
580,573;33500,791;   -0,629;   -0,955
581,154;32466,462;    0,735;   -0,591
581,735;33318,021;    0,644;    0,773
582,315;32795,930;   -0,629;    2,136
582,896;33153,011;   -0,174;    1,227
583,477;32633,884;    0,189;    1,227
584,057;32838,175;    0,553;    0,955
584,638;33146,116;    2,553;    2,318
585,218;33055,799;   -0,538;    2,682
585,799;33260,237;    0,281;   -0,227
586,379;33217,067;    0,372;    1,591
586,959;32007,581;    0,735;    0,318
587,540;31288,394;   -0,629;    2,227
588,120;30804,778;    1,007;   -0,045
588,700;29761,307;    2,553;    2,136
589,281;30015,363;    0,462;   -0,955
589,861;29959,613;    0,099;   -1,682
590,441;29804,739;    2,371;   -2,682
591,021;28825,656;   -0,265;   -2,591
591,601;29019,875;   -0,537;    0,500
592,181;29010,610;   -0,719;   -0,773
592,761;28310,895;    0,007;    1,409
593,341;28199,088;   -0,901;    0,045
593,921;28144,944;   -0,265;    1,591
594,501;28068,249;   -0,538;    1,318
595,081;27897,964;    0,917;   -0,318
595,661;28198,271;   -1,447;    0,955
596,240;28786,998;   -0,537;    0,136
596,820;28455,097;    0,372;    1,955
597,400;28618,649;    2,008;    0,773
597,980;28866,073;    2,008;    1,045
598,559;28859,540;    2,735;   -0,227
599,139;28548,395;   -0,174;   -1,227
599,718;28515,122;   -0,174;   -0,409
600,298;28724,754;    0,735;    0,682
600,877;28927,546;    2,917;    1,409
601,457;29222,189;    2,281;    1,136
602,036;29117,232;    0,190;    2,045
602,616;29343,703;    0,644;    1,682
603,195;29675,274;   -0,355;    3,500
603,774;29202,188;   -0,901;    2,045
604,354;29149,258;    0,826;   -0,500
604,933;28628,402;    0,463;    1,864
605,512;28714,426;    3,554;    0,591
606,091;28736,836;   -0,537;    3,773
606,671;29551,618;    0,281;    0,773
607,250;28607,266;    1,644;    3,136
607,829;28905,581;    2,372;    3,227
608,408;28772,882;    1,190;    2,591
608,987;27809,875;    1,281;    3,409
609,566;28091,914;   -1,265;   -2,500
610,145;28174,322;   -1,082;    0,682
610,723;28579,378;    4,372;    6,864
611,302;27839,457;   -0,446;    1,682
611,881;27363,778;    5,008;   11,227
612,460;28193,037;    1,645;    3,955
613,039;28614,311;   -0,082;    2,045
613,617;27365,183;    1,736;    4,773
614,196;27540,705;    1,099;    1,227
614,775;27830,721;    1,009;    2,409
615,353;27794,440;    0,736;    0,864
615,932;27507,244;    0,100;    2,409
616,510;28146,715;    0,554;    0,591
617,089;27620,139;    7,100;   17,591
617,667;27388,432;    2,372;    6,136
618,246;27250,391;   -1,537;    1,318
618,824;27414,656;   -3,355;   -0,955
619,402;26960,116;   -2,900;   -1,773
619,981;27465,946;   -0,173;   -1,045
620,559;27301,950;    0,009;    1,682
621,137;26797,591;   -0,718;    1,864
621,715;26829,375;   -1,173;   -0,682
622,293;26760,280;   -0,537;   -0,773
622,871;27205,779;   -0,718;    0,500
623,450;26845,002;    0,373;   -0,864
624,028;26705,885;    0,191;   -0,955
624,606;26302,124;   -1,718;    1,682
625,183;26729,188;   -1,536;   -1,136
625,761;26338,727;    1,009;    1,136
626,339;26602,394;    1,373;    2,591
626,917;26991,145;   -0,172;   -0,045
627,495;27041,195;   -0,354;    1,318
628,073;26491,409;   -0,263;    2,864
628,650;26182,432;    0,100;    2,136
629,228;26587,374;    0,373;    4,409
629,806;25995,262;    2,282;    1,136
630,383;26226,763;    1,464;   -0,318
630,961;26011,567;    2,555;   -0,955
631,539;25782,173;    2,464;    0,227
632,116;25094,386;   11,373;   15,409
632,694;25673,775;    2,555;    6,500
633,271;25997,976;    0,828;    2,682
633,848;25891,970;    1,828;    2,045
634,426;25951,883;   -1,081;    1,773
635,003;25089,359;    1,101;   -0,409
635,580;25372,971;    1,192;    3,682
636,158;25949,927;    3,737;    1,227
636,735;25894,827;    0,555;   -0,500
637,312;26073,241;   -0,809;   -0,682
637,889;26165,456;   -4,354;   -0,682
638,466;25602,570;   -3,990;   -0,409
639,043;25582,062;    2,101;   -1,136
639,620;25933,569;   -2,262;   -0,955
640,197;26276,945;    1,100;    1,682
640,774;26384,733;   -0,172;    1,136
641,351;26847,430;    0,737;    1,136
641,928;26283,854;   -0,627;    1,409
642,505;25885,460;    0,828;   -0,500
643,082;26028,156;   -1,718;    1,227
643,658;25020,035;   -0,718;    1,500
644,235;25788,095;    1,191;    2,500
644,812;26094,065;    1,918;    0,773
645,388;25827,762;   -0,991;    1,409
645,965;25908,004;   -0,809;    1,682
646,542;25995,701;   -1,445;   -0,227
647,118;25940,852;    1,009;   -0,955
647,695;26280,640;   -0,263;    1,136
648,271;26177,882;   -0,536;    0,500
648,848;26492,306;    0,736;    2,227
649,424;26276,639;    0,827;    1,318
650,000;26078,063;   -0,354;   -1,045
650,577;25894,669;   -0,627;   -0,955
651,153;26401,639;   -1,809;    0,955
651,729;27450,427;    1,191;    0,864
652,305;27631,851;    0,645;    2,773
652,881;32043,638;   -0,082;    1,136
653,458;39076,335;    1,100;    0,227
654,034;43197,486;    0,282;    1,591
654,610;44851,456;    0,554;    0,773
655,186;46270,153;    0,645;    3,045
655,762;45933,486;   -0,991;    0,409
656,338;45939,819;    0,100;    0,136
656,913;46944,880;   -0,082;    0,409
657,489;46215,940;    0,827;   -0,318
658,065;46241,637;   -0,173;   -1,591
658,641;46872,243;   -0,900;   -0,864
659,217;46183,303;   -0,991;    0,409
659,792;45587,000;    0,645;   -0,409
660,368;45815,606;   -2,173;   -0,682
660,944;45511,666;   -2,082;    1,227
661,519;40932,999;   -0,628;    0,409
662,095;34810,787;   -1,719;    0,591
662,670;29808,393;    1,281;   -0,136
663,246;28472,453;    1,009;   -0,409
663,821;27681,059;    0,281;    1,682
664,396;27164,847;    0,009;    1,864
664,972;27496,544;    0,009;   -0,500
665,547;27784,877;    1,372;    0,136
666,122;27745,210;   -1,082;    0,318
666,698;28040,452;   -0,173;    0,318
667,273;27395,422;   -0,173;    0,136
667,848;28218,846;    2,372;    1,500
668,423;28061,179;    2,190;    2,318
668,998;28624,512;    2,827;   -0,682
669,573;29158,664;   -3,264;   -1,500
670,148;28948,815;   -1,446;   -0,682
670,723;28795,875;   -1,810;    0,318
671,298;29206,572;    2,372;    1,045
671,873;29353,633;   -0,082;   -0,136
672,448;29328,239;    0,645;    0,136
673,023;29652,754;   -1,992;   -0,227
673,597;29940,269;    0,827;    2,318
674,172;29705,238;   -0,355;    0,318
674,747;29231,753;    0,372;   -1,045
675,321;29070,541;   -0,628;    3,318
675,896;28651,328;    0,645;    1,045
676,471;29682,480;    2,645;    1,591
677,045;29398,813;   -1,264;    0,682
677,620;29458,055;    0,190;    1,136
678,194;29798,843;   -2,628;    1,136
678,769;29340,267;   -1,083;   -0,318
679,343;29574,418;   -0,628;    1,773
679,917;29442,297;   -1,446;    1,955
680,492;29553,539;    0,826;    3,227
681,066;29709,872;    3,372;    0,409
681,640;29680,751;    1,463;   -0,318
682,214;30546,084;    0,735;    0,500
682,788;30088,326;   -1,356;   -0,773
683,363;29979,296;   -1,810;    1,682
683,937;29754,447;   -1,719;   -0,318
684,511;30489,326;    0,463;   -0,591
685,085;30199,841;   -1,356;    0,318
685,659;30010,719;   -2,538;    0,864
686,232;30247,507;   -0,356;   -0,318
686,806;29954,204;   -0,901;    0,409
687,380;30632,628;   -0,174;    0,591
687,954;30844,234;   -1,174;    1,136
688,528;30468,567;   -0,719;    1,955
689,101;31267,628;   -3,992;    1,045
689,675;30804,870;   -0,356;   -0,136
690,249;30219,021;   -0,719;    0,409
690,822;30533,536;    0,280;    0,318
691,396;30612,960;   -0,265;    1,227
691,969;30028,566;    1,280;    0,136
692,543;30531,081;   -0,447;   -1,955
693,116;30199,778;   -0,265;   -1,409
693,690;30051,475;    0,099;    0,500
694,263;30573,444;   -1,083;    2,955
694,836;30606,868;    1,371;    3,591
695,410;29285,020;   -0,265;    1,773
695,983;29770,989;    0,189;    0,591
696,556;29746,595;   -0,447;   -1,045
697,129;30164,019;   -0,356;    1,409
697,703;29780,261;   -1,629;    1,955
698,276;29762,049;    1,462;   -0,773
698,849;29558,473;    1,280;    1,409
699,422;29971,079;   -1,083;    0,591
699,995;29665,139;    0,007;    0,136
700,568;30177,382;   -0,629;    3,045
701,140;30163,806;   -2,811;    1,682
701,713;29855,048;   -0,174;    2,409
702,286;29588,108;   -0,538;    0,864
702,859;29550,805;   -0,902;   -0,591
703,432;28641,048;    0,825;    0,682
704,004;29150,744;    0,462;    0,318
704,577;29040,532;   -0,629;    0,136
705,150;29611,956;    0,189;    2,500
705,722;29409,289;   -0,356;   -3,227
706,295;29200,168;   -0,175;   -0,591
706,867;29047,410;   -0,175;    1,955
707,440;29236,198;   -1,720;   -0,409
708,012;29463,986;    0,462;    0,591
708,584;29394,046;    2,462;    0,227
709,157;29701,379;    1,825;   -0,591
709,729;29352,530;    2,280;    2,045
710,301;30214,136;    0,734;    0,045
710,874;30221,924;   -1,447;   -0,227
711,446;29101,439;    0,371;    0,864
712,018;28998,863;    0,098;    0,500
712,590;28732,287;   -1,993;    1,682
713,162;29236,257;    0,825;    1,318
713,734;29435,226;    1,825;   -2,045
714,306;29418,014;   -1,902;   -0,409
714,878;28098,256;    0,825;    0,864
715,450;28893,771;    0,643;    0,864
716,022;29102,923;    1,552;    1,318
716,593;29308,619;    0,189;    0,591
717,165;29252,134;   -3,175;   -1,227
717,737;28919,467;    0,280;    0,409
718,309;28589,073;    0,280;   -0,045
718,880;28554,588;   -0,539;   -1,409
719,452;28803,649;   -0,175;   -1,591
720,024;28359,800;    0,734;   -0,591
720,595;28936,679;   -2,902;    0,955
721,167;28462,921;    0,370;   -2,045
721,738;28000,527;   -0,812;   -1,045
722,309;27958,496;   -0,993;   -1,227
722,881;27714,284;   -1,357;    0,773
723,452;28415,890;   -2,630;    2,864
724,023;28597,950;   -0,721;    2,682
724,595;28305,102;    0,007;    0,682
725,166;28075,799;    0,007;   -0,409
725,737;27748,314;    1,734;    0,227
726,308;27817,919;   -0,266;    0,318
726,879;28255,798;   -1,630;    1,227
727,450;28130,586;    0,552;   -0,045
728,021;28072,283;    3,097;    0,682
728,592;27871,798;    0,734;    0,500
729,163;28166,767;    0,643;   -0,136
729,734;28187,100;    0,188;   -0,227
730,305;28553,706;    1,734;    0,136
730,876;28956,767;    0,188;    2,955
731,447;28638,554;    2,188;    2,682
732,017;28734,615;    1,097;    1,864
732,588;28212,130;    0,734;    1,227
733,159;28421,827;    0,643;   -1,045
733,729;28225,069;    0,006;    0,409
734,300;27475,220;    0,915;    0,864
734,870;27910,917;    3,461;    0,591
735,441;28485,796;    0,370;   -0,591
736,011;28252,220;    0,643;   -1,591
736,582;28218,371;   -0,812;    0,045
737,152;27706,977;   -1,721;   -2,045
737,722;28087,765;   -0,267;   -0,682
738,293;27883,825;   -1,358;    1,318
738,863;27741,340;    2,461;    2,318
739,433;27528,309;    5,279;    0,318
740,003;28117,824;   -0,994;   -0,682
740,573;27512,976;    2,097;   -1,591
741,143;27490,309;   -1,085;    0,318
741,713;28301,733;    1,188;   -0,500
742,283;27975,975;    0,915;    1,591
742,853;27822,490;    1,915;    1,591
743,423;27234,187;    1,733;    0,045
743,993;27336,975;   -0,358;    1,500
744,563;26719,853;    0,097;   -0,864
745,133;26704,641;   -0,812;   -0,864
745,702;27354,247;   -0,267;    1,773
746,272;26527,489;   -0,176;    0,591
746,842;26319,368;   -1,358;   -0,591
747,411;26738,519;   -0,267;   -0,318
747,981;26965,671;    0,097;    0,500
748,551;27018,549;    2,278;   -1,045
749,120;26820,155;    0,642;   -0,227
749,690;27253,761;   -0,631;    2,409
750,259;27592,094;    1,369;    2,955
750,828;27506,609;    1,551;   -1,955
751,398;27781,670;    1,278;   -0,045
751,967;27233,912;    2,187;    0,409
752,536;27427,790;   -0,813;   -0,227
753,105;27829,760;    0,096;    0,227
753,675;27687,729;    0,096;    1,773
754,244;27652,154;   -0,904;    3,591
754,813;27710,396;    0,551;    1,227
755,382;27260,456;    0,460;    0,955
755,951;27829,971;    1,551;    3,682
756,520;27328,213;   -0,085;    1,864
757,089;27938,547;    0,278;    0,500
757,658;28102,425;    1,733;    1,227
758,227;28139,122;    1,096;    0,318
758,795;28386,092;    1,187;    1,136
759,364;28611,516;   -0,086;   -0,591
759,933;27624,394;   -1,176;   -0,045
760,501;27166,909;    0,733;   -1,318
761,070;27660,424;   -2,813;   -1,409
761,639;28305,485;   -1,904;    1,318
762,207;27628,545;    1,551;   -0,955
762,776;27590,606;    0,369;    0,864
763,344;27549,030;   -0,995;    0,591
763,913;26738,635;   -0,722;    1,409
764,481;27473,969;    1,005;   -0,136
765,049;27204,120;   -1,358;    1,409
765,618;27093,180;   -0,086;    0,318
766,186;27217,877;    0,278;    0,136
766,754;27375,483;    0,005;    1,864
767,322;26368,271;   -1,995;    0,409
767,890;26402,513;   -0,722;   -1,773
768,459;26812,483;   -2,177;   -0,318
769,027;26980,998;    1,641;    3,409
769,595;25909,694;    3,278;    2,591
770,163;26348,664;    3,823;    2,955
770,730;26065,179;    0,732;   -0,136
771,298;25961,694;    0,187;   -1,409
771,866;26073,391;   -1,541;    4,955
772,434;26371,087;   -0,631;   -1,864
773,002;26514,330;    0,005;    0,682
773,569;26167,390;    0,914;    1,682
774,137;25987,632;   -0,268;   -0,045
774,705;26807,784;    0,278;   -0,136
775,272;26322,208;    0,641;    0,682
775,840;26023,268;   -0,177;    2,682
776,407;25560,238;    0,277;    1,955
776,975;25170,571;   -0,632;    0,318
777,542;26181,995;   -1,086;   -0,045
778,110;26007,965;   -1,268;   -0,045
778,677;25743,207;   -2,359;   -0,864
779,244;25469,813;    2,186;    1,045
779,812;25497,782;    1,823;    0,864
780,379;25381,661;    0,005;    1,136
780,946;25665,358;    1,005;   -0,773
781,513;26012,054;   -1,450;    0,318
782,080;25301,933;   -0,086;    2,864
782,647;26107,993;   -0,268;    3,045
783,214;25684,145;   -0,177;    3,864
783,781;25271,751;   -0,723;   -0,682
784,348;25161,448;   -0,632;    1,500
784,915;25621,781;   -3,177;    0,318
785,482;25372,296;    1,368;    2,591
786,049;25831,083;    0,186;   -0,591
786,615;25937,053;    0,277;   -0,955
787,182;25670,841;    0,186;   -0,682
787,749;25372,810;   -2,814;    1,409
788,315;24674,507;   -1,632;   -0,409
788,882;24966,295;    1,550;   -1,227
789,448;25668,901;    1,732;   -0,955
790,015;25753,597;    1,095;    3,227
790,581;25254,840;    1,459;    0,227
791,148;25172,445;    0,641;    1,045
791,714;25430,142;   -0,541;    3,136
792,280;25083,385;    0,186;    1,591
792,847;24635,627;    0,550;    2,500
793,413;25204,505;   -0,269;   -0,318
793,979;24720,657;    3,459;   -1,318
794,545;24764,899;    4,459;    2,682
795,111;24189,687;    2,186;    1,318
795,678;24372,020;    0,731;   -1,682
796,244;23988,262;    3,368;    0,136
796,810;24568,777;    1,731;    0,773
797,375;24254,201;    0,549;   -2,136
797,941;24315,534;   -0,541;    0,591
798,507;24453,049;   -0,451;   -0,955
799,073;23990,564;   -0,360;    0,591
799,639;24107,079;   -2,632;    3,136
800,205;24111,867;    0,095;    2,682
800,770;23686,836;    0,640;    1,773
801,336;23757,261;    1,368;   -0,955
801,901;23409,139;    4,549;    3,136
802,467;23949,109;   -0,542;    2,045
803,033;23336,896;   -0,087;    0,864
803,598;23554,411;    1,913;   -1,045
804,163;23561,835;    1,095;   -0,318
804,729;23483,260;   -0,178;    1,136
805,294;23900,865;    0,822;    2,227
805,859;23700,108;    0,731;   -0,409
806,425;23127,714;    1,186;    2,682
806,990;22836,865;    2,186;    4,318
807,555;23366,925;   -1,451;    2,591
808,120;23209,349;    0,822;   -0,409
808,685;23267,592;    0,185;   -2,500
809,250;22799,834;    0,004;   -0,500
809,815;23103,985;    1,913;    0,682
810,380;23623,318;   -0,269;    1,591
810,945;24142,833;   -1,087;    2,045
811,510;23307,257;    2,094;    1,591
812,075;23035,682;   -0,633;   -1,409
812,640;23059,469;    2,003;    1,409
813,204;23142,439;    0,822;   -0,227
813,769;23680,136;    2,094;   -0,045
814,334;23026,469;    0,458;    0,864
814,898;23060,620;    0,367;    0,591
815,463;22981,408;    1,276;   -0,773
816,027;22931,650;   -0,724;   -2,318
816,592;23022,438;    0,640;   -2,045
817,156;22491,589;    2,094;    1,136
817,721;22341,740;    4,276;    2,318
818,285;22336,801;    2,912;    1,500
818,849;23015,407;   -1,451;    1,682
819,414;22903,922;   -0,269;    2,955
819,978;22518,982;   -1,269;    1,773
820,542;23045,406;    2,003;    0,500
821,106;22739,649;   -0,815;    0,682
821,670;22822,345;   -0,815;    2,591
822,234;22573,678;   -0,270;    1,409
822,798;21927,193;    0,003;    0,500
823,362;21869,345;   -0,633;    4,227
823,926;21200,678;    0,094;    1,136
824,490;21418,102;   -0,997;   -0,682
825,054;21854,435;   -0,088;   -1,136
825,618;21448,132;   -1,542;   -1,500
826,181;21416,920;    0,458;   -1,318
826,745;21287,344;    1,367;   -1,045
827,309;21624,495;    1,185;    1,318
827,872;21003,192;    1,367;    0,955
828,436;22031,071;    1,185;   -0,773
828,999;22081,313;   -0,997;    1,227
829,563;20841,555;   -0,179;    1,136
830,126;20650,797;   -0,179;   -0,591
830,690;20719,949;   -1,997;    2,864
831,253;20253,827;   -0,543;    2,227
831,816;20373,979;   -1,906;    0,500
832,380;20309,312;    0,185;    0,864
832,943;20514,463;   -1,361;   -0,500
833,506;20009,069;    2,639;   -1,227
834,069;20768,220;    3,912;   -0,955
834,632;20835,735;    1,730;    1,318
835,195;20786,887;    1,003;    0,955
835,758;19916,220;   -0,997;    1,955
836,321;19803,735;    0,730;   -1,045
836,884;19916,341;   -0,725;   -0,955
837,447;19917,401;   -2,816;    1,773
838,010;20219,189;    0,366;    3,227
838,573;20489,067;   -1,179;    0,773
839,135;20438,219;   -1,361;   -0,955
839,698;19874,461;    1,275;    0,409
840,261;19429,885;    1,003;   -0,227
840,823;19239,946;   -0,543;    0,864
841,386;19544,006;   -0,452;   -2,409
841,948;19394,066;   -1,361;    1,773
842,511;19123,945;    0,912;    1,682
843,073;19309,187;    1,912;    0,227
843,636;19092,702;   -0,361;   -0,227
844,198;18990,308;    0,911;    0,591
844,760;19133,460;    1,093;    1,955
845,322;18770,793;    0,548;    1,136
845,885;19192,035;    0,730;    0,591
846,447;19620,095;   -1,998;    0,227
847,009;19207,701;    1,911;   -0,682
847,571;19587,580;    0,820;   -2,045
848,133;19670,095;   -1,089;   -1,864
848,695;19477,428;   -0,543;    1,409
849,257;19044,670;   -1,089;   -1,682
849,819;19199,276;   -0,998;   -0,409
850,381;19243,973;   -0,725;   -0,864
850,942;19635,124;    1,093;   -0,591
851,504;19582,457;    1,184;    0,227
852,066;19602,518;    1,275;   -1,591
852,628;19137,124;   -0,180;    1,955
853,189;18696,457;    1,638;    2,682
853,751;18787,608;   -0,907;    1,409
854,312;18646,851;   -0,453;   -1,682
854,874;19151,638;   -2,089;   -0,773
855,435;19651,881;   -0,907;   -1,682
855,997;19791,032;   -1,816;   -0,136
856,558;19086,001;    0,366;    1,773
857,119;19169,880;    0,820;    2,864
857,681;18853,304;    0,002;    0,318
858,242;18930,365;    1,911;   -2,136
858,803;19370,061;    0,456;   -0,773
859,364;19963,940;    0,184;   -4,773
859,925;19240,182;   -2,453;   -0,955
860,486;19118,606;   -0,453;   -0,955
861,047;18875,849;   -0,544;   -1,227
861,608;18690,000;   -1,089;   -0,773
862,169;18820,697;    0,638;   -0,045
862,730;18590,030;    0,456;    1,409
863,291;18844,090;   -0,635;   -0,500
863,852;19201,151;   -0,635;    1,955
864,412;18640,484;   -0,271;   -0,864
864,973;17203,362;   -0,089;    0,500
865,534;17061,605;   -1,726;    0,227
866,094;18590,938;    1,820;    0,227
866,655;18261,544;    1,274;    3,318
867,215;18550,877;    0,274;    0,136
867,776;18401,574;    0,547;   -0,136
868,336;18464,725;   -1,453;    0,136
868,897;17889,331;    2,638;    1,682
869,457;17591,301;    1,365;    0,318
870,017;17882,088;    0,547;   -1,227
870,578;18437,967;   -0,817;    0,773
871,138;18124,845;   -2,089;   -0,955
871,698;17707,179;   -0,817;   -1,318
872,258;17537,603;   -0,453;   -2,864
872,818;17860,299;    2,729;    0,045
873,378;17833,087;    0,638;    1,045
873,938;17406,329;    0,547;    0,500
874,498;17731,299;    0,274;   -1,955
875,058;17634,905;    2,183;    1,773
875,618;17466,783;    1,910;   -2,682
876,177;17430,298;    1,274;    0,136
876,737;17055,723;   -0,090;    1,955
877,297;17053,147;    0,183;    1,955
877,856;17042,934;   -0,362;    0,318
878,416;16984,177;    1,183;   -0,136
878,976;17213,419;   -1,817;    0,409
879,535;17375,570;    0,092;    3,136
880,095;17104,722;   -0,544;    0,045
880,654;17223,146;   -1,090;    1,318
881,213;17299,933;    2,456;    1,500
881,773;16972,176;    2,637;    2,682
882,332;17276,054;    3,365;    5,136
882,891;17115,206;    3,092;    2,136
883,451;17607,539;   -1,272;    1,682
884,010;17051,872;   -2,908;   -0,409
884,569;17141,841;   -0,999;   -0,045
885,128;17312,902;    2,819;   -1,864
885,687;17368,326;    4,455;    0,682
886,246;17023,659;    1,455;    2,136
886,805;16819,356;    2,455;    2,045
887,364;17135,598;   -0,999;   -0,500
887,922;17490,749;   -1,181;    0,045
888,481;16980,810;   -1,545;    0,591
889,040;17297,688;    1,183;    2,136
889,599;18001,749;    2,455;    1,409
890,157;18062,264;    1,455;    2,409
890,716;17724,779;   -0,090;    0,227
891,274;17511,839;    0,092;   -1,136
891,833;17979,900;    1,546;    0,864
892,391;17866,051;   -0,454;    0,500
892,950;17932,566;    1,819;   -0,773
893,508;18294,808;    0,455;   -0,409
894,067;17652,051;    0,637;    0,136
894,625;17573,111;   -0,636;   -1,500
895,183;17813,353;   -0,363;   -0,682
895,741;17697,596;    1,728;   -1,773
896,299;17513,383;   -0,545;   -2,409
896,858;17708,625;    0,819;   -1,591
897,416;17805,868;    2,728;   -1,318
897,974;17586,565;    1,819;    0,318
898,532;17690,080;    6,091;    2,682
899,089;17583,231;    2,091;   -0,682
899,647;17666,382;   -1,454;    1,318
900,205;17335,352;    1,182;    1,045
900,763;17544,867;   -0,454;    0,227
901,321;17571,564;    2,364;   -1,409
901,878;17005,715;   -1,000;   -0,773
902,436;16904,866;   -1,363;    1,318
902,994;17287,108;    4,728;    3,682
903,551;16670,714;    0,728;    0,409
904,109;17083,866;    0,182;   -1,409
904,666;16684,744;    2,455;    1,045
905,224;16518,441;    0,182;   -0,409
905,781;16200,320;    0,727;   -0,318
906,338;16300,107;   -1,363;    1,045
906,895;16228,077;    0,637;    2,045
907,453;16169,774;    1,727;    1,136
908,010;16200,289;   -0,909;    0,409
908,567;15851,076;    1,273;    0,591
909,124;15373,046;    0,364;   -1,500
909,681;15467,470;   -2,909;    0,682
910,238;15577,803;    0,636;   -1,318
910,795;15880,773;   -0,273;   -1,136
911,352;15521,045;   -2,909;   -2,682
911,909;14899,864;   -1,364;   -0,864
912,466;15430,318;   -3,182;    1,500
913,022;14962,955;   -1,636;    0,500
913,579;15312,227;   -0,909;    2,045
914,136;15040,864;    1,636;    0,955
914,692;15366,682;    0,091;   -1,227
915,249;14924,045;    1,455;    0,409
915,806;15171,500;    0,182;    1,955
916,362;14872,773;    1,909;    1,864
916,918;14468,864;    2,000;    1,045
917,475;14424,136;   -1,182;    0,955
918,031;14484,773;    3,364;   -0,045
918,587;13932,955;   -0,909;   -0,318
919,144;14146,136;   -2,273;    0,227
919,700;14483,773;    1,727;    0,773
920,256;14072,500;    0,727;    0,045
920,812;13714,682;   -0,727;   -1,045
921,368;13688,318;   -1,727;   -1,045
921,924;13333,955;    0,182;   -0,136
922,480;12864,773;   -0,545;    1,227
923,036;13478,227;    1,273;    1,955
923,592;13427,591;    0,455;    0,318
924,148;13347,591;    0,455;   -0,955
924,704;12646,136;   -1,364;   -0,409
925,259;12935,864;   -0,273;    0,591
925,815;12694,955;    1,455;    0,500
926,371;12192,227;    2,909;    1,409
926,926;12069,500;    2,091;    0,591
927,482;11681,045;   -1,364;    0,773
928,037;11580,682;    0,909;    2,045
928,593;11864,591;    1,636;    1,045
929,148;11690,227;   -1,818;   -1,500
929,704;11154,682;   -1,455;   -0,500
930,259;11369,864;    0,091;   -0,136
930,814;10426,045;   -0,818;    1,955
931,369;10140,045;    1,091;   -0,773
931,925;10013,500;   -0,091;    0,136
932,480; 9886,955;   -2,818;   -2,591
933,035; 9756,773;    0,545;   -0,318
933,590; 9530,682;    0,364;   -1,773
934,145; 9186,136;   -1,364;   -0,318
934,700; 9531,136;    0,455;   -0,591
935,255; 9302,682;   -0,091;    0,045
935,809; 8561,409;    3,182;    0,864
936,364; 7676,864;   -0,455;   -0,136
936,919; 7654,318;    0,455;   -1,773
937,474; 7524,773;    1,455;    0,136
938,028; 7270,773;   -1,636;    1,136
938,583; 6724,955;    1,818;    4,682
939,138; 7019,864;    2,091;    2,136
939,692; 6450,045;    1,636;   -1,136
940,247; 6154,227;   -0,727;   -1,045
940,801; 5702,136;   -0,636;    0,227
941,355; 5594,227;   -0,364;    2,591
941,910; 5263,955;   -0,273;   -2,136
942,464; 5340,682;   -0,818;   -0,318
943,018; 5107,318;    1,000;   -0,227
943,572; 5052,773;    2,545;   -0,682
944,126; 4463,591;    0,091;   -0,409
944,681; 4349,227;    3,091;    0,227
945,235; 4324,136;    1,000;   -0,591
945,789; 4268,864;    0,364;   -1,864
946,342; 4369,682;    0,455;   -0,591
946,896; 4191,318;   -2,273;    0,955
947,450; 3935,500;    1,545;   -0,227
948,004; 4108,864;    1,727;   -0,045
948,558; 4117,500;    0,273;   -0,864
949,111; 4046,773;   -0,273;   -0,318
949,665; 4063,318;    1,636;   -0,682
950,219; 3945,136;   -0,091;   -1,045
950,772; 4042,864;   -1,909;    1,864
951,326; 3930,773;    0,545;   -0,955
951,879; 4033,318;    0,727;   -2,318
952,433; 4038,409;    0,000;    2,227
952,986; 3863,773;    2,909;    0,682
953,539; 3848,773;   -0,273;    0,591
954,093; 3774,591;    0,545;   -1,318
954,646; 3879,500;    0,909;    1,318
955,199; 3690,045;    0,000;   -0,500
955,752; 3592,318;   -0,455;    1,773
956,305; 3560,773;   -0,091;    2,955
956,858; 3710,136;    0,818;   -0,318
957,411; 3887,864;   -0,545;    2,136
957,964; 3722,136;    1,364;    2,136
958,517; 3722,409;   -1,545;    3,136
959,070; 3543,136;   -0,455;    1,955
959,623; 3591,409;    1,091;    1,500
960,176; 3377,500;    1,727;    2,045
960,728; 3353,864;   -2,727;    0,773
961,281; 3416,318;    0,545;    0,500
961,834; 3456,318;   -0,909;    0,864
962,386; 3374,318;    1,727;    1,045
962,939; 3290,591;    0,364;   -0,318
963,491; 3418,591;    0,455;    1,136
964,043; 3315,136;    1,182;    2,409
964,596; 3437,955;   -1,000;    2,227
965,148; 3286,136;   -1,000;    1,773
965,700; 3205,227;    1,091;   -0,227
966,253; 3360,864;   -0,636;    0,318
966,805; 3187,500;   -2,273;    0,773
967,357; 3227,227;    1,091;   -1,500
967,909; 3190,955;    0,455;   -1,227
968,461; 3301,500;    0,545;    3,136
969,013; 3237,773;   -0,182;   -0,864
969,565; 3316,682;   -0,455;   -1,136
970,117; 3353,955;   -0,364;    1,045
970,669; 3212,591;    0,182;   -0,136
971,220; 3068,591;   -0,455;   -1,500
971,772; 2991,955;   -0,636;   -0,318
972,324; 3117,682;    0,091;   -0,500
972,876; 3065,682;    0,818;   -0,045
973,427; 3192,955;    1,909;   -1,045
973,979; 3155,318;   -0,727;   -2,500
974,530; 3221,136;    1,818;    1,318
975,082; 3231,500;   -0,545;    1,682
975,633; 3124,136;    1,091;    1,682
976,184; 3260,773;    0,909;    0,773
976,736; 3033,955;    0,091;    0,227
977,287; 2836,591;   -0,909;   -0,500
977,838; 3025,773;    0,909;   -0,318
978,389; 3077,136;   -1,000;   -0,500
978,940; 2960,409;    0,545;   -0,409
979,491; 2999,500;    0,091;   -0,500
980,042; 2945,773;    0,182;    3,045
980,593; 3003,955;   -2,545;    0,227
981,144; 3042,500;    2,545;   -0,500
981,695; 3005,682;    1,455;    1,500
982,246; 2981,591;   -0,273;    1,045
982,797; 3137,045;   -1,727;    0,682
983,347; 3223,227;    0,364;    0,591
983,898; 3408,318;    3,091;    0,409
984,449; 3210,682;    2,182;    0,773
984,999; 3142,500;    1,455;   -1,136
985,550; 2920,227;    0,182;   -0,318
986,100; 2960,955;   -0,455;   -0,318
986,651; 2987,318;   -0,818;    0,045
987,201; 2972,045;   -1,000;   -0,591
987,751; 3067,227;    0,818;    2,864
988,302; 3035,500;    2,636;    1,500
988,852; 3051,773;    0,455;   -1,136
989,402; 3088,500;    0,091;    0,682
989,952; 3000,773;   -2,182;    0,864
990,502; 3135,682;   -0,091;    0,682
991,052; 3105,409;   -0,727;    0,045
991,602; 2960,318;   -2,909;    1,318
992,152; 2949,045;    0,455;    0,682
992,702; 2936,591;    1,364;   -0,045
993,252; 2860,500;   -3,000;   -0,500
993,802; 2943,955;   -0,273;    1,318
994,352; 3180,864;   -1,545;    1,136
994,901; 3288,318;   -0,182;    3,227
995,451; 3201,318;   -0,182;    0,318
996,000; 3265,682;    1,636;    0,318
996,550; 2993,409;    2,273;    0,227
997,100; 2989,864;    1,273;   -0,045
997,649; 3254,864;    2,182;    0,955
998,198; 2896,045;    1,727;   -1,500
998,748; 3081,227;    1,091;   -2,318
999,297; 3024,773;   -0,818;   -0,409
999,846; 3068,682;    1,000;   -0,773
1000,395; 3115,864;   -0,818;    0,500
1000,945; 3060,682;    1,818;   -0,773
1001,494; 3154,318;    2,364;    0,682
1002,043; 3145,591;    4,636;    0,864
1002,592; 2973,318;   -1,091;    1,955
1003,141; 3137,409;   -0,455;   -0,682
1003,690; 3001,955;    1,727;    0,500
1004,238; 3078,591;    1,455;   -0,045
1004,787; 2727,045;    1,364;    1,227
1005,336; 2952,409;    0,364;    0,682
1005,885; 3100,864;    1,364;   -2,773
1006,433; 3262,500;    0,545;    0,955
1006,982; 3292,409;    0,455;    1,682
1007,531; 3201,500;   -1,818;   -0,227
1008,079; 3160,864;   -2,273;    0,500
1008,627; 3315,682;   -1,455;    0,409
1009,176; 3049,864;    0,000;   -1,955
1009,724; 3099,591;    1,091;    0,864
1010,273; 3126,591;    1,273;    0,500
1010,821; 3257,591;    0,091;    1,409
1011,369; 2980,955;   -1,364;    1,318
1011,917; 2963,682;   -1,364;   -0,591
1012,465; 3273,591;    1,273;   -1,591
1013,013; 3369,682;    2,091;   -1,682
1013,561; 3252,864;    0,455;   -0,773
1014,109; 3280,227;   -1,909;    1,682
1014,657; 3148,227;    0,364;    0,591
1015,205; 3300,227;    1,636;   -0,955
1015,753; 3326,773;   -0,545;   -1,409
1016,301; 3371,136;   -2,636;    3,045
1016,848; 3363,045;   -1,273;    0,409
1017,396; 3417,227;    2,545;    0,045
1017,944; 3531,045;    1,182;    1,864
1018,491; 3294,955;    0,273;    1,409
1019,039; 3427,864;    0,455;    0,591
1019,586; 3365,955;   -1,364;    1,682
1020,134; 3489,773;    0,455;    1,500
1020,681; 3497,500;    0,182;   -1,136
1021,228; 3518,773;    2,909;   -2,227
1021,776; 3336,227;    1,182;   -1,136
1022,323; 3547,955;    0,455;    0,773
1022,870; 3478,136;   -1,000;   -0,045
1023,417; 3378,864;    2,636;    1,864
1023,964; 3522,864;    2,636;    1,227
1024,511; 3366,227;    1,000;    0,773
1025,058; 3151,682;    3,182;   -0,045
1025,605; 3210,318;   -2,273;    3,136
1026,152; 3435,591;    1,727;   -0,591
1026,699; 3158,682;    1,818;    1,318
1027,245; 3332,318;   -0,091;    0,318
1027,792; 3573,955;   -1,000;    1,409
1028,339; 3426,318;    2,364;   -0,045
1028,885; 3276,682;    1,000;   -0,227
1029,432; 3235,136;   -0,091;    0,227
1029,978; 3286,682;   -1,000;   -1,591
1030,525; 3188,591;    1,000;    0,409
1031,071; 3458,955;   -1,364;    1,136
1031,618; 3532,682;    0,364;    1,682
1032,164; 3317,864;   -0,091;    3,045
1032,710; 3372,227;    1,636;   -1,500
1033,256; 3300,864;   -0,636;   -0,136
1033,803; 3288,955;   -0,545;    1,500
1034,349; 3004,864;   -1,364;    0,136
1034,895; 3156,136;    0,000;   -0,318
1035,441; 3134,500;   -0,818;    0,318
1035,987; 3138,773;   -2,364;   -0,682
1036,533; 3121,045;   -1,455;   -0,955
1037,078; 3311,318;    1,455;    1,682
1037,624; 3152,045;    2,455;   -0,955
1038,170; 3190,955;    0,455;   -0,318
1038,716; 3069,682;    1,636;   -0,409
1039,261; 2982,773;   -2,273;   -0,773
1039,807; 2937,136;   -0,091;    3,409
1040,352; 2981,500;   -1,909;   -0,318
1040,898; 3046,136;   -1,545;   -0,682
1041,443; 2946,045;   -1,455;   -2,591
1041,989; 2939,500;    1,091;    1,591
1042,534; 2852,409;   -0,364;    2,591
1043,079; 2991,864;    2,909;    0,955
1043,625; 2756,955;    1,818;    0,500
1044,170; 2801,318;   -1,364;    1,045
1044,715; 3050,045;    2,455;    0,955
1045,260; 2868,318;    2,182;   -0,955
1045,805; 2933,773;    1,182;   -0,591
1046,350; 2854,955;    1,364;   -0,409
1046,895; 2815,227;    2,909;    1,591
1047,440; 2736,136;    5,364;    0,409
1047,985; 2642,318;    2,818;   -0,955
1048,530; 2581,318;    1,545;    1,227
1049,074; 2627,136;    0,000;    0,318
1049,619; 2617,864;   -1,364;    1,955
1050,164; 2405,045;    0,455;    0,227
1050,708; 2456,955;   -0,455;    0,045
1051,253; 2815,318;    1,273;   -2,227
1051,797; 2536,045;    0,818;   -1,318
1052,342; 2567,318;   -1,182;    1,045
1052,886; 2517,591;    0,364;   -1,409
1053,430; 2420,591;   -1,364;    0,136
1053,975; 2430,409;   -0,818;   -0,318
1054,519; 2407,136;   -0,727;    3,227
1055,063; 2410,409;    0,909;    1,318
1055,607; 2287,591;   -0,182;    0,227
1056,151; 2316,045;    2,909;    1,682
1056,695; 2245,864;    2,273;   -1,136
1057,239; 2317,318;   -1,727;   -0,682
1057,783; 2320,864;    0,818;   -1,500
1058,327; 2258,864;    0,000;    1,409
1058,871; 2498,591;   -0,545;    1,318
1059,415; 2195,773;   -0,818;   -0,045
1059,958; 2450,500;    1,455;    2,591
1060,502; 2172,773;   -1,000;   -0,773
1061,046; 2081,500;    0,364;   -0,955
1061,589; 2073,955;   -3,000;   -1,136
1062,133; 1944,773;   -1,273;    1,864
1062,676; 1878,136;    1,182;    0,864
1063,220; 1895,045;    1,091;    0,500
1063,763; 1904,227;    0,909;    1,136
1064,306; 1971,773;   -0,909;    1,864
1064,849; 1851,136;   -0,909;    0,591
1065,393; 1869,955;    2,000;   -1,500
1065,936; 1976,045;    0,182;   -0,409
1066,479; 1866,227;   -1,455;    1,318
1067,022; 1897,409;   -0,273;   -0,227
1067,565; 1796,500;   -0,091;   -1,318
1068,108; 1835,955;    0,727;   -0,591
1068,651; 1795,045;   -0,636;    1,409
1069,194; 1707,409;   -0,455;   -1,682
1069,736; 1716,864;   -1,273;    0,955
1070,279; 1710,955;   -1,364;   -0,500
1070,822; 1756,318;   -2,000;   -0,318
1071,364; 1829,318;   -0,364;    1,318
1071,907; 1648,409;   -0,727;    3,227
1072,450; 1560,591;    0,000;   -0,045
1072,992; 1539,227;   -0,273;    3,136
1073,535; 1681,591;    2,091;    2,136
1074,077; 1478,591;   -0,727;    2,045
1074,619; 1452,409;   -1,364;    0,591
1075,161; 1473,500;   -1,091;    1,500
1075,704; 1650,591;    1,545;    1,227
1076,246; 1455,045;   -0,182;    0,682
1076,788; 1380,955;   -0,364;    1,773
1077,330; 1472,136;    1,273;    2,136
1077,872; 1423,318;    0,909;    0,955
1078,414; 1636,591;    2,727;    0,773
1078,956; 1369,500;    1,273;   -0,227
1079,498; 1619,591;    1,636;    0,318
1080,040; 1326,227;    1,909;   -1,318
1080,581; 1282,591;    1,636;   -0,318
1081,123; 1209,318;    0,091;   -0,773
1081,665; 1268,318;   -1,182;   -0,955
1082,206; 1552,045;    1,364;   -0,500
1082,748; 1406,318;    0,727;    2,045
1083,289; 1294,227;   -2,000;    1,318
1083,831; 1199,955;   -0,545;    0,227
1084,372; 1233,318;    0,000;    0,591
1084,913; 1236,682;    1,091;    0,864
1085,455; 1197,773;   -1,909;   -2,045
1085,996; 1167,773;   -2,273;    0,136
1086,537; 1176,773;   -0,091;    0,864
1087,078; 1212,136;   -0,909;   -2,136
1087,619; 1253,500;   -1,273;    0,227
1088,160; 1173,500;    0,000;    1,318
1088,701; 1168,318;   -1,091;    0,682
1089,242; 1101,227;    1,364;   -2,227
1089,783; 1191,682;   -0,273;    1,409
1090,324; 1164,045;    0,455;    0,682
1090,865; 1052,500;    2,727;   -0,409
1091,405; 1025,227;    0,727;    2,227
1091,946; 1033,955;    0,182;   -0,955
1092,487;  978,318;    0,818;   -1,409
1093,027; 1121,045;   -1,364;   -1,500
1093,568;  981,864;   -0,364;    1,227
1094,108; 1079,591;    0,273;    1,773
1094,649; 1013,682;   -1,182;    0,136
1095,189;  947,409;   -0,636;   -0,682
1095,729;  887,591;   -0,091;    0,955
1096,269;  907,955;    0,727;   -0,955
1096,810; 1222,136;   -1,364;    0,500
1097,350; 1046,318;    1,364;   -0,773
1097,890;  945,318;    0,364;    1,227
1098,430; 1186,136;    2,364;    2,864
1098,970; 1057,409;    2,182;    1,682
1099,510;  932,864;    0,545;   -2,318
1100,050;  846,318;    1,000;   -1,591
1100,589;  827,318;   -0,727;   -0,318
1101,129;  947,409;    0,818;   -0,955
1101,669; 1102,955;    1,727;    2,136
1102,209;  921,136;   -0,091;    2,227
1102,748;  872,409;    0,000;    0,955
1103,288;  857,136;    1,273;   -1,227
1103,827;  893,227;    3,091;   -2,227
1104,367;  763,136;   -0,091;   -2,409
1104,906;  729,591;    1,364;   -1,136
1105,445;  795,773;    0,636;   -1,136
1105,985;  740,227;   -0,727;    1,500
1106,524;  789,045;   -1,727;   -0,682
1107,063;  751,591;   -2,727;    1,409
1107,602;  739,773;   -1,909;   -1,500
1108,141;  669,500;   -1,909;    1,500
1108,680;  752,045;   -3,455;   -0,591
1109,219;  697,136;   -0,909;   -0,500
1109,758;  703,318;    0,455;    0,682
1110,297;  667,591;    1,000;   -0,682
1110,836;  605,591;   -0,727;    0,955
1111,375;  780,682;   -2,545;    0,409
1111,913;  790,045;   -1,000;    0,773
1112,452;  717,136;   -0,273;    0,136
1112,991;  621,318;    1,091;    1,955
1113,529;  576,591;   -0,818;   -0,045
1114,068;  633,864;   -0,273;    2,955
1114,606;  540,955;   -0,364;   -0,955
1115,144;  700,136;   -1,273;    1,045
1115,683;  633,591;   -0,727;    0,318
1116,221;  686,136;   -0,455;   -0,864
1116,759;  595,136;    0,636;   -0,864
1117,297;  794,045;    0,000;    1,864
1117,836;  596,682;   -2,182;   -1,227
1118,374;  608,136;    0,182;   -0,682
1118,912;  539,955;    0,909;    2,682
1119,450;  535,227;    1,000;    0,864
1119,988;  587,591;    1,545;    2,136
1120,525; 1041,773;    5,091;    3,318
1121,063;  731,682;    1,182;    1,864
1121,601;  537,591;   -0,909;   -1,227
1122,139;  503,409;   -0,727;   -2,045
1122,676;  691,864;   -0,727;    2,773
1123,214;  626,955;   -1,182;    4,409
1123,751;  438,591;    1,727;    2,227
1124,289;  571,955;   -0,091;   -0,409
1124,826;  443,409;    1,727;    0,227
1125,364;  370,136;    1,727;   -0,955
1125,901;  558,773;    1,182;    1,227
1126,438;  665,591;    0,818;    0,955
1126,975;  399,500;   -0,727;   -0,773
1127,513;  471,045;    0,273;    2,136
1128,050;  364,136;    1,636;   -0,682
1128,587;  457,682;    2,000;   -0,227
1129,124;  500,227;    0,091;    1,318
1129,661;  365,682;    0,273;    0,227
1130,198;  541,591;    1,636;    0,773
1130,734;  480,773;    0,182;    1,409
1131,271;  343,955;   -0,909;    0,864
1131,808;  519,773;    2,909;    3,045
1132,345;  384,591;    1,545;    0,318
1132,881;  259,136;   -1,545;   -1,864
1133,418;  398,773;    0,727;   -1,136
1133,954;  333,136;    2,455;   -2,682
1134,491;  410,500;    1,364;   -0,773
1135,027;  307,227;    2,364;    0,864
1135,564;  392,045;    0,273;    2,955
1136,100;  377,955;    0,364;    2,136
1136,636;  266,136;   -1,273;   -1,045
1137,172;  370,409;    0,000;   -1,045
1137,708;  294,409;   -1,364;   -1,045
1138,245;  301,864;    1,273;   -1,227
1138,781;  248,955;    1,091;   -3,318
1139,317;  309,136;    1,273;   -1,409
1139,852;  294,864;    3,091;    0,136
1140,388;  412,955;   -1,182;   -0,409
1140,924;  296,500;   -1,091;   -2,227
1141,460;  233,591;   -1,636;    0,136
1141,996;  169,955;   -1,364;    2,682
1142,531;  212,136;    1,364;    3,318
1143,067;  436,773;    1,182;    1,045
1143,602;  497,409;   -0,091;   -0,318
1144,138;  328,773;   -2,636;    1,045
1144,673;  191,500;   -1,455;    1,409
1145,209;  265,500;   -1,909;   -0,318
1145,744;  192,864;   -0,727;    0,864
1146,279;  314,500;    1,818;   -0,136
1146,815;  236,955;    1,545;   -2,682
1147,350;  279,227;   -1,364;    0,045
1147,885;  194,591;   -0,818;   -1,318
1148,420;  190,318;   -2,273;    0,773
1148,955;  175,500;   -1,727;    1,864
1149,490;  197,773;   -0,909;   -1,591
1150,025;  180,955;    0,455;   -1,773
1150,560;  287,682;    1,091;   -0,955
1151,094;  263,773;    1,455;   -0,591
1151,629;  265,864;    1,636;    0,864
1152,164;  181,864;    1,364;    1,318
1152,698;  155,227;   -0,182;   -0,136
1153,233;  113,682;    0,091;   -0,682
1153,767;  159,864;   -3,000;   -2,318
1154,302;  203,591;   -1,455;    1,773
1154,836;  200,136;   -0,455;   -2,136
1155,371;  254,864;   -1,364;    3,682
1155,905;  209,409;   -0,636;    1,682
1156,439;  176,409;   -0,636;   -0,500
1156,973;  212,682;    0,364;    0,318
1157,507;  146,045;   -0,364;    0,682
1158,042;  161,682;   -0,727;    1,045
1158,576;  217,591;    0,182;    1,773
1159,110;  209,682;   -0,818;    2,409
1159,643;  178,864;    0,636;   -0,045
1160,177;  116,591;   -1,545;    1,500

