
Integration time [ms]:   0,040
Averaging Nr. [scans]: 11
Smoothing Nr. [pixels]: 0
Data measured with spectrometer [name]: 7318044SP
Wave   ;Sample   ;Dark     ;Reference
[nm]   ;[counts] ;[counts] ;[counts] 

186,757;   20,813;   31,551;    1,318
187,357;   57,137;   22,551;    0,955
187,958;   32,856;   15,460;   -1,591
188,558;   74,437;    8,915;   -1,227
189,159;   51,337;    6,733;   -4,500
189,759;   22,481;    7,278;   -3,591
190,360;   17,644;    2,824;   -2,136
190,960;   57,191;    2,915;   -4,136
191,560;   59,088;    3,189;   -6,591
192,161;  303,984;    4,372;   -3,500
192,761;  140,010;    4,010;   -3,227
193,361;  102,110;    1,556;   -3,773
193,962;  155,986;    2,010;   -2,682
194,562;   80,650;    1,189;   -3,955
195,162;  110,869;   -2,448;   -2,227
195,762;  266,893;   -3,176;   -0,045
196,362;  207,510;    1,370;   -2,500
196,963;   71,009;    2,006;   -0,864
197,563;  145,534;    1,551;   -0,955
198,163;   93,777;    0,096;   -0,682
198,763;  118,343;    1,733;   -0,500
199,363;  217,602;    3,096;   -0,500
199,963;  167,794;    0,369;    0,409
200,563;  150,087;    2,823;   -1,409
201,163;  130,488;    3,277;   -0,227
201,763;  216,731;    3,732;    0,318
202,363;  144,662;    1,459;    1,500
202,963;  256,550;    1,459;    1,045
203,563;  361,516;    0,277;    0,500
204,162;  212,995;    2,096;   -1,864
204,762;  200,981;    0,550;    0,591
205,362;  176,210;    3,004;    1,955
205,962;  272,209;    3,096;    1,955
206,562;  274,188;    1,823;    2,318
207,161;  248,196;   -0,087;    0,318
207,761;  393,402;    1,277;    2,409
208,361;  269,279;   -0,268;    1,409
208,960;  364,586;    0,459;    1,500
209,560;  438,544;    1,277;    1,591
210,160;  422,369;    0,550;    1,864
210,759;  388,159;    4,186;    1,227
211,359;  400,544;    1,459;    1,045
211,958;  648,660;    1,277;    2,045
212,558;  742,624;    1,732;    1,864
213,157;  583,157;    1,822;    1,500
213,757; 1026,852;    3,822;   -0,227
214,356;  728,788;    1,277;   -0,409
214,956; 1060,582;    3,095;    0,409
215,555;  689,428;    2,095;    2,136
216,154;  627,642;   -2,723;   -0,591
216,754;  638,721;    0,277;    0,773
217,353;  778,471;   -0,268;   -1,045
217,952;  635,249;   -0,178;    0,318
218,552;  868,892;    1,368;   -0,773
219,151;  786,178;    0,277;    0,955
219,750;  783,175;    0,004;   -0,227
220,349;  909,253;   -0,451;    1,045
220,948;  976,156;   -1,360;    1,136
221,548;  991,765;    0,913;    1,227
222,147; 1098,858;   -0,087;   -0,409
222,746; 1383,592;   -0,451;   -0,955
223,345; 1266,258;    0,731;    0,500
223,944; 1267,021;   -0,451;    0,773
224,543; 1455,306;    1,004;   -1,409
225,142; 1560,256;    0,094;    0,136
225,741; 1480,667;   -0,814;    1,045
226,340; 1499,639;   -0,451;   -0,955
226,939; 1937,573;   -0,996;   -0,136
227,538; 1887,045;   -0,360;   -0,773
228,137; 2034,583;   -0,814;    0,864
228,735; 2196,305;   -0,541;    1,227
229,334; 1954,747;   -0,905;   -0,227
229,933; 2320,097;    0,459;    0,591
230,532; 2447,570;    1,186;   -0,409
231,131; 2472,463;    1,732;    0,318
231,729; 2611,794;   -2,450;   -2,318
232,328; 2739,107;   -0,723;   -1,500
232,927; 2825,849;    1,004;   -0,500
233,525; 2951,498;    3,640;    0,045
234,124; 3154,356;    2,368;   -1,591
234,723; 3182,495;    0,913;   -1,045
235,321; 3326,559;    2,277;    0,136
235,920; 3546,982;    1,186;   -1,227
236,518; 3812,318;    3,459;    0,318
237,117; 4007,011;    0,004;   -0,227
237,715; 4162,176;    0,640;   -0,500
238,314; 4205,224;   -0,087;   -2,318
238,912; 4291,893;   -0,723;   -1,409
239,510; 4354,960;    0,459;   -1,227
240,109; 4536,833;    0,004;    3,773
240,707; 4592,558;   -0,996;    1,227
241,305; 4963,087;    0,550;    0,136
241,904; 5183,906;   -0,178;   -2,045
242,502; 5132,833;   -0,632;   -0,227
243,100; 5109,982;   -0,087;   -0,955
243,698; 5354,873;    0,732;    1,682
244,297; 5539,571;   -0,632;    0,682
244,895; 5391,456;   -0,269;   -2,318
245,493; 5695,029;    2,186;   -0,591
246,091; 5729,155;    1,368;   -1,318
246,689; 5712,876;    1,004;    0,591
247,287; 5912,019;    0,822;   -1,136
247,885; 6206,140;   -1,451;    1,227
248,483; 6351,436;    1,822;   -0,500
249,081; 6448,404;    0,185;    1,591
249,679; 6599,594;   -0,178;    1,682
250,277; 6898,825;   -1,723;    0,864
250,875; 6875,988;   -1,087;   -1,045
251,473; 6915,777;   -1,178;    0,500
252,071; 7109,890;    1,459;    1,045
252,669; 7295,021;   -1,814;    0,318
253,267; 7546,771;   -0,087;    0,773
253,864; 7480,383;   -0,360;    0,682
254,462; 7347,940;    1,640;    1,591
255,060; 7352,546;   -0,269;    1,318
255,658; 7686,385;    0,822;   -0,136
256,255; 8094,922;    0,186;   -2,045
256,853; 7960,412;   -0,269;    1,409
257,451; 7979,653;    0,822;    1,864
258,048; 8212,805;    1,822;    1,864
258,646; 7996,570;    1,731;   -1,045
259,243; 8187,049;   -0,087;    2,227
259,841; 8252,449;   -0,814;    0,318
260,438; 8150,659;   -0,087;    0,864
261,036; 8880,246;   -1,905;    1,409
261,633; 8760,124;   -0,087;    2,227
262,231; 8516,762;    2,731;   -0,045
262,828; 8615,386;   -0,905;    1,136
263,425; 8680,248;    0,913;   -0,591
264,023; 8945,455;    0,186;    0,045
264,620; 8484,922;   -0,360;   -0,318
265,217; 8842,027;   -2,087;    3,136
265,815; 8961,755;   -1,905;    2,136
266,412; 8740,948;    0,731;    0,136
267,009; 8794,284;   -1,451;    0,773
267,606; 8678,207;    0,822;   -0,955
268,203; 8655,484;   -0,269;   -0,591
268,801; 8966,684;    1,731;    0,591
269,398; 9267,463;   -0,360;    2,500
269,995; 9241,568;    0,277;    1,591
270,592; 9027,598;   -0,632;   -0,500
271,189; 9236,131;    0,186;    0,409
271,786; 9326,559;   -0,632;    1,227
272,383; 9159,804;   -1,087;    0,227
272,980; 9368,536;    0,277;    0,318
273,577; 9869,162;    0,004;    1,227
274,174; 9431,764;    0,822;    2,591
274,771; 9402,112;   -0,814;   -0,773
275,367; 9545,610;    2,277;    1,409
275,964; 9498,202;    0,731;   -0,500
276,561; 9614,857;    1,549;   -1,045
277,158; 9866,321;    0,095;   -1,773
277,755; 9949,949;    2,185;    0,409
278,351; 9347,473;   -0,451;   -1,500
278,948; 9664,456;   -0,815;    0,045
279,545; 9679,144;   -1,360;    2,318
280,141;10281,720;   -1,723;   -2,045
280,738;10152,918;   -0,451;   -0,136
281,334;10417,190;   -1,633;    0,591
281,931; 9803,629;   -0,087;   -1,318
282,528; 9899,813;    0,822;   -0,500
283,124;10628,394;   -1,087;   -0,500
283,721;10546,423;   -0,451;    1,409
284,317;10359,427;    0,185;    2,500
284,913;10917,403;   -1,360;    0,591
285,510;11090,857;    0,640;   -0,318
286,106;11116,201;   -2,269;   -0,955
286,703;10726,224;   -0,360;    1,955
287,299;10941,904;   -1,451;   -0,591
287,895;11145,318;    0,822;   -1,045
288,491;11733,099;    0,186;    2,136
289,088;11480,121;   -2,360;    2,409
289,684;11532,203;   -1,723;    1,500
290,280;11506,430;    0,368;    0,682
290,876;11582,793;    1,822;    5,500
291,472;11485,444;    1,276;    2,227
292,068;11593,850;    1,367;    0,227
292,665;11298,904;    2,095;    0,773
293,261;10923,416;    0,276;    2,136
293,857;11341,145;    2,913;    2,136
294,453;11264,454;    3,550;    0,955
295,049;11111,188;   -0,268;    1,955
295,644;11149,051;    0,095;    0,136
296,240;11061,189;   -0,905;   -0,136
296,836;11131,603;   -0,995;    0,318
297,432;11373,345;    1,096;   -0,500
298,028;11420,500;    0,732;    0,773
298,624;11848,439;    1,459;    1,864
299,220;12129,716;    2,368;    0,591
299,815;11806,580;    1,005;   -0,409
300,411;11586,642;    0,914;    1,773
301,007;11553,482;    1,368;    0,227
301,602;11614,219;   -0,541;   -2,318
302,198;11806,967;    0,732;   -0,773
302,794;12158,120;    1,187;   -0,500
303,389;12304,138;   -1,177;    1,045
303,985;12381,124;    0,550;    1,409
304,580;12309,296;    1,459;    1,591
305,176;12314,337;   -3,086;    0,136
305,771;12237,606;   -1,268;   -1,227
306,367;12050,979;    4,095;    0,136
306,962;12429,855;    0,641;    1,500
307,558;12153,972;   -0,450;    0,136
308,153;12096,707;    1,095;   -1,136
308,748;12341,548;   -0,814;    1,682
309,344;12320,284;   -0,632;   -1,318
309,939;12366,262;   -1,905;   -1,318
310,534;12667,046;   -0,086;   -1,682
311,130;12672,800;    0,459;   -2,500
311,725;12387,394;    1,004;   -0,500
312,320;12684,289;    2,459;    0,045
312,915;12518,779;    1,459;   -1,045
313,510;12595,796;    1,550;   -0,500
314,105;13105,233;    1,096;    1,409
314,700;12518,918;   -3,086;   -1,045
315,295;12120,478;   -0,904;    0,045
315,890;11702,207;    1,277;    0,864
316,485;12036,588;   -0,359;   -0,318
317,080;12188,503;   -3,086;    1,591
317,675;12767,023;    2,005;   -0,682
318,270;12130,088;    5,550;    3,318
318,865;12167,719;    3,278;    3,045
319,460;12006,095;   -0,904;    0,591
320,055;12223,269;   -0,541;   -1,227
320,650;11922,024;   -1,995;   -0,591
321,244;11993,935;   -0,177;   -1,409
321,839;12902,936;   -1,541;   -0,227
322,434;12810,380;   -1,086;   -1,591
323,029;12401,333;    1,732;    1,591
323,623;12206,366;    1,550;    0,773
324,218;11977,654;    2,368;    1,409
324,812;11877,944;    1,096;    1,591
325,407;11702,095;   -0,814;    2,045
326,002;11583,530;    0,277;   -0,409
326,596;11901,082;    0,914;    1,318
327,191;12146,136;    0,823;   -1,045
327,785;11709,082;   -0,813;   -0,227
328,379;11925,077;    1,368;    0,136
328,974;11750,201;    0,914;   -3,955
329,568;11966,801;    0,186;   -2,409
330,163;11740,832;    2,096;    1,045
330,757;12121,937;    2,459;    1,591
331,351;11442,449;    0,459;    0,682
331,945;11739,478;    0,914;    1,409
332,540;11342,727;   -1,723;   -0,591
333,134;11494,644;   -1,086;    0,773
333,728;11752,604;    0,005;    0,318
334,322;12098,007;   -1,177;   -0,864
334,916;11370,769;    0,277;    0,955
335,510;11683,832;   -0,450;   -0,136
336,105;11987,227;   -1,086;    1,591
336,699;11669,745;   -1,086;    0,591
337,293;11580,906;   -1,723;    0,318
337,887;11729,412;   -2,723;    1,955
338,481;11830,208;    0,459;    0,591
339,074;12002,945;   -0,359;    2,682
339,668;11839,337;   -1,632;    1,227
340,262;12072,410;    1,732;    3,227
340,856;11598,160;    1,822;   -0,682
341,450;10965,000;    1,004;    1,864
342,044;11874,179;    1,459;    0,136
342,637;11650,743;    0,913;   -2,136
343,231;11495,991;   -2,360;    0,682
343,825;11445,285;   -1,086;   -0,591
344,419;11410,696;   -1,995;    0,500
345,012;11175,674;    2,459;    4,045
345,606;11197,242;    4,641;    1,591
346,199;11044,741;   -1,813;   -0,227
346,793;10553,406;    1,914;    2,045
347,386;10789,724;   -0,813;   -1,136
347,980;10765,093;   -0,268;   -0,045
348,573;10561,874;    2,278;    0,409
349,167;10216,461;    5,278;    4,773
349,760;10583,687;    2,914;    2,682
350,354;10517,982;   -0,813;    1,136
350,947;10282,686;    1,096;    1,682
351,540; 9964,615;   -0,358;   -1,409
352,134; 9902,083;    1,096;    1,136
352,727; 9991,972;   -0,086;    1,136
353,320; 9799,236;    0,005;    0,591
353,913; 9630,577;   -1,995;    1,864
354,507; 9789,698;    0,823;   -1,227
355,100; 9796,480;    0,460;    0,864
355,693; 9058,167;    2,005;    2,409
356,286; 9081,622;    0,823;    2,773
356,879; 9436,153;   -0,722;    1,227
357,472; 9057,476;   -0,904;    1,500
358,065; 9251,802;   -0,722;    2,500
358,658; 9195,784;   -0,540;    2,318
359,251; 8809,978;   -1,631;   -0,591
359,844; 8300,875;   -1,904;   -1,136
360,437; 8484,369;   -2,995;    0,045
361,030; 8774,854;    1,369;   -0,682
361,623; 8334,270;    2,824;    0,318
362,215; 8375,998;   -0,086;    2,045
362,808; 8234,489;   -2,358;   -1,682
363,401; 8415,371;   -2,449;    0,136
363,994; 8146,830;   -0,631;   -1,500
364,586; 8073,233;    0,824;   -1,500
365,179; 8265,703;   -0,449;   -1,136
365,772; 7746,716;   -1,995;    2,045
366,364; 8072,159;    1,915;   -3,227
366,957; 8256,336;    2,279;   -0,045
367,549; 8256,387;    2,188;   -0,864
368,142; 7923,237;    1,825;   -1,500
368,734; 8140,423;    0,734;   -2,136
369,327; 8108,854;    1,643;   -0,500
369,919; 8013,169;   -1,538;    0,409
370,512; 7790,185;   -1,083;   -0,500
371,104; 7538,180;   -0,901;    1,591
371,696; 7697,781;    1,191;   -0,955
372,289; 7818,460;    0,373;    1,136
372,881; 7940,293;   -2,080;    1,318
373,473; 7867,824;   -2,170;    1,136
374,066; 7665,323;   -0,169;    0,500
374,658; 7534,496;    0,378;    1,136
375,250; 7912,826;    0,653;   -1,409
375,842; 7738,073;    0,473;   -0,045
376,434; 7599,419;   -0,435;   -0,409
377,026; 8199,909;    0,204;   -2,500
377,618; 8069,588;   -0,158;   -0,682
378,210; 7897,897;   -0,338;   -1,955
378,802; 7785,090;    0,754;   -0,591
379,394; 7739,515;    1,846;    0,682
379,986; 8342,439;    1,393;   -0,955
380,578; 8436,420;   -0,153;    0,773
381,170; 7768,672;   -0,972;    0,045
381,762; 7729,630;    0,755;    1,409
382,354; 7946,907;   -0,065;   -1,318
382,945; 8047,871;   -2,976;    0,318
383,537; 8214,287;   -2,705;   -1,955
384,129; 8244,807;   -2,160;   -1,136
384,721; 8404,300;   -0,252;    0,955
385,312; 8324,840;   -0,161;   -0,955
385,904; 8414,263;   -2,706;    1,591
386,496; 7796,240;   -0,979;    1,045
387,087; 7921,055;    1,022;    2,500
387,679; 7968,789;   -1,160;    0,045
388,270; 8111,651;    2,840;    2,045
388,862; 8206,598;    1,295;   -0,318
389,453; 8117,447;   -0,887;    1,045
390,045; 8383,505;   -0,705;   -2,682
390,636; 8336,129;    0,204;   -0,591
391,227; 8212,970;   -0,523;   -0,045
391,819; 8294,527;    0,204;    0,773
392,410; 8347,639;    1,022;    0,045
393,001; 8256,007;   -0,979;   -1,591
393,593; 8534,675;    1,930;   -0,045
394,184; 8386,747;    1,385;   -0,409
394,775; 8336,149;    1,839;    2,136
395,366; 8535,172;    1,385;    0,773
395,957; 8549,774;    0,113;    0,136
396,548; 8861,567;   -0,342;    2,682
397,139; 9178,326;   -2,433;    0,591
397,730; 8912,037;   -1,888;    0,955
398,321; 8960,727;   -1,252;    0,955
398,912; 8984,262;   -0,615;    0,136
399,503; 9078,373;   -3,524;   -1,409
400,094; 8467,138;    0,294;    1,682
400,685; 8348,190;   -0,433;    0,045
401,276; 8442,142;    0,930;   -0,955
401,867; 8765,529;   -0,888;    0,773
402,458; 8874,916;   -2,251;   -2,318
403,048; 8863,844;    1,112;    0,591
403,639; 8457,384;    0,840;    0,864
404,230; 8675,252;    2,476;    0,318
404,821; 8624,191;   -0,615;    0,045
405,411; 8748,968;    1,203;   -2,591
406,002; 8337,161;   -1,252;   -1,136
406,592; 8185,402;    2,294;    0,045
407,183; 8513,724;    0,566;   -1,500
407,774; 8473,613;    3,475;   -0,136
408,364; 8787,891;    0,930;    0,409
408,954; 8374,833;    0,384;    1,227
409,545; 8423,815;    1,021;    1,045
410,135; 7966,620;    1,293;    0,500
410,726; 8107,317;    1,838;    0,318
411,316; 8495,250;    0,111;    0,773
411,906; 8185,960;   -0,253;   -0,409
412,497; 7661,861;   -1,070;   -0,045
413,087; 8270,028;   -1,980;   -0,227
413,677; 8678,986;   -0,707;    3,864
414,267; 8526,020;    0,656;    1,409
414,857; 8523,875;   -2,980;    4,227
415,448; 8806,545;    0,839;    0,500
416,038; 8498,880;    0,020;   -0,591
416,628; 8481,968;   -0,889;    0,409
417,218; 7905,292;    0,565;    3,318
417,808; 8126,419;    0,202;   -0,409
418,398; 8655,458;    0,020;    2,682
418,988; 8669,274;    2,020;    0,591
419,578; 8899,262;   -0,707;    1,409
420,168; 9266,790;   -1,343;   -0,955
420,757; 8851,214;   -1,343;   -1,500
421,347; 8546,770;    0,111;   -0,227
421,937; 8707,330;    2,292;    1,409
422,527; 8631,135;    0,838;   -0,773
423,116; 8476,393;   -0,253;   -0,045
423,706; 8826,894;   -1,889;    0,318
424,296; 8810,609;    1,384;    0,682
424,885; 9234,336;   -0,071;   -3,045
425,475; 9509,699;    1,474;   -2,864
426,065; 9432,629;   -0,980;   -0,318
426,654; 9031,758;   -0,435;   -0,318
427,244; 9148,846;    0,020;    1,409
427,833; 8615,713;    1,383;   -0,500
428,423; 9111,478;   -0,526;    1,136
429,012; 9895,368;   -0,344;   -1,136
429,601; 9374,030;   -1,344;    0,136
430,191; 9605,542;    1,292;    4,318
430,780; 9239,367;   -0,344;   -0,409
431,369; 9147,308;    0,746;   -0,045
431,959; 9799,462;   -1,254;    0,500
432,548; 9576,785;   -1,163;   -0,045
433,137; 9728,857;   -1,254;   -1,318
433,726;10250,894;    0,292;    0,500
434,315; 9605,006;   -0,526;    2,409
434,905; 9718,916;   -1,254;    1,409
435,494; 9595,646;    0,746;    0,955
436,083;10056,619;   -0,981;   -0,955
436,672; 9951,600;    0,110;    0,500
437,261; 9497,973;    0,292;   -1,955
437,850; 9589,880;    1,383;    0,682
438,439; 9584,434;    3,291;    1,955
439,027; 9426,937;    3,655;    1,773
439,616; 9764,272;    2,927;    1,227
440,205; 9637,579;    0,200;   -2,136
440,794; 9724,665;    2,109;   -0,045
441,383; 9995,238;   -1,346;   -0,591
441,971; 9900,305;   -2,436;    0,591
442,560; 9747,754;    0,563;   -1,773
443,149; 9522,756;    0,379;   -1,318
443,737; 9676,971;   -0,074;   -2,318
444,326; 9917,681;    0,018;    0,318
444,915; 9981,684;   -1,982;    0,864
445,503;10362,527;   -2,891;   -0,318
446,092; 9609,484;    0,382;    2,136
446,680;10149,119;    0,382;    0,318
447,269;10352,778;   -0,346;   -0,318
447,857;10128,989;    0,018;   -1,773
448,445;10221,609;    0,563;    1,318
449,034;10492,423;   -1,528;   -1,136
449,622;10618,793;   -1,073;    3,500
450,210; 9805,779;    2,017;    2,227
450,799;10330,094;    0,290;   -0,591
451,387;10329,538;    1,381;   -0,591
451,975; 9964,199;    2,654;    0,864
452,563;10055,422;    3,472;    2,318
453,151;10077,506;   -0,528;   -1,227
453,739;10023,265;   -1,347;    0,136
454,328; 9846,973;    2,381;   -2,136
454,916; 9559,647;    2,562;   -0,136
455,504; 9747,316;    1,017;    1,227
456,092; 9950,271;    0,017;   -1,591
456,679; 9939,074;    1,472;    0,682
457,267; 9802,740;    4,017;    1,045
457,855;10012,417;    1,017;    1,409
458,443; 9805,652;   -0,165;    1,682
459,031; 9924,289;    0,108;    2,409
459,619;10392,178;   -1,801;    2,864
460,206;10540,810;    0,835;    2,045
460,794;10610,836;   -2,983;   -0,227
461,382;10821,503;   -0,529;   -0,864
461,970;10395,530;    1,198;    1,864
462,557;10456,823;   -0,711;   -0,682
463,145;10631,451;   -3,165;   -1,682
463,732;10776,644;    2,016;   -1,045
464,320;10755,730;   -0,075;   -3,045
464,907;10412,098;    2,743;   -0,773
465,495;10273,536;    0,743;   -1,227
466,082;10441,199;   -1,984;   -0,045
466,670;10371,314;   -2,529;    1,227
467,257;10771,374;   -1,711;    2,045
467,844;10943,006;   -0,075;    0,045
468,432;10961,698;    0,834;    3,500
469,019;10432,198;    0,925;   -1,773
469,606;10936,706;    0,470;    3,682
470,193;10710,436;   -1,439;    0,227
470,780;10272,320;   -2,075;    0,864
471,368;10669,824;   -1,257;   -0,773
471,955;10434,588;    1,379;   -0,682
472,542;10069,232;    0,652;   -1,136
473,129;10334,501;   -0,166;    0,136
473,716;10050,790;    1,470;    0,591
474,303;10255,348;    0,652;   -0,864
474,890;10559,572;   -1,439;   -0,500
475,477;10578,800;   -1,621;    0,409
476,064;10478,156;    1,106;   -1,591
476,650;10424,545;    0,288;    0,318
477,237;10247,181;   -0,258;    0,955
477,824;10406,341;   -1,076;    0,864
478,411;10444,135;   -1,894;   -0,318
478,997;10659,728;    0,560;   -0,773
479,584;10703,967;    1,196;   -0,409
480,171;11377,077;   -0,440;   -0,773
480,757;11061,999;    2,651;    0,773
481,344;11403,420;    0,469;    0,409
481,931;10889,148;    1,105;    1,045
482,517;11898,943;   -1,258;    0,318
483,104;12481,298;    1,106;    2,864
483,690;12801,589;   -1,804;    0,045
484,276;13199,845;   -0,895;    0,227
484,863;12974,403;    2,469;    1,136
485,449;13587,680;   -0,077;    0,318
486,035;13561,282;   -1,986;   -0,136
486,622;13989,974;   -0,895;    0,045
487,208;13963,662;    1,378;    1,500
487,794;13836,173;    0,741;    0,318
488,380;13912,312;    0,105;   -1,409
488,967;13985,819;   -1,168;   -0,409
489,553;14041,210;   -1,895;   -1,409
490,139;14246,553;    1,559;    0,773
490,725;13659,674;    0,741;   -0,227
491,311;13252,066;    3,287;    3,045
491,897;12574,357;   -0,986;    1,500
492,483;12372,528;    0,105;    1,227
493,069;12039,894;    3,923;    0,864
493,655;12057,314;    1,650;    0,682
494,241;11977,160;    1,377;   -0,955
494,826;12395,931;    0,287;   -1,045
495,412;11814,963;    2,559;   -0,682
495,998;12004,361;   -0,805;   -0,318
496,584;12146,588;    0,377;    1,045
497,169;12145,258;    1,014;   -0,682
497,755;12121,352;    0,650;    1,227
498,341;12659,888;    0,559;    0,318
498,926;12212,498;    1,832;    1,955
499,512;12427,187;    1,286;    2,955
500,097;12581,256;    0,195;   -0,318
500,683;12539,911;   -0,350;    2,136
501,268;12907,046;   -0,169;   -0,955
501,854;12599,177;   -0,169;    1,227
502,439;12539,527;   -0,624;   -1,773
503,024;12723,374;    0,195;    0,500
503,610;12838,843;   -0,078;   -0,682
504,195;12861,214;    0,558;    1,955
504,780;12960,343;    2,922;    1,227
505,366;12801,670;    3,013;    2,864
505,951;12512,645;    0,740;    1,045
506,536;12550,278;   -3,260;   -3,682
507,121;12540,874;    0,285;   -0,318
507,706;13090,619;    2,376;    1,045
508,291;13455,924;    2,649;    1,136
508,876;12943,287;   -0,988;    2,591
509,461;12369,070;   -0,169;   -0,773
510,046;12781,442;    0,194;    0,318
510,631;13037,249;   -0,351;   -0,773
511,216;12718,482;    2,467;   -0,500
511,801;13075,082;   -0,442;    2,591
512,386;13422,719;    0,740;    0,500
512,971;13331,706;   -2,988;    0,955
513,555;12875,468;   -0,897;   -1,500
514,140;13688,997;   -0,442;   -3,136
514,725;13683,794;   -0,715;   -1,136
515,309;13803,758;   -0,533;    0,318
515,894;13262,174;   -0,624;   -2,227
516,479;13726,961;   -0,624;   -0,955
517,063;13574,634;    0,376;    1,227
517,648;13711,113;    1,012;   -1,136
518,232;13375,713;   -0,261;   -1,409
518,817;13679,511;   -0,079;    1,682
519,401;13890,988;    2,194;    0,591
519,985;13416,849;    1,103;    1,136
520,570;13278,353;    0,830;   -1,955
521,154;13559,041;    2,102;    0,591
521,738;13720,210;   -2,352;    2,409
522,323;14323,187;   -0,170;    1,682
522,907;14065,250;    0,466;   -0,136
523,491;13775,450;    0,557;    0,955
524,075;13781,794;    2,284;    0,591
524,659;13884,724;    1,466;    0,591
525,243;13315,235;    1,739;    0,409
525,827;13562,676;    0,648;   -0,045
526,411;14403,360;   -1,989;   -0,136
526,995;14620,570;   -0,352;    1,409
527,579;14233,520;   -0,443;   -1,045
528,163;14581,739;    0,375;   -1,500
528,747;14442,436;    2,466;   -0,773
529,331;14788,075;   -0,080;   -1,409
529,915;14975,329;    1,738;    0,955
530,499;14943,478;   -0,807;    1,227
531,082;14650,962;   -0,534;    1,591
531,666;14057,110;    1,374;    0,773
532,250;14764,689;    1,284;    2,682
532,833;15124,866;    0,920;    2,773
533,417;14997,546;   -1,807;    0,864
534,001;14947,329;    1,647;   -0,318
534,584;15678,579;    0,374;    0,500
535,168;15525,840;    0,465;    1,409
535,751;15576,330;    0,647;    0,045
536,334;15020,839;   -0,898;   -0,409
536,918;15639,580;    0,011;    1,591
537,501;15743,574;   -0,899;    1,318
538,085;15734,707;   -0,444;    1,045
538,668;15904,414;    0,829;    2,409
539,251;16192,302;    1,829;    3,773
539,834;16215,915;    0,101;    0,773
540,418;16107,843;   -1,990;    4,318
541,001;16243,580;   -0,990;    1,773
541,584;16282,831;    2,101;    2,227
542,167;15969,354;    1,374;    2,955
542,750;16106,895;    1,919;   -0,773
543,333;15660,334;    0,555;    2,136
543,916;16469,052;    0,192;    2,500
544,499;17160,807;   -1,354;    0,227
545,082;17127,975;    1,374;    3,591
545,665;17258,595;    1,919;    1,500
546,248;17600,970;    1,010;   -0,318
546,830;17269,362;   -0,445;    1,955
547,413;17698,468;    1,010;   -0,773
547,996;18239,151;    0,555;    0,500
548,579;17959,857;    0,919;    0,955
549,161;17777,479;    1,828;    2,682
549,744;17579,458;   -0,809;    0,409
550,326;18087,561;   -0,809;   -1,136
550,909;17895,704;    2,737;    0,591
551,492;18285,343;   -0,263;    0,227
552,074;18035,694;   -0,173;   -1,318
552,657;18597,849;    2,373;    0,045
553,239;18367,152;   -0,173;   -0,773
553,821;18304,032;   -1,082;    1,045
554,404;17807,083;    1,282;    1,136
554,986;18177,883;    0,464;    1,045
555,568;18783,640;    1,191;   -0,955
556,151;17972,620;    1,191;   -0,227
556,733;18180,307;   -0,264;   -0,864
557,315;18634,500;    0,100;    0,500
557,897;18457,807;    0,554;   -0,500
558,479;18621,397;   -1,991;    1,318
559,061;18727,941;   -0,719;   -0,864
559,643;19086,461;   -0,264;    0,045
560,225;19443,808;    1,645;    2,864
560,807;19468,097;    0,918;    0,318
561,389;19011,556;    0,554;    2,318
561,971;19763,330;    0,463;    2,136
562,553;19548,161;   -1,628;    1,591
563,135;19664,176;   -0,537;    1,136
563,717;19286,955;    3,372;    1,136
564,298;19957,230;    3,645;   -0,045
564,880;19735,002;    0,645;   -1,409
565,462;19906,093;    0,645;    1,318
566,043;21078,017;   -0,446;    2,318
566,625;20575,738;    1,918;    1,227
567,207;20436,847;    1,099;    1,682
567,788;21589,331;   -1,264;    1,500
568,370;22374,541;    1,917;   -0,500
568,951;22256,614;    0,190;    0,227
569,533;23133,534;   -0,628;   -0,500
570,114;23609,286;   -0,446;    0,682
570,695;24103,702;   -0,174;   -1,318
571,277;24640,774;   -0,265;   -1,682
571,858;25346,201;    2,008;   -1,136
572,439;26305,363;    1,554;   -1,045
573,021;26466,623;    2,099;   -2,773
573,602;26982,182;   -1,265;    0,318
574,183;27989,864;   -2,083;    2,227
574,764;28132,359;   -1,629;    0,409
575,345;28693,516;    0,917;   -0,136
575,926;29357,184;   -0,356;    0,136
576,507;29318,539;    1,099;   -0,227
577,088;30465,780;    3,099;    1,682
577,669;30452,407;    0,735;    1,955
578,250;31127,864;    0,644;   -1,045
578,831;31889,582;   -1,356;   -2,227
579,412;32168,660;   -0,810;    0,955
579,993;33146,373;    1,008;    0,227
580,573;33472,502;   -0,629;   -0,955
581,154;32481,900;    0,735;   -0,591
581,735;33322,914;    0,644;    0,773
582,315;32842,187;   -0,629;    2,136
582,896;33144,268;   -0,174;    1,227
583,477;32631,049;    0,189;    1,227
584,057;32741,158;    0,553;    0,955
584,638;33045,464;    2,553;    2,318
585,218;33049,874;   -0,538;    2,682
585,799;33203,767;    0,281;   -0,227
586,379;33197,143;    0,372;    1,591
586,959;31929,656;    0,735;    0,318
587,540;31279,830;   -0,629;    2,227
588,120;30806,122;    1,007;   -0,045
588,700;29733,743;    2,553;    2,136
589,281;30007,710;    0,462;   -0,955
589,861;29979,415;    0,099;   -1,682
590,441;29764,086;    2,371;   -2,682
591,021;28716,276;   -0,265;   -2,591
591,601;29013,406;   -0,537;    0,500
592,181;28992,687;   -0,719;   -0,773
592,761;28282,513;    0,007;    1,409
593,341;28118,163;   -0,901;    0,045
593,921;28136,747;   -0,265;    1,591
594,501;28048,052;   -0,538;    1,318
595,081;27946,586;    0,917;   -0,318
595,661;28252,438;   -1,447;    0,955
596,240;28741,984;   -0,537;    0,136
596,820;28325,629;    0,372;    1,955
597,400;28608,998;    2,008;    0,773
597,980;28847,150;    2,008;    1,045
598,559;28859,252;    2,735;   -0,227
599,139;28524,561;   -0,174;   -1,227
599,718;28474,470;   -0,174;   -0,409
600,298;28720,739;    0,735;    0,682
600,877;28883,441;    2,917;    1,409
601,457;29208,268;    2,281;    1,136
602,036;29070,582;    0,190;    2,045
602,616;29318,689;    0,644;    1,682
603,195;29627,898;   -0,355;    3,500
603,774;29216,356;   -0,901;    2,045
604,354;29102,518;    0,826;   -0,500
604,933;28603,661;    0,463;    1,864
605,512;28730,049;    3,554;    0,591
606,091;28761,460;   -0,537;    3,773
606,671;29604,514;    0,281;    0,773
607,250;28599,435;    1,644;    3,136
607,829;28889,024;    2,372;    3,227
608,408;28739,143;    1,190;    2,591
608,987;27712,138;    1,281;    3,409
609,566;28032,717;   -1,265;   -2,500
610,145;28158,857;   -1,082;    0,682
610,723;28580,095;    4,372;    6,864
611,302;27806,720;   -0,446;    1,682
611,881;27309,223;    5,008;   11,227
612,460;28183,482;    1,645;    3,955
613,039;28624,848;   -0,082;    2,045
613,617;27288,717;    1,736;    4,773
614,196;27532,968;    1,099;    1,227
614,775;27869,531;    1,009;    2,409
615,353;27772,978;    0,736;    0,864
615,932;27494,873;    0,100;    2,409
616,510;28117,343;    0,554;    0,591
617,089;27576,404;    7,100;   17,591
617,667;27329,424;    2,372;    6,136
618,246;27217,475;   -1,537;    1,318
618,824;27362,194;   -3,355;   -0,955
619,402;26886,928;   -2,900;   -1,773
619,981;27395,031;   -0,173;   -1,045
620,559;27299,399;    0,009;    1,682
621,137;26782,858;   -0,718;    1,864
621,715;26821,823;   -1,173;   -0,682
622,293;26744,365;   -0,537;   -0,773
622,871;27262,864;   -0,718;    0,500
623,450;26795,634;    0,373;   -0,864
624,028;26620,698;    0,191;   -0,955
624,606;26286,028;   -1,718;    1,682
625,183;26645,548;   -1,536;   -1,136
625,761;26278,087;    1,009;    1,136
626,339;26560,026;    1,373;    2,591
626,917;26991,234;   -0,172;   -0,045
627,495;26996,739;   -0,354;    1,318
628,073;26452,771;   -0,263;    2,864
628,650;26142,793;    0,100;    2,136
629,228;26549,733;    0,373;    4,409
629,806;25965,987;    2,282;    1,136
630,383;26260,761;    1,464;   -0,318
630,961;26038,655;    2,555;   -0,955
631,539;25782,626;    2,464;    0,227
632,116;25054,019;   11,373;   15,409
632,694;25671,773;    2,555;    6,500
633,271;25973,340;    0,828;    2,682
633,848;25864,606;    1,828;    2,045
634,426;25982,429;   -1,081;    1,773
635,003;25066,817;    1,101;   -0,409
635,580;25381,247;    1,192;    3,682
636,158;25956,656;    3,737;    1,227
636,735;25888,372;    0,555;   -0,500
637,312;26026,695;   -0,809;   -0,682
637,889;26143,185;   -4,354;   -0,682
638,466;25574,302;   -3,990;   -0,409
639,043;25657,887;    2,101;   -1,136
639,620;25973,212;   -2,262;   -0,955
640,197;26280,218;    1,100;    1,682
640,774;26405,460;   -0,172;    1,136
641,351;26829,883;    0,737;    1,136
641,928;26164,944;   -0,627;    1,409
642,505;25811,368;    0,828;   -0,500
643,082;25973,155;   -1,718;    1,227
643,658;25019,034;   -0,718;    1,500
644,235;25784,821;    1,191;    2,500
644,812;26074,154;    1,918;    0,773
645,388;25800,305;   -0,991;    1,409
645,965;25915,456;   -0,809;    1,682
646,542;26009,789;   -1,445;   -0,227
647,118;25924,759;    1,009;   -0,955
647,695;26229,092;   -0,263;    1,136
648,271;26131,607;   -0,536;    0,500
648,848;26477,940;    0,736;    2,227
649,424;26266,454;    0,827;    1,318
650,000;26057,333;   -0,354;   -1,045
650,577;25851,211;   -0,627;   -0,955
651,153;26371,726;   -1,809;    0,955
651,729;27387,150;    1,191;    0,864
652,305;27545,301;    0,645;    2,773
652,881;31977,725;   -0,082;    1,136
653,458;39038,694;    1,100;    0,227
654,034;43171,845;    0,282;    1,591
654,610;44818,269;    0,554;    0,773
655,186;46214,148;    0,645;    3,045
655,762;45923,935;   -0,991;    0,409
656,338;45924,723;    0,100;    0,136
656,913;46871,692;   -0,082;    0,409
657,489;46236,116;    0,827;   -0,318
658,065;46197,358;   -0,173;   -1,591
658,641;46812,418;   -0,900;   -0,864
659,217;46200,115;   -0,991;    0,409
659,792;45519,903;    0,645;   -0,409
660,368;45811,963;   -2,173;   -0,682
660,944;45388,659;   -2,082;    1,227
661,519;40863,902;   -0,628;    0,409
662,095;34769,235;   -1,719;    0,591
662,670;29834,113;    1,281;   -0,136
663,246;28458,264;    1,009;   -0,409
663,821;27656,233;    0,281;    1,682
664,396;27166,839;    0,009;    1,864
664,972;27430,445;    0,009;   -0,500
665,547;27762,869;    1,372;    0,136
666,122;27737,111;   -1,082;    0,318
666,698;28028,717;   -0,173;    0,318
667,273;27364,504;   -0,173;    0,136
667,848;28230,564;    2,372;    1,500
668,423;27977,897;    2,190;    2,318
668,998;28524,867;    2,827;   -0,682
669,573;29113,200;   -3,264;   -1,500
670,148;28899,442;   -1,446;   -0,682
670,723;28785,775;   -1,810;    0,318
671,298;29154,290;    2,372;    1,045
671,873;29342,532;   -0,082;   -0,136
672,448;29250,774;    0,645;    0,136
673,023;29654,198;   -1,992;   -0,227
673,597;29969,349;    0,827;    2,318
674,172;29715,409;   -0,355;    0,318
674,747;29166,833;    0,372;   -1,045
675,321;29081,620;   -0,628;    3,318
675,896;28622,317;    0,645;    1,045
676,471;29685,559;    2,645;    1,591
677,045;29436,710;   -1,264;    0,682
677,620;29416,680;    0,190;    1,136
678,194;29805,376;   -2,628;    1,136
678,769;29353,527;   -1,083;   -0,318
679,343;29509,769;   -0,628;    1,773
679,917;29378,648;   -1,446;    1,955
680,492;29561,435;    0,826;    3,227
681,066;29664,859;    3,372;    0,409
681,640;29702,738;    1,463;   -0,318
682,214;30537,707;    0,735;    0,500
682,788;30068,495;   -1,356;   -0,773
683,363;30016,646;   -1,810;    1,682
683,937;29689,706;   -1,719;   -0,318
684,511;30463,130;    0,463;   -0,591
685,085;30175,099;   -1,356;    0,318
685,659;29945,887;   -2,538;    0,864
686,232;30165,220;   -0,356;   -0,318
686,806;29929,826;   -0,901;    0,409
687,380;30597,795;   -0,174;    0,591
687,954;30765,037;   -1,174;    1,136
688,528;30443,552;   -0,719;    1,955
689,101;31235,885;   -3,992;    1,045
689,675;30865,854;   -0,356;   -0,136
690,249;30247,551;   -0,719;    0,409
690,822;30503,884;    0,280;    0,318
691,396;30656,762;   -0,265;    1,227
691,969;30056,368;    1,280;    0,136
692,543;30465,064;   -0,447;   -1,955
693,116;30144,761;   -0,265;   -1,409
693,690;30100,003;    0,099;    0,500
694,263;30648,791;   -1,083;    2,955
694,836;30664,669;    1,371;    3,591
695,410;29302,002;   -0,265;    1,773
695,983;29746,153;    0,189;    0,591
696,556;29729,032;   -0,447;   -1,045
697,129;30104,183;   -0,356;    1,409
697,703;29806,789;   -1,629;    1,955
698,276;29758,940;    1,462;   -0,773
698,849;29518,545;    1,280;    1,409
699,422;29911,788;   -1,083;    0,591
699,995;29560,484;    0,007;    0,136
700,568;30096,817;   -0,629;    3,045
701,140;30142,696;   -2,811;    1,682
701,713;29886,938;   -0,174;    2,409
702,286;29602,816;   -0,538;    0,864
702,859;29499,331;   -0,902;   -0,591
703,432;28637,573;    0,825;    0,682
704,004;29149,360;    0,462;    0,318
704,577;29047,875;   -0,629;    0,136
705,150;29583,572;    0,189;    2,500
705,722;29365,632;   -0,356;   -3,227
706,295;29143,420;   -0,175;   -0,591
706,867;28951,753;   -0,175;    1,955
707,440;29193,086;   -1,720;   -0,409
708,012;29420,600;    0,462;    0,591
708,584;29344,206;    2,462;    0,227
709,157;29692,721;    1,825;   -0,591
709,729;29334,872;    2,280;    2,045
710,301;30174,023;    0,734;    0,045
710,874;30174,993;   -1,447;   -0,227
711,446;29125,053;    0,371;    0,864
712,018;28998,113;    0,098;    0,500
712,590;28735,628;   -1,993;    1,682
713,162;29218,779;    0,825;    1,318
713,734;29520,021;    1,825;   -2,045
714,306;29404,718;   -1,902;   -0,409
714,878;28063,142;    0,825;    0,864
715,450;28858,111;    0,643;    0,864
716,022;29130,535;    1,552;    1,318
716,593;29246,141;    0,189;    0,591
717,165;29238,746;   -3,175;   -1,227
717,737;28927,988;    0,280;    0,409
718,309;28556,321;    0,280;   -0,045
718,880;28584,473;   -0,539;   -1,409
719,452;28799,169;   -0,175;   -1,591
720,024;28309,684;    0,734;   -0,591
720,595;28948,108;   -2,902;    0,955
721,167;28453,441;    0,370;   -2,045
721,738;27987,501;   -0,812;   -1,045
722,309;27979,652;   -0,993;   -1,227
722,881;27745,076;   -1,357;    0,773
723,452;28366,955;   -2,630;    2,864
724,023;28521,742;   -0,721;    2,682
724,595;28338,348;    0,007;    0,682
725,166;28052,681;    0,007;   -0,409
725,737;27675,741;    1,734;    0,227
726,308;27795,892;   -0,266;    0,318
726,879;28228,134;   -1,630;    1,227
727,450;28089,286;    0,552;   -0,045
728,021;28029,437;    3,097;    0,682
728,592;27828,406;    0,734;    0,500
729,163;28172,375;    0,643;   -0,136
729,734;28171,072;    0,188;   -0,227
730,305;28541,223;    1,734;    0,136
730,876;28879,738;    0,188;    2,955
731,447;28599,071;    2,188;    2,682
732,017;28755,313;    1,097;    1,864
732,588;28252,737;    0,734;    1,227
733,159;28401,252;    0,643;   -1,045
733,729;28222,312;    0,006;    0,409
734,300;27461,009;    0,915;    0,864
734,870;27903,705;    3,461;    0,591
735,441;28480,038;    0,370;   -0,591
736,011;28214,826;    0,643;   -1,591
736,582;28219,341;   -0,812;    0,045
737,152;27679,855;   -1,721;   -2,045
737,722;28077,734;   -0,267;   -0,682
738,293;27777,158;   -1,358;    1,318
738,863;27666,309;    2,461;    2,318
739,433;27491,369;    5,279;    0,318
740,003;28154,429;   -0,994;   -0,682
740,573;27506,853;    2,097;   -1,591
741,143;27492,550;   -1,085;    0,318
741,713;28252,156;    1,188;   -0,500
742,283;27963,761;    0,915;    1,591
742,853;27784,549;    1,915;    1,591
743,423;27224,518;    1,733;    0,045
743,993;27330,215;   -0,358;    1,500
744,563;26690,730;    0,097;   -0,864
745,133;26676,699;   -0,812;   -0,864
745,702;27364,032;   -0,267;    1,773
746,272;26549,638;   -0,176;    0,591
746,842;26279,516;   -1,358;   -0,591
747,411;26783,758;   -0,267;   -0,318
747,981;26944,364;    0,097;    0,500
748,551;27014,424;    2,278;   -1,045
749,120;26878,303;    0,642;   -0,227
749,690;27212,999;   -0,631;    2,409
750,259;27562,696;    1,369;    2,955
750,828;27515,483;    1,551;   -1,955
751,398;27749,544;    1,278;   -0,045
751,967;27220,967;    2,187;    0,409
752,536;27471,573;   -0,813;   -0,227
753,105;27896,452;    0,096;    0,227
753,675;27701,785;    0,096;    1,773
754,244;27591,027;   -0,904;    3,591
754,813;27615,723;    0,551;    1,227
755,382;27235,784;    0,460;    0,955
755,951;27837,571;    1,551;    3,682
756,520;27246,904;   -0,085;    1,864
757,089;27899,419;    0,278;    0,500
757,658;28071,479;    1,733;    1,227
758,227;28082,176;    1,096;    0,318
758,795;28402,963;    1,187;    1,136
759,364;28581,023;   -0,086;   -0,591
759,933;27600,811;   -1,176;   -0,045
760,501;27167,962;    0,733;   -1,318
761,070;27600,750;   -2,813;   -1,409
761,639;28301,355;   -1,904;    1,318
762,207;27625,507;    1,551;   -0,955
762,776;27588,749;    0,369;    0,864
763,344;27509,263;   -0,995;    0,591
763,913;26667,051;   -0,722;    1,409
764,481;27378,929;    1,005;   -0,136
765,049;27167,899;   -1,358;    1,409
765,618;27062,323;   -0,086;    0,318
766,186;27168,383;    0,278;    0,136
766,754;27336,807;    0,005;    1,864
767,322;26341,231;   -1,995;    0,409
767,890;26383,291;   -0,722;   -1,773
768,459;26806,260;   -2,177;   -0,318
769,027;26911,411;    1,641;    3,409
769,595;25913,744;    3,278;    2,591
770,163;26364,259;    3,823;    2,955
770,730;26082,592;    0,732;   -0,136
771,298;25982,562;    0,187;   -1,409
771,866;26047,531;   -1,541;    4,955
772,434;26351,955;   -0,631;   -1,864
773,002;26489,379;    0,005;    0,682
773,569;26174,439;    0,914;    1,682
774,137;26012,590;   -0,268;   -0,045
774,705;26802,559;    0,278;   -0,136
775,272;26302,165;    0,641;    0,682
775,840;26023,862;   -0,177;    2,682
776,407;25526,468;    0,277;    1,955
776,975;25156,710;   -0,632;    0,318
777,542;26183,770;   -1,086;   -0,045
778,110;26017,557;   -1,268;   -0,045
778,677;25692,890;   -2,359;   -0,864
779,244;25400,860;    2,186;    1,045
779,812;25492,556;    1,823;    0,864
780,379;25406,798;    0,005;    1,136
780,946;25654,859;    1,005;   -0,773
781,513;26033,555;   -1,450;    0,318
782,080;25387,706;   -0,086;    2,864
782,647;26101,039;   -0,268;    3,045
783,214;25682,463;   -0,177;    3,864
783,781;25237,524;   -0,723;   -0,682
784,348;25112,493;   -0,632;    1,500
784,915;25588,826;   -3,177;    0,318
785,482;25355,432;    1,368;    2,591
786,049;25809,765;    0,186;   -0,591
786,615;25941,916;    0,277;   -0,955
787,182;25668,158;    0,186;   -0,682
787,749;25336,491;   -2,814;    1,409
788,315;24649,006;   -1,632;   -0,409
788,882;24973,520;    1,550;   -1,227
789,448;25672,944;    1,732;   -0,955
790,015;25698,823;    1,095;    3,227
790,581;25224,065;    1,459;    0,227
791,148;25154,307;    0,641;    1,045
791,714;25396,822;   -0,541;    3,136
792,280;25063,246;    0,186;    1,591
792,847;24616,306;    0,550;    2,500
793,413;25211,548;   -0,269;   -0,318
793,979;24685,154;    3,459;   -1,318
794,545;24778,032;    4,459;    2,682
795,111;24113,729;    2,186;    1,318
795,678;24333,516;    0,731;   -1,682
796,244;23986,213;    3,368;    0,136
796,810;24538,819;    1,731;    0,773
797,375;24242,152;    0,549;   -2,136
797,941;24242,939;   -0,541;    0,591
798,507;24478,727;   -0,451;   -0,955
799,073;24016,696;   -0,360;    0,591
799,639;24060,483;   -2,632;    3,136
800,205;24129,362;    0,095;    2,682
800,770;23684,604;    0,640;    1,773
801,336;23744,210;    1,368;   -0,955
801,901;23362,361;    4,549;    3,136
802,467;23958,512;   -0,542;    2,045
803,033;23308,936;   -0,087;    0,864
803,598;23542,087;    1,913;   -1,045
804,163;23541,420;    1,095;   -0,318
804,729;23452,117;   -0,178;    1,136
805,294;23890,995;    0,822;    2,227
805,859;23701,874;    0,731;   -0,409
806,425;23151,207;    1,186;    2,682
806,990;22823,540;    2,186;    4,318
807,555;23351,782;   -1,451;    2,591
808,120;23227,751;    0,822;   -0,409
808,685;23266,538;    0,185;   -2,500
809,250;22781,417;    0,004;   -0,500
809,815;23074,750;    1,913;    0,682
810,380;23569,174;   -0,269;    1,591
810,945;24116,325;   -1,087;    2,045
811,510;23307,658;    2,094;    1,591
812,075;23004,718;   -0,633;   -1,409
812,640;23061,233;    2,003;    1,409
813,204;23122,293;    0,822;   -0,227
813,769;23604,263;    2,094;   -0,045
814,334;23003,777;    0,458;    0,864
814,898;23090,292;    0,367;    0,591
815,463;22931,625;    1,276;   -0,773
816,027;22930,776;   -0,724;   -2,318
816,592;23014,746;    0,640;   -2,045
817,156;22562,988;    2,094;    1,136
817,721;22331,593;    4,276;    2,318
818,285;22252,926;    2,912;    1,500
818,849;22911,259;   -1,451;    1,682
819,414;22832,320;   -0,269;    2,955
819,978;22436,471;   -1,269;    1,773
820,542;23006,258;    2,003;    0,500
821,106;22729,773;   -0,815;    0,682
821,670;22865,924;   -0,815;    2,591
822,234;22521,985;   -0,270;    1,409
822,798;21868,136;    0,003;    0,500
823,362;21866,469;   -0,633;    4,227
823,926;21166,711;    0,094;    1,136
824,490;21366,589;   -0,997;   -0,682
825,054;21791,559;   -0,088;   -1,136
825,618;21436,801;   -1,542;   -1,500
826,181;21375,134;    0,458;   -1,318
826,745;21305,739;    1,367;   -1,045
827,309;21672,345;    1,185;    1,318
827,872;21067,860;    1,367;    0,955
828,436;22015,829;    1,185;   -0,773
828,999;22032,799;   -0,997;    1,227
829,563;20855,222;   -0,179;    1,136
830,126;20676,828;   -0,179;   -0,591
830,690;20645,707;   -1,997;    2,864
831,253;20209,403;   -0,543;    2,227
831,816;20332,464;   -1,906;    0,500
832,380;20251,615;    0,185;    0,864
832,943;20479,948;   -1,361;   -0,500
833,506;20011,462;    2,639;   -1,227
834,069;20810,068;    3,912;   -0,955
834,632;20837,947;    1,730;    1,318
835,195;20713,643;    1,003;    0,955
835,758;19932,794;   -0,997;    1,955
836,321;19783,036;    0,730;   -1,045
836,884;19920,006;   -0,725;   -0,955
837,447;19917,793;   -2,816;    1,773
838,010;20160,581;    0,366;    3,227
838,573;20462,187;   -1,179;    0,773
839,135;20413,883;   -1,361;   -0,955
839,698;19853,034;    1,275;    0,409
840,261;19348,276;    1,003;   -0,227
840,823;19229,428;   -0,543;    0,864
841,386;19524,942;   -0,452;   -2,409
841,948;19371,548;   -1,361;    1,773
842,511;19168,517;    0,912;    1,682
843,073;19311,760;    1,912;    0,227
843,636;19091,729;   -0,361;   -0,227
844,198;19007,062;    0,911;    0,591
844,760;19101,031;    1,093;    1,955
845,322;18733,364;    0,548;    1,136
845,885;19224,152;    0,730;    0,591
846,447;19661,121;   -1,998;    0,227
847,009;19211,181;    1,911;   -0,682
847,571;19570,060;    0,820;   -2,045
848,133;19622,484;   -1,089;   -1,864
848,695;19466,453;   -0,543;    1,409
849,257;18982,968;   -1,089;   -1,682
849,819;19154,755;   -0,998;   -0,409
850,381;19244,634;   -0,725;   -0,864
850,942;19617,330;    1,093;   -0,591
851,504;19595,572;    1,184;    0,227
852,066;19604,815;    1,275;   -1,591
852,628;19127,784;   -0,180;    1,955
853,189;18708,844;    1,638;    2,682
853,751;18791,450;   -0,907;    1,409
854,312;18559,965;   -0,453;   -1,682
854,874;19083,570;   -2,089;   -0,773
855,435;19655,903;   -0,907;   -1,682
855,997;19815,600;   -1,816;   -0,136
856,558;19063,297;    0,366;    1,773
857,119;19175,630;    0,820;    2,864
857,681;18848,963;    0,002;    0,318
858,242;18894,296;    1,911;   -2,136
858,803;19370,174;    0,456;   -0,773
859,364;19944,962;    0,184;   -4,773
859,925;19221,840;   -2,453;   -0,955
860,486;19134,264;   -0,453;   -0,955
861,047;18859,688;   -0,544;   -1,227
861,608;18646,475;   -1,089;   -0,773
862,169;18782,354;    0,638;   -0,045
862,730;18551,323;    0,456;    1,409
863,291;18827,747;   -0,635;   -0,500
863,852;19172,353;   -0,635;    1,955
864,412;18608,867;   -0,271;   -0,864
864,973;17180,564;   -0,089;    0,500
865,534;17044,079;   -1,726;    0,227
866,094;18588,503;    1,820;    0,227
866,655;18260,654;    1,274;    3,318
867,215;18528,623;    0,274;    0,136
867,776;18361,593;    0,547;   -0,136
868,336;18490,198;   -1,453;    0,136
868,897;17900,440;    2,638;    1,682
869,457;17627,773;    1,365;    0,318
870,017;17868,743;    0,547;   -1,227
870,578;18412,712;   -0,817;    0,773
871,138;18111,772;   -2,089;   -0,955
871,698;17653,378;   -0,817;   -1,318
872,258;17498,984;   -0,453;   -2,864
872,818;17857,862;    2,729;    0,045
873,378;17826,013;    0,638;    1,045
873,938;17417,528;    0,547;    0,500
874,498;17785,498;    0,274;   -1,955
875,058;17615,285;    2,183;    1,773
875,618;17487,891;    1,910;   -2,682
876,177;17436,496;    1,274;    0,136
876,737;17027,557;   -0,090;    1,955
877,297;17044,344;    0,183;    1,955
877,856;17013,859;   -0,362;    0,318
878,416;16988,647;    1,183;   -0,136
878,976;17202,252;   -1,817;    0,409
879,535;17386,313;    0,092;    3,136
880,095;17083,009;   -0,544;    0,045
880,654;17175,433;   -1,090;    1,318
881,213;17269,766;    2,456;    1,500
881,773;16925,463;    2,637;    2,682
882,332;17269,614;    3,365;    5,136
882,891;17158,401;    3,092;    2,136
883,451;17612,098;   -1,272;    1,682
884,010;17054,522;   -2,908;   -0,409
884,569;17105,582;   -0,999;   -0,045
885,128;17253,370;    2,819;   -1,864
885,687;17353,066;    4,455;    0,682
886,246;17048,490;    1,455;    2,136
886,805;16832,914;    2,455;    2,045
887,364;17124,338;   -0,999;   -0,500
887,922;17467,216;   -1,181;    0,045
888,481;16944,458;   -1,545;    0,591
889,040;17275,610;    1,183;    2,136
889,599;17995,488;    2,455;    1,409
890,157;18059,094;    1,455;    2,409
890,716;17687,336;   -0,090;    0,227
891,274;17516,942;    0,092;   -1,136
891,833;17980,275;    1,546;    0,864
892,391;17838,971;   -0,454;    0,500
892,950;17892,395;    1,819;   -0,773
893,508;18296,001;    0,455;   -0,409
894,067;17624,152;    0,637;    0,136
894,625;17568,576;   -0,636;   -1,500
895,183;17833,909;   -0,363;   -0,682
895,741;17684,151;    1,728;   -1,773
896,299;17510,484;   -0,545;   -2,409
896,858;17718,635;    0,819;   -1,591
897,416;17817,877;    2,728;   -1,318
897,974;17531,665;    1,819;    0,318
898,532;17624,543;    6,091;    2,682
899,089;17575,785;    2,091;   -0,682
899,647;17655,936;   -1,454;    1,318
900,205;17367,724;    1,182;    1,045
900,763;17560,875;   -0,454;    0,227
901,321;17549,390;    2,364;   -1,409
901,878;17002,814;   -1,000;   -0,773
902,436;16858,238;   -1,363;    1,318
902,994;17218,207;    4,728;    3,682
903,551;16683,358;    0,728;    0,409
904,109;17052,237;    0,182;   -1,409
904,666;16668,115;    2,455;    1,045
905,224;16511,084;    0,182;   -0,409
905,781;16203,054;    0,727;   -0,318
906,338;16283,478;   -1,363;    1,045
906,895;16227,265;    0,637;    2,045
907,453;16131,871;    1,727;    1,136
908,010;16167,567;   -0,909;    0,409
908,567;15840,082;    1,273;    0,591
909,124;15364,779;    0,364;   -1,500
909,681;15437,657;   -2,909;    0,682
910,238;15531,899;    0,636;   -1,318
910,795;15867,778;   -0,273;   -1,136
911,352;15514,323;   -2,909;   -2,682
911,909;14917,232;   -1,364;   -0,864
912,466;15423,778;   -3,182;    1,500
913,022;14951,232;   -1,636;    0,500
913,579;15296,141;   -0,909;    2,045
914,136;14960,232;    1,636;    0,955
914,692;15335,505;    0,091;   -1,227
915,249;14907,869;    1,455;    0,409
915,806;15167,687;    0,182;    1,955
916,362;14892,505;    1,909;    1,864
916,918;14434,687;    2,000;    1,045
917,475;14409,141;   -1,182;    0,955
918,031;14492,778;    3,364;   -0,045
918,587;13905,778;   -0,909;   -0,318
919,144;14141,414;   -2,273;    0,227
919,700;14482,232;    1,727;    0,773
920,256;14052,960;    0,727;    0,045
920,812;13656,505;   -0,727;   -1,045
921,368;13641,687;   -1,727;   -1,045
921,924;13296,687;    0,182;   -0,136
922,480;12870,414;   -0,545;    1,227
923,036;13496,778;    1,273;    1,955
923,592;13400,141;    0,455;    0,318
924,148;13329,778;    0,455;   -0,955
924,704;12610,323;   -1,364;   -0,409
925,259;12932,869;   -0,273;    0,591
925,815;12691,232;    1,455;    0,500
926,371;12172,596;    2,909;    1,409
926,926;12044,596;    2,091;    0,591
927,482;11685,687;   -1,364;    0,773
928,037;11561,687;    0,909;    2,045
928,593;11818,687;    1,636;    1,045
929,148;11631,414;   -1,818;   -1,500
929,704;11157,778;   -1,455;   -0,500
930,259;11412,687;    0,091;   -0,136
930,814;10444,869;   -0,818;    1,955
931,369;10107,051;    1,091;   -0,773
931,925;10017,960;   -0,091;    0,136
932,480; 9899,596;   -2,818;   -2,591
933,035; 9770,596;    0,545;   -0,318
933,590; 9513,323;    0,364;   -1,773
934,145; 9155,960;   -1,364;   -0,318
934,700; 9500,505;    0,455;   -0,591
935,255; 9278,960;   -0,091;    0,045
935,809; 8539,505;    3,182;    0,864
936,364; 7673,687;   -0,455;   -0,136
936,919; 7653,051;    0,455;   -1,773
937,474; 7548,414;    1,455;    0,136
938,028; 7286,869;   -1,636;    1,136
938,583; 6761,414;    1,818;    4,682
939,138; 7025,323;    2,091;    2,136
939,692; 6470,869;    1,636;   -1,136
940,247; 6161,596;   -0,727;   -1,045
940,801; 5707,869;   -0,636;    0,227
941,355; 5577,869;   -0,364;    2,591
941,910; 5230,687;   -0,273;   -2,136
942,464; 5334,960;   -0,818;   -0,318
943,018; 5118,778;    1,000;   -0,227
943,572; 5049,141;    2,545;   -0,682
944,126; 4440,232;    0,091;   -0,409
944,681; 4357,051;    3,091;    0,227
945,235; 4314,687;    1,000;   -0,591
945,789; 4262,505;    0,364;   -1,864
946,342; 4341,232;    0,455;   -0,591
946,896; 4169,505;   -2,273;    0,955
947,450; 3930,414;    1,545;   -0,227
948,004; 4100,778;    1,727;   -0,045
948,558; 4114,596;    0,273;   -0,864
949,111; 4044,232;   -0,273;   -0,318
949,665; 4080,687;    1,636;   -0,682
950,219; 3950,505;   -0,091;   -1,045
950,772; 4010,141;   -1,909;    1,864
951,326; 3918,960;    0,545;   -0,955
951,879; 4022,687;    0,727;   -2,318
952,433; 4045,778;    0,000;    2,227
952,986; 3878,778;    2,909;    0,682
953,539; 3852,232;   -0,273;    0,591
954,093; 3779,232;    0,545;   -1,318
954,646; 3894,505;    0,909;    1,318
955,199; 3707,869;    0,000;   -0,500
955,752; 3595,141;   -0,455;    1,773
956,305; 3562,505;   -0,091;    2,955
956,858; 3736,323;    0,818;   -0,318
957,411; 3895,960;   -0,545;    2,136
957,964; 3723,414;    1,364;    2,136
958,517; 3716,323;   -1,545;    3,136
959,070; 3536,505;   -0,455;    1,955
959,623; 3609,051;    1,091;    1,500
960,176; 3374,869;    1,727;    2,045
960,728; 3360,141;   -2,727;    0,773
961,281; 3407,232;    0,545;    0,500
961,834; 3454,232;   -0,909;    0,864
962,386; 3368,505;    1,727;    1,045
962,939; 3298,051;    0,364;   -0,318
963,491; 3454,232;    0,455;    1,136
964,043; 3328,141;    1,182;    2,409
964,596; 3433,596;   -1,000;    2,227
965,148; 3281,141;   -1,000;    1,773
965,700; 3203,323;    1,091;   -0,227
966,253; 3361,960;   -0,636;    0,318
966,805; 3183,051;   -2,273;    0,773
967,357; 3247,505;    1,091;   -1,500
967,909; 3202,687;    0,455;   -1,227
968,461; 3319,505;    0,545;    3,136
969,013; 3251,323;   -0,182;   -0,864
969,565; 3307,596;   -0,455;   -1,136
970,117; 3351,414;   -0,364;    1,045
970,669; 3224,323;    0,182;   -0,136
971,220; 3076,687;   -0,455;   -1,500
971,772; 3005,141;   -0,636;   -0,318
972,324; 3126,687;    0,091;   -0,500
972,876; 3066,051;    0,818;   -0,045
973,427; 3196,323;    1,909;   -1,045
973,979; 3146,505;   -0,727;   -2,500
974,530; 3208,323;    1,818;    1,318
975,082; 3207,778;   -0,545;    1,682
975,633; 3110,687;    1,091;    1,682
976,184; 3249,141;    0,909;    0,773
976,736; 3036,596;    0,091;    0,227
977,287; 2834,505;   -0,909;   -0,500
977,838; 3026,323;    0,909;   -0,318
978,389; 3077,414;   -1,000;   -0,500
978,940; 2947,232;    0,545;   -0,409
979,491; 2993,687;    0,091;   -0,500
980,042; 2943,141;    0,182;    3,045
980,593; 2998,505;   -2,545;    0,227
981,144; 3041,414;    2,545;   -0,500
981,695; 3002,687;    1,455;    1,500
982,246; 2962,960;   -0,273;    1,045
982,797; 3147,505;   -1,727;    0,682
983,347; 3231,596;    0,364;    0,591
983,898; 3393,051;    3,091;    0,409
984,449; 3224,141;    2,182;    0,773
984,999; 3136,141;    1,455;   -1,136
985,550; 2930,596;    0,182;   -0,318
986,100; 2977,778;   -0,455;   -0,318
986,651; 3003,051;   -0,818;    0,045
987,201; 2972,869;   -1,000;   -0,591
987,751; 3049,323;    0,818;    2,864
988,302; 3024,232;    2,636;    1,500
988,852; 3068,414;    0,455;   -1,136
989,402; 3101,141;    0,091;    0,682
989,952; 2996,960;   -2,182;    0,864
990,502; 3125,778;   -0,091;    0,682
991,052; 3105,778;   -0,727;    0,045
991,602; 2952,141;   -2,909;    1,318
992,152; 2956,323;    0,455;    0,682
992,702; 2943,505;    1,364;   -0,045
993,252; 2843,051;   -3,000;   -0,500
993,802; 2930,232;   -0,273;    1,318
994,352; 3186,141;   -1,545;    1,136
994,901; 3291,232;   -0,182;    3,227
995,451; 3192,960;   -0,182;    0,318
996,000; 3281,960;    1,636;    0,318
996,550; 2975,596;    2,273;    0,227
997,100; 2971,414;    1,273;   -0,045
997,649; 3276,596;    2,182;    0,955
998,198; 2902,141;    1,727;   -1,500
998,748; 3092,687;    1,091;   -2,318
999,297; 3028,960;   -0,818;   -0,409
999,846; 3072,596;    1,000;   -0,773
1000,395; 3120,960;   -0,818;    0,500
1000,945; 3043,323;    1,818;   -0,773
1001,494; 3143,141;    2,364;    0,682
1002,043; 3146,051;    4,636;    0,864
1002,592; 2979,778;   -1,091;    1,955
1003,141; 3134,960;   -0,455;   -0,682
1003,690; 2996,323;    1,727;    0,500
1004,238; 3085,960;    1,455;   -0,045
1004,787; 2709,687;    1,364;    1,227
1005,336; 2949,051;    0,364;    0,682
1005,885; 3113,323;    1,364;   -2,773
1006,433; 3245,323;    0,545;    0,955
1006,982; 3283,687;    0,455;    1,682
1007,531; 3204,596;   -1,818;   -0,227
1008,079; 3164,778;   -2,273;    0,500
1008,627; 3317,141;   -1,455;    0,409
1009,176; 3040,232;    0,000;   -1,955
1009,724; 3076,051;    1,091;    0,864
1010,273; 3129,051;    1,273;    0,500
1010,821; 3268,778;    0,091;    1,409
1011,369; 3004,596;   -1,364;    1,318
1011,917; 2958,778;   -1,364;   -0,591
1012,465; 3251,323;    1,273;   -1,591
1013,013; 3373,414;    2,091;   -1,682
1013,561; 3232,778;    0,455;   -0,773
1014,109; 3277,232;   -1,909;    1,682
1014,657; 3156,051;    0,364;    0,591
1015,205; 3306,687;    1,636;   -0,955
1015,753; 3350,051;   -0,545;   -1,409
1016,301; 3383,778;   -2,636;    3,045
1016,848; 3357,232;   -1,273;    0,409
1017,396; 3407,414;    2,545;    0,045
1017,944; 3522,778;    1,182;    1,864
1018,491; 3304,687;    0,273;    1,409
1019,039; 3430,141;    0,455;    0,591
1019,586; 3363,505;   -1,364;    1,682
1020,134; 3481,141;    0,455;    1,500
1020,681; 3482,869;    0,182;   -1,136
1021,228; 3510,596;    2,909;   -2,227
1021,776; 3325,596;    1,182;   -1,136
1022,323; 3533,414;    0,455;    0,773
1022,870; 3487,051;   -1,000;   -0,045
1023,417; 3382,232;    2,636;    1,864
1023,964; 3544,323;    2,636;    1,227
1024,511; 3366,778;    1,000;    0,773
1025,058; 3162,505;    3,182;   -0,045
1025,605; 3221,323;   -2,273;    3,136
1026,152; 3420,687;    1,727;   -0,591
1026,699; 3159,414;    1,818;    1,318
1027,245; 3311,414;   -0,091;    0,318
1027,792; 3547,778;   -1,000;    1,409
1028,339; 3416,051;    2,364;   -0,045
1028,885; 3290,596;    1,000;   -0,227
1029,432; 3224,232;   -0,091;    0,227
1029,978; 3259,778;   -1,000;   -1,591
1030,525; 3199,596;    1,000;    0,409
1031,071; 3448,051;   -1,364;    1,136
1031,618; 3520,141;    0,364;    1,682
1032,164; 3308,051;   -0,091;    3,045
1032,710; 3354,232;    1,636;   -1,500
1033,256; 3282,051;   -0,636;   -0,136
1033,803; 3296,414;   -0,545;    1,500
1034,349; 3004,232;   -1,364;    0,136
1034,895; 3170,505;    0,000;   -0,318
1035,441; 3132,505;   -0,818;    0,318
1035,987; 3129,414;   -2,364;   -0,682
1036,533; 3127,687;   -1,455;   -0,955
1037,078; 3299,323;    1,455;    1,682
1037,624; 3132,505;    2,455;   -0,955
1038,170; 3168,323;    0,455;   -0,318
1038,716; 3053,505;    1,636;   -0,409
1039,261; 2992,141;   -2,273;   -0,773
1039,807; 2940,051;   -0,091;    3,409
1040,352; 2989,141;   -1,909;   -0,318
1040,898; 3038,051;   -1,545;   -0,682
1041,443; 2958,505;   -1,455;   -2,591
1041,989; 2944,141;    1,091;    1,591
1042,534; 2845,960;   -0,364;    2,591
1043,079; 2984,051;    2,909;    0,955
1043,625; 2760,141;    1,818;    0,500
1044,170; 2802,869;   -1,364;    1,045
1044,715; 3047,596;    2,455;    0,955
1045,260; 2882,778;    2,182;   -0,955
1045,805; 2927,869;    1,182;   -0,591
1046,350; 2859,596;    1,364;   -0,409
1046,895; 2802,869;    2,909;    1,591
1047,440; 2744,596;    5,364;    0,409
1047,985; 2658,232;    2,818;   -0,955
1048,530; 2586,960;    1,545;    1,227
1049,074; 2652,869;    0,000;    0,318
1049,619; 2630,960;   -1,364;    1,955
1050,164; 2415,687;    0,455;    0,227
1050,708; 2455,505;   -0,455;    0,045
1051,253; 2794,778;    1,273;   -2,227
1051,797; 2510,414;    0,818;   -1,318
1052,342; 2565,960;   -1,182;    1,045
1052,886; 2550,051;    0,364;   -1,409
1053,430; 2417,505;   -1,364;    0,136
1053,975; 2430,232;   -0,818;   -0,318
1054,519; 2410,596;   -0,727;    3,227
1055,063; 2409,051;    0,909;    1,318
1055,607; 2302,051;   -0,182;    0,227
1056,151; 2320,960;    2,909;    1,682
1056,695; 2258,414;    2,273;   -1,136
1057,239; 2313,232;   -1,727;   -0,682
1057,783; 2321,323;    0,818;   -1,500
1058,327; 2253,323;    0,000;    1,409
1058,871; 2486,323;   -0,545;    1,318
1059,415; 2190,596;   -0,818;   -0,045
1059,958; 2431,051;    1,455;    2,591
1060,502; 2167,505;   -1,000;   -0,773
1061,046; 2085,232;    0,364;   -0,955
1061,589; 2053,505;   -3,000;   -1,136
1062,133; 1947,505;   -1,273;    1,864
1062,676; 1876,141;    1,182;    0,864
1063,220; 1871,051;    1,091;    0,500
1063,763; 1887,960;    0,909;    1,136
1064,306; 1977,414;   -0,909;    1,864
1064,849; 1870,869;   -0,909;    0,591
1065,393; 1877,051;    2,000;   -1,500
1065,936; 1981,414;    0,182;   -0,409
1066,479; 1873,232;   -1,455;    1,318
1067,022; 1900,051;   -0,273;   -0,227
1067,565; 1774,505;   -0,091;   -1,318
1068,108; 1807,869;    0,727;   -0,591
1068,651; 1793,323;   -0,636;    1,409
1069,194; 1731,232;   -0,455;   -1,682
1069,736; 1714,960;   -1,273;    0,955
1070,279; 1686,141;   -1,364;   -0,500
1070,822; 1731,960;   -2,000;   -0,318
1071,364; 1809,323;   -0,364;    1,318
1071,907; 1655,505;   -0,727;    3,227
1072,450; 1563,778;    0,000;   -0,045
1072,992; 1553,505;   -0,273;    3,136
1073,535; 1692,687;    2,091;    2,136
1074,077; 1469,505;   -0,727;    2,045
1074,619; 1434,051;   -1,364;    0,591
1075,161; 1458,687;   -1,091;    1,500
1075,704; 1631,232;    1,545;    1,227
1076,246; 1446,414;   -0,182;    0,682
1076,788; 1381,778;   -0,364;    1,773
1077,330; 1473,869;    1,273;    2,136
1077,872; 1427,596;    0,909;    0,955
1078,414; 1628,051;    2,727;    0,773
1078,956; 1368,778;    1,273;   -0,227
1079,498; 1614,051;    1,636;    0,318
1080,040; 1340,232;    1,909;   -1,318
1080,581; 1274,051;    1,636;   -0,318
1081,123; 1207,778;    0,091;   -0,773
1081,665; 1248,414;   -1,182;   -0,955
1082,206; 1545,505;    1,364;   -0,500
1082,748; 1403,505;    0,727;    2,045
1083,289; 1285,960;   -2,000;    1,318
1083,831; 1188,232;   -0,545;    0,227
1084,372; 1221,051;    0,000;    0,591
1084,913; 1211,960;    1,091;    0,864
1085,455; 1198,596;   -1,909;   -2,045
1085,996; 1168,414;   -2,273;    0,136
1086,537; 1175,596;   -0,091;    0,864
1087,078; 1214,414;   -0,909;   -2,136
1087,619; 1264,596;   -1,273;    0,227
1088,160; 1172,505;    0,000;    1,318
1088,701; 1175,505;   -1,091;    0,682
1089,242; 1097,051;    1,364;   -2,227
1089,783; 1194,505;   -0,273;    1,409
1090,324; 1155,687;    0,455;    0,682
1090,865; 1036,596;    2,727;   -0,409
1091,405; 1017,232;    0,727;    2,227
1091,946; 1036,141;    0,182;   -0,955
1092,487;  969,505;    0,818;   -1,409
1093,027; 1126,414;   -1,364;   -1,500
1093,568;  964,960;   -0,364;    1,227
1094,108; 1062,687;    0,273;    1,773
1094,649; 1017,596;   -1,182;    0,136
1095,189;  964,232;   -0,636;   -0,682
1095,729;  895,596;   -0,091;    0,955
1096,269;  901,051;    0,727;   -0,955
1096,810; 1220,051;   -1,364;    0,500
1097,350; 1049,141;    1,364;   -0,773
1097,890;  942,687;    0,364;    1,227
1098,430; 1192,687;    2,364;    2,864
1098,970; 1067,051;    2,182;    1,682
1099,510;  938,414;    0,545;   -2,318
1100,050;  859,778;    1,000;   -1,591
1100,589;  825,232;   -0,727;   -0,318
1101,129;  943,141;    0,818;   -0,955
1101,669; 1101,960;    1,727;    2,136
1102,209;  920,414;   -0,091;    2,227
1102,748;  865,687;    0,000;    0,955
1103,288;  862,505;    1,273;   -1,227
1103,827;  889,596;    3,091;   -2,227
1104,367;  769,687;   -0,091;   -2,409
1104,906;  736,051;    1,364;   -1,136
1105,445;  796,051;    0,636;   -1,136
1105,985;  735,141;   -0,727;    1,500
1106,524;  789,687;   -1,727;   -0,682
1107,063;  764,869;   -2,727;    1,409
1107,602;  741,414;   -1,909;   -1,500
1108,141;  660,596;   -1,909;    1,500
1108,680;  747,232;   -3,455;   -0,591
1109,219;  695,778;   -0,909;   -0,500
1109,758;  698,687;    0,455;    0,682
1110,297;  658,505;    1,000;   -0,682
1110,836;  612,596;   -0,727;    0,955
1111,375;  784,414;   -2,545;    0,409
1111,913;  790,596;   -1,000;    0,773
1112,452;  729,505;   -0,273;    0,136
1112,991;  623,323;    1,091;    1,955
1113,529;  571,232;   -0,818;   -0,045
1114,068;  629,596;   -0,273;    2,955
1114,606;  546,141;   -0,364;   -0,955
1115,144;  696,414;   -1,273;    1,045
1115,683;  641,687;   -0,727;    0,318
1116,221;  689,141;   -0,455;   -0,864
1116,759;  600,778;    0,636;   -0,864
1117,297;  785,323;    0,000;    1,864
1117,836;  603,505;   -2,182;   -1,227
1118,374;  596,960;    0,182;   -0,682
1118,912;  542,414;    0,909;    2,682
1119,450;  542,687;    1,000;    0,864
1119,988;  584,505;    1,545;    2,136
1120,525; 1038,596;    5,091;    3,318
1121,063;  740,687;    1,182;    1,864
1121,601;  545,414;   -0,909;   -1,227
1122,139;  498,960;   -0,727;   -2,045
1122,676;  701,596;   -0,727;    2,773
1123,214;  625,596;   -1,182;    4,409
1123,751;  440,323;    1,727;    2,227
1124,289;  571,414;   -0,091;   -0,409
1124,826;  443,051;    1,727;    0,227
1125,364;  365,687;    1,727;   -0,955
1125,901;  545,596;    1,182;    1,227
1126,438;  667,596;    0,818;    0,955
1126,975;  389,869;   -0,727;   -0,773
1127,513;  458,869;    0,273;    2,136
1128,050;  362,596;    1,636;   -0,682
1128,587;  468,687;    2,000;   -0,227
1129,124;  503,778;    0,091;    1,318
1129,661;  375,596;    0,273;    0,227
1130,198;  526,687;    1,636;    0,773
1130,734;  478,051;    0,182;    1,409
1131,271;  336,687;   -0,909;    0,864
1131,808;  509,596;    2,909;    3,045
1132,345;  382,323;    1,545;    0,318
1132,881;  259,778;   -1,545;   -1,864
1133,418;  392,687;    0,727;   -1,136
1133,954;  334,505;    2,455;   -2,682
1134,491;  408,414;    1,364;   -0,773
1135,027;  304,960;    2,364;    0,864
1135,564;  401,141;    0,273;    2,955
1136,100;  372,414;    0,364;    2,136
1136,636;  259,869;   -1,273;   -1,045
1137,172;  361,596;    0,000;   -1,045
1137,708;  286,960;   -1,364;   -1,045
1138,245;  290,505;    1,273;   -1,227
1138,781;  243,141;    1,091;   -3,318
1139,317;  316,232;    1,273;   -1,409
1139,852;  288,687;    3,091;    0,136
1140,388;  414,778;   -1,182;   -0,409
1140,924;  300,687;   -1,091;   -2,227
1141,460;  229,960;   -1,636;    0,136
1141,996;  165,505;   -1,364;    2,682
1142,531;  221,869;    1,364;    3,318
1143,067;  430,778;    1,182;    1,045
1143,602;  485,323;   -0,091;   -0,318
1144,138;  330,505;   -2,636;    1,045
1144,673;  193,232;   -1,455;    1,409
1145,209;  268,869;   -1,909;   -0,318
1145,744;  191,232;   -0,727;    0,864
1146,279;  323,687;    1,818;   -0,136
1146,815;  236,051;    1,545;   -2,682
1147,350;  273,596;   -1,364;    0,045
1147,885;  198,051;   -0,818;   -1,318
1148,420;  187,323;   -2,273;    0,773
1148,955;  165,596;   -1,727;    1,864
1149,490;  193,778;   -0,909;   -1,591
1150,025;  185,414;    0,455;   -1,773
1150,560;  289,687;    1,091;   -0,955
1151,094;  255,505;    1,455;   -0,591
1151,629;  261,687;    1,636;    0,864
1152,164;  182,505;    1,364;    1,318
1152,698;  144,960;   -0,182;   -0,136
1153,233;  113,596;    0,091;   -0,682
1153,767;  160,414;   -3,000;   -2,318
1154,302;  213,051;   -1,455;    1,773
1154,836;  212,414;   -0,455;   -2,136
1155,371;  265,414;   -1,364;    3,682
1155,905;  214,414;   -0,636;    1,682
1156,439;  175,232;   -0,636;   -0,500
1156,973;  205,869;    0,364;    0,318
1157,507;  149,869;   -0,364;    0,682
1158,042;  171,414;   -0,727;    1,045
1158,576;  210,687;    0,182;    1,773
1159,110;  206,596;   -0,818;    2,409
1159,643;  180,414;    0,636;   -0,045
1160,177;  121,687;   -1,545;    1,500

