
Integration time [ms]:   0,040
Averaging Nr. [scans]: 11
Smoothing Nr. [pixels]: 0
Data measured with spectrometer [name]: 7318044SP
Wave   ;Sample   ;Dark     ;Reference
[nm]   ;[counts] ;[counts] ;[counts] 

186,757;   20,193;   31,551;    1,318
187,357;   51,657;   22,551;    0,955
187,958;   28,448;   15,460;   -1,591
188,558;   69,101;    8,915;   -1,227
189,159;   39,114;    6,733;   -4,500
189,759;    5,992;    7,278;   -3,591
190,360;   14,290;    2,824;   -2,136
190,960;   37,982;    2,915;   -4,136
191,560;   51,207;    3,189;   -6,591
192,161;  270,529;    4,372;   -3,500
192,761;  127,012;    4,010;   -3,227
193,361;   84,391;    1,556;   -3,773
193,962;  139,236;    2,010;   -2,682
194,562;   63,290;    1,189;   -3,955
195,162;   79,937;   -2,448;   -2,227
195,762;  223,014;   -3,176;   -0,045
196,362;  172,842;    1,370;   -2,500
196,963;   47,977;    2,006;   -0,864
197,563;  116,920;    1,551;   -0,955
198,163;   74,797;    0,096;   -0,682
198,763;   89,541;    1,733;   -0,500
199,363;  167,785;    3,096;   -0,500
199,963;  133,356;    0,369;    0,409
200,563;  115,852;    2,823;   -1,409
201,163;   95,077;    3,277;   -0,227
201,763;  170,528;    3,732;    0,318
202,363;  115,231;    1,459;    1,500
202,963;  203,851;    1,459;    1,045
203,563;  305,509;    0,277;    0,500
204,162;  170,149;    2,096;   -1,864
204,762;  157,456;    0,550;    0,591
205,362;  128,230;    3,004;    1,955
205,962;  210,076;    3,096;    1,955
206,562;  198,980;    1,823;    2,318
207,161;  173,343;   -0,087;    0,318
207,761;  324,284;    1,277;    2,409
208,361;  209,423;   -0,268;    1,409
208,960;  299,037;    0,459;    1,500
209,560;  355,822;    1,277;    1,591
210,160;  341,720;    0,550;    1,864
210,759;  300,379;    4,186;    1,227
211,359;  305,561;    1,459;    1,045
211,958;  550,358;    1,277;    2,045
212,558;  615,354;    1,732;    1,864
213,157;  464,455;    1,822;    1,500
213,757;  865,657;    3,822;   -0,227
214,356;  577,947;    1,277;   -0,409
214,956;  885,984;    3,095;    0,409
215,555;  543,479;    2,095;    2,136
216,154;  486,418;   -2,723;   -0,591
216,754;  489,053;    0,277;    0,773
217,353;  595,006;   -0,268;   -1,045
217,952;  463,374;   -0,178;    0,318
218,552;  679,011;    1,368;   -0,773
219,151;  562,506;    0,277;    0,955
219,750;  567,764;    0,004;   -0,227
220,349;  635,803;   -0,451;    1,045
220,948;  737,541;   -1,360;    1,136
221,548;  677,370;    0,913;    1,227
222,147;  786,669;   -0,087;   -0,409
222,746; 1055,903;   -0,451;   -0,955
223,345;  908,725;    0,731;    0,500
223,944;  900,588;   -0,451;    0,773
224,543; 1011,669;    1,004;   -1,409
225,142; 1128,256;    0,094;    0,136
225,741; 1025,745;   -0,814;    1,045
226,340; 1027,234;   -0,451;   -0,955
226,939; 1377,395;   -0,996;   -0,136
227,538; 1219,137;   -0,360;   -0,773
228,137; 1410,176;   -0,814;    0,864
228,735; 1423,539;   -0,541;    1,227
229,334; 1198,901;   -0,905;   -0,227
229,933; 1555,964;    0,459;    0,591
230,532; 1636,227;    1,186;   -0,409
231,131; 1688,160;    1,732;    0,318
231,729; 1678,687;   -2,450;   -2,318
232,328; 1654,927;   -0,723;   -1,500
232,927; 1670,670;    1,004;   -0,500
233,525; 1709,462;    3,640;    0,045
234,124; 1872,197;    2,368;   -1,591
234,723; 1852,476;    0,913;   -1,045
235,321; 1933,821;    2,277;    0,136
235,920; 2077,597;    1,186;   -1,227
236,518; 2317,579;    3,459;    0,318
237,117; 2350,249;    0,004;   -0,227
237,715; 2459,417;    0,640;   -0,500
238,314; 2520,048;   -0,087;   -2,318
238,912; 2682,715;   -0,723;   -1,409
239,510; 2658,439;    0,459;   -1,227
240,109; 2837,967;    0,004;    3,773
240,707; 2856,759;   -0,996;    1,227
241,305; 3067,886;    0,550;    0,136
241,904; 3285,250;   -0,178;   -2,045
242,502; 3339,161;   -0,632;   -0,227
243,100; 3288,961;   -0,087;   -0,955
243,698; 3502,946;    0,732;    1,682
244,297; 3677,902;   -0,632;    0,682
244,895; 3592,365;   -0,269;   -2,318
245,493; 3889,888;    2,186;   -0,591
246,091; 3914,309;    1,368;   -1,318
246,689; 3893,217;    1,004;    0,591
247,287; 4048,550;    0,822;   -1,136
247,885; 4331,111;   -1,451;    1,227
248,483; 4451,064;    1,822;   -0,500
249,081; 4573,459;    0,185;    1,591
249,679; 4705,305;   -0,178;    1,682
250,277; 4930,378;   -1,723;    0,864
250,875; 4916,962;   -1,087;   -1,045
251,473; 4987,372;   -1,178;    0,500
252,071; 5185,882;    1,459;    1,045
252,669; 5319,043;   -1,814;    0,318
253,267; 5517,524;   -0,087;    0,773
253,864; 5490,277;   -0,360;    0,682
254,462; 5456,200;    1,640;    1,591
255,060; 5388,741;   -0,269;    1,318
255,658; 5633,406;    0,822;   -0,136
256,255; 6010,094;    0,186;   -2,045
256,853; 5926,293;   -0,269;    1,409
257,451; 5921,341;    0,822;    1,864
258,048; 6250,883;    1,822;    1,864
258,646; 5993,017;    1,731;   -1,045
259,243; 6178,384;   -0,087;    2,227
259,841; 6220,377;   -0,814;    0,318
260,438; 6155,445;   -0,087;    0,864
261,036; 6742,024;   -1,905;    1,409
261,633; 6700,499;   -0,087;    2,227
262,231; 6509,162;    2,731;   -0,045
262,828; 6583,928;   -0,905;    1,136
263,425; 6608,063;    0,913;   -0,591
264,023; 6872,014;    0,186;    0,045
264,620; 6453,197;   -0,360;   -0,318
265,217; 6768,680;   -2,087;    3,136
265,815; 6899,276;   -1,905;    2,136
266,412; 6716,681;    0,731;    0,136
267,009; 6759,795;   -1,451;    0,773
267,606; 6714,017;    0,822;   -0,955
268,203; 6662,604;   -0,269;   -0,591
268,801; 6898,345;    1,731;    0,591
269,398; 7185,235;   -0,360;    2,500
269,995; 7152,564;    0,277;    1,591
270,592; 6926,477;   -0,632;   -0,500
271,189; 7089,175;    0,186;    0,409
271,786; 7206,549;   -0,632;    1,227
272,383; 7123,571;   -1,087;    0,227
272,980; 7237,402;    0,277;    0,318
273,577; 7639,286;    0,004;    1,227
274,174; 7223,138;    0,822;    2,591
274,771; 7213,224;   -0,814;   -0,773
275,367; 7384,467;    2,277;    1,409
275,964; 7354,083;    0,731;   -0,500
276,561; 7445,772;    1,549;   -1,045
277,158; 7629,396;    0,095;   -1,773
277,755; 7760,187;    2,185;    0,409
278,351; 7232,743;   -0,451;   -1,500
278,948; 7546,155;   -0,815;    0,045
279,545; 7571,994;   -1,360;    2,318
280,141; 8196,156;   -1,723;   -2,045
280,738; 8052,223;   -0,451;   -0,136
281,334; 8263,689;   -1,633;    0,591
281,931; 7742,322;   -0,087;   -1,318
282,528; 7914,712;    0,822;   -0,500
283,124; 8569,836;   -1,087;   -0,500
283,721; 8473,864;   -0,451;    1,409
284,317; 8329,020;    0,185;    2,500
284,913; 8863,289;   -1,360;    0,591
285,510; 9079,744;    0,640;   -0,318
286,106; 9126,885;   -2,269;   -0,955
286,703; 8759,759;   -0,360;    1,955
287,299; 9011,377;   -1,451;   -0,591
287,895; 9234,228;    0,822;   -1,045
288,491; 9788,144;    0,186;    2,136
289,088; 9571,939;   -2,360;    2,409
289,684; 9649,134;   -1,723;    1,500
290,280; 9653,336;    0,368;    0,682
290,876; 9772,984;    1,822;    5,500
291,472; 9683,608;    1,276;    2,227
292,068; 9802,796;    1,367;    0,227
292,665; 9559,467;    2,095;    0,773
293,261; 9261,176;    0,276;    2,136
293,857; 9611,698;    2,913;    2,136
294,453; 9610,327;    3,550;    0,955
295,049; 9485,071;   -0,268;    1,955
295,644; 9538,063;    0,095;    0,136
296,240; 9470,019;   -0,905;   -0,136
296,836; 9549,638;   -0,995;    0,318
297,432; 9830,017;    1,096;   -0,500
298,028; 9870,442;    0,732;    0,773
298,624;10260,640;    1,459;    1,864
299,220;10511,057;    2,368;    0,591
299,815;10184,309;    1,005;   -0,409
300,411;10010,526;    0,914;    1,773
301,007;10067,531;    1,368;    0,227
301,602;10106,881;   -0,541;   -2,318
302,198;10268,159;    0,732;   -0,773
302,794;10586,569;    1,187;   -0,500
303,389;10686,481;   -1,177;    1,045
303,985;10758,362;    0,550;    1,409
304,580;10715,750;    1,459;    1,591
305,176;10723,677;   -3,086;    0,136
305,771;10634,260;   -1,268;   -1,227
306,367;10512,235;    4,095;    0,136
306,962;10818,609;    0,641;    1,500
307,558;10526,093;   -0,450;    0,136
308,153;10449,223;    1,095;   -1,136
308,748;10696,006;   -0,814;    1,682
309,344;10639,993;   -0,632;   -1,318
309,939;10747,198;   -1,905;   -1,318
310,534;11015,414;   -0,086;   -1,682
311,130;10914,341;    0,459;   -2,500
311,725;10618,347;    1,004;   -0,500
312,320;10926,125;    2,459;    0,045
312,915;10809,687;    1,459;   -1,045
313,510;10862,651;    1,550;   -0,500
314,105;11336,443;    1,096;    1,409
314,700;10768,995;   -3,086;   -1,045
315,295;10431,114;   -0,904;    0,045
315,890;10018,153;    1,277;    0,864
316,485;10341,531;   -0,359;   -0,318
317,080;10464,519;   -3,086;    1,591
317,675;10997,853;    2,005;   -0,682
318,270;10403,618;    5,550;    3,318
318,865;10413,071;    3,278;    3,045
319,460;10244,669;   -0,904;    0,591
320,055;10504,579;   -0,541;   -1,227
320,650;10198,090;   -1,995;   -0,591
321,244;10245,038;   -0,177;   -1,409
321,839;11094,179;   -1,541;   -0,227
322,434;10984,034;   -1,086;   -1,591
323,029;10635,016;    1,732;    1,591
323,623;10464,733;    1,550;    0,773
324,218;10269,192;    2,368;    1,409
324,812;10174,934;    1,096;    1,591
325,407; 9996,942;   -0,814;    2,045
326,002; 9922,004;    0,277;   -0,409
326,596;10227,902;    0,914;    1,318
327,191;10436,727;    0,823;   -1,045
327,785;10037,538;   -0,813;   -0,227
328,379;10281,848;    1,368;    0,136
328,974;10085,879;    0,914;   -3,955
329,568;10336,602;    0,186;   -2,409
330,163;10167,503;    2,096;    1,045
330,757;10505,502;    2,459;    1,591
331,351; 9886,979;    0,459;    0,682
331,945;10192,114;    0,914;    1,409
332,540; 9851,070;   -1,723;   -0,591
333,134;10016,746;   -1,086;    0,773
333,728;10243,949;    0,005;    0,318
334,322;10542,332;   -1,177;   -0,864
334,916; 9862,179;    0,277;    0,955
335,510;10222,462;   -0,450;   -0,136
336,105;10491,363;   -1,086;    1,591
336,699;10224,255;   -1,086;    0,591
337,293;10176,238;   -1,723;    0,318
337,887;10330,974;   -2,723;    1,955
338,481;10407,555;    0,459;    0,591
339,074;10579,360;   -0,359;    2,682
339,668;10413,416;   -1,632;    1,227
340,262;10689,959;    1,732;    3,227
340,856;10217,429;    1,822;   -0,682
341,450; 9632,951;    1,004;    1,864
342,044;10512,783;    1,459;    0,136
342,637;10282,331;    0,913;   -2,136
343,231;10165,130;   -2,360;    0,682
343,825;10136,527;   -1,086;   -0,591
344,419;10126,301;   -1,995;    0,500
345,012; 9932,960;    2,459;    4,045
345,606; 9962,652;    4,641;    1,591
346,199; 9798,854;   -1,813;   -0,227
346,793; 9369,456;    1,914;    2,045
347,386; 9568,539;   -0,813;   -1,136
347,980; 9556,659;   -0,268;   -0,045
348,573; 9365,888;    2,278;    0,409
349,167; 9075,207;    5,278;    4,773
349,760; 9403,148;    2,914;    2,682
350,354; 9339,868;   -0,813;    1,136
350,947; 9111,370;    1,096;    1,682
351,540; 8819,308;   -0,358;   -1,409
352,134; 8775,361;    1,096;    1,136
352,727; 8833,655;   -0,086;    1,136
353,320; 8654,122;    0,005;    0,591
353,913; 8528,612;   -1,995;    1,864
354,507; 8676,434;    0,823;   -1,227
355,100; 8702,157;    0,460;    0,864
355,693; 7959,946;    2,005;    2,409
356,286; 8010,723;    0,823;    2,773
356,879; 8367,241;   -0,722;    1,227
357,472; 7980,274;   -0,904;    1,500
358,065; 8172,776;   -0,722;    2,500
358,658; 8079,058;   -0,540;    2,318
359,251; 7708,514;   -1,631;   -0,591
359,844; 7255,955;   -1,904;   -1,136
360,437; 7424,219;   -2,995;    0,045
361,030; 7701,665;    1,369;   -0,682
361,623; 7294,856;    2,824;    0,318
362,215; 7316,077;   -0,086;    2,045
362,808; 7153,172;   -2,358;   -1,682
363,401; 7354,456;   -2,449;    0,136
363,994; 7105,509;   -0,631;   -1,500
364,586; 7021,334;    0,824;   -1,500
365,179; 7213,805;   -0,449;   -1,136
365,772; 6708,011;   -1,995;    2,045
366,364; 6980,662;    1,915;   -3,227
366,957; 7164,716;    2,279;   -0,045
367,549; 7189,555;    2,188;   -0,864
368,142; 6853,626;    1,825;   -1,500
368,734; 7042,253;    0,734;   -2,136
369,327; 7012,329;    1,643;   -0,500
369,919; 6925,272;   -1,538;    0,409
370,512; 6762,355;   -1,083;   -0,500
371,104; 6515,801;   -0,901;    1,591
371,696; 6679,296;    1,191;   -0,955
372,289; 6739,760;    0,373;    1,136
372,881; 6857,003;   -2,080;    1,318
373,473; 6786,838;   -2,170;    1,136
374,066; 6599,608;   -0,169;    0,500
374,658; 6465,607;    0,378;    1,136
375,250; 6790,798;    0,653;   -1,409
375,842; 6667,056;    0,473;   -0,045
376,434; 6539,415;   -0,435;   -0,409
377,026; 7061,566;    0,204;   -2,500
377,618; 6923,575;   -0,158;   -0,682
378,210; 6803,698;   -0,338;   -1,955
378,802; 6665,086;    0,754;   -0,591
379,394; 6626,011;    1,846;    0,682
379,986; 7169,357;    1,393;   -0,955
380,578; 7254,577;   -0,153;    0,773
381,170; 6656,867;   -0,972;    0,045
381,762; 6587,606;    0,755;    1,409
382,354; 6769,206;   -0,065;   -1,318
382,945; 6893,657;   -2,976;    0,318
383,537; 7022,367;   -2,705;   -1,955
384,129; 7030,133;   -2,160;   -1,136
384,721; 7162,966;   -0,252;    0,955
385,312; 7106,027;   -0,161;   -0,955
385,904; 7205,518;   -2,706;    1,591
386,496; 6617,127;   -0,979;    1,045
387,087; 6749,351;    1,022;    2,500
387,679; 6757,419;   -1,160;    0,045
388,270; 6903,674;    2,840;    2,045
388,862; 7029,444;    1,295;   -0,318
389,453; 6899,982;   -0,887;    1,045
390,045; 7136,951;   -0,705;   -2,682
390,636; 7084,353;    0,204;   -0,591
391,227; 6954,199;   -0,523;   -0,045
391,819; 7056,122;    0,204;    0,773
392,410; 7102,110;    1,022;    0,045
393,001; 7041,470;   -0,979;   -1,591
393,593; 7308,422;    1,930;   -0,045
394,184; 7167,290;    1,385;   -0,409
394,775; 7087,049;    1,839;    2,136
395,366; 7273,262;    1,385;    0,773
395,957; 7255,506;    0,113;    0,136
396,548; 7556,618;   -0,342;    2,682
397,139; 7833,949;   -2,433;    0,591
397,730; 7574,139;   -1,888;    0,955
398,321; 7637,885;   -1,252;    0,955
398,912; 7651,468;   -0,615;    0,136
399,503; 7739,497;   -3,524;   -1,409
400,094; 7222,722;    0,294;    1,682
400,685; 7060,822;   -0,433;    0,045
401,276; 7152,361;    0,930;   -0,955
401,867; 7458,376;   -0,888;    0,773
402,458; 7531,329;   -2,251;   -2,318
403,048; 7525,200;    1,112;    0,591
403,639; 7158,993;    0,840;    0,864
404,230; 7396,323;    2,476;    0,318
404,821; 7331,951;   -0,615;    0,045
405,411; 7419,451;    1,203;   -2,591
406,002; 7026,868;   -1,252;   -1,136
406,592; 6890,888;    2,294;    0,045
407,183; 7154,491;    0,566;   -1,500
407,774; 7070,177;    3,475;   -0,136
408,364; 7372,139;    0,930;    0,409
408,954; 6972,754;    0,384;    1,227
409,545; 7050,570;    1,021;    1,045
410,135; 6583,865;    1,293;    0,500
410,726; 6728,844;    1,838;    0,318
411,316; 7062,058;    0,111;    0,773
411,906; 6757,379;   -0,253;   -0,409
412,497; 6277,561;   -1,070;   -0,045
413,087; 6834,261;   -1,980;   -0,227
413,677; 7167,420;   -0,707;    3,864
414,267; 6977,568;    0,656;    1,409
414,857; 6972,755;   -2,980;    4,227
415,448; 7208,568;    0,839;    0,500
416,038; 6916,421;    0,020;   -0,591
416,628; 6848,054;   -0,889;    0,409
417,218; 6378,035;    0,565;    3,318
417,808; 6579,131;    0,202;   -0,409
418,398; 6952,617;    0,020;    2,682
418,988; 6929,045;    2,020;    0,591
419,578; 7116,122;   -0,707;    1,409
420,168; 7392,017;   -1,343;   -0,955
420,757; 7009,871;   -1,343;   -1,500
421,347; 6657,971;    0,111;   -0,227
421,937; 6798,272;    2,292;    1,409
422,527; 6730,737;    0,838;   -0,773
423,116; 6559,010;   -0,253;   -0,045
423,706; 6865,808;   -1,889;    0,318
424,296; 6805,534;    1,384;    0,682
424,885; 7180,716;   -0,071;   -3,045
425,475; 7382,728;    1,474;   -2,864
426,065; 7268,938;   -0,980;   -0,318
426,654; 6928,578;   -0,435;   -0,318
427,244; 7012,489;    0,020;    1,409
427,833; 6508,847;    1,383;   -0,500
428,423; 6868,811;   -0,526;    1,136
429,012; 7510,196;   -0,344;   -1,136
429,601; 7040,147;   -1,344;    0,136
430,191; 7219,793;    1,292;    4,318
430,780; 6862,055;   -0,344;   -0,409
431,369; 6817,057;    0,746;   -0,045
431,959; 7309,546;   -1,254;    0,500
432,548; 7054,943;   -1,163;   -0,045
433,137; 7146,770;   -1,254;   -1,318
433,726; 7592,400;    0,292;    0,500
434,315; 6998,922;   -0,526;    2,409
434,905; 7075,984;   -1,254;    1,409
435,494; 6963,999;    0,746;    0,955
436,083; 7324,555;   -0,981;   -0,955
436,672; 7180,201;    0,110;    0,500
437,261; 6806,370;    0,292;   -1,955
437,850; 6882,058;    1,383;    0,682
438,439; 6820,876;    3,291;    1,955
439,027; 6646,427;    3,655;    1,773
439,616; 6892,292;    2,927;    1,227
440,205; 6726,610;    0,200;   -2,136
440,794; 6669,842;    2,109;   -0,045
441,383; 6837,740;   -1,346;   -0,591
441,971; 6680,191;   -2,436;    0,591
442,560; 6504,059;    0,563;   -1,773
443,149; 6234,679;    0,379;   -1,318
443,737; 6312,878;   -0,074;   -2,318
444,326; 6518,425;    0,018;    0,318
444,915; 6493,088;   -1,982;    0,864
445,503; 6734,625;   -2,891;   -0,318
446,092; 6169,450;    0,382;    2,136
446,680; 6576,371;    0,382;    0,318
447,269; 6653,256;   -0,346;   -0,318
447,857; 6435,545;    0,018;   -1,773
448,445; 6492,399;    0,563;    1,318
449,034; 6634,698;   -1,528;   -1,136
449,622; 6668,971;   -1,073;    3,500
450,210; 6111,824;    2,017;    2,227
450,799; 6482,193;    0,290;   -0,591
451,387; 6370,321;    1,381;   -0,591
451,975; 6099,040;    2,654;    0,864
452,563; 6183,813;    3,472;    2,318
453,151; 6127,291;   -0,528;   -1,227
453,739; 6044,020;   -1,347;    0,136
454,328; 5933,434;    2,381;   -2,136
454,916; 5705,841;    2,562;   -0,136
455,504; 5828,495;    1,017;    1,227
456,092; 5948,879;    0,017;   -1,591
456,679; 5843,033;    1,472;    0,682
457,267; 5915,867;    4,017;    1,045
457,855; 5945,301;    1,017;    1,409
458,443; 5677,047;   -0,165;    1,682
459,031; 5849,762;    0,108;    2,409
459,619; 6138,267;   -1,801;    2,864
460,206; 6135,487;    0,835;    2,045
460,794; 6204,528;   -2,983;   -0,227
461,382; 6358,946;   -0,529;   -0,864
461,970; 6027,249;    1,198;    1,864
462,557; 6102,642;   -0,711;   -0,682
463,145; 6213,057;   -3,165;   -1,682
463,732; 6290,173;    2,016;   -1,045
464,320; 6153,768;   -0,075;   -3,045
464,907; 5932,276;    2,743;   -0,773
465,495; 5822,738;    0,743;   -1,227
466,082; 5895,615;   -1,984;   -0,045
466,670; 5739,345;   -2,529;    1,227
467,257; 6117,717;   -1,711;    2,045
467,844; 6238,300;   -0,075;    0,045
468,432; 6226,879;    0,834;    3,500
469,019; 5858,417;    0,925;   -1,773
469,606; 6166,464;    0,470;    3,682
470,193; 6002,917;   -1,439;    0,227
470,780; 5713,772;   -2,075;    0,864
471,368; 5951,544;   -1,257;   -0,773
471,955; 5748,265;    1,379;   -0,682
472,542; 5428,043;    0,652;   -1,136
473,129; 5555,511;   -0,166;    0,136
473,716; 5352,657;    1,470;    0,591
474,303; 5434,204;    0,652;   -0,864
474,890; 5587,000;   -1,439;   -0,500
475,477; 5615,343;   -1,621;    0,409
476,064; 5500,003;    1,106;   -1,591
476,650; 5360,527;    0,288;    0,318
477,237; 5204,255;   -0,258;    0,955
477,824; 5306,654;   -1,076;    0,864
478,411; 5227,014;   -1,894;   -0,318
478,997; 5334,305;    0,560;   -0,773
479,584; 5333,298;    1,196;   -0,409
480,171; 5789,925;   -0,440;   -0,773
480,757; 5549,523;    2,651;    0,773
481,344; 5682,442;    0,469;    0,409
481,931; 5247,112;    1,105;    1,045
482,517; 5858,085;   -1,258;    0,318
483,104; 6101,268;    1,106;    2,864
483,690; 6204,634;   -1,804;    0,045
484,276; 6352,591;   -0,895;    0,227
484,863; 6183,581;    2,469;    1,136
485,449; 6492,424;   -0,077;    0,318
486,035; 6463,276;   -1,986;   -0,136
486,622; 6766,986;   -0,895;    0,045
487,208; 6651,785;    1,378;    1,500
487,794; 6577,103;    0,741;    0,318
488,380; 6671,837;    0,105;   -1,409
488,967; 6724,232;   -1,168;   -0,409
489,553; 6776,613;   -1,895;   -1,409
490,139; 6950,312;    1,559;    0,773
490,725; 6628,043;    0,741;   -0,227
491,311; 6440,281;    3,287;    3,045
491,897; 6055,283;   -0,986;    1,500
492,483; 6126,411;    0,105;    1,227
493,069; 6296,983;    3,923;    0,864
493,655; 6175,484;    1,650;    0,682
494,241; 6188,176;    1,377;   -0,955
494,826; 6524,158;    0,287;   -1,045
495,412; 6193,916;    2,559;   -0,682
495,998; 6435,593;   -0,805;   -0,318
496,584; 6567,340;    0,377;    1,045
497,169; 6620,046;    1,014;   -0,682
497,755; 6716,135;    0,650;    1,227
498,341; 7319,136;    0,559;    0,318
498,926; 7118,209;    1,832;    1,955
499,512; 7358,757;    1,286;    2,955
500,097; 7530,912;    0,195;   -0,318
500,683; 7661,539;   -0,350;    2,136
501,268; 8152,026;   -0,169;   -0,955
501,854; 8073,459;   -0,169;    1,227
502,439; 8162,118;   -0,624;   -1,773
503,024; 8464,708;    0,195;    0,500
503,610; 8665,190;   -0,078;   -0,682
504,195; 8825,775;    0,558;    1,955
504,780; 9114,120;    2,922;    1,227
505,366; 9134,751;    3,013;    2,864
505,951; 9054,925;    0,740;    1,045
506,536; 9242,951;   -3,260;   -3,682
507,121; 9376,427;    0,285;   -0,318
507,706; 9983,702;    2,376;    1,045
508,291;10453,744;    2,649;    1,136
508,876;10132,001;   -0,988;    2,591
509,461; 9779,893;   -0,169;   -0,773
510,046;10311,193;    0,194;    0,318
510,631;10638,361;   -0,351;   -0,773
511,216;10465,251;    2,467;   -0,500
511,801;10939,287;   -0,442;    2,591
512,386;11298,155;    0,740;    0,500
512,971;11332,360;   -2,988;    0,955
513,555;10996,041;   -0,897;   -1,500
514,140;11850,895;   -0,442;   -3,136
514,725;11914,527;   -0,715;   -1,136
515,309;12114,977;   -0,533;    0,318
515,894;11700,672;   -0,624;   -2,227
516,479;12196,953;   -0,624;   -0,955
517,063;12094,401;    0,376;    1,227
517,648;12280,586;    1,012;   -1,136
518,232;11963,928;   -0,261;   -1,409
518,817;12366,990;   -0,079;    1,682
519,401;12615,500;    2,194;    0,591
519,985;12180,857;    1,103;    1,136
520,570;12141,630;    0,830;   -1,955
521,154;12436,428;    2,102;    0,591
521,738;12625,269;   -2,352;    2,409
522,323;13213,060;   -0,170;    1,682
522,907;12991,236;    0,466;   -0,136
523,491;12781,238;    0,557;    0,955
524,075;12781,664;    2,284;    0,591
524,659;12855,045;    1,466;    0,591
525,243;12343,442;    1,739;    0,409
525,827;12591,180;    0,648;   -0,045
526,411;13441,499;   -1,989;   -0,136
526,995;13655,749;   -0,352;    1,409
527,579;13250,324;   -0,443;   -1,045
528,163;13525,913;    0,375;   -1,500
528,747;13543,273;    2,466;   -0,773
529,331;13844,936;   -0,080;   -1,409
529,915;14016,945;    1,738;    0,955
530,499;14008,642;   -0,807;    1,227
531,082;13698,323;   -0,534;    1,591
531,666;13145,964;    1,374;    0,773
532,250;13806,789;    1,284;    2,682
532,833;14131,293;    0,920;    2,773
533,417;13994,962;   -1,807;    0,864
534,001;14013,008;    1,647;   -0,318
534,584;14713,782;    0,374;    0,500
535,168;14570,326;    0,465;    1,409
535,751;14590,541;    0,647;    0,045
536,334;14053,912;   -0,898;   -0,409
536,918;14666,122;    0,011;    1,591
537,501;14770,951;   -0,899;    1,318
538,085;14758,775;   -0,444;    1,045
538,668;14900,019;    0,829;    2,409
539,251;15219,172;    1,829;    3,773
539,834;15239,623;    0,101;    0,773
540,418;15167,858;   -1,990;    4,318
541,001;15224,639;   -0,990;    1,773
541,584;15252,828;    2,101;    2,227
542,167;14998,255;    1,374;    2,955
542,750;15150,657;    1,919;   -0,773
543,333;14762,471;    0,555;    2,136
543,916;15477,938;    0,192;    2,500
544,499;16083,643;   -1,354;    0,227
545,082;16124,069;    1,374;    3,591
545,665;16219,093;    1,919;    1,500
546,248;16562,562;    1,010;   -0,318
546,830;16238,891;   -0,445;    1,955
547,413;16622,424;    1,010;   -0,773
547,996;17126,949;    0,555;    0,500
548,579;16945,023;    0,919;    0,955
549,161;16745,904;    1,828;    2,682
549,744;16554,069;   -0,809;    0,409
550,326;17045,707;   -0,809;   -1,136
550,909;16809,960;    2,737;    0,591
551,492;17255,702;   -0,263;    0,227
552,074;17042,997;   -0,173;   -1,318
552,657;17580,967;    2,373;    0,045
553,239;17347,335;   -0,173;   -0,773
553,821;17269,683;   -1,082;    1,045
554,404;16752,845;    1,282;    1,136
554,986;17129,400;    0,464;    1,045
555,568;17728,313;    1,191;   -0,955
556,151;16931,012;    1,191;   -0,227
556,733;17164,851;   -0,264;   -0,864
557,315;17603,967;    0,100;    0,500
557,897;17419,388;    0,554;   -0,500
558,479;17554,147;   -1,991;    1,318
559,061;17680,444;   -0,719;   -0,864
559,643;18016,493;   -0,264;    0,045
560,225;18391,649;    1,645;    2,864
560,807;18360,221;    0,918;    0,318
561,389;17859,104;    0,554;    2,318
561,971;18650,225;    0,463;    2,136
562,553;18394,566;   -1,628;    1,591
563,135;18551,049;   -0,537;    1,136
563,717;18148,381;    3,372;    1,136
564,298;18861,874;    3,645;   -0,045
564,880;18587,151;    0,645;   -1,409
565,462;18731,787;    0,645;    1,318
566,043;19858,701;   -0,446;    2,318
566,625;19383,427;    1,918;    1,227
567,207;19218,442;    1,099;    1,682
567,788;20295,900;   -1,264;    1,500
568,370;21150,435;    1,917;   -0,500
568,951;20941,511;    0,190;    0,227
569,533;21800,810;   -0,628;   -0,500
570,114;22189,284;   -0,446;    0,682
570,695;22696,224;   -0,174;   -1,318
571,277;23158,052;   -0,265;   -1,682
571,858;23855,438;    2,008;   -1,136
572,439;24747,306;    1,554;   -1,045
573,021;24928,743;    2,099;   -2,773
573,602;25394,732;   -1,265;    0,318
574,183;26251,803;   -2,083;    2,227
574,764;26330,407;   -1,629;    0,409
575,345;26868,052;    0,917;   -0,136
575,926;27475,214;   -0,356;    0,136
576,507;27460,459;    1,099;   -0,227
577,088;28563,246;    3,099;    1,682
577,669;28596,322;    0,735;    1,955
578,250;29279,167;    0,644;   -1,045
578,831;29911,072;   -1,356;   -2,227
579,412;30140,929;   -0,810;    0,955
579,993;31085,083;    1,008;    0,227
580,573;31418,569;   -0,629;   -0,955
581,154;30390,626;    0,735;   -0,591
581,735;31171,563;    0,644;    0,773
582,315;30667,654;   -0,629;    2,136
582,896;31025,679;   -0,174;    1,227
583,477;30536,517;    0,189;    1,227
584,057;30762,507;    0,553;    0,955
584,638;30976,901;    2,553;    2,318
585,218;30976,869;   -0,538;    2,682
585,799;31143,348;    0,281;   -0,227
586,379;31117,792;    0,372;    1,591
586,959;29969,773;    0,735;    0,318
587,540;29374,433;   -0,629;    2,227
588,120;28895,031;    1,007;   -0,045
588,700;27893,589;    2,553;    2,136
589,281;28200,962;    0,462;   -0,955
589,861;28104,270;    0,099;   -1,682
590,441;27967,509;    2,371;   -2,682
591,021;26999,719;   -0,265;   -2,591
591,601;27262,999;   -0,537;    0,500
592,181;27240,753;   -0,719;   -0,773
592,761;26490,413;    0,007;    1,409
593,341;26461,651;   -0,901;    0,045
593,921;26440,761;   -0,265;    1,591
594,501;26371,168;   -0,538;    1,318
595,081;26262,063;    0,917;   -0,318
595,661;26523,223;   -1,447;    0,955
596,240;27036,211;   -0,537;    0,136
596,820;26641,772;    0,372;    1,955
597,400;26819,342;    2,008;    0,773
597,980;27062,781;    2,008;    1,045
598,559;27090,794;    2,735;   -0,227
599,139;26833,163;   -0,174;   -1,227
599,718;26701,981;   -0,174;   -0,409
600,298;26982,007;    0,735;    0,682
600,877;27244,965;    2,917;    1,409
601,457;27485,162;    2,281;    1,136
602,036;27363,816;    0,190;    2,045
602,616;27558,235;    0,644;    1,682
603,195;27943,707;   -0,355;    3,500
603,774;27428,954;   -0,901;    2,045
604,354;27310,743;    0,826;   -0,500
604,933;26872,087;    0,463;    1,864
605,512;26991,442;    3,554;    0,591
606,091;27052,034;   -0,537;    3,773
606,671;27869,860;    0,281;    0,773
607,250;26931,770;    1,644;    3,136
607,829;27184,843;    2,372;    3,227
608,408;27077,548;    1,190;    2,591
608,987;26112,614;    1,281;    3,409
609,566;26375,951;   -1,265;   -2,500
610,145;26458,405;   -1,082;    0,682
610,723;26854,166;    4,372;    6,864
611,302;26164,152;   -0,446;    1,682
611,881;25678,886;    5,008;   11,227
612,460;26533,676;    1,645;    3,955
613,039;26967,599;   -0,082;    2,045
613,617;25735,513;    1,736;    4,773
614,196;25890,252;    1,099;    1,227
614,775;26213,840;    1,009;    2,409
615,353;26156,710;    0,736;    0,864
615,932;25959,681;    0,100;    2,409
616,510;26518,657;    0,554;    0,591
617,089;26029,653;    7,100;   17,591
617,667;25764,319;    2,372;    6,136
618,246;25679,067;   -1,537;    1,318
618,824;25871,585;   -3,355;   -0,955
619,402;25429,586;   -2,900;   -1,773
619,981;25889,939;   -0,173;   -1,045
620,559;25739,719;    0,009;    1,682
621,137;25299,512;   -0,718;    1,864
621,715;25335,909;   -1,173;   -0,682
622,293;25220,753;   -0,537;   -0,773
622,871;25694,604;   -0,718;    0,500
623,450;25296,949;    0,373;   -0,864
624,028;25164,113;    0,191;   -0,955
624,606;24795,407;   -1,718;    1,682
625,183;25196,547;   -1,536;   -1,136
625,761;24842,819;    1,009;    1,136
626,339;25129,835;    1,373;    2,591
626,917;25513,712;   -0,172;   -0,045
627,495;25551,563;   -0,354;    1,318
628,073;24995,127;   -0,263;    2,864
628,650;24646,843;    0,100;    2,136
629,228;25119,067;    0,373;    4,409
629,806;24529,481;    2,282;    1,136
630,383;24780,527;    1,464;   -0,318
630,961;24601,057;    2,555;   -0,955
631,539;24335,223;    2,464;    0,227
632,116;23642,784;   11,373;   15,409
632,694;24249,529;    2,555;    6,500
633,271;24559,352;    0,828;    2,682
633,848;24506,272;    1,828;    2,045
634,426;24507,950;   -1,081;    1,773
635,003;23689,072;    1,101;   -0,409
635,580;23935,069;    1,192;    3,682
636,158;24522,697;    3,737;    1,227
636,735;24557,019;    0,555;   -0,500
637,312;24651,519;   -0,809;   -0,682
637,889;24749,552;   -4,354;   -0,682
638,466;24227,519;   -3,990;   -0,409
639,043;24215,708;    2,101;   -1,136
639,620;24571,859;   -2,262;   -0,955
640,197;24880,182;    1,100;    1,682
640,774;25042,593;   -0,172;    1,136
641,351;25444,731;    0,737;    1,136
641,928;24798,324;   -0,627;    1,409
642,505;24449,644;    0,828;   -0,500
643,082;24632,509;   -1,718;    1,227
643,658;23665,375;   -0,718;    1,500
644,235;24407,331;    1,191;    2,500
644,812;24679,197;    1,918;    0,773
645,388;24410,335;   -0,991;    1,409
645,965;24477,109;   -0,809;    1,682
646,542;24534,066;   -1,445;   -0,227
647,118;24527,658;    1,009;   -0,955
647,695;24815,887;   -0,263;    1,136
648,271;24747,025;   -0,536;    0,500
648,848;25049,800;    0,736;    2,227
649,424;24916,483;    0,827;    1,318
650,000;24714,076;   -0,354;   -1,045
650,577;24543,123;   -0,627;   -0,955
651,153;24933,898;   -1,809;    0,955
651,729;25915,218;    1,191;    0,864
652,305;26014,538;    0,645;    2,773
652,881;30022,312;   -0,082;    1,136
653,458;36585,541;    1,100;    0,227
654,034;40393,316;    0,282;    1,591
654,610;41872,272;    0,554;    0,773
655,186;43228,228;    0,645;    3,045
655,762;42849,003;   -0,991;    0,409
656,338;42949,686;    0,100;    0,136
656,913;43887,734;   -0,082;    0,409
657,489;43195,963;    0,827;   -0,318
658,065;43145,464;   -0,173;   -1,591
658,641;43807,875;   -0,900;   -0,864
659,217;43197,741;   -0,991;    0,409
659,792;42591,697;    0,645;   -0,409
660,368;42828,017;   -2,173;   -0,682
660,944;42616,155;   -2,082;    1,227
661,519;38454,748;   -0,628;    0,409
662,095;32769,795;   -1,719;    0,591
662,670;28179,479;    1,281;   -0,136
663,246;26914,708;    1,009;   -0,409
663,821;26167,482;    0,281;    1,682
664,396;25673,893;    0,009;    1,864
664,972;25944,304;    0,009;   -0,500
665,547;26218,806;    1,372;    0,136
666,122;26335,307;   -1,082;    0,318
666,698;26568,900;   -0,173;    0,318
667,273;25881,947;   -0,173;    0,136
667,848;26727,631;    2,372;    1,500
668,423;26506,951;    2,190;    2,318
668,998;27031,998;    2,827;   -0,682
669,573;27573,318;   -3,264;   -1,500
670,148;27435,183;   -1,446;   -0,682
670,723;27220,958;   -1,810;    0,318
671,298;27607,187;    2,372;    1,045
671,873;27740,143;   -0,082;   -0,136
672,448;27725,190;    0,645;    0,136
673,023;28079,510;   -1,992;   -0,227
673,597;28349,376;    0,827;    2,318
674,172;28107,423;   -0,355;    0,318
674,747;27616,652;    0,372;   -1,045
675,321;27504,336;   -0,628;    3,318
675,896;27031,110;    0,645;    1,045
676,471;28024,976;    2,645;    1,591
677,045;27805,932;   -1,264;    0,682
677,620;27845,161;    0,190;    1,136
678,194;28188,481;   -2,628;    1,136
678,769;27769,437;   -1,083;   -0,318
679,343;27972,575;   -0,628;    1,773
679,917;27788,804;   -1,446;    1,955
680,492;27930,670;    0,826;    3,227
681,066;28021,444;    3,372;    0,409
681,640;28133,855;    1,463;   -0,318
682,214;28865,993;    0,735;    0,500
682,788;28445,677;   -1,356;   -0,773
683,363;28373,997;   -1,810;    1,682
683,937;28110,862;   -1,719;   -0,318
684,511;28833,909;    0,463;   -0,591
685,085;28528,138;   -1,356;    0,318
685,659;28344,458;   -2,538;    0,864
686,232;28576,960;   -0,356;   -0,318
686,806;28273,189;   -0,901;    0,409
687,380;28948,782;   -0,174;    0,591
687,954;29117,465;   -1,174;    1,136
688,528;28809,058;   -0,719;    1,955
689,101;29628,833;   -3,992;    1,045
689,675;29230,153;   -0,356;   -0,136
690,249;28594,927;   -0,719;    0,409
690,822;28916,792;    0,280;    0,318
691,396;29048,294;   -0,265;    1,227
691,969;28458,614;    1,280;    0,136
692,543;28925,207;   -0,447;   -1,955
693,116;28559,163;   -0,265;   -1,409
693,690;28434,029;    0,099;    0,500
694,263;28996,894;   -1,083;    2,955
694,836;29029,578;    1,371;    3,591
695,410;27672,898;   -0,265;    1,773
695,983;28132,581;    0,189;    0,591
696,556;28093,265;   -0,447;   -1,045
697,129;28498,676;   -0,356;    1,409
697,703;28139,723;   -1,629;    1,955
698,276;28170,770;    1,462;   -0,773
698,849;27970,454;    1,280;    1,409
699,422;28323,410;   -1,083;    0,591
699,995;28005,821;    0,007;    0,136
700,568;28464,686;   -0,629;    3,045
701,140;28541,824;   -2,811;    1,682
701,713;28273,690;   -0,174;    2,409
702,286;28054,101;   -0,538;    0,864
702,859;27884,602;   -0,902;   -0,591
703,432;27041,650;    0,825;    0,682
704,004;27574,969;    0,462;    0,318
704,577;27436,199;   -0,629;    0,136
705,150;27952,428;    0,189;    2,500
705,722;27788,566;   -0,356;   -3,227
706,295;27567,249;   -0,175;   -0,591
706,867;27410,206;   -0,175;    1,955
707,440;27657,798;   -1,720;   -0,409
708,012;27926,027;    0,462;    0,591
708,584;27817,075;    2,462;    0,227
709,157;28095,485;    1,825;   -0,591
709,729;27743,714;    2,280;    2,045
710,301;28566,762;    0,734;    0,045
710,874;28598,718;   -1,447;   -0,227
711,446;27492,311;    0,371;    0,864
712,018;27384,358;    0,098;    0,500
712,590;27082,678;   -1,993;    1,682
713,162;27614,816;    0,825;    1,318
713,734;27903,318;    1,825;   -2,045
714,306;27793,638;   -1,902;   -0,409
714,878;26543,503;    0,825;    0,864
715,450;27342,550;    0,643;    0,864
716,022;27613,961;    1,552;    1,318
716,593;27792,099;    0,189;    0,591
717,165;27681,965;   -3,175;   -1,227
717,737;27365,103;    0,280;    0,409
718,309;27038,150;    0,280;   -0,045
718,880;26997,743;   -0,539;   -1,409
719,452;27249,972;   -0,175;   -1,591
720,024;26855,564;    0,734;   -0,591
720,595;27435,884;   -2,902;    0,955
721,167;26943,568;    0,370;   -2,045
721,738;26451,161;   -0,812;   -1,045
722,309;26432,117;   -0,993;   -1,227
722,881;26159,528;   -1,357;    0,773
723,452;26845,484;   -2,630;    2,864
724,023;27041,986;   -0,721;    2,682
724,595;26796,942;    0,007;    0,682
725,166;26540,989;    0,007;   -0,409
725,737;26212,946;    1,734;    0,227
726,308;26298,447;   -0,266;    0,318
726,879;26753,313;   -1,630;    1,227
727,450;26588,360;    0,552;   -0,045
728,021;26560,316;    3,097;    0,682
728,592;26316,455;    0,734;    0,500
729,163;26647,956;    0,643;   -0,136
729,734;26625,185;    0,188;   -0,227
730,305;26997,051;    1,734;    0,136
730,876;27328,007;    0,188;    2,955
731,447;27062,691;    2,188;    2,682
732,017;27141,556;    1,097;    1,864
732,588;26663,149;    0,734;    1,227
733,159;26847,741;    0,643;   -1,045
733,729;26685,425;    0,006;    0,409
734,300;25949,472;    0,915;    0,864
734,870;26398,247;    3,461;    0,591
735,441;26944,839;    0,370;   -0,591
736,011;26698,614;    0,643;   -1,591
736,582;26663,388;   -0,812;    0,045
737,152;26113,163;   -1,721;   -2,045
737,722;26510,846;   -0,267;   -0,682
738,293;26291,803;   -1,358;    1,318
738,863;26146,305;    2,461;    2,318
739,433;25956,988;    5,279;    0,318
740,003;26631,217;   -0,994;   -0,682
740,573;26052,083;    2,097;   -1,591
741,143;26013,493;   -1,085;    0,318
741,713;26738,177;    1,188;   -0,500
742,283;26461,770;    0,915;    1,591
742,853;26286,090;    1,915;    1,591
743,423;25739,773;    1,733;    0,045
743,993;25836,366;   -0,358;    1,500
744,563;25233,413;    0,097;   -0,864
745,133;25179,551;   -0,812;   -0,864
745,702;25841,871;   -0,267;    1,773
746,272;25079,373;   -0,176;    0,591
746,842;24897,875;   -1,358;   -0,591
747,411;25300,740;   -0,267;   -0,318
747,981;25484,787;    0,097;    0,500
748,551;25536,653;    2,278;   -1,045
749,120;25370,336;    0,642;   -0,227
749,690;25749,929;   -0,631;    2,409
750,259;26064,522;    1,369;    2,955
750,828;25986,296;    1,551;   -1,955
751,398;26291,707;    1,278;   -0,045
751,967;25735,754;    2,187;    0,409
752,536;25981,801;   -0,813;   -0,227
753,105;26385,849;    0,096;    0,227
753,675;26202,532;    0,096;    1,773
754,244;26140,761;   -0,904;    3,591
754,813;26198,445;    0,551;    1,227
755,382;25780,674;    0,460;    0,955
755,951;26284,539;    1,551;    3,682
756,520;25764,405;   -0,085;    1,864
757,089;26363,725;    0,278;    0,500
757,658;26509,499;    1,733;    1,227
758,227;26511,456;    1,096;    0,318
758,795;26768,230;    1,187;    1,136
759,364;27029,186;   -0,086;   -0,591
759,933;26030,870;   -1,176;   -0,045
760,501;25588,463;    0,733;   -1,318
761,070;26064,510;   -2,813;   -1,409
761,639;26757,557;   -1,904;    1,318
762,207;26080,059;    1,551;   -0,955
762,776;26020,015;    0,369;    0,864
763,344;25989,790;   -0,995;    0,591
763,913;25139,291;   -0,722;    1,409
764,481;25797,339;    1,005;   -0,136
765,049;25647,477;   -1,358;    1,409
765,618;25538,251;   -0,086;    0,318
766,186;25634,389;    0,278;    0,136
766,754;25835,346;    0,005;    1,864
767,322;24877,484;   -1,995;    0,409
767,890;24895,531;   -0,722;   -1,773
768,459;25279,669;   -2,177;   -0,318
769,027;25409,535;    1,641;    3,409
769,595;24432,945;    3,278;    2,591
770,163;24849,174;    3,823;    2,955
770,730;24613,222;    0,732;   -0,136
771,298;24444,451;    0,187;   -1,409
771,866;24574,225;   -1,541;    4,955
772,434;24860,454;   -0,631;   -1,864
773,002;25065,138;    0,005;    0,682
773,569;24745,730;    0,914;    1,682
774,137;24554,869;   -0,268;   -0,045
774,705;25322,189;    0,278;   -0,136
775,272;24790,690;    0,641;    0,682
775,840;24616,647;   -0,177;    2,682
776,407;24152,512;    0,277;    1,955
776,975;23725,559;   -0,632;    0,318
777,542;24739,243;   -1,086;   -0,045
778,110;24590,836;   -1,268;   -0,045
778,677;24310,065;   -2,359;   -0,864
779,244;24011,021;    2,186;    1,045
779,812;24114,614;    1,823;    0,864
780,379;23959,388;    0,005;    1,136
780,946;24210,344;    1,005;   -0,773
781,513;24574,482;   -1,450;    0,318
782,080;23935,075;   -0,086;    2,864
782,647;24660,031;   -0,268;    3,045
783,214;24238,170;   -0,177;    3,864
783,781;23867,490;   -0,723;   -0,682
784,348;23783,446;   -0,632;    1,500
784,915;24228,766;   -3,177;    0,318
785,482;23963,540;    1,368;    2,591
786,049;24412,678;    0,186;   -0,591
786,615;24532,180;    0,277;   -0,955
787,182;24313,591;    0,186;   -0,682
787,749;23979,638;   -2,814;    1,409
788,315;23280,231;   -1,632;   -0,409
788,882;23630,642;    1,550;   -1,227
789,448;24290,235;    1,732;   -0,955
790,015;24310,373;    1,095;    3,227
790,581;23828,693;    1,459;    0,227
791,148;23711,376;    0,641;    1,045
791,714;23967,060;   -0,541;    3,136
792,280;23664,471;    0,186;    1,591
792,847;23203,881;    0,550;    2,500
793,413;23830,747;   -0,269;   -0,318
793,979;23343,249;    3,459;   -1,318
794,545;23454,932;    4,459;    2,682
795,111;22841,343;    2,186;    1,318
795,678;23020,208;    0,731;   -1,682
796,244;22649,983;    3,368;    0,136
796,810;23201,485;    1,731;    0,773
797,375;22944,168;    0,549;   -2,136
797,941;22960,943;   -0,541;    0,591
798,507;23115,808;   -0,451;   -0,955
799,073;22706,128;   -0,360;    0,591
799,639;22764,266;   -2,632;    3,136
800,205;22785,859;    0,095;    2,682
800,770;22378,270;    0,640;    1,773
801,336;22411,135;    1,368;   -0,955
801,901;22054,637;    4,549;    3,136
802,467;22647,048;   -0,542;    2,045
803,033;22041,913;   -0,087;    0,864
803,598;22272,415;    1,913;   -1,045
804,163;22276,735;    1,095;   -0,318
804,729;22217,055;   -0,178;    1,136
805,294;22661,375;    0,822;    2,227
805,859;22407,604;    0,731;   -0,409
806,425;21858,742;    1,186;    2,682
806,990;21550,153;    2,186;    4,318
807,555;22055,200;   -1,451;    2,591
808,120;21888,156;    0,822;   -0,409
808,685;21971,295;    0,185;   -2,500
809,250;21482,433;    0,004;   -0,500
809,815;21815,934;    1,913;    0,682
810,380;22364,164;   -0,269;    1,591
810,945;22845,847;   -1,087;    2,045
811,510;22024,076;    2,094;    1,591
812,075;21749,305;   -0,633;   -1,409
812,640;21795,352;    2,003;    1,409
813,204;21832,218;    0,822;   -0,227
813,769;22327,629;    2,094;   -0,045
814,334;21761,949;    0,458;    0,864
814,898;21813,814;    0,367;    0,591
815,463;21648,134;    1,276;   -0,773
816,027;21636,818;   -0,724;   -2,318
816,592;21729,319;    0,640;   -2,045
817,156;21216,639;    2,094;    1,136
817,721;21080,777;    4,276;    2,318
818,285;21086,188;    2,912;    1,500
818,849;21711,963;   -1,451;    1,682
819,414;21614,010;   -0,269;    2,955
819,978;21231,875;   -1,269;    1,773
820,542;21760,377;    2,003;    0,500
821,106;21473,061;   -0,815;    0,682
821,670;21584,108;   -0,815;    2,591
822,234;21350,064;   -0,270;    1,409
822,798;20717,566;    0,003;    0,500
823,362;20665,886;   -0,633;    4,227
823,926;20016,024;    0,094;    1,136
824,490;20214,708;   -0,997;   -0,682
825,054;20664,391;   -0,088;   -1,136
825,618;20272,984;   -1,542;   -1,500
826,181;20239,031;    0,458;   -1,318
826,745;20160,806;    1,367;   -1,045
827,309;20470,580;    1,185;    1,318
827,872;19885,991;    1,367;    0,955
828,436;20875,493;    1,185;   -0,773
828,999;20955,085;   -0,997;    1,227
829,563;19726,860;   -0,179;    1,136
830,126;19555,998;   -0,179;   -0,591
830,690;19591,682;   -1,997;    2,864
831,253;19094,820;   -0,543;    2,227
831,816;19192,776;   -1,906;    0,500
832,380;19141,278;    0,185;    0,864
832,943;19393,961;   -1,361;   -0,500
833,506;18882,372;    2,639;   -1,227
834,069;19639,147;    3,912;   -0,955
834,632;19737,376;    1,730;    1,318
835,195;19582,605;    1,003;    0,955
835,758;18845,743;   -0,997;    1,955
836,321;18734,063;    0,730;   -1,045
836,884;18842,928;   -0,725;   -0,955
837,447;18824,612;   -2,816;    1,773
838,010;19063,477;    0,366;    3,227
838,573;19361,525;   -1,179;    0,773
839,135;19303,026;   -1,361;   -0,955
839,698;18777,437;    1,275;    0,409
840,261;18305,666;    1,003;   -0,227
840,823;18173,895;   -0,543;    0,864
841,386;18458,033;   -0,452;   -2,409
841,948;18309,990;   -1,361;    1,773
842,511;18074,492;    0,912;    1,682
843,073;18195,721;    1,912;    0,227
843,636;18041,313;   -0,361;   -0,227
844,198;17964,451;    0,911;    0,591
844,760;18090,044;    1,093;    1,955
845,322;17722,000;    0,548;    1,136
845,885;18182,138;    0,730;    0,591
846,447;18592,549;   -1,998;    0,227
847,009;18174,415;    1,911;   -0,682
847,571;18501,644;    0,820;   -2,045
848,133;18593,236;   -1,089;   -1,864
848,695;18386,465;   -0,543;    1,409
849,257;17946,604;   -1,089;   -1,682
849,819;18158,833;   -0,998;   -0,409
850,381;18219,607;   -0,725;   -0,864
850,942;18557,473;    1,093;   -0,591
851,504;18537,793;    1,184;    0,227
852,066;18560,658;    1,275;   -1,591
852,628;18109,160;   -0,180;    1,955
853,189;17650,298;    1,638;    2,682
853,751;17756,072;   -0,907;    1,409
854,312;17564,665;   -0,453;   -1,682
854,874;18064,439;   -2,089;   -0,773
855,435;18649,669;   -0,907;   -1,682
855,997;18783,261;   -1,816;   -0,136
856,558;18030,763;    0,366;    1,773
857,119;18130,628;    0,820;    2,864
857,681;17829,403;    0,002;    0,318
858,242;17883,450;    1,911;   -2,136
858,803;18285,497;    0,456;   -0,773
859,364;18888,999;    0,184;   -4,773
859,925;18219,683;   -2,453;   -0,955
860,486;18115,730;   -0,453;   -0,955
861,047;17877,050;   -0,544;   -1,227
861,608;17633,552;   -1,089;   -0,773
862,169;17764,144;    0,638;   -0,045
862,730;17567,191;    0,456;    1,409
863,291;17783,966;   -0,635;   -0,500
863,852;18143,013;   -0,635;    1,955
864,412;17649,424;   -0,271;   -0,864
864,973;16253,017;   -0,089;    0,500
865,534;16085,700;   -1,726;    0,227
866,094;17576,202;    1,820;    0,227
866,655;17252,431;    1,274;    3,318
867,215;17531,297;    0,274;    0,136
867,776;17417,707;    0,547;   -0,136
868,336;17470,482;   -1,453;    0,136
868,897;16951,529;    2,638;    1,682
869,457;16662,213;    1,365;    0,318
870,017;16898,624;    0,547;   -1,227
870,578;17463,125;   -0,817;    0,773
871,138;17138,627;   -2,089;   -0,955
871,698;16679,311;   -0,817;   -1,318
872,258;16561,085;   -0,453;   -2,864
872,818;16910,769;    2,729;    0,045
873,378;16855,361;    0,638;    1,045
873,938;16433,772;    0,547;    0,500
874,498;16813,547;    0,274;   -1,955
875,058;16669,867;    2,183;    1,773
875,618;16540,459;    1,910;   -2,682
876,177;16458,870;    1,274;    0,136
876,737;16041,190;   -0,090;    1,955
877,297;16046,056;    0,183;    1,955
877,856;16046,376;   -0,362;    0,318
878,416;15996,150;    1,183;   -0,136
878,976;16253,743;   -1,817;    0,409
879,535;16433,063;    0,092;    3,136
880,095;16148,837;   -0,544;    0,045
880,654;16268,884;   -1,090;    1,318
881,213;16365,113;    2,456;    1,500
881,773;15991,524;    2,637;    2,682
882,332;16341,299;    3,365;    5,136
882,891;16172,710;    3,092;    2,136
883,451;16646,211;   -1,272;    1,682
884,010;16139,895;   -2,908;   -0,409
884,569;16190,124;   -0,999;   -0,045
885,128;16325,899;    2,819;   -1,864
885,687;16409,400;    4,455;    0,682
886,246;16114,084;    1,455;    2,136
886,805;15915,858;    2,455;    2,045
887,364;16195,633;   -0,999;   -0,500
887,922;16536,771;   -1,181;    0,045
888,481;16025,636;   -1,545;    0,591
889,040;16319,229;    1,183;    2,136
889,599;16999,185;    2,455;    1,409
890,157;17073,505;    1,455;    2,409
890,716;16700,825;   -0,090;    0,227
891,274;16563,873;    0,092;   -1,136
891,833;16989,465;    1,546;    0,864
892,391;16841,694;   -0,454;    0,500
892,950;16937,560;    1,819;   -0,773
893,508;17341,061;    0,455;   -0,409
894,067;16691,381;    0,637;    0,136
894,625;16604,974;   -0,636;   -1,500
895,183;16823,839;   -0,363;   -0,682
895,741;16663,159;    1,728;   -1,773
896,299;16528,207;   -0,545;   -2,409
896,858;16730,072;    0,819;   -1,591
897,416;16842,301;    2,728;   -1,318
897,974;16612,712;    1,819;    0,318
898,532;16722,759;    6,091;    2,682
899,089;16668,443;    2,091;   -0,682
899,647;16714,490;   -1,454;    1,318
900,205;16390,901;    1,182;    1,045
900,763;16629,130;   -0,454;    0,227
901,321;16616,359;    2,364;   -1,409
901,878;16123,770;   -1,000;   -0,773
902,436;15981,635;   -1,363;    1,318
902,994;16355,591;    4,728;    3,682
903,551;15806,911;    0,728;    0,409
904,109;16163,595;    0,182;   -1,409
904,666;15762,642;    2,455;    1,045
905,224;15623,871;    0,182;   -0,409
905,781;15305,646;    0,727;   -0,318
906,338;15394,966;   -1,363;    1,045
906,895;15351,558;    0,637;    2,045
907,453;15252,696;    1,727;    1,136
908,010;15313,289;   -0,909;    0,409
908,567;14984,882;    1,273;    0,591
909,124;14499,202;    0,364;   -1,500
909,681;14591,704;   -2,909;    0,682
910,238;14704,842;    0,636;   -1,318
910,795;15072,889;   -0,273;   -1,136
911,352;14688,707;   -2,909;   -2,682
911,909;14118,343;   -1,364;   -0,864
912,466;14586,253;   -3,182;    1,500
913,022;14143,798;   -1,636;    0,500
913,579;14511,798;   -0,909;    2,045
914,136;14210,798;    1,636;    0,955
914,692;14539,616;    0,091;   -1,227
915,249;14098,616;    1,455;    0,409
915,806;14360,253;    0,182;    1,955
916,362;14139,889;    1,909;    1,864
916,918;13709,434;    2,000;    1,045
917,475;13628,889;   -1,182;    0,955
918,031;13696,798;    3,364;   -0,045
918,587;13178,162;   -0,909;   -0,318
919,144;13399,980;   -2,273;    0,227
919,700;13684,434;    1,727;    0,773
920,256;13297,616;    0,727;    0,045
920,812;12938,525;   -0,727;   -1,045
921,368;12944,525;   -1,727;   -1,045
921,924;12582,707;    0,182;   -0,136
922,480;12156,434;   -0,545;    1,227
923,036;12783,343;    1,273;    1,955
923,592;12707,707;    0,455;    0,318
924,148;12646,707;    0,455;   -0,955
924,704;11949,253;   -1,364;   -0,409
925,259;12232,798;   -0,273;    0,591
925,815;11992,525;    1,455;    0,500
926,371;11520,162;    2,909;    1,409
926,926;11408,980;    2,091;    0,591
927,482;11065,343;   -1,364;    0,773
928,037;10947,162;    0,909;    2,045
928,593;11206,889;    1,636;    1,045
929,148;11047,980;   -1,818;   -1,500
929,704;10566,980;   -1,455;   -0,500
930,259;10778,162;    0,091;   -0,136
930,814; 9868,434;   -0,818;    1,955
931,369; 9572,162;    1,091;   -0,773
931,925; 9435,980;   -0,091;    0,136
932,480; 9316,434;   -2,818;   -2,591
933,035; 9216,525;    0,545;   -0,318
933,590; 8991,434;    0,364;   -1,773
934,145; 8640,162;   -1,364;   -0,318
934,700; 8974,616;    0,455;   -0,591
935,255; 8817,616;   -0,091;    0,045
935,809; 8113,343;    3,182;    0,864
936,364; 7261,071;   -0,455;   -0,136
936,919; 7211,434;    0,455;   -1,773
937,474; 7104,343;    1,455;    0,136
938,028; 6875,980;   -1,636;    1,136
938,583; 6366,343;    1,818;    4,682
939,138; 6664,707;    2,091;    2,136
939,692; 6111,889;    1,636;   -1,136
940,247; 5804,525;   -0,727;   -1,045
940,801; 5354,434;   -0,636;    0,227
941,355; 5252,434;   -0,364;    2,591
941,910; 4921,707;   -0,273;   -2,136
942,464; 5038,253;   -0,818;   -0,318
943,018; 4841,162;    1,000;   -0,227
943,572; 4790,253;    2,545;   -0,682
944,126; 4217,889;    0,091;   -0,409
944,681; 4131,525;    3,091;    0,227
945,235; 4094,980;    1,000;   -0,591
945,789; 4048,889;    0,364;   -1,864
946,342; 4130,434;    0,455;   -0,591
946,896; 3942,434;   -2,273;    0,955
947,450; 3710,253;    1,545;   -0,227
948,004; 3889,071;    1,727;   -0,045
948,558; 3908,071;    0,273;   -0,864
949,111; 3826,889;   -0,273;   -0,318
949,665; 3866,434;    1,636;   -0,682
950,219; 3741,434;   -0,091;   -1,045
950,772; 3795,525;   -1,909;    1,864
951,326; 3707,162;    0,545;   -0,955
951,879; 3818,616;    0,727;   -2,318
952,433; 3830,798;    0,000;    2,227
952,986; 3673,253;    2,909;    0,682
953,539; 3627,980;   -0,273;    0,591
954,093; 3571,616;    0,545;   -1,318
954,646; 3673,707;    0,909;    1,318
955,199; 3519,707;    0,000;   -0,500
955,752; 3408,525;   -0,455;    1,773
956,305; 3384,616;   -0,091;    2,955
956,858; 3522,071;    0,818;   -0,318
957,411; 3680,889;   -0,545;    2,136
957,964; 3508,980;    1,364;    2,136
958,517; 3527,616;   -1,545;    3,136
959,070; 3355,434;   -0,455;    1,955
959,623; 3438,980;    1,091;    1,500
960,176; 3203,343;    1,727;    2,045
960,728; 3158,798;   -2,727;    0,773
961,281; 3228,343;    0,545;    0,500
961,834; 3296,162;   -0,909;    0,864
962,386; 3200,525;    1,727;    1,045
962,939; 3132,980;    0,364;   -0,318
963,491; 3262,071;    0,455;    1,136
964,043; 3138,162;    1,182;    2,409
964,596; 3250,980;   -1,000;    2,227
965,148; 3085,798;   -1,000;    1,773
965,700; 3034,980;    1,091;   -0,227
966,253; 3186,798;   -0,636;    0,318
966,805; 3019,798;   -2,273;    0,773
967,357; 3069,525;    1,091;   -1,500
967,909; 3026,162;    0,455;   -1,227
968,461; 3146,525;    0,545;    3,136
969,013; 3084,798;   -0,182;   -0,864
969,565; 3157,071;   -0,455;   -1,136
970,117; 3221,071;   -0,364;    1,045
970,669; 3042,253;    0,182;   -0,136
971,220; 2918,343;   -0,455;   -1,500
971,772; 2850,525;   -0,636;   -0,318
972,324; 2947,525;    0,091;   -0,500
972,876; 2899,525;    0,818;   -0,045
973,427; 3033,707;    1,909;   -1,045
973,979; 2998,798;   -0,727;   -2,500
974,530; 3052,616;    1,818;    1,318
975,082; 3059,525;   -0,545;    1,682
975,633; 2944,707;    1,091;    1,682
976,184; 3080,162;    0,909;    0,773
976,736; 2876,525;    0,091;    0,227
977,287; 2683,071;   -0,909;   -0,500
977,838; 2852,616;    0,909;   -0,318
978,389; 2916,798;   -1,000;   -0,500
978,940; 2792,525;    0,545;   -0,409
979,491; 2829,798;    0,091;   -0,500
980,042; 2801,798;    0,182;    3,045
980,593; 2852,889;   -2,545;    0,227
981,144; 2914,343;    2,545;   -0,500
981,695; 2865,707;    1,455;    1,500
982,246; 2815,071;   -0,273;    1,045
982,797; 2970,798;   -1,727;    0,682
983,347; 3072,343;    0,364;    0,591
983,898; 3221,525;    3,091;    0,409
984,449; 3059,616;    2,182;    0,773
984,999; 2964,162;    1,455;   -1,136
985,550; 2773,253;    0,182;   -0,318
986,100; 2802,071;   -0,455;   -0,318
986,651; 2851,889;   -0,818;    0,045
987,201; 2818,253;   -1,000;   -0,591
987,751; 2887,980;    0,818;    2,864
988,302; 2874,525;    2,636;    1,500
988,852; 2914,616;    0,455;   -1,136
989,402; 2957,707;    0,091;    0,682
989,952; 2855,253;   -2,182;    0,864
990,502; 2975,162;   -0,091;    0,682
991,052; 2935,980;   -0,727;    0,045
991,602; 2811,707;   -2,909;    1,318
992,152; 2783,525;    0,455;    0,682
992,702; 2766,889;    1,364;   -0,045
993,252; 2700,798;   -3,000;   -0,500
993,802; 2779,434;   -0,273;    1,318
994,352; 3027,798;   -1,545;    1,136
994,901; 3126,343;   -0,182;    3,227
995,451; 3034,616;   -0,182;    0,318
996,000; 3112,071;    1,636;    0,318
996,550; 2833,707;    2,273;    0,227
997,100; 2833,980;    1,273;   -0,045
997,649; 3106,253;    2,182;    0,955
998,198; 2753,343;    1,727;   -1,500
998,748; 2943,707;    1,091;   -2,318
999,297; 2861,980;   -0,818;   -0,409
999,846; 2918,980;    1,000;   -0,773
1000,395; 2948,616;   -0,818;    0,500
1000,945; 2909,253;    1,818;   -0,773
1001,494; 2992,434;    2,364;    0,682
1002,043; 2985,616;    4,636;    0,864
1002,592; 2829,253;   -1,091;    1,955
1003,141; 2974,525;   -0,455;   -0,682
1003,690; 2840,343;    1,727;    0,500
1004,238; 2922,434;    1,455;   -0,045
1004,787; 2578,980;    1,364;    1,227
1005,336; 2780,434;    0,364;    0,682
1005,885; 2921,525;    1,364;   -2,773
1006,433; 3068,707;    0,545;    0,955
1006,982; 3136,434;    0,455;    1,682
1007,531; 3035,889;   -1,818;   -0,227
1008,079; 3001,616;   -2,273;    0,500
1008,627; 3153,707;   -1,455;    0,409
1009,176; 2881,071;    0,000;   -1,955
1009,724; 2931,071;    1,091;    0,864
1010,273; 2971,980;    1,273;    0,500
1010,821; 3105,343;    0,091;    1,409
1011,369; 2836,980;   -1,364;    1,318
1011,917; 2821,525;   -1,364;   -0,591
1012,465; 3094,980;    1,273;   -1,591
1013,013; 3196,071;    2,091;   -1,682
1013,561; 3059,343;    0,455;   -0,773
1014,109; 3123,616;   -1,909;    1,682
1014,657; 2998,525;    0,364;    0,591
1015,205; 3141,707;    1,636;   -0,955
1015,753; 3153,525;   -0,545;   -1,409
1016,301; 3187,071;   -2,636;    3,045
1016,848; 3209,525;   -1,273;    0,409
1017,396; 3245,616;    2,545;    0,045
1017,944; 3360,889;    1,182;    1,864
1018,491; 3119,889;    0,273;    1,409
1019,039; 3290,525;    0,455;    0,591
1019,586; 3223,253;   -1,364;    1,682
1020,134; 3314,434;    0,455;    1,500
1020,681; 3345,343;    0,182;   -1,136
1021,228; 3325,343;    2,909;   -2,227
1021,776; 3159,434;    1,182;   -1,136
1022,323; 3377,616;    0,455;    0,773
1022,870; 3312,798;   -1,000;   -0,045
1023,417; 3191,071;    2,636;    1,864
1023,964; 3343,889;    2,636;    1,227
1024,511; 3211,071;    1,000;    0,773
1025,058; 3005,253;    3,182;   -0,045
1025,605; 3057,434;   -2,273;    3,136
1026,152; 3265,162;    1,727;   -0,591
1026,699; 2994,343;    1,818;    1,318
1027,245; 3149,980;   -0,091;    0,318
1027,792; 3383,889;   -1,000;    1,409
1028,339; 3265,162;    2,364;   -0,045
1028,885; 3113,889;    1,000;   -0,227
1029,432; 3045,343;   -0,091;    0,227
1029,978; 3113,343;   -1,000;   -1,591
1030,525; 3027,798;    1,000;    0,409
1031,071; 3272,525;   -1,364;    1,136
1031,618; 3368,162;    0,364;    1,682
1032,164; 3152,343;   -0,091;    3,045
1032,710; 3193,071;    1,636;   -1,500
1033,256; 3111,434;   -0,636;   -0,136
1033,803; 3095,434;   -0,545;    1,500
1034,349; 2837,889;   -1,364;    0,136
1034,895; 2998,707;    0,000;   -0,318
1035,441; 2961,889;   -0,818;    0,318
1035,987; 2965,343;   -2,364;   -0,682
1036,533; 2984,343;   -1,455;   -0,955
1037,078; 3177,162;    1,455;    1,682
1037,624; 2986,434;    2,455;   -0,955
1038,170; 2996,616;    0,455;   -0,318
1038,716; 2907,525;    1,636;   -0,409
1039,261; 2839,253;   -2,273;   -0,773
1039,807; 2788,707;   -0,091;    3,409
1040,352; 2853,707;   -1,909;   -0,318
1040,898; 2879,707;   -1,545;   -0,682
1041,443; 2786,162;   -1,455;   -2,591
1041,989; 2815,980;    1,091;    1,591
1042,534; 2706,071;   -0,364;    2,591
1043,079; 2823,343;    2,909;    0,955
1043,625; 2600,253;    1,818;    0,500
1044,170; 2652,162;   -1,364;    1,045
1044,715; 2903,343;    2,455;    0,955
1045,260; 2738,253;    2,182;   -0,955
1045,805; 2785,616;    1,182;   -0,591
1046,350; 2706,253;    1,364;   -0,409
1046,895; 2672,980;    2,909;    1,591
1047,440; 2629,162;    5,364;    0,409
1047,985; 2546,980;    2,818;   -0,955
1048,530; 2447,071;    1,545;    1,227
1049,074; 2505,525;    0,000;    0,318
1049,619; 2498,889;   -1,364;    1,955
1050,164; 2303,707;    0,455;    0,227
1050,708; 2339,434;   -0,455;    0,045
1051,253; 2709,343;    1,273;   -2,227
1051,797; 2421,525;    0,818;   -1,318
1052,342; 2412,707;   -1,182;    1,045
1052,886; 2419,616;    0,364;   -1,409
1053,430; 2322,707;   -1,364;    0,136
1053,975; 2319,162;   -0,818;   -0,318
1054,519; 2295,707;   -0,727;    3,227
1055,063; 2311,798;    0,909;    1,318
1055,607; 2188,798;   -0,182;    0,227
1056,151; 2230,707;    2,909;    1,682
1056,695; 2138,071;    2,273;   -1,136
1057,239; 2207,071;   -1,727;   -0,682
1057,783; 2218,434;    0,818;   -1,500
1058,327; 2160,343;    0,000;    1,409
1058,871; 2388,980;   -0,545;    1,318
1059,415; 2094,071;   -0,818;   -0,045
1059,958; 2365,343;    1,455;    2,591
1060,502; 2088,980;   -1,000;   -0,773
1061,046; 1997,434;    0,364;   -0,955
1061,589; 1985,980;   -3,000;   -1,136
1062,133; 1860,343;   -1,273;    1,864
1062,676; 1787,707;    1,182;    0,864
1063,220; 1801,889;    1,091;    0,500
1063,763; 1831,343;    0,909;    1,136
1064,306; 1894,980;   -0,909;    1,864
1064,849; 1778,162;   -0,909;    0,591
1065,393; 1784,525;    2,000;   -1,500
1065,936; 1895,343;    0,182;   -0,409
1066,479; 1790,525;   -1,455;    1,318
1067,022; 1809,798;   -0,273;   -0,227
1067,565; 1705,980;   -0,091;   -1,318
1068,108; 1742,525;    0,727;   -0,591
1068,651; 1716,525;   -0,636;    1,409
1069,194; 1643,525;   -0,455;   -1,682
1069,736; 1644,071;   -1,273;    0,955
1070,279; 1616,798;   -1,364;   -0,500
1070,822; 1660,525;   -2,000;   -0,318
1071,364; 1753,253;   -0,364;    1,318
1071,907; 1582,707;   -0,727;    3,227
1072,450; 1488,162;    0,000;   -0,045
1072,992; 1476,525;   -0,273;    3,136
1073,535; 1622,980;    2,091;    2,136
1074,077; 1417,162;   -0,727;    2,045
1074,619; 1386,889;   -1,364;    0,591
1075,161; 1400,616;   -1,091;    1,500
1075,704; 1579,889;    1,545;    1,227
1076,246; 1380,343;   -0,182;    0,682
1076,788; 1313,253;   -0,364;    1,773
1077,330; 1401,162;    1,273;    2,136
1077,872; 1366,162;    0,909;    0,955
1078,414; 1579,707;    2,727;    0,773
1078,956; 1327,798;    1,273;   -0,227
1079,498; 1573,162;    1,636;    0,318
1080,040; 1277,707;    1,909;   -1,318
1080,581; 1221,525;    1,636;   -0,318
1081,123; 1146,798;    0,091;   -0,773
1081,665; 1193,707;   -1,182;   -0,955
1082,206; 1481,707;    1,364;   -0,500
1082,748; 1354,253;    0,727;    2,045
1083,289; 1225,616;   -2,000;    1,318
1083,831; 1130,343;   -0,545;    0,227
1084,372; 1165,616;    0,000;    0,591
1084,913; 1175,253;    1,091;    0,864
1085,455; 1146,525;   -1,909;   -2,045
1085,996; 1119,707;   -2,273;    0,136
1086,537; 1145,162;   -0,091;    0,864
1087,078; 1169,253;   -0,909;   -2,136
1087,619; 1216,525;   -1,273;    0,227
1088,160; 1127,162;    0,000;    1,318
1088,701; 1123,525;   -1,091;    0,682
1089,242; 1059,889;    1,364;   -2,227
1089,783; 1144,434;   -0,273;    1,409
1090,324; 1114,253;    0,455;    0,682
1090,865;  985,980;    2,727;   -0,409
1091,405;  961,798;    0,727;    2,227
1091,946;  991,162;    0,182;   -0,955
1092,487;  923,889;    0,818;   -1,409
1093,027; 1084,343;   -1,364;   -1,500
1093,568;  939,707;   -0,364;    1,227
1094,108; 1029,162;    0,273;    1,773
1094,649;  968,162;   -1,182;    0,136
1095,189;  914,071;   -0,636;   -0,682
1095,729;  866,162;   -0,091;    0,955
1096,269;  878,162;    0,727;   -0,955
1096,810; 1189,253;   -1,364;    0,500
1097,350; 1007,889;    1,364;   -0,773
1097,890;  906,525;    0,364;    1,227
1098,430; 1155,343;    2,364;    2,864
1098,970; 1021,343;    2,182;    1,682
1099,510;  891,434;    0,545;   -2,318
1100,050;  825,707;    1,000;   -1,591
1100,589;  781,343;   -0,727;   -0,318
1101,129;  909,071;    0,818;   -0,955
1101,669; 1057,616;    1,727;    2,136
1102,209;  885,434;   -0,091;    2,227
1102,748;  846,434;    0,000;    0,955
1103,288;  821,980;    1,273;   -1,227
1103,827;  856,798;    3,091;   -2,227
1104,367;  733,980;   -0,091;   -2,409
1104,906;  694,707;    1,364;   -1,136
1105,445;  758,253;    0,636;   -1,136
1105,985;  710,889;   -0,727;    1,500
1106,524;  768,525;   -1,727;   -0,682
1107,063;  740,707;   -2,727;    1,409
1107,602;  715,253;   -1,909;   -1,500
1108,141;  640,253;   -1,909;    1,500
1108,680;  736,434;   -3,455;   -0,591
1109,219;  666,889;   -0,909;   -0,500
1109,758;  664,071;    0,455;    0,682
1110,297;  635,980;    1,000;   -0,682
1110,836;  595,434;   -0,727;    0,955
1111,375;  752,343;   -2,545;    0,409
1111,913;  770,798;   -1,000;    0,773
1112,452;  694,616;   -0,273;    0,136
1112,991;  589,162;    1,091;    1,955
1113,529;  554,889;   -0,818;   -0,045
1114,068;  624,071;   -0,273;    2,955
1114,606;  520,162;   -0,364;   -0,955
1115,144;  676,980;   -1,273;    1,045
1115,683;  618,071;   -0,727;    0,318
1116,221;  661,616;   -0,455;   -0,864
1116,759;  574,525;    0,636;   -0,864
1117,297;  770,253;    0,000;    1,864
1117,836;  576,980;   -2,182;   -1,227
1118,374;  578,434;    0,182;   -0,682
1118,912;  526,434;    0,909;    2,682
1119,450;  514,343;    1,000;    0,864
1119,988;  569,434;    1,545;    2,136
1120,525; 1024,889;    5,091;    3,318
1121,063;  719,525;    1,182;    1,864
1121,601;  527,434;   -0,909;   -1,227
1122,139;  482,525;   -0,727;   -2,045
1122,676;  680,434;   -0,727;    2,773
1123,214;  612,162;   -1,182;    4,409
1123,751;  424,343;    1,727;    2,227
1124,289;  554,343;   -0,091;   -0,409
1124,826;  427,616;    1,727;    0,227
1125,364;  355,253;    1,727;   -0,955
1125,901;  539,253;    1,182;    1,227
1126,438;  656,707;    0,818;    0,955
1126,975;  381,798;   -0,727;   -0,773
1127,513;  443,253;    0,273;    2,136
1128,050;  354,980;    1,636;   -0,682
1128,587;  457,889;    2,000;   -0,227
1129,124;  495,616;    0,091;    1,318
1129,661;  361,798;    0,273;    0,227
1130,198;  521,434;    1,636;    0,773
1130,734;  461,616;    0,182;    1,409
1131,271;  322,253;   -0,909;    0,864
1131,808;  497,889;    2,909;    3,045
1132,345;  373,434;    1,545;    0,318
1132,881;  248,253;   -1,545;   -1,864
1133,418;  384,980;    0,727;   -1,136
1133,954;  322,343;    2,455;   -2,682
1134,491;  398,253;    1,364;   -0,773
1135,027;  297,707;    2,364;    0,864
1135,564;  387,434;    0,273;    2,955
1136,100;  365,434;    0,364;    2,136
1136,636;  257,434;   -1,273;   -1,045
1137,172;  346,343;    0,000;   -1,045
1137,708;  275,707;   -1,364;   -1,045
1138,245;  287,798;    1,273;   -1,227
1138,781;  242,889;    1,091;   -3,318
1139,317;  302,434;    1,273;   -1,409
1139,852;  287,707;    3,091;    0,136
1140,388;  404,616;   -1,182;   -0,409
1140,924;  291,707;   -1,091;   -2,227
1141,460;  228,525;   -1,636;    0,136
1141,996;  163,616;   -1,364;    2,682
1142,531;  207,798;    1,364;    3,318
1143,067;  417,980;    1,182;    1,045
1143,602;  476,253;   -0,091;   -0,318
1144,138;  319,616;   -2,636;    1,045
1144,673;  195,525;   -1,455;    1,409
1145,209;  257,525;   -1,909;   -0,318
1145,744;  190,616;   -0,727;    0,864
1146,279;  315,434;    1,818;   -0,136
1146,815;  232,798;    1,545;   -2,682
1147,350;  270,980;   -1,364;    0,045
1147,885;  186,980;   -0,818;   -1,318
1148,420;  189,889;   -2,273;    0,773
1148,955;  170,980;   -1,727;    1,864
1149,490;  188,434;   -0,909;   -1,591
1150,025;  173,343;    0,455;   -1,773
1150,560;  279,707;    1,091;   -0,955
1151,094;  256,343;    1,455;   -0,591
1151,629;  265,525;    1,636;    0,864
1152,164;  186,525;    1,364;    1,318
1152,698;  147,162;   -0,182;   -0,136
1153,233;  105,889;    0,091;   -0,682
1153,767;  152,525;   -3,000;   -2,318
1154,302;  206,798;   -1,455;    1,773
1154,836;  210,525;   -0,455;   -2,136
1155,371;  249,980;   -1,364;    3,682
1155,905;  197,889;   -0,636;    1,682
1156,439;  162,889;   -0,636;   -0,500
1156,973;  209,707;    0,364;    0,318
1157,507;  142,253;   -0,364;    0,682
1158,042;  164,798;   -0,727;    1,045
1158,576;  213,798;    0,182;    1,773
1159,110;  199,889;   -0,818;    2,409
1159,643;  172,434;    0,636;   -0,045
1160,177;  111,525;   -1,545;    1,500

