
Integration time [ms]:   0,040
Averaging Nr. [scans]: 11
Smoothing Nr. [pixels]: 0
Data measured with spectrometer [name]: 7318044SP
Wave   ;Sample   ;Dark     ;Reference
[nm]   ;[counts] ;[counts] ;[counts] 

186,757;   -0,438;   31,551;    1,318
187,357;   25,119;   22,551;    0,955
187,958;    9,273;   15,460;   -1,591
188,558;   38,924;    8,915;   -1,227
189,159;   16,485;    6,733;   -4,500
189,759;  -12,274;    7,278;   -3,591
190,360;  -16,425;    2,824;   -2,136
190,960;   10,089;    2,915;   -4,136
191,560;   18,960;    3,189;   -6,591
192,161;  212,940;    4,372;   -3,500
192,761;   88,716;    4,010;   -3,227
193,361;   35,915;    1,556;   -3,773
193,962;   69,658;    2,010;   -2,682
194,562;    7,412;    1,189;   -3,955
195,162;    9,046;   -2,448;   -2,227
195,762;  126,208;   -3,176;   -0,045
196,362;   81,489;    1,370;   -2,500
196,963;    2,532;    2,006;   -0,864
197,563;   39,470;    1,551;   -0,955
198,163;   -0,020;    0,096;   -0,682
198,763;   11,635;    1,733;   -0,500
199,363;   58,970;    3,096;   -0,500
199,963;   23,992;    0,369;    0,409
200,563;    6,577;    2,823;   -1,409
201,163;   -2,109;    3,277;   -0,227
201,763;   21,433;    3,732;    0,318
202,363;    1,136;    1,459;    1,500
202,963;   28,209;    1,459;    1,045
203,563;   85,413;    0,277;    0,500
204,162;   16,871;    2,096;   -1,864
204,762;   16,537;    0,550;    0,591
205,362;   -8,505;    3,004;    1,955
205,962;   15,891;    3,096;    1,955
206,562;    8,519;    1,823;    2,318
207,161;   -2,031;   -0,087;    0,318
207,761;   65,368;    1,277;    2,409
208,361;    6,872;   -0,268;    1,409
208,960;   25,940;    0,459;    1,500
209,560;   24,357;    1,277;    1,591
210,160;   32,347;    0,550;    1,864
210,759;    4,916;    4,186;    1,227
211,359;   -0,996;    1,459;    1,045
211,958;   93,895;    1,277;    2,045
212,558;  102,073;    1,732;    1,864
213,157;   35,082;    1,822;    1,500
213,757;  169,190;    3,822;   -0,227
214,356;   57,846;    1,277;   -0,409
214,956;  147,431;    3,095;    0,409
215,555;   32,284;    2,095;    2,136
216,154;    8,497;   -2,723;   -0,591
216,754;    9,041;    0,277;    0,773
217,353;   17,723;   -0,268;   -1,045
217,952;  -24,732;   -0,178;    0,318
218,552;   36,996;    1,368;   -0,773
219,151;    7,763;    0,277;    0,955
219,750;   -3,072;    0,004;   -0,227
220,349;   -6,758;   -0,451;    1,045
220,948;   48,161;   -1,360;    1,136
221,548;   -5,917;    0,913;    1,227
222,147;   11,292;   -0,087;   -0,409
222,746;   82,613;   -0,451;   -0,955
223,345;   29,162;    0,731;    0,500
223,944;   29,937;   -0,451;    0,773
224,543;   31,382;    1,004;   -1,409
225,142;   22,055;    0,094;    0,136
225,741;   24,275;   -0,814;    1,045
226,340;   19,491;   -0,451;   -0,955
226,939;   67,472;   -0,996;   -0,136
227,538;   14,030;   -0,360;   -0,773
228,137;   69,891;   -0,814;    0,864
228,735;   45,890;   -0,541;    1,227
229,334;   -9,929;   -0,905;   -0,227
229,933;   72,406;    0,459;    0,591
230,532;   64,488;    1,186;   -0,409
231,131;  109,513;    1,732;    0,318
231,729;   45,584;   -2,450;   -2,318
232,328;   12,733;   -0,723;   -1,500
232,927;   21,206;    1,004;   -0,500
233,525;   10,811;    3,640;    0,045
234,124;   25,912;    2,368;   -1,591
234,723;    5,100;    0,913;   -1,045
235,321;   -9,283;    2,277;    0,136
235,920;   -3,506;    1,186;   -1,227
236,518;   70,656;    3,459;    0,318
237,117;    2,599;    0,004;   -0,227
237,715;   19,223;    0,640;   -0,500
238,314;   20,127;   -0,087;   -2,318
238,912;   74,703;   -0,723;   -1,409
239,510;   36,245;    0,459;   -1,227
240,109;   85,504;    0,004;    3,773
240,707;   67,931;   -0,996;    1,227
241,305;   -0,215;    0,550;    0,136
241,904;   36,148;   -0,178;   -2,045
242,502;  101,060;   -0,632;   -0,227
243,100;   45,858;   -0,087;   -0,955
243,698;    2,572;    0,732;    1,682
244,297;   21,799;   -0,632;    0,682
244,895;   17,261;   -0,269;   -2,318
245,493;   85,964;    2,186;   -0,591
246,091;   97,568;    1,368;   -1,318
246,689;   54,294;    1,004;    0,591
247,287;   40,717;    0,822;   -1,136
247,885;   31,368;   -1,451;    1,227
248,483;   15,050;    1,822;   -0,500
249,081;   50,532;    0,185;    1,591
249,679;   54,378;   -0,178;    1,682
250,277;    7,726;   -1,723;    0,864
250,875;   48,222;   -1,087;   -1,045
251,473;   20,812;   -1,178;    0,500
252,071;   63,777;    1,459;    1,045
252,669;   26,755;   -1,814;    0,318
253,267;    9,869;   -0,087;    0,773
253,864;   27,172;   -0,360;    0,682
254,462;   81,002;    1,640;    1,591
255,060;   11,271;   -0,269;    1,318
255,658;   15,391;    0,822;   -0,136
256,255;   27,899;    0,186;   -2,045
256,853;   52,277;   -0,269;    1,409
257,451;   28,781;    0,822;    1,864
258,048;  212,505;    1,822;    1,864
258,646;   94,638;    1,731;   -1,045
259,243;  134,731;   -0,087;    2,227
259,841;   79,634;   -0,814;    0,318
260,438;   13,065;   -0,087;    0,864
261,036;   69,193;   -1,905;    1,409
261,633;   26,756;   -0,087;    2,227
262,231;   13,329;    2,731;   -0,045
262,828;    5,280;   -0,905;    1,136
263,425;   22,776;    0,913;   -0,591
264,023;   33,817;    0,186;    0,045
264,620;  103,364;   -0,360;   -0,318
265,217;  165,937;   -2,087;    3,136
265,815;   46,985;   -1,905;    2,136
266,412;  104,757;    0,731;    0,136
267,009;  100,962;   -1,451;    0,773
267,606;  146,729;    0,822;   -0,955
268,203;   64,590;   -0,269;   -0,591
268,801;   75,239;    1,731;    0,591
269,398;   41,673;   -0,360;    2,500
269,995;  119,461;    0,277;    1,591
270,592;   89,647;   -0,632;   -0,500
271,189;   36,522;    0,186;    0,409
271,786;   26,717;   -0,632;    1,227
272,383;  132,195;   -1,087;    0,227
272,980;   73,751;    0,277;    0,318
273,577;   49,820;    0,004;    1,227
274,174;   40,399;    0,822;    2,591
274,771;  115,937;   -0,814;   -0,773
275,367;  335,728;    2,277;    1,409
275,964;  194,707;    0,731;   -0,500
276,561;   82,030;    1,549;   -1,045
277,158;   28,105;    0,095;   -1,773
277,755;  165,896;    2,185;    0,409
278,351;  114,455;   -0,451;   -1,500
278,948;  141,774;   -0,815;    0,045
279,545;  110,796;   -1,360;    2,318
280,141;  187,051;   -1,723;   -2,045
280,738;  198,663;   -0,451;   -0,136
281,334;   89,128;   -1,633;    0,591
281,931;   85,211;   -0,087;   -1,318
282,528;  160,602;    0,822;   -0,500
283,124;  200,366;   -1,087;   -0,500
283,721;  186,844;   -0,451;    1,409
284,317;  111,909;    0,185;    2,500
284,913;  211,088;   -1,360;    0,591
285,510;  346,270;    0,640;   -0,318
286,106;  241,412;   -2,269;   -0,955
286,703;  147,650;   -0,360;    1,955
287,299;  103,089;   -1,451;   -0,591
287,895;  100,667;    0,822;   -1,045
288,491;   98,218;    0,186;    2,136
289,088;  178,921;   -2,360;    2,409
289,684;  213,573;   -1,723;    1,500
290,280;  334,049;    0,368;    0,682
290,876;  300,150;    1,822;    5,500
291,472;  254,136;    1,276;    2,227
292,068;  279,686;    1,367;    0,227
292,665;  203,452;    2,095;    0,773
293,261;  142,705;    0,276;    2,136
293,857;  316,593;    2,913;    2,136
294,453;  254,496;    3,550;    0,955
295,049;  473,973;   -0,268;    1,955
295,644;  340,962;    0,095;    0,136
296,240;  233,375;   -0,905;   -0,136
296,836;  362,632;   -0,995;    0,318
297,432;  505,741;    1,096;   -0,500
298,028;  569,893;    0,732;    0,773
298,624;  443,816;    1,459;    1,864
299,220;  436,234;    2,368;    0,591
299,815;  447,576;    1,005;   -0,409
300,411;  576,246;    0,914;    1,773
301,007;  714,345;    1,368;    0,227
301,602;  552,603;   -0,541;   -2,318
302,198;  702,793;    0,732;   -0,773
302,794;  555,928;    1,187;   -0,500
303,389;  535,839;   -1,177;    1,045
303,985;  606,175;    0,550;    1,409
304,580;  740,018;    1,459;    1,591
305,176;  650,488;   -3,086;    0,136
305,771;  537,980;   -1,268;   -1,227
306,367;  958,954;    4,095;    0,136
306,962;  710,330;    0,641;    1,500
307,558;  739,905;   -0,450;    0,136
308,153;  840,762;    1,095;   -1,136
308,748;  599,909;   -0,814;    1,682
309,344;  999,348;   -0,632;   -1,318
309,939; 1015,282;   -1,905;   -1,318
310,534;  658,497;   -0,086;   -1,682
311,130;  607,516;    0,459;   -2,500
311,725;  547,431;    1,004;   -0,500
312,320;  602,937;    2,459;    0,045
312,915;  700,497;    1,459;   -1,045
313,510;  903,007;    1,550;   -0,500
314,105;  602,984;    1,096;    1,409
314,700;  438,808;   -3,086;   -1,045
315,295;  506,837;   -0,904;    0,045
315,890;  428,783;    1,277;    0,864
316,485;  541,341;   -0,359;   -0,318
317,080;  430,877;   -3,086;    1,591
317,675;  731,574;    2,005;   -0,682
318,270;  919,069;    5,550;    3,318
318,865;  793,614;    3,278;    3,045
319,460;  614,390;   -0,904;    0,591
320,055;  424,213;   -0,541;   -1,227
320,650;  426,361;   -1,995;   -0,591
321,244;  418,035;   -0,177;   -1,409
321,839;  419,992;   -1,541;   -0,227
322,434;  475,755;   -1,086;   -1,591
323,029;  386,830;    1,732;    1,591
323,623;  352,545;    1,550;    0,773
324,218;  520,007;    2,368;    1,409
324,812;  463,383;    1,096;    1,591
325,407;  480,209;   -0,814;    2,045
326,002;  606,270;    0,277;   -0,409
326,596;  543,079;    0,914;    1,318
327,191;  396,449;    0,823;   -1,045
327,785;  385,442;   -0,813;   -0,227
328,379;  423,570;    1,368;    0,136
328,974;  489,692;    0,914;   -3,955
329,568;  532,233;    0,186;   -2,409
330,163;  627,590;    2,096;    1,045
330,757;  482,949;    2,459;    1,591
331,351;  447,790;    0,459;    0,682
331,945;  463,018;    0,914;    1,409
332,540;  649,427;   -1,723;   -0,591
333,134;  656,102;   -1,086;    0,773
333,728;  668,215;    0,005;    0,318
334,322;  601,690;   -1,177;   -0,864
334,916;  606,715;    0,277;    0,955
335,510;  843,274;   -0,450;   -0,136
336,105;  899,540;   -1,086;    1,591
336,699;  795,702;   -1,086;    0,591
337,293;  870,502;   -1,723;    0,318
337,887;  869,422;   -2,723;    1,955
338,481; 1094,730;    0,459;    0,591
339,074; 1288,169;   -0,359;    2,682
339,668; 1298,408;   -1,632;    1,227
340,262; 2044,951;    1,732;    3,227
340,856; 1604,419;    1,822;   -0,682
341,450; 1239,940;    1,004;    1,864
342,044; 1456,411;    1,459;    0,136
342,637; 1645,958;    0,913;   -2,136
343,231; 1747,570;   -2,360;    0,682
343,825; 1588,338;   -1,086;   -0,591
344,419; 1670,114;   -1,995;    0,500
345,012; 2296,138;    2,459;    4,045
345,606; 2153,467;    4,641;    1,591
346,199; 1905,125;   -1,813;   -0,227
346,793; 2029,091;    1,914;    2,045
347,386; 1993,080;   -0,813;   -1,136
347,980; 1911,658;   -0,268;   -0,045
348,573; 2050,253;    2,278;    0,409
349,167; 2257,755;    5,278;    4,773
349,760; 2387,151;    2,914;    2,682
350,354; 2317,421;   -0,813;    1,136
350,947; 2353,467;    1,096;    1,682
351,540; 2171,859;   -0,358;   -1,409
352,134; 2075,000;    1,096;    1,136
352,727; 2179,746;   -0,086;    1,136
353,320; 2173,670;    0,005;    0,591
353,913; 2041,887;   -1,995;    1,864
354,507; 2299,890;    0,823;   -1,227
355,100; 2281,613;    0,460;    0,864
355,693; 2417,496;    2,005;    2,409
356,286; 2190,453;    0,823;    2,773
356,879; 2175,698;   -0,722;    1,227
357,472; 2015,003;   -0,904;    1,500
358,065; 2155,143;   -0,722;    2,500
358,658; 2049,970;   -0,540;    2,318
359,251; 1905,517;   -1,631;   -0,591
359,844; 1901,596;   -1,904;   -1,136
360,437; 2028,220;   -2,995;    0,045
361,030; 1971,941;    1,369;   -0,682
361,623; 1829,862;    2,824;    0,318
362,215; 1986,263;   -0,086;    2,045
362,808; 1814,449;   -2,358;   -1,682
363,401; 1795,280;   -2,449;    0,136
363,994; 1965,152;   -0,631;   -1,500
364,586; 1742,890;    0,824;   -1,500
365,179; 1712,817;   -0,449;   -1,136
365,772; 1425,197;   -1,995;    2,045
366,364; 1549,309;    1,915;   -3,227
366,957; 1713,550;    2,279;   -0,045
367,549; 1593,754;    2,188;   -0,864
368,142; 1530,373;    1,825;   -1,500
368,734; 1516,823;    0,734;   -2,136
369,327; 1435,901;    1,643;   -0,500
369,919; 1441,665;   -1,538;    0,409
370,512; 1473,299;   -1,083;   -0,500
371,104; 1601,390;   -0,901;    1,591
371,696; 1678,896;    1,191;   -0,955
372,289; 1550,185;    0,373;    1,136
372,881; 1481,439;   -2,080;    1,318
373,473; 1332,829;   -2,170;    1,136
374,066; 1411,890;   -0,169;    0,500
374,658; 1335,277;    0,378;    1,136
375,250; 1323,217;    0,653;   -1,409
375,842; 1325,500;    0,473;   -0,045
376,434; 1256,699;   -0,435;   -0,409
377,026; 1389,332;    0,204;   -2,500
377,618; 1352,549;   -0,158;   -0,682
378,210; 1239,422;   -0,338;   -1,955
378,802; 1127,099;    0,754;   -0,591
379,394; 1568,039;    1,846;    0,682
379,986; 1403,849;    1,393;   -0,955
380,578; 1320,981;   -0,153;    0,773
381,170; 1462,624;   -0,972;    0,045
381,762; 1344,623;    0,755;    1,409
382,354; 1309,204;   -0,065;   -1,318
382,945; 1239,272;   -2,976;    0,318
383,537; 1233,415;   -2,705;   -1,955
384,129; 1268,709;   -2,160;   -1,136
384,721; 1366,991;   -0,252;    0,955
385,312; 1255,958;   -0,161;   -0,955
385,904; 1406,088;   -2,706;    1,591
386,496; 1151,701;   -0,979;    1,045
387,087; 1345,295;    1,022;    2,500
387,679; 1255,275;   -1,160;    0,045
388,270; 1310,441;    2,840;    2,045
388,862; 1268,664;    1,295;   -0,318
389,453; 1136,930;   -0,887;    1,045
390,045; 1238,627;   -0,705;   -2,682
390,636; 1182,487;    0,204;   -0,591
391,227; 1161,874;   -0,523;   -0,045
391,819; 1215,886;    0,204;    0,773
392,410; 1462,963;    1,022;    0,045
393,001; 1283,861;   -0,979;   -1,591
393,593; 1388,720;    1,930;   -0,045
394,184; 1416,862;    1,385;   -0,409
394,775; 1201,893;    1,839;    2,136
395,366; 1263,474;    1,385;    0,773
395,957; 1407,722;    0,113;    0,136
396,548; 1332,740;   -0,342;    2,682
397,139; 1529,439;   -2,433;    0,591
397,730; 1355,897;   -1,888;    0,955
398,321; 1364,641;   -1,252;    0,955
398,912; 1302,040;   -0,615;    0,136
399,503; 1366,524;   -3,524;   -1,409
400,094; 1277,202;    0,294;    1,682
400,685; 1260,669;   -0,433;    0,045
401,276; 1149,390;    0,930;   -0,955
401,867; 1208,313;   -0,888;    0,773
402,458; 1191,631;   -2,251;   -2,318
403,048; 1338,408;    1,112;    0,591
403,639; 1159,659;    0,840;    0,864
404,230; 1400,349;    2,476;    0,318
404,821; 1432,342;   -0,615;    0,045
405,411; 1301,113;    1,203;   -2,591
406,002; 1113,167;   -1,252;   -1,136
406,592; 1371,821;    2,294;    0,045
407,183; 1215,966;    0,566;   -1,500
407,774; 1116,835;    3,475;   -0,136
408,364; 1111,617;    0,930;    0,409
408,954; 1199,230;    0,384;    1,227
409,545; 1172,682;    1,021;    1,045
410,135; 1012,884;    1,293;    0,500
410,726;  958,313;    1,838;    0,318
411,316; 1193,439;    0,111;    0,773
411,906;  927,303;   -0,253;   -0,409
412,497;  869,490;   -1,070;   -0,045
413,087;  820,188;   -1,980;   -0,227
413,677;  784,071;   -0,707;    3,864
414,267;  718,946;    0,656;    1,409
414,857;  646,950;   -2,980;    4,227
415,448;  647,132;    0,839;    0,500
416,038;  624,256;    0,020;   -0,591
416,628;  664,068;   -0,889;    0,409
417,218;  718,502;    0,565;    3,318
417,808;  884,325;    0,202;   -0,409
418,398;  681,628;    0,020;    2,682
418,988;  501,874;    2,020;    0,591
419,578;  579,317;   -0,707;    1,409
420,168;  524,486;   -1,343;   -0,955
420,757;  683,162;   -1,343;   -1,500
421,347;  512,344;    0,111;   -0,227
421,937;  439,463;    2,292;    1,409
422,527;  575,927;    0,838;   -0,773
423,116;  716,204;   -0,253;   -0,045
423,706;  354,728;   -1,889;    0,318
424,296;  272,363;    1,384;    0,682
424,885;  444,363;   -0,071;   -3,045
425,475;  383,282;    1,474;   -2,864
426,065;  220,039;   -0,980;   -0,318
426,654;  186,037;   -0,435;   -0,318
427,244;  507,679;    0,020;    1,409
427,833;  455,129;    1,383;   -0,500
428,423;  277,272;   -0,526;    1,136
429,012;  258,563;   -0,344;   -1,136
429,601;  402,058;   -1,344;    0,136
430,191;  264,616;    1,292;    4,318
430,780;  126,152;   -0,344;   -0,409
431,369;  357,332;    0,746;   -0,045
431,959;  212,820;   -1,254;    0,500
432,548;  119,126;   -1,163;   -0,045
433,137;   28,225;   -1,254;   -1,318
433,726;  111,673;    0,292;    0,500
434,315;  135,831;   -0,526;    2,409
434,905;  257,343;   -1,254;    1,409
435,494;  251,906;    0,746;    0,955
436,083;   85,101;   -0,981;   -0,955
436,672;  169,927;    0,110;    0,500
437,261;  109,730;    0,292;   -1,955
437,850;  356,329;    1,383;    0,682
438,439;  389,415;    3,291;    1,955
439,027;  498,148;    3,655;    1,773
439,616;  413,556;    2,927;    1,227
440,205;  180,967;    0,200;   -2,136
440,794;  117,287;    2,109;   -0,045
441,383;   44,455;   -1,346;   -0,591
441,971;    4,816;   -2,436;    0,591
442,560;   12,500;    0,563;   -1,773
443,149;  -78,364;    0,379;   -1,318
443,737;  -39,690;   -0,074;   -2,318
444,326;  -16,589;    0,018;    0,318
444,915;   31,074;   -1,982;    0,864
445,503;   37,794;   -2,891;   -0,318
446,092;  279,436;    0,382;    2,136
446,680;  216,355;    0,382;    0,318
447,269;  124,058;   -0,346;   -0,318
447,857;  102,436;    0,018;   -1,773
448,445;   58,290;    0,563;    1,318
449,034;    3,316;   -1,528;   -1,136
449,622;   11,771;   -1,073;    3,500
450,210;  271,983;    2,017;    2,227
450,799;  186,261;    0,290;   -0,591
451,387;  152,478;    1,381;   -0,591
451,975;  129,925;    2,654;    0,864
452,563;  202,064;    3,472;    2,318
453,151;   39,266;   -0,528;   -1,227
453,739;   80,628;   -1,347;    0,136
454,328;  180,679;    2,381;   -2,136
454,916;  113,902;    2,562;   -0,136
455,504;  128,741;    1,017;    1,227
456,092;   21,308;    0,017;   -1,591
456,679;  -18,266;    1,472;    0,682
457,267;  366,111;    4,017;    1,045
457,855;   73,998;    1,017;    1,409
458,443;  -49,803;   -0,165;    1,682
459,031;   94,186;    0,108;    2,409
459,619;   52,874;   -1,801;    2,864
460,206;  -36,362;    0,835;    2,045
460,794;  -31,322;   -2,983;   -0,227
461,382;   17,730;   -0,529;   -0,864
461,970;   15,305;    1,198;    1,864
462,557;  -57,848;   -0,711;   -0,682
463,145;   54,387;   -3,165;   -1,682
463,732;  290,409;    2,016;   -1,045
464,320;   76,093;   -0,075;   -3,045
464,907;  202,147;    2,743;   -0,773
465,495;  119,332;    0,743;   -1,227
466,082;   48,576;   -1,984;   -0,045
466,670;   77,488;   -2,529;    1,227
467,257;  -27,960;   -1,711;    2,045
467,844;   77,440;   -0,075;    0,045
468,432;   42,474;    0,834;    3,500
469,019;    7,826;    0,925;   -1,773
469,606;   77,057;    0,470;    3,682
470,193;  103,961;   -1,439;    0,227
470,780;   68,910;   -2,075;    0,864
471,368;    6,135;   -1,257;   -0,773
471,955;  101,493;    1,379;   -0,682
472,542;   59,723;    0,652;   -1,136
473,129;  -41,170;   -0,166;    0,136
473,716;  -40,024;    1,470;    0,591
474,303;   -3,113;    0,652;   -0,864
474,890;    7,586;   -1,439;   -0,500
475,477;  102,474;   -1,621;    0,409
476,064;   14,403;    1,106;   -1,591
476,650;  122,203;    0,288;    0,318
477,237;   37,294;   -0,258;    0,955
477,824;   18,420;   -1,076;    0,864
478,411;  -58,310;   -1,894;   -0,318
478,997;  -65,385;    0,560;   -0,773
479,584; -109,486;    1,196;   -0,409
480,171;   53,233;   -0,440;   -0,773
480,757;  114,101;    2,651;    0,773
481,344;    9,295;    0,469;    0,409
481,931;  -78,043;    1,105;    1,045
482,517;   41,933;   -1,258;    0,318
483,104;  123,029;    1,106;    2,864
483,690;    1,849;   -1,804;    0,045
484,276;  -26,468;   -0,895;    0,227
484,863;  174,523;    2,469;    1,136
485,449;   30,817;   -0,077;    0,318
486,035;   -5,423;   -1,986;   -0,136
486,622;   79,926;   -0,895;    0,045
487,208;    4,633;    1,378;    1,500
487,794;  -66,596;    0,741;    0,318
488,380;  -71,227;    0,105;   -1,409
488,967;  -64,382;   -1,168;   -0,409
489,553;  -47,180;   -1,895;   -1,409
490,139;   18,427;    1,559;    0,773
490,725;  -48,660;    0,741;   -0,227
491,311;   -4,422;    3,287;    3,045
491,897;  -24,692;   -0,986;    1,500
492,483;  -10,384;    0,105;    1,227
493,069;  399,825;    3,923;    0,864
493,655;  122,414;    1,650;    0,682
494,241;    4,380;    1,377;   -0,955
494,826;   14,728;    0,287;   -1,045
495,412;   78,940;    2,559;   -0,682
495,998;   -2,933;   -0,805;   -0,318
496,584;   51,907;    0,377;    1,045
497,169;   69,793;    1,014;   -0,682
497,755;   13,605;    0,650;    1,227
498,341;  132,792;    0,559;    0,318
498,926;  253,500;    1,832;    1,955
499,512;    6,949;    1,286;    2,955
500,097;    2,289;    0,195;   -0,318
500,683;   27,553;   -0,350;    2,136
501,268;  -21,051;   -0,169;   -0,955
501,854;   -2,710;   -0,169;    1,227
502,439;  -11,690;   -0,624;   -1,773
503,024;    8,447;    0,195;    0,500
503,610;   43,294;   -0,078;   -0,682
504,195;  -11,213;    0,558;    1,955
504,780;   73,497;    2,922;    1,227
505,366;  160,857;    3,013;    2,864
505,951;   95,024;    0,740;    1,045
506,536;   33,050;   -3,260;   -3,682
507,121;   80,618;    0,285;   -0,318
507,706;   40,893;    2,376;    1,045
508,291;   -0,066;    2,649;    1,136
508,876;   13,730;   -0,988;    2,591
509,461;   70,533;   -0,169;   -0,773
510,046;  132,652;    0,194;    0,318
510,631;  161,549;   -0,351;   -0,773
511,216;   91,801;    2,467;   -0,500
511,801;  196,749;   -0,442;    2,591
512,386;  277,888;    0,740;    0,500
512,971;  339,817;   -2,988;    0,955
513,555;  474,773;   -0,897;   -1,500
514,140;  490,172;   -0,442;   -3,136
514,725;  724,436;   -0,715;   -1,136
515,309;  702,432;   -0,533;    0,318
515,894;  669,583;   -0,624;   -2,227
516,479;  853,226;   -0,624;   -0,955
517,063; 1001,856;    0,376;    1,227
517,648; 1179,859;    1,012;   -1,136
518,232; 1275,014;   -0,261;   -1,409
518,817; 1654,531;   -0,079;    1,682
519,401; 2121,223;    2,194;    0,591
519,985; 2097,854;    1,103;    1,136
520,570; 2362,534;    0,830;   -1,955
521,154; 2876,876;    2,102;    0,591
521,738; 3420,169;   -2,352;    2,409
522,323; 4077,599;   -0,170;    1,682
522,907; 4282,045;    0,466;   -0,136
523,491; 4570,229;    0,557;    0,955
524,075; 4983,654;    2,284;    0,591
524,659; 5508,037;    1,466;    0,591
525,243; 5629,161;    1,739;    0,409
525,827; 6171,352;    0,648;   -0,045
526,411; 7124,037;   -1,989;   -0,136
526,995; 7713,377;   -0,352;    1,409
527,579; 7817,948;   -0,443;   -1,045
528,163; 8414,353;    0,375;   -1,500
528,747; 8779,713;    2,466;   -0,773
529,331; 9361,559;   -0,080;   -1,409
529,915; 9809,749;    1,738;    0,955
530,499;10084,809;   -0,807;    1,227
531,082;10118,674;   -0,534;    1,591
531,666; 9926,584;    1,374;    0,773
532,250;10719,139;    1,284;    2,682
532,833;11258,731;    0,920;    2,773
533,417;11379,400;   -1,807;    0,864
534,001;11520,353;    1,647;   -0,318
534,584;12310,307;    0,374;    0,500
535,168;12344,487;    0,465;    1,409
535,751;12570,433;    0,647;    0,045
536,334;12170,258;   -0,898;   -0,409
536,918;12927,741;    0,011;    1,591
537,501;13100,387;   -0,899;    1,318
538,085;13220,846;   -0,444;    1,045
538,668;13453,453;    0,829;    2,409
539,251;13843,242;    1,829;    3,773
539,834;13951,967;    0,101;    0,773
540,418;13928,835;   -1,990;    4,318
541,001;14140,890;   -0,990;    1,773
541,584;14236,256;    2,101;    2,227
542,167;13981,414;    1,374;    2,955
542,750;14206,814;    1,919;   -0,773
543,333;13880,352;    0,555;    2,136
543,916;14680,731;    0,192;    2,500
544,499;15262,707;   -1,354;    0,227
545,082;15357,679;    1,374;    3,591
545,665;15544,613;    1,919;    1,500
546,248;15875,352;    1,010;   -0,318
546,830;15579,409;   -0,445;    1,955
547,413;16010,667;    1,010;   -0,773
547,996;16581,918;    0,555;    0,500
548,579;16373,172;    0,919;    0,955
549,161;16205,144;    1,828;    2,682
549,744;16020,034;   -0,809;    0,409
550,326;16540,217;   -0,809;   -1,136
550,909;16324,742;    2,737;    0,591
551,492;16764,031;   -0,263;    0,227
552,074;16571,687;   -0,173;   -1,318
552,657;17131,294;    2,373;    0,045
553,239;16905,934;   -0,173;   -0,773
553,821;16862,465;   -1,082;    1,045
554,404;16394,626;    1,282;    1,136
554,986;16779,453;    0,464;    1,045
555,568;17338,365;    1,191;   -0,955
556,151;16597,791;    1,191;   -0,227
556,733;16795,813;   -0,264;   -0,864
557,315;17283,108;    0,100;    0,500
557,897;17105,802;    0,554;   -0,500
558,479;17251,834;   -1,991;    1,318
559,061;17360,673;   -0,719;   -0,864
559,643;17701,178;   -0,264;    0,045
560,225;18064,246;    1,645;    2,864
560,807;18110,451;    0,918;    0,318
561,389;17596,334;    0,554;    2,318
561,971;18306,360;    0,463;    2,136
562,553;18159,522;   -1,628;    1,591
563,135;18320,823;   -0,537;    1,136
563,717;17899,610;    3,372;    1,136
564,298;18601,466;    3,645;   -0,045
564,880;18324,920;    0,645;   -1,409
565,462;18520,375;    0,645;    1,318
566,043;19645,655;   -0,446;    2,318
566,625;19143,018;    1,918;    1,227
567,207;19012,939;    1,099;    1,682
567,788;20076,852;   -1,264;    1,500
568,370;20840,475;    1,917;   -0,500
568,951;20718,008;    0,190;    0,227
569,533;21563,303;   -0,628;   -0,500
570,114;22020,237;   -0,446;    0,682
570,695;22439,264;   -0,174;   -1,318
571,277;22948,182;   -0,265;   -1,682
571,858;23652,205;    2,008;   -1,136
572,439;24530,075;    1,554;   -1,045
573,021;24647,597;    2,099;   -2,773
573,602;25154,860;   -1,265;    0,318
574,183;26030,657;   -2,083;    2,227
574,764;26135,806;   -1,629;    0,409
575,345;26615,723;    0,917;   -0,136
575,926;27273,160;   -0,356;    0,136
576,507;27267,678;    1,099;   -0,227
577,088;28367,375;    3,099;    1,682
577,669;28362,448;    0,735;    1,955
578,250;29058,657;    0,644;   -1,045
578,831;29672,014;   -1,356;   -2,227
579,412;29907,874;   -0,810;    0,955
579,993;30841,845;    1,008;    0,227
580,573;31243,149;   -0,629;   -0,955
581,154;30232,661;    0,735;   -0,591
581,735;31014,781;    0,644;    0,773
582,315;30534,599;   -0,629;    2,136
582,896;30833,261;   -0,174;    1,227
583,477;30317,096;    0,189;    1,227
584,057;30552,724;    0,553;    0,955
584,638;30821,118;    2,553;    2,318
585,218;30754,540;   -0,538;    2,682
585,799;31005,475;    0,281;   -0,227
586,379;31028,193;    0,372;    1,591
586,959;29790,445;    0,735;    0,318
587,540;29168,193;   -0,629;    2,227
588,120;28803,425;    1,007;   -0,045
588,700;27789,348;    2,553;    2,136
589,281;28068,906;    0,462;   -0,955
589,861;27989,214;    0,099;   -1,682
590,441;27767,180;    2,371;   -2,682
591,021;26793,935;   -0,265;   -2,591
591,601;27080,582;   -0,537;    0,500
592,181;27082,883;   -0,719;   -0,773
592,761;26399,626;    0,007;    1,409
593,341;26331,778;   -0,901;    0,045
593,921;26298,980;   -0,265;    1,591
594,501;26221,476;   -0,538;    1,318
595,081;26100,828;    0,917;   -0,318
595,661;26430,714;   -1,447;    0,955
596,240;26914,067;   -0,537;    0,136
596,820;26532,630;    0,372;    1,955
597,400;26735,197;    2,008;    0,773
597,980;26967,728;    2,008;    1,045
598,559;27009,468;    2,735;   -0,227
599,139;26752,017;   -0,174;   -1,227
599,718;26670,835;   -0,174;   -0,409
600,298;26903,680;    0,735;    0,682
600,877;27098,094;    2,917;    1,409
601,457;27369,112;    2,281;    1,136
602,036;27312,763;    0,190;    2,045
602,616;27524,546;    0,644;    1,682
603,195;27814,293;   -0,355;    3,500
603,774;27323,812;   -0,901;    2,045
604,354;27258,692;    0,826;   -0,500
604,933;26766,853;    0,463;    1,864
605,512;26860,209;    3,554;    0,591
606,091;26879,348;   -0,537;    3,773
606,671;27723,173;    0,281;    0,773
607,250;26839,083;    1,644;    3,136
607,829;27060,613;    2,372;    3,227
608,408;26958,044;    1,190;    2,591
608,987;25989,749;    1,281;    3,409
609,566;26324,351;   -1,265;   -2,500
610,145;26427,540;   -1,082;    0,682
610,723;26862,028;    4,372;    6,864
611,302;26102,561;   -0,446;    1,682
611,881;25623,749;    5,008;   11,227
612,460;26472,811;    1,645;    3,955
613,039;26887,555;   -0,082;    2,045
613,617;25613,009;    1,736;    4,773
614,196;25824,296;    1,099;    1,227
614,775;26165,887;    1,009;    2,409
615,353;26117,758;    0,736;    0,864
615,932;25859,729;    0,100;    2,409
616,510;26397,795;    0,554;    0,591
617,089;25899,155;    7,100;   17,591
617,667;25669,639;    2,372;    6,136
618,246;25579,934;   -1,537;    1,318
618,824;25766,724;   -3,355;   -0,955
619,402;25329,907;   -2,900;   -1,773
619,981;25801,625;   -0,173;   -1,045
620,559;25697,406;    0,009;    1,682
621,137;25235,562;   -0,718;    1,864
621,715;25211,504;   -1,173;   -0,682
622,293;25128,894;   -0,537;   -0,773
622,871;25584,290;   -0,718;    0,500
623,450;25179,274;    0,373;   -0,864
624,028;25040,163;    0,191;   -0,955
624,606;24698,095;   -1,718;    1,682
625,183;25156,601;   -1,536;   -1,136
625,761;24779,782;    1,009;    1,136
626,339;25075,068;    1,373;    2,591
626,917;25445,403;   -0,172;   -0,045
627,495;25484,163;   -0,354;    1,318
628,073;24927,911;   -0,263;    2,864
628,650;24629,533;    0,100;    2,136
629,228;25027,029;    0,373;    4,409
629,806;24466,807;    2,282;    1,136
630,383;24745,038;    1,464;   -0,318
630,961;24521,747;    2,555;   -0,955
631,539;24255,006;    2,464;    0,227
632,116;23585,474;   11,373;   15,409
632,694;24191,039;    2,555;    6,500
633,271;24450,866;    0,828;    2,682
633,848;24420,330;    1,828;    2,045
634,426;24480,646;   -1,081;    1,773
635,003;23623,773;    1,101;   -0,409
635,580;23914,315;    1,192;    3,682
636,158;24460,304;    3,737;    1,227
636,735;24464,078;    0,555;   -0,500
637,312;24610,212;   -0,809;   -0,682
637,889;24699,340;   -4,354;   -0,682
638,466;24139,311;   -3,990;   -0,409
639,043;24161,231;    2,101;   -1,136
639,620;24531,927;   -2,262;   -0,955
640,197;24801,695;    1,100;    1,682
640,774;24935,833;   -0,172;    1,136
641,351;25336,062;    0,737;    1,136
641,928;24769,290;   -0,627;    1,409
642,505;24404,974;    0,828;   -0,500
643,082;24534,384;   -1,718;    1,227
643,658;23592,522;   -0,718;    1,500
644,235;24326,387;    1,191;    2,500
644,812;24608,252;    1,918;    0,773
645,388;24329,663;   -0,991;    1,409
645,965;24451,892;   -0,809;    1,682
646,542;24595,393;   -1,445;   -0,227
647,118;24512,895;    1,009;   -0,955
647,695;24813,669;   -0,263;    1,136
648,271;24720,352;   -0,536;    0,500
648,848;25011,308;    0,736;    2,227
649,424;24823,810;    0,827;    1,318
650,000;24594,948;   -0,354;   -1,045
650,577;24426,358;   -0,627;   -0,955
651,153;24909,042;   -1,809;    0,955
651,729;25861,271;    1,191;    0,864
652,305;25961,227;    0,645;    2,773
652,881;30001,819;   -0,082;    1,136
653,458;36572,684;    1,100;    0,227
654,034;40373,004;    0,282;    1,591
654,610;41912,142;    0,554;    0,773
655,186;43210,280;    0,645;    3,045
655,762;42910,781;   -0,991;    0,409
656,338;42963,555;    0,100;    0,136
656,913;43941,966;   -0,082;    0,409
657,489;43117,104;    0,827;   -0,318
658,065;43171,605;   -0,173;   -1,591
658,641;43861,107;   -0,900;   -0,864
659,217;43257,426;   -0,991;    0,409
659,792;42624,383;    0,645;   -0,409
660,368;42883,339;   -2,173;   -0,682
660,944;42635,022;   -2,082;    1,227
661,519;38438,342;   -0,628;    0,409
662,095;32705,025;   -1,719;    0,591
662,670;28100,526;    1,281;   -0,136
663,246;26881,210;    1,009;   -0,409
663,821;26145,893;    0,281;    1,682
664,396;25624,758;    0,009;    1,864
664,972;25894,260;    0,009;   -0,500
665,547;26252,307;    1,372;    0,136
666,122;26299,263;   -1,082;    0,318
666,698;26513,946;   -0,173;    0,318
667,273;25894,266;   -0,173;    0,136
667,848;26688,767;    2,372;    1,500
668,423;26496,996;    2,190;    2,318
668,998;27007,043;    2,827;   -0,682
669,573;27504,545;   -3,264;   -1,500
670,148;27387,955;   -1,446;   -0,682
670,723;27183,638;   -1,810;    0,318
671,298;27576,322;    2,372;    1,045
671,873;27625,551;   -0,082;   -0,136
672,448;27645,052;    0,645;    0,136
673,023;27958,554;   -1,992;   -0,227
673,597;28293,691;    0,827;    2,318
674,172;28105,829;   -0,355;    0,318
674,747;27625,240;    0,372;   -1,045
675,321;27444,560;   -0,628;    3,318
675,896;27008,607;    0,645;    1,045
676,471;28026,017;    2,645;    1,591
677,045;27714,064;   -1,264;    0,682
677,620;27813,929;    0,190;    1,136
678,194;28193,976;   -2,628;    1,136
678,769;27703,478;   -1,083;   -0,318
679,343;27934,707;   -0,628;    1,773
679,917;27822,572;   -1,446;    1,955
680,492;27881,255;    0,826;    3,227
681,066;28030,393;    3,372;    0,409
681,640;28063,803;    1,463;   -0,318
682,214;28846,578;    0,735;    0,500
682,788;28395,079;   -1,356;   -0,773
683,363;28353,944;   -1,810;    1,682
683,937;28056,900;   -1,719;   -0,318
684,511;28825,675;    0,463;   -0,591
685,085;28505,994;   -1,356;    0,318
685,659;28295,587;   -2,538;    0,864
686,232;28498,270;   -0,356;   -0,318
686,806;28227,681;   -0,901;    0,409
687,380;28926,728;   -0,174;    0,591
687,954;29112,411;   -1,174;    1,136
688,528;28830,822;   -0,719;    1,955
689,101;29616,505;   -3,992;    1,045
689,675;29204,643;   -0,356;   -0,136
690,249;28570,417;   -0,719;    0,409
690,822;28817,282;    0,280;    0,318
691,396;28950,965;   -0,265;    1,227
691,969;28423,285;    1,280;    0,136
692,543;28865,423;   -0,447;   -1,955
693,116;28526,197;   -0,265;   -1,409
693,690;28405,062;    0,099;    0,500
694,263;28966,109;   -1,083;    2,955
694,836;28989,520;    1,371;    3,591
695,410;27617,658;   -0,265;    1,773
695,983;28096,887;    0,189;    0,591
696,556;28073,661;   -0,447;   -1,045
697,129;28518,981;   -0,356;    1,409
697,703;28105,118;   -1,629;    1,955
698,276;28153,074;    1,462;   -0,773
698,849;27947,121;    1,280;    1,409
699,422;28309,805;   -1,083;    0,591
699,995;28016,579;    0,007;    0,136
700,568;28435,717;   -0,629;    3,045
701,140;28477,218;   -2,811;    1,682
701,713;28206,811;   -0,174;    2,409
702,286;27977,403;   -0,538;    0,864
702,859;27903,450;   -0,902;   -0,591
703,432;27043,406;    0,825;    0,682
704,004;27559,362;    0,462;    0,318
704,577;27416,773;   -0,629;    0,136
705,150;27931,911;    0,189;    2,500
705,722;27755,594;   -0,356;   -3,227
706,295;27554,459;   -0,175;   -0,591
706,867;27393,052;   -0,175;    1,955
707,440;27639,190;   -1,720;   -0,409
708,012;27832,055;    0,462;    0,591
708,584;27771,374;    2,462;    0,227
709,157;28083,058;    1,825;   -0,591
709,729;27735,196;    2,280;    2,045
710,301;28597,970;    0,734;    0,045
710,874;28566,835;   -1,447;   -0,227
711,446;27503,609;    0,371;    0,864
712,018;27364,202;    0,098;    0,500
712,590;27096,067;   -1,993;    1,682
713,162;27612,932;    0,825;    1,318
713,734;27866,161;    1,825;   -2,045
714,306;27793,935;   -1,902;   -0,409
714,878;26501,073;    0,825;    0,864
715,450;27320,483;    0,643;    0,864
716,022;27586,439;    1,552;    1,318
716,593;27723,032;    0,189;    0,591
717,165;27674,533;   -3,175;   -1,227
717,737;27368,671;    0,280;    0,409
718,309;27046,082;    0,280;   -0,045
718,880;26985,856;   -0,539;   -1,409
719,452;27210,448;   -0,175;   -1,591
720,024;26792,404;    0,734;   -0,591
720,595;27365,997;   -2,902;    0,955
721,167;26903,771;    0,370;   -2,045
721,738;26428,545;   -0,812;   -1,045
722,309;26398,320;   -0,993;   -1,227
722,881;26185,639;   -1,357;    0,773
723,452;26802,323;   -2,630;    2,864
724,023;26992,006;   -0,721;    2,682
724,595;26740,598;    0,007;    0,682
725,166;26529,282;    0,007;   -0,409
725,737;26181,238;    1,734;    0,227
726,308;26265,739;   -0,266;    0,318
726,879;26722,604;   -1,630;    1,227
727,450;26529,742;    0,552;   -0,045
728,021;26524,789;    3,097;    0,682
728,592;26360,745;    0,734;    0,500
729,163;26641,338;    0,643;   -0,136
729,734;26649,657;    0,188;   -0,227
730,305;27060,159;    1,734;    0,136
730,876;27325,660;    0,188;    2,955
731,447;26981,253;    2,188;    2,682
732,017;27168,300;    1,097;    1,864
732,588;26624,801;    0,734;    1,227
733,159;26808,030;    0,643;   -1,045
733,729;26629,350;    0,006;    0,409
734,300;25967,397;    0,915;    0,864
734,870;26354,444;    3,461;    0,591
735,441;26947,400;    0,370;   -0,591
736,011;26708,719;    0,643;   -1,591
736,582;26621,857;   -0,812;    0,045
737,152;26114,359;   -1,721;   -2,045
737,722;26587,769;   -0,267;   -0,682
738,293;26265,816;   -1,358;    1,318
738,863;26160,772;    2,461;    2,318
739,433;25946,183;    5,279;    0,318
740,003;26582,866;   -0,994;   -0,682
740,573;26009,550;    2,097;   -1,591
741,143;26016,142;   -1,085;    0,318
741,713;26777,280;    1,188;   -0,500
742,283;26486,781;    0,915;    1,591
742,853;26205,283;    1,915;    1,591
743,423;25718,421;    1,733;    0,045
743,993;25819,195;   -0,358;    1,500
744,563;25179,151;    0,097;   -0,864
745,133;25153,107;   -0,812;   -0,864
745,702;25803,972;   -0,267;    1,773
746,272;25028,837;   -0,176;    0,591
746,842;24860,248;   -1,358;   -0,591
747,411;25275,295;   -0,267;   -0,318
747,981;25473,251;    0,097;    0,500
748,551;25513,207;    2,278;   -1,045
749,120;25341,618;    0,642;   -0,227
749,690;25724,756;   -0,631;    2,409
750,259;26037,621;    1,369;    2,955
750,828;25950,668;    1,551;   -1,955
751,398;26242,806;    1,278;   -0,045
751,967;25694,398;    2,187;    0,409
752,536;25911,627;   -0,813;   -0,227
753,105;26346,947;    0,096;    0,227
753,675;26139,084;    0,096;    1,773
754,244;26078,222;   -0,904;    3,591
754,813;26067,178;    0,551;    1,227
755,382;25742,589;    0,460;    0,955
755,951;26252,727;    1,551;    3,682
756,520;25801,137;   -0,085;    1,864
757,089;26361,730;    0,278;    0,500
757,658;26455,595;    1,733;    1,227
758,227;26497,096;    1,096;    0,318
758,795;26782,416;    1,187;    1,136
759,364;27041,827;   -0,086;   -0,591
759,933;26105,874;   -1,176;   -0,045
760,501;25674,012;    0,733;   -1,318
761,070;26098,513;   -2,813;   -1,409
761,639;26796,287;   -1,904;    1,318
762,207;26037,607;    1,551;   -0,955
762,776;25992,290;    0,369;    0,864
763,344;25961,883;   -0,995;    0,591
763,913;25119,566;   -0,722;    1,409
764,481;25867,068;    1,005;   -0,136
765,049;25638,024;   -1,358;    1,409
765,618;25489,161;   -0,086;    0,318
766,186;25591,663;    0,278;    0,136
766,754;25843,346;    0,005;    1,864
767,322;24861,393;   -1,995;    0,409
767,890;24843,168;   -0,722;   -1,773
768,459;25213,396;   -2,177;   -0,318
769,027;25381,534;    1,641;    3,409
769,595;24414,127;    3,278;    2,591
770,163;24868,083;    3,823;    2,955
770,730;24589,857;    0,732;   -0,136
771,298;24428,177;    0,187;   -1,409
771,866;24523,224;   -1,541;    4,955
772,434;24882,634;   -0,631;   -1,864
773,002;25032,863;    0,005;    0,682
773,569;24702,274;    0,914;    1,682
774,137;24505,502;   -0,268;   -0,045
774,705;25299,367;    0,278;   -0,136
775,272;24831,778;    0,641;    0,682
775,840;24535,370;   -0,177;    2,682
776,407;24088,417;    0,277;    1,955
776,975;23752,192;   -0,632;    0,318
777,542;24737,784;   -1,086;   -0,045
778,110;24555,195;   -1,268;   -0,045
778,677;24253,878;   -2,359;   -0,864
779,244;24043,289;    2,186;    1,045
779,812;24093,972;    1,823;    0,864
780,379;23942,928;    0,005;    1,136
780,946;24202,611;    1,005;   -0,773
781,513;24557,840;   -1,450;    0,318
782,080;23930,523;   -0,086;    2,864
782,647;24669,116;   -0,268;    3,045
783,214;24222,799;   -0,177;    3,864
783,781;23822,301;   -0,723;   -0,682
784,348;23754,984;   -0,632;    1,500
784,915;24208,576;   -3,177;    0,318
785,482;23967,351;    1,368;    2,591
786,049;24403,034;    0,186;   -0,591
786,615;24550,263;    0,277;   -0,955
787,182;24304,946;    0,186;   -0,682
787,749;23964,357;   -2,814;    1,409
788,315;23283,222;   -1,632;   -0,409
788,882;23525,087;    1,550;   -1,227
789,448;24241,316;    1,732;   -0,955
790,015;24310,090;    1,095;    3,227
790,581;23856,410;    1,459;    0,227
791,148;23756,548;    0,641;    1,045
791,714;24007,867;   -0,541;    3,136
792,280;23673,096;    0,186;    1,591
792,847;23224,234;    0,550;    2,500
793,413;23805,826;   -0,269;   -0,318
793,979;23306,601;    3,459;   -1,318
794,545;23414,920;    4,459;    2,682
795,111;22832,331;    2,186;    1,318
795,678;23003,378;    0,731;   -1,682
796,244;22646,516;    3,368;    0,136
796,810;23189,290;    1,731;    0,773
797,375;22849,973;    0,549;   -2,136
797,941;22921,929;   -0,541;    0,591
798,507;23120,249;   -0,451;   -0,955
799,073;22681,114;   -0,360;    0,591
799,639;22737,979;   -2,632;    3,136
800,205;22718,663;    0,095;    2,682
800,770;22306,164;    0,640;    1,773
801,336;22396,575;    1,368;   -0,955
801,901;22061,985;    4,549;    3,136
802,467;22642,214;   -0,542;    2,045
803,033;22013,897;   -0,087;    0,864
803,598;22196,853;    1,913;   -1,045
804,163;22251,628;    1,095;   -0,318
804,729;22239,675;   -0,178;    1,136
805,294;22630,267;    0,822;    2,227
805,859;22408,678;    0,731;   -0,409
806,425;21847,725;    1,186;    2,682
806,990;21498,044;    2,186;    4,318
807,555;21988,273;   -1,451;    2,591
808,120;21880,138;    0,822;   -0,409
808,685;21962,185;    0,185;   -2,500
809,250;21477,414;    0,004;   -0,500
809,815;21771,006;    1,913;    0,682
810,380;22282,872;   -0,269;    1,591
810,945;22812,100;   -1,087;    2,045
811,510;22045,329;    2,094;    1,591
812,075;21720,740;   -0,633;   -1,409
812,640;21737,150;    2,003;    1,409
813,204;21857,743;    0,822;   -0,227
813,769;22318,881;    2,094;   -0,045
814,334;21738,018;    0,458;    0,864
814,898;21780,065;    0,367;    0,591
815,463;21631,294;    1,276;   -0,773
816,027;21622,250;   -0,724;   -2,318
816,592;21744,388;    0,640;   -2,045
817,156;21273,344;    2,094;    1,136
817,721;21066,118;    4,276;    2,318
818,285;21009,256;    2,912;    1,500
818,849;21725,121;   -1,451;    1,682
819,414;21621,987;   -0,269;    2,955
819,978;21206,306;   -1,269;    1,773
820,542;21746,990;    2,003;    0,500
821,106;21472,855;   -0,815;    0,682
821,670;21528,447;   -0,815;    2,591
822,234;21271,494;   -0,270;    1,409
822,798;20669,087;    0,003;    0,500
823,362;20612,497;   -0,633;    4,227
823,926;19981,817;    0,094;    1,136
824,490;20214,864;   -0,997;   -0,682
825,054;20624,547;   -0,088;   -1,136
825,618;20261,503;   -1,542;   -1,500
826,181;20214,096;    0,458;   -1,318
826,745;20108,233;    1,367;   -1,045
827,309;20460,008;    1,185;    1,318
827,872;19890,236;    1,367;    0,955
828,436;20834,011;    1,185;   -0,773
828,999;20906,876;   -0,997;    1,227
829,563;19756,377;   -0,179;    1,136
830,126;19545,333;   -0,179;   -0,591
830,690;19504,380;   -1,997;    2,864
831,253;19107,791;   -0,543;    2,227
831,816;19247,747;   -1,906;    0,500
832,380;19154,067;    0,185;    0,864
832,943;19354,568;   -1,361;   -0,500
833,506;18880,252;    2,639;   -1,227
834,069;19642,026;    3,912;   -0,955
834,632;19716,436;    1,730;    1,318
835,195;19658,120;    1,003;    0,955
835,758;18819,439;   -0,997;    1,955
836,321;18650,395;    0,730;   -1,045
836,884;18767,897;   -0,725;   -0,955
837,447;18776,035;   -2,816;    1,773
838,010;19022,991;    0,366;    3,227
838,573;19355,765;   -1,179;    0,773
839,135;19326,085;   -1,361;   -0,955
839,698;18763,768;    1,275;    0,409
840,261;18320,724;    1,003;   -0,227
840,823;18154,226;   -0,543;    0,864
841,386;18444,727;   -0,452;   -2,409
841,948;18321,320;   -1,361;    1,773
842,511;18101,912;    0,912;    1,682
843,073;18208,868;    1,912;    0,227
843,636;18021,733;   -0,361;   -0,227
844,198;17883,417;    0,911;    0,591
844,760;18042,191;    1,093;    1,955
845,322;17695,965;    0,548;    1,136
845,885;18135,648;    0,730;    0,591
846,447;18591,059;   -1,998;    0,227
847,009;18119,197;    1,911;   -0,682
847,571;18482,607;    0,820;   -2,045
848,133;18556,654;   -1,089;   -1,864
848,695;18411,519;   -0,543;    1,409
849,257;17957,021;   -1,089;   -1,682
849,819;18139,523;   -0,998;   -0,409
850,381;18166,479;   -0,725;   -0,864
850,942;18519,526;    1,093;   -0,591
851,504;18488,845;    1,184;    0,227
852,066;18548,438;    1,275;   -1,591
852,628;18060,757;   -0,180;    1,955
853,189;17609,713;    1,638;    2,682
853,751;17746,397;   -0,907;    1,409
854,312;17560,716;   -0,453;   -1,682
854,874;18053,582;   -2,089;   -0,773
855,435;18552,719;   -0,907;   -1,682
855,997;18736,039;   -1,816;   -0,136
856,558;18029,268;    0,366;    1,773
857,119;18132,406;    0,820;    2,864
857,681;17868,635;    0,002;    0,318
858,242;17854,954;    1,911;   -2,136
858,803;18297,183;    0,456;   -0,773
859,364;18870,321;    0,184;   -4,773
859,925;18156,913;   -2,453;   -0,955
860,486;18070,051;   -0,453;   -0,955
861,047;17815,371;   -0,544;   -1,227
861,608;17611,872;   -1,089;   -0,773
862,169;17765,556;    0,638;   -0,045
862,730;17547,603;    0,456;    1,409
863,291;17781,104;   -0,635;   -0,500
863,852;18104,787;   -0,635;    1,955
864,412;17614,198;   -0,271;   -0,864
864,973;16239,154;   -0,089;    0,500
865,534;16089,928;   -1,726;    0,227
866,094;17551,066;    1,820;    0,227
866,655;17226,659;    1,274;    3,318
867,215;17515,433;    0,274;    0,136
867,776;17397,116;    0,547;   -0,136
868,336;17469,163;   -1,453;    0,136
868,897;16948,119;    2,638;    1,682
869,457;16675,439;    1,365;    0,318
870,017;16914,122;    0,547;   -1,227
870,578;17442,533;   -0,817;    0,773
871,138;17129,580;   -2,089;   -0,955
871,698;16661,900;   -0,817;   -1,318
872,258;16531,219;   -0,453;   -2,864
872,818;16894,812;    2,729;    0,045
873,378;16855,859;    0,638;    1,045
873,938;16390,269;    0,547;    0,500
874,498;16769,589;    0,274;   -1,955
875,058;16665,272;    2,183;    1,773
875,618;16518,137;    1,910;   -2,682
876,177;16439,366;    1,274;    0,136
876,737;16051,413;   -0,090;    1,955
877,297;16068,096;    0,183;    1,955
877,856;16060,689;   -0,362;    0,318
878,416;16000,009;    1,183;   -0,136
878,976;16207,510;   -1,817;    0,409
879,535;16383,193;    0,092;    3,136
880,095;16147,695;   -0,544;    0,045
880,654;16274,742;   -1,090;    1,318
881,213;16357,971;    2,456;    1,500
881,773;15973,563;    2,637;    2,682
882,332;16304,701;    3,365;    5,136
882,891;16202,839;    3,092;    2,136
883,451;16672,795;   -1,272;    1,682
884,010;16128,387;   -2,908;   -0,409
884,569;16169,707;   -0,999;   -0,045
885,128;16294,118;    2,819;   -1,864
885,687;16387,255;    4,455;    0,682
886,246;16102,484;    1,455;    2,136
886,805;15872,349;    2,455;    2,045
887,364;16106,214;   -0,999;   -0,500
887,922;16493,989;   -1,181;    0,045
888,481;15996,399;   -1,545;    0,591
889,040;16298,992;    1,183;    2,136
889,599;17037,039;    2,455;    1,409
890,157;17095,540;    1,455;    2,409
890,716;16752,678;   -0,090;    0,227
891,274;16542,907;    0,092;   -1,136
891,833;16960,681;    1,546;    0,864
892,391;16836,364;   -0,454;    0,500
892,950;16914,957;    1,819;   -0,773
893,508;17299,822;    0,455;   -0,409
894,067;16630,414;    0,637;    0,136
894,625;16535,825;   -0,636;   -1,500
895,183;16810,054;   -0,363;   -0,682
895,741;16694,828;    1,728;   -1,773
896,299;16550,239;   -0,545;   -2,409
896,858;16712,104;    0,819;   -1,591
897,416;16815,969;    2,728;   -1,318
897,974;16579,470;    1,819;    0,318
898,532;16677,972;    6,091;    2,682
899,089;16563,746;    2,091;   -0,682
899,647;16646,975;   -1,454;    1,318
900,205;16391,022;    1,182;    1,045
900,763;16563,887;   -0,454;    0,227
901,321;16578,661;    2,364;   -1,409
901,878;16084,617;   -1,000;   -0,773
902,436;15950,937;   -1,363;    1,318
902,994;16280,166;    4,728;    3,682
903,551;15744,485;    0,728;    0,409
904,109;16130,987;    0,182;   -1,409
904,666;15721,943;    2,455;    1,045
905,224;15647,808;    0,182;   -0,409
905,781;15341,673;    0,727;   -0,318
906,338;15436,538;   -1,363;    1,045
906,895;15375,040;    0,637;    2,045
907,453;15279,541;    1,727;    1,136
908,010;15292,770;   -0,909;    0,409
908,567;14930,817;    1,273;    0,591
909,124;14494,228;    0,364;   -1,500
909,681;14560,820;   -2,909;    0,682
910,238;14701,776;    0,636;   -1,318
910,795;15054,187;   -0,273;   -1,136
911,352;14677,732;   -2,909;   -2,682
911,909;14067,096;   -1,364;   -0,864
912,466;14551,823;   -3,182;    1,500
913,022;14090,641;   -1,636;    0,500
913,579;14481,005;   -0,909;    2,045
914,136;14222,096;    1,636;    0,955
914,692;14513,005;    0,091;   -1,227
915,249;14119,732;    1,455;    0,409
915,806;14306,187;    0,182;    1,955
916,362;14062,732;    1,909;    1,864
916,918;13683,914;    2,000;    1,045
917,475;13608,732;   -1,182;    0,955
918,031;13697,096;    3,364;   -0,045
918,587;13165,914;   -0,909;   -0,318
919,144;13419,187;   -2,273;    0,227
919,700;13688,005;    1,727;    0,773
920,256;13276,914;    0,727;    0,045
920,812;12944,551;   -0,727;   -1,045
921,368;12954,732;   -1,727;   -1,045
921,924;12556,732;    0,182;   -0,136
922,480;12126,096;   -0,545;    1,227
923,036;12762,641;    1,273;    1,955
923,592;12699,732;    0,455;    0,318
924,148;12621,732;    0,455;   -0,955
924,704;11958,732;   -1,364;   -0,409
925,259;12230,005;   -0,273;    0,591
925,815;11964,460;    1,455;    0,500
926,371;11518,369;    2,909;    1,409
926,926;11385,732;    2,091;    0,591
927,482;11005,732;   -1,364;    0,773
928,037;10938,187;    0,909;    2,045
928,593;11197,732;    1,636;    1,045
929,148;11058,732;   -1,818;   -1,500
929,704;10544,369;   -1,455;   -0,500
930,259;10742,187;    0,091;   -0,136
930,814; 9841,278;   -0,818;    1,955
931,369; 9521,278;    1,091;   -0,773
931,925; 9410,551;   -0,091;    0,136
932,480; 9330,823;   -2,818;   -2,591
933,035; 9180,369;    0,545;   -0,318
933,590; 8944,823;    0,364;   -1,773
934,145; 8628,187;   -1,364;   -0,318
934,700; 8971,278;    0,455;   -0,591
935,255; 8780,732;   -0,091;    0,045
935,809; 8080,641;    3,182;    0,864
936,364; 7247,641;   -0,455;   -0,136
936,919; 7210,551;    0,455;   -1,773
937,474; 7101,096;    1,455;    0,136
938,028; 6879,096;   -1,636;    1,136
938,583; 6342,278;    1,818;    4,682
939,138; 6620,732;    2,091;    2,136
939,692; 6087,732;    1,636;   -1,136
940,247; 5791,732;   -0,727;   -1,045
940,801; 5358,187;   -0,636;    0,227
941,355; 5275,823;   -0,364;    2,591
941,910; 4918,551;   -0,273;   -2,136
942,464; 5042,732;   -0,818;   -0,318
943,018; 4813,914;    1,000;   -0,227
943,572; 4754,641;    2,545;   -0,682
944,126; 4207,096;    0,091;   -0,409
944,681; 4090,187;    3,091;    0,227
945,235; 4085,914;    1,000;   -0,591
945,789; 4042,460;    0,364;   -1,864
946,342; 4123,096;    0,455;   -0,591
946,896; 3946,641;   -2,273;    0,955
947,450; 3678,005;    1,545;   -0,227
948,004; 3872,914;    1,727;   -0,045
948,558; 3886,551;    0,273;   -0,864
949,111; 3810,278;   -0,273;   -0,318
949,665; 3851,187;    1,636;   -0,682
950,219; 3723,641;   -0,091;   -1,045
950,772; 3788,278;   -1,909;    1,864
951,326; 3712,369;    0,545;   -0,955
951,879; 3796,732;    0,727;   -2,318
952,433; 3823,914;    0,000;    2,227
952,986; 3676,641;    2,909;    0,682
953,539; 3615,551;   -0,273;    0,591
954,093; 3543,551;    0,545;   -1,318
954,646; 3696,369;    0,909;    1,318
955,199; 3508,551;    0,000;   -0,500
955,752; 3397,005;   -0,455;    1,773
956,305; 3352,914;   -0,091;    2,955
956,858; 3517,914;    0,818;   -0,318
957,411; 3680,641;   -0,545;    2,136
957,964; 3490,823;    1,364;    2,136
958,517; 3498,914;   -1,545;    3,136
959,070; 3334,823;   -0,455;    1,955
959,623; 3431,641;    1,091;    1,500
960,176; 3182,732;    1,727;    2,045
960,728; 3159,823;   -2,727;    0,773
961,281; 3247,460;    0,545;    0,500
961,834; 3285,187;   -0,909;    0,864
962,386; 3207,096;    1,727;    1,045
962,939; 3125,914;    0,364;   -0,318
963,491; 3273,096;    0,455;    1,136
964,043; 3126,823;    1,182;    2,409
964,596; 3264,551;   -1,000;    2,227
965,148; 3092,914;   -1,000;    1,773
965,700; 3023,641;    1,091;   -0,227
966,253; 3161,278;   -0,636;    0,318
966,805; 3002,460;   -2,273;    0,773
967,357; 3057,641;    1,091;   -1,500
967,909; 3011,096;    0,455;   -1,227
968,461; 3112,369;    0,545;    3,136
969,013; 3044,551;   -0,182;   -0,864
969,565; 3137,278;   -0,455;   -1,136
970,117; 3206,460;   -0,364;    1,045
970,669; 3026,914;    0,182;   -0,136
971,220; 2918,551;   -0,455;   -1,500
971,772; 2836,369;   -0,636;   -0,318
972,324; 2973,005;    0,091;   -0,500
972,876; 2904,278;    0,818;   -0,045
973,427; 3020,278;    1,909;   -1,045
973,979; 3000,914;   -0,727;   -2,500
974,530; 3040,005;    1,818;    1,318
975,082; 3036,369;   -0,545;    1,682
975,633; 2949,096;    1,091;    1,682
976,184; 3088,823;    0,909;    0,773
976,736; 2892,460;    0,091;    0,227
977,287; 2684,369;   -0,909;   -0,500
977,838; 2859,369;    0,909;   -0,318
978,389; 2916,732;   -1,000;   -0,500
978,940; 2805,551;    0,545;   -0,409
979,491; 2810,278;    0,091;   -0,500
980,042; 2775,551;    0,182;    3,045
980,593; 2846,369;   -2,545;    0,227
981,144; 2891,732;    2,545;   -0,500
981,695; 2863,823;    1,455;    1,500
982,246; 2806,369;   -0,273;    1,045
982,797; 2962,823;   -1,727;    0,682
983,347; 3081,551;    0,364;    0,591
983,898; 3241,732;    3,091;    0,409
984,449; 3056,460;    2,182;    0,773
984,999; 2968,460;    1,455;   -1,136
985,550; 2773,369;    0,182;   -0,318
986,100; 2801,460;   -0,455;   -0,318
986,651; 2839,823;   -0,818;    0,045
987,201; 2801,005;   -1,000;   -0,591
987,751; 2876,823;    0,818;    2,864
988,302; 2867,096;    2,636;    1,500
988,852; 2901,551;    0,455;   -1,136
989,402; 2945,823;    0,091;    0,682
989,952; 2854,096;   -2,182;    0,864
990,502; 2953,732;   -0,091;    0,682
991,052; 2927,187;   -0,727;    0,045
991,602; 2781,005;   -2,909;    1,318
992,152; 2796,187;    0,455;    0,682
992,702; 2777,823;    1,364;   -0,045
993,252; 2702,278;   -3,000;   -0,500
993,802; 2784,187;   -0,273;    1,318
994,352; 3008,732;   -1,545;    1,136
994,901; 3101,460;   -0,182;    3,227
995,451; 3021,732;   -0,182;    0,318
996,000; 3098,732;    1,636;    0,318
996,550; 2826,641;    2,273;    0,227
997,100; 2828,914;    1,273;   -0,045
997,649; 3092,914;    2,182;    0,955
998,198; 2738,551;    1,727;   -1,500
998,748; 2917,823;    1,091;   -2,318
999,297; 2841,460;   -0,818;   -0,409
999,846; 2895,551;    1,000;   -0,773
1000,395; 2937,732;   -0,818;    0,500
1000,945; 2895,278;    1,818;   -0,773
1001,494; 2991,823;    2,364;    0,682
1002,043; 2979,460;    4,636;    0,864
1002,592; 2839,278;   -1,091;    1,955
1003,141; 2971,641;   -0,455;   -0,682
1003,690; 2834,551;    1,727;    0,500
1004,238; 2908,005;    1,455;   -0,045
1004,787; 2573,096;    1,364;    1,227
1005,336; 2794,187;    0,364;    0,682
1005,885; 2920,278;    1,364;   -2,773
1006,433; 3075,460;    0,545;    0,955
1006,982; 3134,460;    0,455;    1,682
1007,531; 3027,641;   -1,818;   -0,227
1008,079; 2997,369;   -2,273;    0,500
1008,627; 3142,278;   -1,455;    0,409
1009,176; 2893,641;    0,000;   -1,955
1009,724; 2909,005;    1,091;    0,864
1010,273; 2959,551;    1,273;    0,500
1010,821; 3076,096;    0,091;    1,409
1011,369; 2833,641;   -1,364;    1,318
1011,917; 2793,460;   -1,364;   -0,591
1012,465; 3082,551;    1,273;   -1,591
1013,013; 3177,551;    2,091;   -1,682
1013,561; 3065,641;    0,455;   -0,773
1014,109; 3113,096;   -1,909;    1,682
1014,657; 3010,551;    0,364;    0,591
1015,205; 3133,551;    1,636;   -0,955
1015,753; 3161,551;   -0,545;   -1,409
1016,301; 3197,914;   -2,636;    3,045
1016,848; 3178,278;   -1,273;    0,409
1017,396; 3237,096;    2,545;    0,045
1017,944; 3348,914;    1,182;    1,864
1018,491; 3113,005;    0,273;    1,409
1019,039; 3268,823;    0,455;    0,591
1019,586; 3187,187;   -1,364;    1,682
1020,134; 3296,096;    0,455;    1,500
1020,681; 3314,551;    0,182;   -1,136
1021,228; 3341,460;    2,909;   -2,227
1021,776; 3186,823;    1,182;   -1,136
1022,323; 3382,641;    0,455;    0,773
1022,870; 3310,551;   -1,000;   -0,045
1023,417; 3202,823;    2,636;    1,864
1023,964; 3345,732;    2,636;    1,227
1024,511; 3192,187;    1,000;    0,773
1025,058; 2987,278;    3,182;   -0,045
1025,605; 3042,914;   -2,273;    3,136
1026,152; 3264,551;    1,727;   -0,591
1026,699; 2990,823;    1,818;    1,318
1027,245; 3163,278;   -0,091;    0,318
1027,792; 3362,278;   -1,000;    1,409
1028,339; 3257,641;    2,364;   -0,045
1028,885; 3117,278;    1,000;   -0,227
1029,432; 3056,369;   -0,091;    0,227
1029,978; 3109,732;   -1,000;   -1,591
1030,525; 3016,460;    1,000;    0,409
1031,071; 3273,551;   -1,364;    1,136
1031,618; 3360,460;    0,364;    1,682
1032,164; 3132,278;   -0,091;    3,045
1032,710; 3184,369;    1,636;   -1,500
1033,256; 3100,460;   -0,636;   -0,136
1033,803; 3109,187;   -0,545;    1,500
1034,349; 2829,096;   -1,364;    0,136
1034,895; 2983,369;    0,000;   -0,318
1035,441; 2965,641;   -0,818;    0,318
1035,987; 2954,369;   -2,364;   -0,682
1036,533; 2949,823;   -1,455;   -0,955
1037,078; 3161,641;    1,455;    1,682
1037,624; 2994,369;    2,455;   -0,955
1038,170; 3027,641;    0,455;   -0,318
1038,716; 2923,005;    1,636;   -0,409
1039,261; 2833,369;   -2,273;   -0,773
1039,807; 2793,641;   -0,091;    3,409
1040,352; 2824,732;   -1,909;   -0,318
1040,898; 2872,641;   -1,545;   -0,682
1041,443; 2795,278;   -1,455;   -2,591
1041,989; 2804,551;    1,091;    1,591
1042,534; 2683,732;   -0,364;    2,591
1043,079; 2822,641;    2,909;    0,955
1043,625; 2598,005;    1,818;    0,500
1044,170; 2670,369;   -1,364;    1,045
1044,715; 2895,914;    2,455;    0,955
1045,260; 2712,096;    2,182;   -0,955
1045,805; 2777,914;    1,182;   -0,591
1046,350; 2702,551;    1,364;   -0,409
1046,895; 2673,914;    2,909;    1,591
1047,440; 2627,641;    5,364;    0,409
1047,985; 2530,096;    2,818;   -0,955
1048,530; 2434,641;    1,545;    1,227
1049,074; 2481,914;    0,000;    0,318
1049,619; 2488,914;   -1,364;    1,955
1050,164; 2297,551;    0,455;    0,227
1050,708; 2317,914;   -0,455;    0,045
1051,253; 2678,641;    1,273;   -2,227
1051,797; 2407,460;    0,818;   -1,318
1052,342; 2413,460;   -1,182;    1,045
1052,886; 2414,369;    0,364;   -1,409
1053,430; 2297,823;   -1,364;    0,136
1053,975; 2325,187;   -0,818;   -0,318
1054,519; 2286,278;   -0,727;    3,227
1055,063; 2289,187;    0,909;    1,318
1055,607; 2188,096;   -0,182;    0,227
1056,151; 2206,732;    2,909;    1,682
1056,695; 2131,641;    2,273;   -1,136
1057,239; 2202,641;   -1,727;   -0,682
1057,783; 2220,914;    0,818;   -1,500
1058,327; 2161,641;    0,000;    1,409
1058,871; 2380,641;   -0,545;    1,318
1059,415; 2093,641;   -0,818;   -0,045
1059,958; 2350,460;    1,455;    2,591
1060,502; 2072,278;   -1,000;   -0,773
1061,046; 1983,823;    0,364;   -0,955
1061,589; 1964,551;   -3,000;   -1,136
1062,133; 1852,369;   -1,273;    1,864
1062,676; 1792,096;    1,182;    0,864
1063,220; 1801,551;    1,091;    0,500
1063,763; 1813,005;    0,909;    1,136
1064,306; 1885,641;   -0,909;    1,864
1064,849; 1762,823;   -0,909;    0,591
1065,393; 1781,914;    2,000;   -1,500
1065,936; 1899,278;    0,182;   -0,409
1066,479; 1775,823;   -1,455;    1,318
1067,022; 1793,369;   -0,273;   -0,227
1067,565; 1700,641;   -0,091;   -1,318
1068,108; 1737,096;    0,727;   -0,591
1068,651; 1703,096;   -0,636;    1,409
1069,194; 1628,369;   -0,455;   -1,682
1069,736; 1627,278;   -1,273;    0,955
1070,279; 1621,278;   -1,364;   -0,500
1070,822; 1666,187;   -2,000;   -0,318
1071,364; 1745,823;   -0,364;    1,318
1071,907; 1570,369;   -0,727;    3,227
1072,450; 1485,823;    0,000;   -0,045
1072,992; 1473,187;   -0,273;    3,136
1073,535; 1606,460;    2,091;    2,136
1074,077; 1413,641;   -0,727;    2,045
1074,619; 1374,005;   -1,364;    0,591
1075,161; 1412,914;   -1,091;    1,500
1075,704; 1581,187;    1,545;    1,227
1076,246; 1388,732;   -0,182;    0,682
1076,788; 1312,551;   -0,364;    1,773
1077,330; 1396,641;    1,273;    2,136
1077,872; 1353,551;    0,909;    0,955
1078,414; 1557,914;    2,727;    0,773
1078,956; 1304,278;    1,273;   -0,227
1079,498; 1551,551;    1,636;    0,318
1080,040; 1275,551;    1,909;   -1,318
1080,581; 1213,823;    1,636;   -0,318
1081,123; 1148,914;    0,091;   -0,773
1081,665; 1190,914;   -1,182;   -0,955
1082,206; 1481,914;    1,364;   -0,500
1082,748; 1344,096;    0,727;    2,045
1083,289; 1226,096;   -2,000;    1,318
1083,831; 1134,369;   -0,545;    0,227
1084,372; 1161,732;    0,000;    0,591
1084,913; 1182,732;    1,091;    0,864
1085,455; 1146,096;   -1,909;   -2,045
1085,996; 1112,641;   -2,273;    0,136
1086,537; 1124,460;   -0,091;    0,864
1087,078; 1158,369;   -0,909;   -2,136
1087,619; 1202,278;   -1,273;    0,227
1088,160; 1109,641;    0,000;    1,318
1088,701; 1106,551;   -1,091;    0,682
1089,242; 1053,096;    1,364;   -2,227
1089,783; 1142,187;   -0,273;    1,409
1090,324; 1105,641;    0,455;    0,682
1090,865;  984,823;    2,727;   -0,409
1091,405;  959,914;    0,727;    2,227
1091,946;  990,005;    0,182;   -0,955
1092,487;  911,278;    0,818;   -1,409
1093,027; 1080,278;   -1,364;   -1,500
1093,568;  928,096;   -0,364;    1,227
1094,108; 1034,187;    0,273;    1,773
1094,649;  983,005;   -1,182;    0,136
1095,189;  906,096;   -0,636;   -0,682
1095,729;  845,369;   -0,091;    0,955
1096,269;  866,187;    0,727;   -0,955
1096,810; 1180,187;   -1,364;    0,500
1097,350; 1001,460;    1,364;   -0,773
1097,890;  902,641;    0,364;    1,227
1098,430; 1155,460;    2,364;    2,864
1098,970; 1025,278;    2,182;    1,682
1099,510;  894,732;    0,545;   -2,318
1100,050;  817,460;    1,000;   -1,591
1100,589;  775,823;   -0,727;   -0,318
1101,129;  904,096;    0,818;   -0,955
1101,669; 1054,732;    1,727;    2,136
1102,209;  885,732;   -0,091;    2,227
1102,748;  835,278;    0,000;    0,955
1103,288;  827,005;    1,273;   -1,227
1103,827;  857,551;    3,091;   -2,227
1104,367;  732,732;   -0,091;   -2,409
1104,906;  701,914;    1,364;   -1,136
1105,445;  766,732;    0,636;   -1,136
1105,985;  706,551;   -0,727;    1,500
1106,524;  754,096;   -1,727;   -0,682
1107,063;  726,005;   -2,727;    1,409
1107,602;  709,460;   -1,909;   -1,500
1108,141;  631,460;   -1,909;    1,500
1108,680;  725,823;   -3,455;   -0,591
1109,219;  675,096;   -0,909;   -0,500
1109,758;  673,823;    0,455;    0,682
1110,297;  645,460;    1,000;   -0,682
1110,836;  587,187;   -0,727;    0,955
1111,375;  755,823;   -2,545;    0,409
1111,913;  764,005;   -1,000;    0,773
1112,452;  694,732;   -0,273;    0,136
1112,991;  587,732;    1,091;    1,955
1113,529;  551,369;   -0,818;   -0,045
1114,068;  619,641;   -0,273;    2,955
1114,606;  515,005;   -0,364;   -0,955
1115,144;  679,551;   -1,273;    1,045
1115,683;  607,914;   -0,727;    0,318
1116,221;  657,914;   -0,455;   -0,864
1116,759;  576,823;    0,636;   -0,864
1117,297;  775,005;    0,000;    1,864
1117,836;  576,460;   -2,182;   -1,227
1118,374;  575,551;    0,182;   -0,682
1118,912;  522,551;    0,909;    2,682
1119,450;  506,732;    1,000;    0,864
1119,988;  558,641;    1,545;    2,136
1120,525; 1008,278;    5,091;    3,318
1121,063;  709,369;    1,182;    1,864
1121,601;  516,096;   -0,909;   -1,227
1122,139;  486,914;   -0,727;   -2,045
1122,676;  685,096;   -0,727;    2,773
1123,214;  607,096;   -1,182;    4,409
1123,751;  408,096;    1,727;    2,227
1124,289;  549,914;   -0,091;   -0,409
1124,826;  427,460;    1,727;    0,227
1125,364;  349,551;    1,727;   -0,955
1125,901;  530,914;    1,182;    1,227
1126,438;  641,460;    0,818;    0,955
1126,975;  373,641;   -0,727;   -0,773
1127,513;  439,005;    0,273;    2,136
1128,050;  352,823;    1,636;   -0,682
1128,587;  451,823;    2,000;   -0,227
1129,124;  483,096;    0,091;    1,318
1129,661;  362,278;    0,273;    0,227
1130,198;  522,005;    1,636;    0,773
1130,734;  465,914;    0,182;    1,409
1131,271;  322,096;   -0,909;    0,864
1131,808;  500,278;    2,909;    3,045
1132,345;  372,096;    1,545;    0,318
1132,881;  251,096;   -1,545;   -1,864
1133,418;  390,278;    0,727;   -1,136
1133,954;  312,551;    2,455;   -2,682
1134,491;  385,732;    1,364;   -0,773
1135,027;  297,096;    2,364;    0,864
1135,564;  384,641;    0,273;    2,955
1136,100;  365,278;    0,364;    2,136
1136,636;  254,096;   -1,273;   -1,045
1137,172;  356,914;    0,000;   -1,045
1137,708;  275,551;   -1,364;   -1,045
1138,245;  274,914;    1,273;   -1,227
1138,781;  231,187;    1,091;   -3,318
1139,317;  296,278;    1,273;   -1,409
1139,852;  282,732;    3,091;    0,136
1140,388;  388,732;   -1,182;   -0,409
1140,924;  282,278;   -1,091;   -2,227
1141,460;  218,823;   -1,636;    0,136
1141,996;  161,278;   -1,364;    2,682
1142,531;  210,005;    1,364;    3,318
1143,067;  419,278;    1,182;    1,045
1143,602;  461,914;   -0,091;   -0,318
1144,138;  316,460;   -2,636;    1,045
1144,673;  188,641;   -1,455;    1,409
1145,209;  252,551;   -1,909;   -0,318
1145,744;  173,096;   -0,727;    0,864
1146,279;  295,914;    1,818;   -0,136
1146,815;  220,005;    1,545;   -2,682
1147,350;  262,551;   -1,364;    0,045
1147,885;  178,823;   -0,818;   -1,318
1148,420;  178,005;   -2,273;    0,773
1148,955;  152,187;   -1,727;    1,864
1149,490;  189,551;   -0,909;   -1,591
1150,025;  172,641;    0,455;   -1,773
1150,560;  280,823;    1,091;   -0,955
1151,094;  244,914;    1,455;   -0,591
1151,629;  249,369;    1,636;    0,864
1152,164;  171,369;    1,364;    1,318
1152,698;  133,914;   -0,182;   -0,136
1153,233;  105,369;    0,091;   -0,682
1153,767;  146,460;   -3,000;   -2,318
1154,302;  193,096;   -1,455;    1,773
1154,836;  198,005;   -0,455;   -2,136
1155,371;  249,551;   -1,364;    3,682
1155,905;  193,823;   -0,636;    1,682
1156,439;  158,187;   -0,636;   -0,500
1156,973;  198,732;    0,364;    0,318
1157,507;  138,641;   -0,364;    0,682
1158,042;  156,823;   -0,727;    1,045
1158,576;  207,551;    0,182;    1,773
1159,110;  201,369;   -0,818;    2,409
1159,643;  172,096;    0,636;   -0,045
1160,177;  108,369;   -1,545;    1,500

