
Integration time [ms]:   0,040
Averaging Nr. [scans]: 11
Smoothing Nr. [pixels]: 0
Data measured with spectrometer [name]: 7318044SP
Wave   ;Sample   ;Dark     ;Reference
[nm]   ;[counts] ;[counts] ;[counts] 

186,757;   35,181;   31,551;    1,318
187,357;   66,233;   22,551;    0,955
187,958;   37,952;   15,460;   -1,591
188,558;   77,533;    8,915;   -1,227
189,159;   52,160;    6,733;   -4,500
189,759;   21,394;    7,278;   -3,591
190,360;   16,739;    2,824;   -2,136
190,960;   54,922;    2,915;   -4,136
191,560;   58,364;    3,189;   -6,591
192,161;  296,985;    4,372;   -3,500
192,761;  147,737;    4,010;   -3,227
193,361;  106,837;    1,556;   -3,773
193,962;  151,260;    2,010;   -2,682
194,562;   66,562;    1,189;   -3,955
195,162;   95,327;   -2,448;   -2,227
195,762;  251,079;   -3,176;   -0,045
196,362;  190,242;    1,370;   -2,500
196,963;   76,922;    2,006;   -0,864
197,563;  146,902;    1,551;   -0,955
198,163;   90,327;    0,096;   -0,682
198,763;  107,985;    1,733;   -0,500
199,363;  194,970;    3,096;   -0,500
199,963;  156,163;    0,369;    0,409
200,563;  134,637;    2,823;   -1,409
201,163;  111,766;    3,277;   -0,227
201,763;  202,554;    3,732;    0,318
202,363;  148,849;    1,459;    1,500
202,963;  238,101;    1,459;    1,045
203,563;  333,067;    0,277;    0,500
204,162;  201,909;    2,096;   -1,864
204,762;  190,441;    0,550;    0,591
205,362;  155,852;    3,004;    1,955
205,962;  251,942;    3,096;    1,955
206,562;  243,012;    1,823;    2,318
207,161;  210,839;   -0,087;    0,318
207,761;  367,135;    1,277;    2,409
208,361;  246,739;   -0,268;    1,409
208,960;  343,137;    0,459;    1,500
209,560;  409,277;    1,277;    1,591
210,160;  394,284;    0,550;    1,864
210,759;  358,892;    4,186;    1,227
211,359;  372,550;    1,459;    1,045
211,958;  627,393;    1,277;    2,045
212,558;  706,266;    1,732;    1,864
213,157;  551,071;    1,822;    1,500
213,757;  973,131;    3,822;   -0,227
214,356;  686,612;    1,277;   -0,409
214,956; 1034,314;    3,095;    0,409
215,555;  663,889;    2,095;    2,136
216,154;  602,103;   -2,723;   -0,591
216,754;  611,272;    0,277;    0,773
217,353;  736,932;   -0,268;   -1,045
217,952;  600,619;   -0,178;    0,318
218,552;  837,262;    1,368;   -0,773
219,151;  732,003;    0,277;    0,955
219,750;  738,818;    0,004;   -0,227
220,349;  846,714;   -0,451;    1,045
220,948;  924,980;   -1,360;    1,136
221,548;  942,225;    0,913;    1,227
222,147; 1048,409;   -0,087;   -0,409
222,746; 1339,053;   -0,451;   -0,955
223,345; 1203,810;    0,731;    0,500
223,944; 1219,300;   -0,451;    0,773
224,543; 1380,767;    1,004;   -1,409
225,142; 1503,262;    0,094;    0,136
225,741; 1417,673;   -0,814;    1,045
226,340; 1421,463;   -0,451;   -0,955
226,939; 1871,579;   -0,996;   -0,136
227,538; 1820,960;   -0,360;   -0,773
228,137; 1960,953;   -0,814;    0,864
228,735; 2091,674;   -0,541;    1,227
229,334; 1853,662;   -0,905;   -0,227
229,933; 2229,921;    0,459;    0,591
230,532; 2349,394;    1,186;   -0,409
231,131; 2390,833;    1,732;    0,318
231,729; 2516,891;   -2,450;   -2,318
232,328; 2639,568;   -0,723;   -1,500
232,927; 2689,673;    1,004;   -0,500
233,525; 2804,777;    3,640;    0,045
234,124; 3011,362;    2,368;   -1,591
234,723; 3047,046;    0,913;   -1,045
235,321; 3184,474;    2,277;    0,136
235,920; 3417,169;    1,186;   -1,227
236,518; 3664,597;    3,459;    0,318
237,117; 3852,926;    0,004;   -0,227
237,715; 4017,909;    0,640;   -0,500
238,314; 4065,594;   -0,087;   -2,318
238,912; 4160,263;   -0,723;   -1,409
239,510; 4185,966;    0,459;   -1,227
240,109; 4372,748;    0,004;    3,773
240,707; 4430,019;   -0,996;    1,227
241,305; 4778,730;    0,550;    0,136
241,904; 4981,911;   -0,178;   -2,045
242,502; 4974,202;   -0,632;   -0,227
243,100; 4917,897;   -0,087;   -0,955
243,698; 5173,516;    0,732;    1,682
244,297; 5367,487;   -0,632;    0,682
244,895; 5219,462;   -0,269;   -2,318
245,493; 5563,672;    2,186;   -0,591
246,091; 5624,524;    1,368;   -1,318
246,689; 5585,791;    1,004;    0,591
247,287; 5756,935;    0,822;   -1,136
247,885; 6052,691;   -1,451;    1,227
248,483; 6182,805;    1,822;   -0,500
249,081; 6306,319;    0,185;    1,591
249,679; 6470,236;   -0,178;    1,682
250,277; 6751,013;   -1,723;    0,864
250,875; 6731,357;   -1,087;   -1,045
251,473; 6802,965;   -1,178;    0,500
252,071; 6978,987;    1,459;    1,045
252,669; 7151,209;   -1,814;    0,318
253,267; 7434,141;   -0,087;    0,773
253,864; 7387,298;   -0,360;    0,682
254,462; 7232,582;    1,640;    1,591
255,060; 7225,280;   -0,269;    1,318
255,658; 7586,209;    0,822;   -0,136
256,255; 7991,474;    0,186;   -2,045
256,853; 7853,691;   -0,269;    1,409
257,451; 7857,660;    0,822;    1,864
258,048; 8132,084;    1,822;    1,864
258,646; 7898,486;    1,731;   -1,045
259,243; 8111,510;   -0,087;    2,227
259,841; 8165,637;   -0,814;    0,318
260,438; 8043,483;   -0,087;    0,864
261,036; 8772,979;   -1,905;    1,409
261,633; 8689,039;   -0,087;    2,227
262,231; 8435,587;    2,731;   -0,045
262,828; 8547,028;   -0,905;    1,136
263,425; 8573,345;    0,913;   -0,591
264,023; 8866,098;    0,186;    0,045
264,620; 8405,019;   -0,360;   -0,318
265,217; 8742,851;   -2,087;    3,136
265,815; 8853,125;   -1,905;    2,136
266,412; 8618,682;    0,731;    0,136
267,009; 8670,108;   -1,451;    0,773
267,606; 8581,849;    0,822;   -0,955
268,203; 8567,490;   -0,269;   -0,591
268,801; 8852,872;    1,731;    0,591
269,398; 9180,196;   -0,360;    2,500
269,995; 9160,119;    0,277;    1,591
270,592; 8924,058;   -0,632;   -0,500
271,189; 9148,592;    0,186;    0,409
271,786; 9287,565;   -0,632;    1,227
272,383; 9069,264;   -1,087;    0,227
272,980; 9276,724;    0,277;    0,318
273,577; 9741,986;    0,004;    1,227
274,174; 9309,315;    0,822;    2,591
274,771; 9279,845;   -0,814;   -0,773
275,367; 9438,435;    2,277;    1,409
275,964; 9401,753;    0,731;   -0,500
276,561; 9497,318;    1,549;   -1,045
277,158; 9723,509;    0,095;   -1,773
277,755; 9860,046;    2,185;    0,409
278,351; 9292,570;   -0,451;   -1,500
278,948; 9561,826;   -0,815;    0,045
279,545; 9549,241;   -1,360;    2,318
280,141;10193,181;   -1,723;   -2,045
280,738;10080,833;   -0,451;   -0,136
281,334;10330,105;   -1,633;    0,591
281,931; 9726,727;   -0,087;   -1,318
282,528; 9816,456;    0,822;   -0,500
283,124;10549,582;   -1,087;   -0,500
283,721;10452,884;   -0,451;    1,409
284,317;10261,434;    0,185;    2,500
284,913;10797,137;   -1,360;    0,591
285,510;10976,682;    0,640;   -0,318
286,106;11039,299;   -2,269;   -0,955
286,703;10633,776;   -0,360;    1,955
287,299;10860,183;   -1,451;   -0,591
287,895;11064,960;    0,822;   -1,045
288,491;11636,833;    0,186;    2,136
289,088;11361,218;   -2,360;    2,409
289,684;11415,754;   -1,723;    1,500
290,280;11432,617;    0,368;    0,682
290,876;11524,799;    1,822;    5,500
291,472;11427,451;    1,276;    2,227
292,068;11530,765;    1,367;    0,227
292,665;11263,001;    2,095;    0,773
293,261;10850,513;    0,276;    2,136
293,857;11290,060;    2,913;    2,136
294,453;11273,733;    3,550;    0,955
295,049;11104,648;   -0,268;    1,955
295,644;11092,875;    0,095;    0,136
296,240;10999,013;   -0,905;   -0,136
296,836;11089,063;   -0,995;    0,318
297,432;11350,077;    1,096;   -0,500
298,028;11365,960;    0,732;    0,773
298,624;11795,262;    1,459;    1,864
299,220;12067,630;    2,368;    0,591
299,815;11726,586;    1,005;   -0,409
300,411;11502,830;    0,914;    1,773
301,007;11562,760;    1,368;    0,227
301,602;11605,860;   -0,541;   -2,318
302,198;11783,882;    0,732;   -0,773
302,794;12110,307;    1,187;   -0,500
303,389;12251,780;   -1,177;    1,045
303,985;12337,311;    0,550;    1,409
304,580;12242,483;    1,459;    1,591
305,176;12231,979;   -3,086;    0,136
305,771;12210,520;   -1,268;   -1,227
306,367;12015,985;    4,095;    0,136
306,962;12363,951;    0,641;    1,500
307,558;12115,523;   -0,450;    0,136
308,153;12063,531;    1,095;   -1,136
308,748;12301,099;   -0,814;    1,682
309,344;12246,017;   -0,632;   -1,318
309,939;12330,904;   -1,905;   -1,318
310,534;12649,052;   -0,086;   -1,682
311,130;12566,806;    0,459;   -2,500
311,725;12305,308;    1,004;   -0,500
312,320;12616,931;    2,459;    0,045
312,915;12470,239;    1,459;   -1,045
313,510;12520,165;    1,550;   -0,500
314,105;13083,966;    1,096;    1,409
314,700;12490,196;   -3,086;   -1,045
315,295;12071,665;   -0,904;    0,045
315,890;11665,939;    1,277;    0,864
316,485;12053,230;   -0,359;   -0,318
317,080;12162,145;   -3,086;    1,591
317,675;12683,937;    2,005;   -0,682
318,270;12063,185;    5,550;    3,318
318,865;12095,906;    3,278;    3,045
319,460;11968,192;   -0,904;    0,591
320,055;12227,819;   -0,541;   -1,227
320,650;11849,302;   -1,995;   -0,591
321,244;11902,031;   -0,177;   -1,409
321,839;12879,578;   -1,541;   -0,227
322,434;12755,386;   -1,086;   -1,591
323,029;12385,429;    1,732;    1,591
323,623;12184,008;    1,550;    0,773
324,218;11936,659;    2,368;    1,409
324,812;11828,495;    1,096;    1,591
325,407;11652,283;   -0,814;    2,045
326,002;11536,990;    0,277;   -0,409
326,596;11870,724;    0,914;    1,318
327,191;12061,141;    0,823;   -1,045
327,785;11653,451;   -0,813;   -0,227
328,379;11858,446;    1,368;    0,136
328,974;11670,024;    0,914;   -3,955
329,568;11898,715;    0,186;   -2,409
330,163;11727,746;    2,096;    1,045
330,757;12107,215;    2,459;    1,591
331,351;11403,818;    0,459;    0,682
331,945;11705,665;    0,914;    1,409
332,540;11320,097;   -1,723;   -0,591
333,134;11428,831;   -1,086;    0,773
333,728;11675,791;    0,005;    0,318
334,322;12014,739;   -1,177;   -0,864
334,916;11313,684;    0,277;    0,955
335,510;11636,565;   -0,450;   -0,136
336,105;11919,323;   -1,086;    1,591
336,699;11601,478;   -1,086;    0,591
337,293;11526,821;   -1,723;    0,318
337,887;11723,782;   -2,723;    1,955
338,481;11831,032;    0,459;    0,591
339,074;11982,678;   -0,359;    2,682
339,668;11785,252;   -1,632;    1,227
340,262;11998,870;    1,732;    3,227
340,856;11543,984;    1,822;   -0,682
341,450;10913,188;    1,004;    1,864
342,044;11837,094;    1,459;    0,136
342,637;11606,203;    0,913;   -2,136
343,231;11468,633;   -2,360;    0,682
343,825;11460,290;   -1,086;   -0,591
344,419;11422,974;   -1,995;    0,500
345,012;11169,406;    2,459;    4,045
345,606;11150,247;    4,641;    1,591
346,199;11012,474;   -1,813;   -0,227
346,793;10542,684;    1,914;    2,045
347,386;10734,457;   -0,813;   -1,136
347,980;10745,099;   -0,268;   -0,045
348,573;10540,243;    2,278;    0,409
349,167;10165,829;    5,278;    4,773
349,760;10536,237;    2,914;    2,682
350,354;10537,895;   -0,813;    1,136
350,947;10278,054;    1,096;    1,682
351,540; 9965,438;   -0,358;   -1,409
352,134; 9908,815;    1,096;    1,136
352,727; 9974,341;   -0,086;    1,136
353,320; 9760,423;    0,005;    0,591
353,913; 9612,764;   -1,995;    1,864
354,507; 9780,703;    0,823;   -1,227
355,100; 9813,667;    0,460;    0,864
355,693; 9006,626;    2,005;    2,409
356,286; 9054,172;    0,823;    2,773
356,879; 9441,795;   -0,722;    1,227
357,472; 9052,481;   -0,904;    1,500
358,065; 9217,898;   -0,722;    2,500
358,658; 9162,152;   -0,540;    2,318
359,251; 8828,801;   -1,631;   -0,591
359,844; 8249,153;   -1,904;   -1,136
360,437; 8436,829;   -2,995;    0,045
361,030; 8730,677;    1,369;   -0,682
361,623; 8326,274;    2,824;    0,318
362,215; 8352,185;   -0,086;    2,045
362,808; 8170,130;   -2,358;   -1,682
363,401; 8388,376;   -2,449;    0,136
363,994; 8129,289;   -0,631;   -1,500
364,586; 8063,965;    0,824;   -1,500
365,179; 8278,980;   -0,449;   -1,136
365,772; 7739,084;   -1,995;    2,045
366,364; 8048,527;    1,915;   -3,227
366,957; 8266,795;    2,279;   -0,045
367,549; 8293,664;    2,188;   -0,864
368,142; 7908,695;    1,825;   -1,500
368,734; 8085,881;    0,734;   -2,136
369,327; 8058,948;    1,643;   -0,500
369,919; 7988,535;   -1,538;    0,409
370,512; 7794,733;   -1,083;   -0,500
371,104; 7540,909;   -0,901;    1,591
371,696; 7702,054;    1,191;   -0,955
372,289; 7792,370;    0,373;    1,136
372,881; 7922,656;   -2,080;    1,318
373,473; 7853,096;   -2,170;    1,136
374,066; 7651,229;   -0,169;    0,500
374,658; 7509,492;    0,378;    1,136
375,250; 7889,729;    0,653;   -1,409
375,842; 7721,701;    0,473;   -0,045
376,434; 7589,864;   -0,435;   -0,409
377,026; 8171,079;    0,204;   -2,500
377,618; 8087,484;   -0,158;   -0,682
378,210; 7921,427;   -0,338;   -1,955
378,802; 7762,618;    0,754;   -0,591
379,394; 7695,134;    1,846;    0,682
379,986; 8293,511;    1,393;   -0,955
380,578; 8423,310;   -0,153;    0,773
381,170; 7729,654;   -0,972;    0,045
381,762; 7728,340;    0,755;    1,409
382,354; 7910,892;   -0,065;   -1,318
382,945; 7999,948;   -2,976;    0,318
383,537; 8160,729;   -2,705;   -1,955
384,129; 8217,250;   -2,160;   -1,136
384,721; 8403,743;   -0,252;    0,955
385,312; 8312,829;   -0,161;   -0,955
385,904; 8403,616;   -2,706;    1,591
386,496; 7783,775;   -0,979;    1,045
387,087; 7902,225;    1,022;    2,500
387,679; 7950,323;   -1,160;    0,045
388,270; 8112,366;    2,840;    2,045
388,862; 8199,859;    1,295;   -0,318
389,453; 8110,617;   -0,887;    1,045
390,045; 8383,948;   -0,705;   -2,682
390,636; 8345,389;    0,204;   -0,591
391,227; 8168,685;   -0,523;   -0,045
391,819; 8250,606;    0,204;    0,773
392,410; 8328,445;    1,022;    0,045
393,001; 8239,360;   -0,979;   -1,591
393,593; 8561,755;    1,930;   -0,045
394,184; 8389,190;    1,385;   -0,409
394,775; 8304,683;    1,839;    2,136
395,366; 8508,252;    1,385;    0,773
395,957; 8568,308;    0,113;    0,136
396,548; 8836,919;   -0,342;    2,682
397,139; 9147,496;   -2,433;    0,591
397,730; 8902,026;   -1,888;    0,955
398,321; 8941,352;   -1,252;    0,955
398,912; 8970,615;   -0,615;    0,136
399,503; 9054,089;   -3,524;   -1,409
400,094; 8498,945;    0,294;    1,682
400,685; 8358,361;   -0,433;    0,045
401,276; 8457,403;    0,930;   -0,955
401,867; 8758,427;   -0,888;    0,773
402,458; 8854,541;   -2,251;   -2,318
403,048; 8840,924;    1,112;    0,591
403,639; 8453,009;    0,840;    0,864
404,230; 8666,695;    2,476;    0,318
404,821; 8604,362;   -0,615;    0,045
405,411; 8761,503;    1,203;   -2,591
406,002; 8334,695;   -1,252;   -1,136
406,592; 8165,573;    2,294;    0,045
407,183; 8490,441;    0,566;   -1,500
407,774; 8432,785;    3,475;   -0,136
408,364; 8748,243;    0,930;    0,409
408,954; 8340,277;    0,384;    1,227
409,545; 8405,805;    1,021;    1,045
410,135; 7958,155;    1,293;    0,500
410,726; 8061,762;    1,838;    0,318
411,316; 8464,058;    0,111;    0,773
411,906; 8170,132;   -0,253;   -0,409
412,497; 7654,123;   -1,070;   -0,045
413,087; 8255,836;   -1,980;   -0,227
413,677; 8672,703;   -0,707;    3,864
414,267; 8503,010;    0,656;    1,409
414,857; 8488,228;   -2,980;    4,227
415,448; 8799,717;    0,839;    0,500
416,038; 8463,597;    0,020;   -0,591
416,628; 8412,230;   -0,889;    0,409
417,218; 7881,737;    0,565;    3,318
417,808; 8159,864;    0,202;   -0,409
418,398; 8634,630;    0,020;    2,682
418,988; 8660,809;    2,020;    0,591
419,578; 8911,889;   -0,707;    1,409
420,168; 9261,326;   -1,343;   -0,955
420,757; 8795,385;   -1,343;   -1,500
421,347; 8499,215;    0,111;   -0,227
421,937; 8685,593;    2,292;    1,409
422,527; 8599,489;    0,838;   -0,773
423,116; 8419,565;   -0,253;   -0,045
423,706; 8800,066;   -1,889;    0,318
424,296; 8788,054;    1,384;    0,682
424,885; 9176,417;   -0,071;   -3,045
425,475; 9477,326;    1,474;   -2,864
426,065; 9430,619;   -0,980;   -0,318
426,654; 9059,112;   -0,435;   -0,318
427,244; 9130,473;    0,020;    1,409
427,833; 8562,613;    1,383;   -0,500
428,423; 9095,741;   -0,526;    1,136
429,012; 9848,995;   -0,344;   -1,136
429,601; 9307,566;   -1,344;    0,136
430,191; 9580,623;    1,292;    4,318
430,780; 9191,994;   -0,344;   -0,409
431,369; 9093,754;    0,746;   -0,045
431,959; 9761,543;   -1,254;    0,500
432,548; 9533,412;   -1,163;   -0,045
433,137; 9672,121;   -1,254;   -1,318
433,726;10216,885;    0,292;    0,500
434,315; 9576,361;   -0,526;    2,409
434,905; 9651,907;   -1,254;    1,409
435,494; 9546,910;    0,746;    0,955
436,083;10030,428;   -0,981;   -0,955
436,672; 9927,137;    0,110;    0,500
437,261; 9487,873;    0,292;   -1,955
437,850; 9571,690;    1,383;    0,682
438,439; 9534,699;    3,291;    1,955
439,027; 9388,747;    3,655;    1,773
439,616; 9732,809;    2,927;    1,227
440,205; 9614,207;    0,200;   -2,136
440,794; 9701,657;    2,109;   -0,045
441,383; 9989,048;   -1,346;   -0,591
441,971; 9836,933;   -2,436;    0,591
442,560; 9671,292;    0,563;   -1,773
443,149; 9432,751;    0,379;   -1,318
443,737; 9579,419;   -0,074;   -2,318
444,326; 9841,674;    0,018;    0,318
444,915; 9924,130;   -1,982;    0,864
445,503;10303,973;   -2,891;   -0,318
446,092; 9568,930;    0,382;    2,136
446,680;10104,294;    0,382;    0,318
447,269;10271,952;   -0,346;   -0,318
447,857;10081,254;    0,018;   -1,773
448,445;10222,056;    0,563;    1,318
449,034;10417,052;   -1,528;   -1,136
449,622;10554,694;   -1,073;    3,500
450,210; 9719,863;    2,017;    2,227
450,799;10261,905;    0,290;   -0,591
451,387;10263,804;    1,381;   -0,591
451,975; 9865,737;    2,654;    0,864
452,563; 9961,324;    3,472;    2,318
453,151;10033,589;   -0,528;   -1,227
453,739; 9958,350;   -1,347;    0,136
454,328; 9776,694;    2,381;   -2,136
454,916; 9496,640;    2,562;   -0,136
455,504; 9696,219;    1,017;    1,227
456,092; 9869,627;    0,017;   -1,591
456,679; 9866,704;    1,472;    0,682
457,267; 9744,643;    4,017;    1,045
457,855; 9943,501;    1,017;    1,409
458,443; 9715,191;   -0,165;    1,682
459,031; 9803,828;    0,108;    2,409
459,619;10280,899;   -1,801;    2,864
460,206;10482,895;    0,835;    2,045
460,794;10553,102;   -2,983;   -0,227
461,382;10764,952;   -0,529;   -0,864
461,970;10363,160;    1,198;    1,864
462,557;10411,907;   -0,711;   -0,682
463,145;10584,536;   -3,165;   -1,682
463,732;10722,638;    2,016;   -1,045
464,320;10654,724;   -0,075;   -3,045
464,907;10345,546;    2,743;   -0,773
465,495;10198,258;    0,743;   -1,227
466,082;10373,193;   -1,984;   -0,045
466,670;10314,035;   -2,529;    1,227
467,257;10700,550;   -1,711;    2,045
467,844;10840,545;   -0,075;    0,045
468,432;10852,511;    0,834;    3,500
469,019;10365,556;    0,925;   -1,773
469,606;10845,428;    0,470;    3,682
470,193;10654,067;   -1,439;    0,227
470,780;10208,314;   -2,075;    0,864
471,368;10604,091;   -1,257;   -0,773
471,955;10386,310;    1,379;   -0,682
472,542; 9980,499;    0,652;   -1,136
473,129;10231,768;   -0,166;    0,136
473,716; 9980,330;    1,470;    0,591
474,303;10200,160;    0,652;   -0,864
474,890;10494,112;   -1,439;   -0,500
475,477;10504,795;   -1,621;    0,409
476,064;10406,788;    1,106;   -1,591
476,650;10315,904;    0,288;    0,318
477,237;10167,449;   -0,258;    0,955
477,824;10329,245;   -1,076;    0,864
478,411;10361,403;   -1,894;   -0,318
478,997;10579,178;    0,560;   -0,773
479,584;10618,417;    1,196;   -0,409
480,171;11333,345;   -0,440;   -0,773
480,757;10979,540;    2,651;    0,773
481,344;11297,415;    0,469;    0,409
481,931;10801,053;    1,105;    1,045
482,517;11813,575;   -1,258;    0,318
483,104;12403,657;    1,106;    2,864
483,690;12706,039;   -1,804;    0,045
484,276;13150,749;   -0,895;    0,227
484,863;12823,580;    2,469;    1,136
485,449;13469,040;   -0,077;    0,318
486,035;13480,005;   -1,986;   -0,136
486,622;13890,424;   -0,895;    0,045
487,208;13866,840;    1,378;    1,500
487,794;13744,714;    0,741;    0,318
488,380;13839,762;    0,105;   -1,409
488,967;13859,270;   -1,168;   -0,409
489,553;13965,115;   -1,895;   -1,409
490,139;14146,095;    1,559;    0,773
490,725;13605,398;    0,741;   -0,227
491,311;13150,335;    3,287;    3,045
491,897;12461,808;   -0,986;    1,500
492,483;12254,434;    0,105;    1,227
493,069;11977,527;    3,923;    0,864
493,655;11996,946;    1,650;    0,682
494,241;11895,429;    1,377;   -0,955
494,826;12291,291;    0,287;   -1,045
495,412;11758,778;    2,559;   -0,682
495,998;11911,539;   -0,805;   -0,318
496,584;12057,221;    0,377;    1,045
497,169;12069,527;    1,014;   -0,682
497,755;12058,076;    0,650;    1,227
498,341;12625,340;    0,559;    0,318
498,926;12137,131;    1,832;    1,955
499,512;12382,548;    1,286;    2,955
500,097;12537,162;    0,195;   -0,318
500,683;12497,544;   -0,350;    2,136
501,268;12849,497;   -0,169;   -0,955
501,854;12573,083;   -0,169;    1,227
502,439;12500,979;   -0,624;   -1,773
503,024;12730,099;    0,195;    0,500
503,610;12788,386;   -0,078;   -0,682
504,195;12837,939;    0,558;    1,955
504,780;12935,703;    2,922;    1,227
505,366;12747,485;    3,013;    2,864
505,951;12471,552;    0,740;    1,045
506,536;12483,002;   -3,260;   -3,682
507,121;12500,690;    0,285;   -0,318
507,706;13048,344;    2,376;    1,045
508,291;13426,558;    2,649;    1,136
508,876;12890,740;   -0,988;    2,591
509,461;12347,613;   -0,169;   -0,773
510,046;12771,076;    0,194;    0,318
510,631;13009,973;   -0,351;   -0,773
511,216;12713,571;    2,467;   -0,500
511,801;13068,261;   -0,442;    2,591
512,386;13375,262;    0,740;    0,500
512,971;13309,613;   -2,988;    0,955
513,555;12871,739;   -0,897;   -1,500
514,140;13678,813;   -0,442;   -3,136
514,725;13699,792;   -0,715;   -1,136
515,309;13820,301;   -0,533;    0,318
515,894;13240,263;   -0,624;   -2,227
516,479;13730,141;   -0,624;   -0,955
517,063;13573,178;    0,376;    1,227
517,648;13688,929;    1,012;   -1,136
518,232;13319,439;   -0,261;   -1,409
518,817;13669,418;   -0,079;    1,682
519,401;13896,168;    2,194;    0,591
519,985;13401,393;    1,103;    1,136
520,570;13319,897;    0,830;   -1,955
521,154;13597,222;    2,102;    0,591
521,738;13745,390;   -2,352;    2,409
522,323;14333,458;   -0,170;    1,682
522,907;14070,886;    0,466;   -0,136
523,491;13772,722;    0,557;    0,955
524,075;13767,247;    2,284;    0,591
524,659;13872,904;    1,466;    0,591
525,243;13307,142;    1,739;    0,409
525,827;13579,221;    0,648;   -0,045
526,411;14445,904;   -1,989;   -0,136
526,995;14657,478;   -0,352;    1,409
527,579;14240,519;   -0,443;   -1,045
528,163;14551,738;    0,375;   -1,500
528,747;14440,526;    2,466;   -0,773
529,331;14777,438;   -0,080;   -1,409
529,915;15000,601;    1,738;    0,955
530,499;14947,114;   -0,807;    1,227
531,082;14647,688;   -0,534;    1,591
531,666;14100,927;    1,374;    0,773
532,250;14760,052;    1,284;    2,682
532,833;15092,229;    0,920;    2,773
533,417;14961,546;   -1,807;    0,864
534,001;14936,329;    1,647;   -0,318
534,584;15638,215;    0,374;    0,500
535,168;15474,112;    0,465;    1,409
535,751;15548,147;    0,647;    0,045
536,334;15005,565;   -0,898;   -0,409
536,918;15635,671;    0,011;    1,591
537,501;15741,028;   -0,899;    1,318
538,085;15720,252;   -0,444;    1,045
538,668;15870,413;    0,829;    2,409
539,251;16134,302;    1,829;    3,773
539,834;16205,551;    0,101;    0,773
540,418;16113,752;   -1,990;    4,318
541,001;16244,217;   -0,990;    1,773
541,584;16236,922;    2,101;    2,227
542,167;15980,172;    1,374;    2,955
542,750;16125,076;    1,919;   -0,773
543,333;15713,334;    0,555;    2,136
543,916;16475,961;    0,192;    2,500
544,499;17112,171;   -1,354;    0,227
545,082;17100,338;    1,374;    3,591
545,665;17233,050;    1,919;    1,500
546,248;17594,788;    1,010;   -0,318
546,830;17242,090;   -0,445;    1,955
547,413;17670,378;    1,010;   -0,773
547,996;18210,878;    0,555;    0,500
548,579;17981,403;    0,919;    0,955
549,161;17795,207;    1,828;    2,682
549,744;17616,277;   -0,809;    0,409
550,326;18120,380;   -0,809;   -1,136
550,909;17851,523;    2,737;    0,591
551,492;18254,344;   -0,263;    0,227
552,074;18057,149;   -0,173;   -1,318
552,657;18608,486;    2,373;    0,045
553,239;18377,971;   -0,173;   -0,773
553,821;18326,305;   -1,082;    1,045
554,404;17774,357;    1,282;    1,136
554,986;18183,793;    0,464;    1,045
555,568;18777,460;    1,191;   -0,955
556,151;17996,530;    1,191;   -0,227
556,733;18202,217;   -0,264;   -0,864
557,315;18656,410;    0,100;    0,500
557,897;18426,718;    0,554;   -0,500
558,479;18591,398;   -1,991;    1,318
559,061;18694,488;   -0,719;   -0,864
559,643;19057,462;   -0,264;    0,045
560,225;19490,809;    1,645;    2,864
560,807;19501,553;    0,918;    0,318
561,389;18965,921;    0,554;    2,318
561,971;19735,332;    0,463;    2,136
562,553;19523,708;   -1,628;    1,591
563,135;19681,995;   -0,537;    1,136
563,717;19248,684;    3,372;    1,136
564,298;19953,140;    3,645;   -0,045
564,880;19718,185;    0,645;   -1,409
565,462;19903,185;    0,645;    1,318
566,043;21051,110;   -0,446;    2,318
566,625;20599,831;    1,918;    1,227
567,207;20428,485;    1,099;    1,682
567,788;21613,060;   -1,264;    1,500
568,370;22417,906;    1,917;   -0,500
568,951;22235,070;    0,190;    0,227
569,533;23153,263;   -0,628;   -0,500
570,114;23604,560;   -0,446;    0,682
570,695;24146,886;   -0,174;   -1,318
571,277;24650,958;   -0,265;   -1,682
571,858;25341,203;    2,008;   -1,136
572,439;26292,092;    1,554;   -1,045
573,021;26476,353;    2,099;   -2,773
573,602;27024,093;   -1,265;    0,318
574,183;27988,866;   -2,083;    2,227
574,764;28136,361;   -1,629;    0,409
575,345;28674,337;    0,917;   -0,136
575,926;29326,459;   -0,356;    0,136
576,507;29314,814;    1,099;   -0,227
577,088;30470,691;    3,099;    1,682
577,669;30458,137;    0,735;    1,955
578,250;31216,866;    0,644;   -1,045
578,831;31917,039;   -1,356;   -2,227
579,412;32138,753;   -0,810;    0,955
579,993;33114,102;    1,008;    0,227
580,573;33472,050;   -0,629;   -0,955
581,154;32446,357;    0,735;   -0,591
581,735;33259,371;    0,644;    0,773
582,315;32781,735;   -0,629;    2,136
582,896;33147,907;   -0,174;    1,227
583,477;32622,688;    0,189;    1,227
584,057;32800,615;    0,553;    0,955
584,638;33114,920;    2,553;    2,318
585,218;33051,331;   -0,538;    2,682
585,799;33206,406;    0,281;   -0,227
586,379;33233,873;    0,372;    1,591
586,959;31952,385;    0,735;    0,318
587,540;31279,378;   -0,629;    2,227
588,120;30858,216;    1,007;   -0,045
588,700;29779,564;    2,553;    2,136
589,281;29995,712;    0,462;   -0,955
589,861;29945,872;    0,099;   -1,682
590,441;29750,088;    2,371;   -2,682
591,021;28785,642;   -0,265;   -2,591
591,601;28997,408;   -0,537;    0,500
592,181;28981,417;   -0,719;   -0,773
592,761;28270,061;    0,007;    1,409
593,341;28198,074;   -0,901;    0,045
593,921;28129,750;   -0,265;    1,591
594,501;28052,963;   -0,538;    1,318
595,081;27924,315;    0,917;   -0,318
595,661;28230,895;   -1,447;    0,955
596,240;28701,895;   -0,537;    0,136
596,820;28355,995;    0,372;    1,955
597,400;28564,636;    2,008;    0,773
597,980;28816,061;    2,008;    1,045
598,559;28831,254;    2,735;   -0,227
599,139;28514,836;   -0,174;   -1,227
599,718;28415,109;   -0,174;   -0,409
600,298;28673,560;    0,735;    0,682
600,877;28911,261;    2,917;    1,409
601,457;29222,542;    2,281;    1,136
602,036;29101,948;    0,190;    2,045
602,616;29341,055;    0,644;    1,682
603,195;29675,627;   -0,355;    3,500
603,774;29184,177;   -0,901;    2,045
604,354;29050,702;    0,826;   -0,500
604,933;28555,299;    0,463;    1,864
605,512;28697,960;    3,554;    0,591
606,091;28766,462;   -0,537;    3,773
606,671;29536,880;    0,281;    0,773
607,250;28646,165;    1,644;    3,136
607,829;28872,935;    2,372;    3,227
608,408;28678,690;    1,190;    2,591
608,987;27712,958;    1,281;    3,409
609,566;28061,992;   -1,265;   -2,500
610,145;28157,495;   -1,082;    0,682
610,723;28547,461;    4,372;    6,864
611,302;27791,086;   -0,446;    1,682
611,881;27299,316;    5,008;   11,227
612,460;28193,756;    1,645;    3,955
613,039;28561,486;   -0,082;    2,045
613,617;27295,264;    1,736;    4,773
614,196;27506,606;    1,099;    1,227
614,775;27858,805;    1,009;    2,409
615,353;27789,525;    0,736;    0,864
615,932;27487,147;    0,100;    2,409
616,510;28081,163;    0,554;    0,591
617,089;27553,587;    7,100;   17,591
617,667;27292,335;    2,372;    6,136
618,246;27199,931;   -1,537;    1,318
618,824;27364,650;   -3,355;   -0,955
619,402;26929,656;   -2,900;   -1,773
619,981;27443,305;   -0,173;   -1,045
620,559;27276,673;    0,009;    1,682
621,137;26779,132;   -0,718;    1,864
621,715;26832,552;   -1,173;   -0,682
622,293;26717,457;   -0,537;   -0,773
622,871;27193,501;   -0,718;    0,500
623,450;26742,635;    0,373;   -0,864
624,028;26667,699;    0,191;   -0,955
624,606;26277,756;   -1,718;    1,682
625,183;26732,822;   -1,536;   -1,136
625,761;26325,543;    1,009;    1,136
626,339;26621,481;    1,373;    2,591
626,917;27012,325;   -0,172;   -0,045
627,495;26999,830;   -0,354;    1,318
628,073;26458,590;   -0,263;    2,864
628,650;26142,157;    0,100;    2,136
629,228;26567,007;    0,373;    4,409
629,806;26007,897;    2,282;    1,136
630,383;26283,307;    1,464;   -0,318
630,961;26051,929;    2,555;   -0,955
631,539;25795,808;    2,464;    0,227
632,116;25098,111;   11,373;   15,409
632,694;25650,047;    2,555;    6,500
633,271;25967,795;    0,828;    2,682
633,848;25831,607;    1,828;    2,045
634,426;25910,521;   -1,081;    1,773
635,003;25043,817;    1,101;   -0,409
635,580;25353,156;    1,192;    3,682
636,158;25938,293;    3,737;    1,227
636,735;25942,009;    0,555;   -0,500
637,312;26064,423;   -0,809;   -0,682
637,889;26131,186;   -4,354;   -0,682
638,466;25602,484;   -3,990;   -0,409
639,043;25609,341;    2,101;   -1,136
639,620;26035,485;   -2,262;   -0,955
640,197;26286,036;    1,100;    1,682
640,774;26435,733;   -0,172;    1,136
641,351;26846,520;    0,737;    1,136
641,928;26219,217;   -0,627;    1,409
642,505;25835,641;    0,828;   -0,500
643,082;25985,883;   -1,718;    1,227
643,658;25020,489;   -0,718;    1,500
644,235;25800,640;    1,191;    2,500
644,812;26080,973;    1,918;    0,773
645,388;25796,852;   -0,991;    1,409
645,965;25902,548;   -0,809;    1,682
646,542;25996,154;   -1,445;   -0,227
647,118;25976,760;    1,009;   -0,955
647,695;26255,274;   -0,263;    1,136
648,271;26192,062;   -0,536;    0,500
648,848;26489,668;    0,736;    2,227
649,424;26334,273;    0,827;    1,318
650,000;26034,879;   -0,354;   -1,045
650,577;25860,303;   -0,627;   -0,955
651,153;26362,091;   -1,809;    0,955
651,729;27436,151;    1,191;    0,864
652,305;27591,848;    0,645;    2,773
652,881;31947,090;   -0,082;    1,136
653,458;39005,695;    1,100;    0,227
654,034;43127,392;    0,282;    1,591
654,610;44848,180;    0,554;    0,773
655,186;46210,058;    0,645;    3,045
655,762;45948,027;   -0,991;    0,409
656,338;45922,451;    0,100;    0,136
656,913;46923,148;   -0,082;    0,409
657,489;46239,026;    0,827;   -0,318
658,065;46197,450;   -0,173;   -1,591
658,641;46828,511;   -0,900;   -0,864
659,217;46117,480;   -0,991;    0,409
659,792;45501,086;    0,645;   -0,409
660,368;45815,782;   -2,173;   -0,682
660,944;45463,752;   -2,082;    1,227
661,519;40899,903;   -0,628;    0,409
662,095;34742,145;   -1,719;    0,591
662,670;29827,296;    1,281;   -0,136
663,246;28478,538;    1,009;   -0,409
663,821;27722,780;    0,281;    1,682
664,396;27186,204;    0,009;    1,864
664,972;27412,901;    0,009;   -0,500
665,547;27711,688;    1,372;    0,136
666,122;27776,840;   -1,082;    0,318
666,698;28053,627;   -0,173;    0,318
667,273;27415,233;   -0,173;    0,136
667,848;28196,475;    2,372;    1,500
668,423;27997,717;    2,190;    2,318
668,998;28587,959;    2,827;   -0,682
669,573;29151,747;   -3,264;   -1,500
670,148;28975,443;   -1,446;   -0,682
670,723;28788,140;   -1,810;    0,318
671,298;29198,473;    2,372;    1,045
671,873;29326,806;   -0,082;   -0,136
672,448;29257,139;    0,645;    0,136
673,023;29628,108;   -1,992;   -0,227
673,597;29933,350;    0,827;    2,318
674,172;29704,774;   -0,355;    0,318
674,747;29224,653;    0,372;   -1,045
675,321;29050,531;   -0,628;    3,318
675,896;28628,592;    0,645;    1,045
676,471;29662,197;    2,645;    1,591
677,045;29397,076;   -1,264;    0,682
677,620;29477,863;    0,190;    1,136
678,194;29738,651;   -2,628;    1,136
678,769;29357,620;   -1,083;   -0,318
679,343;29572,953;   -0,628;    1,773
679,917;29420,104;   -1,446;    1,955
680,492;29501,892;    0,826;    3,227
681,066;29651,861;    3,372;    0,409
681,640;29713,013;    1,463;   -0,318
682,214;30497,800;    0,735;    0,500
682,788;30053,224;   -1,356;   -0,773
683,363;29964,466;   -1,810;    1,682
683,937;29720,072;   -1,719;   -0,318
684,511;30518,132;    0,463;   -0,591
685,085;30156,556;   -1,356;    0,318
685,659;29945,525;   -2,538;    0,864
686,232;30223,949;   -0,356;   -0,318
686,806;29914,919;   -0,901;    0,409
687,380;30585,888;   -0,174;    0,591
687,954;30849,494;   -1,174;    1,136
688,528;30455,463;   -0,719;    1,955
689,101;31263,887;   -3,992;    1,045
689,675;30850,856;   -0,356;   -0,136
690,249;30180,735;   -0,719;    0,409
690,822;30502,250;    0,280;    0,318
691,396;30649,128;   -0,265;    1,227
691,969;30064,279;    1,280;    0,136
692,543;30528,430;   -0,447;   -1,955
693,116;30176,673;   -0,265;   -1,409
693,690;30003,551;    0,099;    0,500
694,263;30555,248;   -1,083;    2,955
694,836;30618,126;    1,371;    3,591
695,410;29280,550;   -0,265;    1,773
695,983;29751,065;    0,189;    0,591
696,556;29722,216;   -0,447;   -1,045
697,129;30133,640;   -0,356;    1,409
697,703;29728,609;   -1,629;    1,955
698,276;29706,488;    1,462;   -0,773
698,849;29505,184;    1,280;    1,409
699,422;29917,881;   -1,083;    0,591
699,995;29619,760;    0,007;    0,136
700,568;30118,820;   -0,629;    3,045
701,140;30188,880;   -2,811;    1,682
701,713;29899,031;   -0,174;    2,409
702,286;29613,092;   -0,538;    0,864
702,859;29537,334;   -0,902;   -0,591
703,432;28654,576;    0,825;    0,682
704,004;29119,818;    0,462;    0,318
704,577;28992,878;   -0,629;    0,136
705,150;29627,120;    0,189;    2,500
705,722;29364,817;   -0,356;   -3,227
706,295;29164,332;   -0,175;   -0,591
706,867;29004,392;   -0,175;    1,955
707,440;29182,816;   -1,720;   -0,409
708,012;29439,422;    0,462;    0,591
708,584;29331,300;    2,462;    0,227
709,157;29670,724;    1,825;   -0,591
709,729;29367,057;    2,280;    2,045
710,301;30187,754;    0,734;    0,045
710,874;30202,996;   -1,447;   -0,227
711,446;29108,601;    0,371;    0,864
712,018;28973,662;    0,098;    0,500
712,590;28681,813;   -1,993;    1,682
713,162;29259,600;    0,825;    1,318
713,734;29524,115;    1,825;   -2,045
714,306;29403,903;   -1,902;   -0,409
714,878;28069,054;    0,825;    0,864
715,450;28846,023;    0,643;    0,864
716,022;29125,811;    1,552;    1,318
716,593;29292,235;    0,189;    0,591
717,165;29254,841;   -3,175;   -1,227
717,737;28920,355;    0,280;    0,409
718,309;28608,779;    0,280;   -0,045
718,880;28572,112;   -0,539;   -1,409
719,452;28812,627;   -0,175;   -1,591
720,024;28309,687;    0,734;   -0,591
720,595;28947,293;   -2,902;    0,955
721,167;28473,990;    0,370;   -2,045
721,738;27988,323;   -0,812;   -1,045
722,309;27901,474;   -0,993;   -1,227
722,881;27713,261;   -1,357;    0,773
723,452;28373,049;   -2,630;    2,864
724,023;28549,200;   -0,721;    2,682
724,595;28339,806;    0,007;    0,682
725,166;28067,957;    0,007;   -0,409
725,737;27692,836;    1,734;    0,227
726,308;27758,987;   -0,266;    0,318
726,879;28203,592;   -1,630;    1,227
727,450;28048,653;    0,552;   -0,045
728,021;28067,168;    3,097;    0,682
728,592;27839,592;    0,734;    0,500
729,163;28179,288;    0,643;   -0,136
729,734;28205,076;    0,188;   -0,227
730,305;28531,409;    1,734;    0,136
730,876;28909,651;    0,188;    2,955
731,447;28615,257;    2,188;    2,682
732,017;28726,408;    1,097;    1,864
732,588;28169,832;    0,734;    1,227
733,159;28374,074;    0,643;   -1,045
733,729;28188,225;    0,006;    0,409
734,300;27459,831;    0,915;    0,864
734,870;27889,436;    3,461;    0,591
735,441;28499,769;    0,370;   -0,591
736,011;28244,739;    0,643;   -1,591
736,582;28208,254;   -0,812;    0,045
737,152;27656,859;   -1,721;   -2,045
737,722;28078,647;   -0,267;   -0,682
738,293;27822,343;   -1,358;    1,318
738,863;27698,949;    2,461;    2,318
739,433;27482,919;    5,279;    0,318
740,003;28143,070;   -0,994;   -0,682
740,573;27493,221;    2,097;   -1,591
741,143;27473,827;   -1,085;    0,318
741,713;28272,341;    1,188;   -0,500
742,283;28006,947;    0,915;    1,591
742,853;27778,098;    1,915;    1,591
743,423;27196,795;    1,733;    0,045
743,993;27332,583;   -0,358;    1,500
744,563;26701,007;    0,097;   -0,864
745,133;26648,794;   -0,812;   -0,864
745,702;27361,218;   -0,267;    1,773
746,272;26540,006;   -0,176;    0,591
746,842;26316,793;   -1,358;   -0,591
747,411;26739,853;   -0,267;   -0,318
747,981;26956,277;    0,097;    0,500
748,551;27031,701;    2,278;   -1,045
749,120;26813,580;    0,642;   -0,227
749,690;27189,185;   -0,631;    2,409
750,259;27561,246;    1,369;    2,955
750,828;27478,851;    1,551;   -1,955
751,398;27787,093;    1,278;   -0,045
751,967;27230,972;    2,187;    0,409
752,536;27483,214;   -0,813;   -0,227
753,105;27882,092;    0,096;    0,227
753,675;27676,425;    0,096;    1,773
754,244;27615,304;   -0,904;    3,591
754,813;27673,364;    0,551;    1,227
755,382;27227,970;    0,460;    0,955
755,951;27798,757;    1,551;    3,682
756,520;27305,909;   -0,085;    1,864
757,089;27860,151;    0,278;    0,500
757,658;28072,211;    1,733;    1,227
758,227;28068,817;    1,096;    0,318
758,795;28358,695;    1,187;    1,136
759,364;28617,755;   -0,086;   -0,591
759,933;27631,361;   -1,176;   -0,045
760,501;27137,240;    0,733;   -1,318
761,070;27659,755;   -2,813;   -1,409
761,639;28328,815;   -1,904;    1,318
762,207;27640,966;    1,551;   -0,955
762,776;27561,299;    0,369;    0,864
763,344;27535,359;   -0,995;    0,591
763,913;26692,692;   -0,722;    1,409
764,481;27364,116;    1,005;   -0,136
765,049;27170,722;   -1,358;    1,409
765,618;27047,237;   -0,086;    0,318
766,186;27133,024;    0,278;    0,136
766,754;27289,175;    0,005;    1,864
767,322;26333,145;   -1,995;    0,409
767,890;26394,023;   -0,722;   -1,773
768,459;26786,902;   -2,177;   -0,318
769,027;26929,871;    1,641;    3,409
769,595;25900,295;    3,278;    2,591
770,163;26381,810;    3,823;    2,955
770,730;26087,325;    0,732;   -0,136
771,298;25906,567;    0,187;   -1,409
771,866;26028,991;   -1,541;    4,955
772,434;26355,051;   -0,631;   -1,864
773,002;26498,202;    0,005;    0,682
773,569;26134,444;    0,914;    1,682
774,137;25974,232;   -0,268;   -0,045
774,705;26813,110;    0,278;   -0,136
775,272;26278,170;    0,641;    0,682
775,840;25972,413;   -0,177;    2,682
776,407;25501,473;    0,277;    1,955
776,975;25165,260;   -0,632;    0,318
777,542;26173,684;   -1,086;   -0,045
778,110;25992,745;   -1,268;   -0,045
778,677;25679,623;   -2,359;   -0,864
779,244;25426,411;    2,186;    1,045
779,812;25553,744;    1,823;    0,864
780,379;25423,895;    0,005;    1,136
780,946;25626,228;    1,005;   -0,773
781,513;25942,652;   -1,450;    0,318
782,080;25321,257;   -0,086;    2,864
782,647;26091,318;   -0,268;    3,045
783,214;25644,105;   -0,177;    3,864
783,781;25320,893;   -0,723;   -0,682
784,348;25131,499;   -0,632;    1,500
784,915;25593,013;   -3,177;    0,318
785,482;25397,801;    1,368;    2,591
786,049;25810,770;    0,186;   -0,591
786,615;25954,558;    0,277;   -0,955
787,182;25696,800;    0,186;   -0,682
787,749;25376,497;   -2,814;    1,409
788,315;24741,011;   -1,632;   -0,409
788,882;25005,072;    1,550;   -1,227
789,448;25664,041;    1,732;   -0,955
790,015;25739,919;    1,095;    3,227
790,581;25268,889;    1,459;    0,227
791,148;25172,585;    0,641;    1,045
791,714;25391,282;   -0,541;    3,136
792,280;25067,615;    0,186;    1,591
792,847;24588,675;    0,550;    2,500
793,413;25187,190;   -0,269;   -0,318
793,979;24638,614;    3,459;   -1,318
794,545;24737,584;    4,459;    2,682
795,111;24174,189;    2,186;    1,318
795,678;24367,795;    0,731;   -1,682
796,244;23999,310;    3,368;    0,136
796,810;24525,643;    1,731;    0,773
797,375;24264,521;    0,549;   -2,136
797,941;24314,945;   -0,541;    0,591
798,507;24414,096;   -0,451;   -0,955
799,073;23986,611;   -0,360;    0,591
799,639;24093,399;   -2,632;    3,136
800,205;24102,914;    0,095;    2,682
800,770;23608,247;    0,640;    1,773
801,336;23722,489;    1,368;   -0,955
801,901;23393,458;    4,549;    3,136
802,467;23945,518;   -0,542;    2,045
803,033;23280,579;   -0,087;    0,864
803,598;23508,912;    1,913;   -1,045
804,163;23552,335;    1,095;   -0,318
804,729;23509,578;   -0,178;    1,136
805,294;23921,638;    0,822;    2,227
805,859;23683,062;    0,731;   -0,409
806,425;23126,940;    1,186;    2,682
806,990;22814,637;    2,186;    4,318
807,555;23371,424;   -1,451;    2,591
808,120;23165,757;    0,822;   -0,409
808,685;23258,909;    0,185;   -2,500
809,250;22769,878;    0,004;   -0,500
809,815;23054,211;    1,913;    0,682
810,380;23595,271;   -0,269;    1,591
810,945;24154,513;   -1,087;    2,045
811,510;23338,028;    2,094;    1,591
812,075;23051,998;   -0,633;   -1,409
812,640;23031,331;    2,003;    1,409
813,204;23099,391;    0,822;   -0,227
813,769;23590,542;    2,094;   -0,045
814,334;22993,693;    0,458;    0,864
814,898;23064,481;    0,367;    0,591
815,463;22939,723;    1,276;   -0,773
816,027;22940,874;   -0,724;   -2,318
816,592;22962,207;    0,640;   -2,045
817,156;22522,722;    2,094;    1,136
817,721;22340,146;    4,276;    2,318
818,285;22297,297;    2,912;    1,500
818,849;22981,175;   -1,451;    1,682
819,414;22906,599;   -0,269;    2,955
819,978;22439,569;   -1,269;    1,773
820,542;23003,993;    2,003;    0,500
821,106;22701,416;   -0,815;    0,682
821,670;22835,295;   -0,815;    2,591
822,234;22553,719;   -0,270;    1,409
822,798;21949,143;    0,003;    0,500
823,362;21851,021;   -0,633;    4,227
823,926;21152,445;    0,094;    1,136
824,490;21367,051;   -0,997;   -0,682
825,054;21850,020;   -0,088;   -1,136
825,618;21452,990;   -1,542;   -1,500
826,181;21380,504;    0,458;   -1,318
826,745;21246,747;    1,367;   -1,045
827,309;21594,352;    1,185;    1,318
827,872;20975,231;    1,367;    0,955
828,436;22006,018;    1,185;   -0,773
828,999;22073,988;   -0,997;    1,227
829,563;20886,412;   -0,179;    1,136
830,126;20662,835;   -0,179;   -0,591
830,690;20651,805;   -1,997;    2,864
831,253;20204,865;   -0,543;    2,227
831,816;20357,834;   -1,906;    0,500
832,380;20263,258;    0,185;    0,864
832,943;20530,137;   -1,361;   -0,500
833,506;19990,288;    2,639;   -1,227
834,069;20774,894;    3,912;   -0,955
834,632;20853,227;    1,730;    1,318
835,195;20741,832;    1,003;    0,955
835,758;19913,256;   -0,997;    1,955
836,321;19759,771;    0,730;   -1,045
836,884;19862,650;   -0,725;   -0,955
837,447;19894,801;   -2,816;    1,773
838,010;20172,952;    0,366;    3,227
838,573;20481,285;   -1,179;    0,773
839,135;20433,436;   -1,361;   -0,955
839,698;19887,587;    1,275;    0,409
840,261;19407,284;    1,003;   -0,227
840,823;19211,981;   -0,543;    0,864
841,386;19494,950;   -0,452;   -2,409
841,948;19413,738;   -1,361;    1,773
842,511;19161,071;    0,912;    1,682
843,073;19268,040;    1,912;    0,227
843,636;19083,100;   -0,361;   -0,227
844,198;18964,433;    0,911;    0,591
844,760;19090,130;    1,093;    1,955
845,322;18768,645;    0,548;    1,136
845,885;19206,250;    0,730;    0,591
846,447;19635,765;   -1,998;    0,227
847,009;19211,735;    1,911;   -0,682
847,571;19531,795;    0,820;   -2,045
848,133;19633,219;   -1,089;   -1,864
848,695;19454,915;   -0,543;    1,409
849,257;19015,521;   -1,089;   -1,682
849,819;19185,581;   -0,998;   -0,409
850,381;19229,187;   -0,725;   -0,864
850,942;19610,520;    1,093;   -0,591
851,504;19555,399;    1,184;    0,227
852,066;19596,277;    1,275;   -1,591
852,628;19107,246;   -0,180;    1,955
853,189;18696,307;    1,638;    2,682
853,751;18796,458;   -0,907;    1,409
854,312;18594,609;   -0,453;   -1,682
854,874;19116,033;   -2,089;   -0,773
855,435;19665,457;   -0,907;   -1,682
855,997;19789,517;   -1,816;   -0,136
856,558;19079,759;    0,366;    1,773
857,119;19181,547;    0,820;    2,864
857,681;18822,153;    0,002;    0,318
858,242;18896,576;    1,911;   -2,136
858,803;19339,091;    0,456;   -0,773
859,364;19942,697;    0,184;   -4,773
859,925;19208,212;   -2,453;   -0,955
860,486;19145,454;   -0,453;   -0,955
861,047;18854,514;   -0,544;   -1,227
861,608;18665,938;   -1,089;   -0,773
862,169;18811,271;    0,638;   -0,045
862,730;18559,513;    0,456;    1,409
863,291;18792,028;   -0,635;   -0,500
863,852;19183,543;   -0,635;    1,955
864,412;18655,603;   -0,271;   -0,864
864,973;17206,573;   -0,089;    0,500
865,534;17065,542;   -1,726;    0,227
866,094;18596,329;    1,820;    0,227
866,655;18249,844;    1,274;    3,318
867,215;18515,541;    0,274;    0,136
867,776;18360,419;    0,547;   -0,136
868,336;18451,752;   -1,453;    0,136
868,897;17898,722;    2,638;    1,682
869,457;17662,509;    1,365;    0,318
870,017;17872,842;    0,547;   -1,227
870,578;18409,539;   -0,817;    0,773
871,138;18088,236;   -2,089;   -0,955
871,698;17659,114;   -0,817;   -1,318
872,258;17509,902;   -0,453;   -2,864
872,818;17861,325;    2,729;    0,045
873,378;17861,204;    0,638;    1,045
873,938;17439,537;    0,547;    0,500
874,498;17774,688;    0,274;   -1,955
875,058;17656,657;    2,183;    1,773
875,618;17503,991;    1,910;   -2,682
876,177;17438,324;    1,274;    0,136
876,737;17025,838;   -0,090;    1,955
877,297;17026,808;    0,183;    1,955
877,856;17001,686;   -0,362;    0,318
878,416;16979,019;    1,183;   -0,136
878,976;17249,716;   -1,817;    0,409
879,535;17391,412;    0,092;    3,136
880,095;17109,473;   -0,544;    0,045
880,654;17209,897;   -1,090;    1,318
881,213;17323,411;    2,456;    1,500
881,773;16951,563;    2,637;    2,682
882,332;17243,350;    3,365;    5,136
882,891;17105,410;    3,092;    2,136
883,451;17599,925;   -1,272;    1,682
884,010;17088,804;   -2,908;   -0,409
884,569;17120,682;   -0,999;   -0,045
885,128;17285,652;    2,819;   -1,864
885,687;17359,348;    4,455;    0,682
886,246;17031,045;    1,455;    2,136
886,805;16778,741;    2,455;    2,045
887,364;17090,711;   -0,999;   -0,500
887,922;17476,044;   -1,181;    0,045
888,481;16992,650;   -1,545;    0,591
889,040;17323,892;    1,183;    2,136
889,599;17993,497;    2,455;    1,409
890,157;18056,285;    1,455;    2,409
890,716;17686,345;   -0,090;    0,227
891,274;17503,587;    0,092;   -1,136
891,833;17949,284;    1,546;    0,864
892,391;17823,253;   -0,454;    0,500
892,950;17896,586;    1,819;   -0,773
893,508;18276,465;    0,455;   -0,409
894,067;17612,707;    0,637;    0,136
894,625;17528,313;   -0,636;   -1,500
895,183;17765,373;   -0,363;   -0,682
895,741;17607,524;    1,728;   -1,773
896,299;17531,493;   -0,545;   -2,409
896,858;17717,099;    0,819;   -1,591
897,416;17816,978;    2,728;   -1,318
897,974;17540,765;    1,819;    0,318
898,532;17653,007;    6,091;    2,682
899,089;17573,431;    2,091;   -0,682
899,647;17631,219;   -1,454;    1,318
900,205;17310,643;    1,182;    1,045
900,763;17576,248;   -0,454;    0,227
901,321;17582,763;    2,364;   -1,409
901,878;17015,369;   -1,000;   -0,773
902,436;16872,338;   -1,363;    1,318
902,994;17216,399;    4,728;    3,682
903,551;16636,732;    0,728;    0,409
904,109;17050,246;    0,182;   -1,409
904,666;16655,216;    2,455;    1,045
905,224;16499,367;    0,182;   -0,409
905,781;16219,427;    0,727;   -0,318
906,338;16274,942;   -1,363;    1,045
906,895;16218,184;    0,637;    2,045
907,453;16148,881;    1,727;    1,136
908,010;16189,941;   -0,909;    0,409
908,567;15809,092;    1,273;    0,591
909,124;15327,789;    0,364;   -1,500
909,681;15426,486;   -2,909;    0,682
910,238;15589,546;    0,636;   -1,318
910,795;15911,424;   -0,273;   -1,136
911,352;15516,515;   -2,909;   -2,682
911,909;14900,606;   -1,364;   -0,864
912,466;15423,424;   -3,182;    1,500
913,022;14965,970;   -1,636;    0,500
913,579;15306,697;   -0,909;    2,045
914,136;15017,152;    1,636;    0,955
914,692;15342,152;    0,091;   -1,227
915,249;14906,424;    1,455;    0,409
915,806;15169,879;    0,182;    1,955
916,362;14891,788;    1,909;    1,864
916,918;14444,788;    2,000;    1,045
917,475;14398,788;   -1,182;    0,955
918,031;14474,788;    3,364;   -0,045
918,587;13929,606;   -0,909;   -0,318
919,144;14158,061;   -2,273;    0,227
919,700;14472,515;    1,727;    0,773
920,256;14058,333;    0,727;    0,045
920,812;13651,061;   -0,727;   -1,045
921,368;13657,879;   -1,727;   -1,045
921,924;13290,970;    0,182;   -0,136
922,480;12888,606;   -0,545;    1,227
923,036;13494,152;    1,273;    1,955
923,592;13411,879;    0,455;    0,318
924,148;13333,424;    0,455;   -0,955
924,704;12650,242;   -1,364;   -0,409
925,259;12894,515;   -0,273;    0,591
925,815;12663,606;    1,455;    0,500
926,371;12168,152;    2,909;    1,409
926,926;12059,606;    2,091;    0,591
927,482;11701,152;   -1,364;    0,773
928,037;11572,061;    0,909;    2,045
928,593;11857,879;    1,636;    1,045
929,148;11677,788;   -1,818;   -1,500
929,704;11160,788;   -1,455;   -0,500
930,259;11366,424;    0,091;   -0,136
930,814;10458,606;   -0,818;    1,955
931,369;10113,152;    1,091;   -0,773
931,925; 9979,152;   -0,091;    0,136
932,480; 9882,152;   -2,818;   -2,591
933,035; 9737,970;    0,545;   -0,318
933,590; 9512,606;    0,364;   -1,773
934,145; 9158,515;   -1,364;   -0,318
934,700; 9512,515;    0,455;   -0,591
935,255; 9311,333;   -0,091;    0,045
935,809; 8568,970;    3,182;    0,864
936,364; 7664,152;   -0,455;   -0,136
936,919; 7626,606;    0,455;   -1,773
937,474; 7530,242;    1,455;    0,136
938,028; 7294,152;   -1,636;    1,136
938,583; 6746,697;    1,818;    4,682
939,138; 7045,788;    2,091;    2,136
939,692; 6459,788;    1,636;   -1,136
940,247; 6125,242;   -0,727;   -1,045
940,801; 5682,515;   -0,636;    0,227
941,355; 5578,061;   -0,364;    2,591
941,910; 5228,606;   -0,273;   -2,136
942,464; 5317,788;   -0,818;   -0,318
943,018; 5095,152;    1,000;   -0,227
943,572; 5068,424;    2,545;   -0,682
944,126; 4451,152;    0,091;   -0,409
944,681; 4342,879;    3,091;    0,227
945,235; 4315,970;    1,000;   -0,591
945,789; 4268,879;    0,364;   -1,864
946,342; 4348,788;    0,455;   -0,591
946,896; 4165,788;   -2,273;    0,955
947,450; 3940,879;    1,545;   -0,227
948,004; 4103,788;    1,727;   -0,045
948,558; 4111,606;    0,273;   -0,864
949,111; 4036,970;   -0,273;   -0,318
949,665; 4058,697;    1,636;   -0,682
950,219; 3920,606;   -0,091;   -1,045
950,772; 4002,152;   -1,909;    1,864
951,326; 3917,788;    0,545;   -0,955
951,879; 4016,788;    0,727;   -2,318
952,433; 4033,970;    0,000;    2,227
952,986; 3882,515;    2,909;    0,682
953,539; 3854,515;   -0,273;    0,591
954,093; 3780,788;    0,545;   -1,318
954,646; 3891,788;    0,909;    1,318
955,199; 3697,697;    0,000;   -0,500
955,752; 3573,515;   -0,455;    1,773
956,305; 3538,424;   -0,091;    2,955
956,858; 3714,242;    0,818;   -0,318
957,411; 3901,515;   -0,545;    2,136
957,964; 3739,970;    1,364;    2,136
958,517; 3720,606;   -1,545;    3,136
959,070; 3540,242;   -0,455;    1,955
959,623; 3598,788;    1,091;    1,500
960,176; 3387,424;    1,727;    2,045
960,728; 3350,788;   -2,727;    0,773
961,281; 3411,061;    0,545;    0,500
961,834; 3461,424;   -0,909;    0,864
962,386; 3387,333;    1,727;    1,045
962,939; 3300,152;    0,364;   -0,318
963,491; 3423,242;    0,455;    1,136
964,043; 3314,152;    1,182;    2,409
964,596; 3424,424;   -1,000;    2,227
965,148; 3275,788;   -1,000;    1,773
965,700; 3194,424;    1,091;   -0,227
966,253; 3344,788;   -0,636;    0,318
966,805; 3193,424;   -2,273;    0,773
967,357; 3239,152;    1,091;   -1,500
967,909; 3194,061;    0,455;   -1,227
968,461; 3303,333;    0,545;    3,136
969,013; 3241,970;   -0,182;   -0,864
969,565; 3313,515;   -0,455;   -1,136
970,117; 3350,424;   -0,364;    1,045
970,669; 3189,879;    0,182;   -0,136
971,220; 3099,061;   -0,455;   -1,500
971,772; 3020,515;   -0,636;   -0,318
972,324; 3125,788;    0,091;   -0,500
972,876; 3077,424;    0,818;   -0,045
973,427; 3207,606;    1,909;   -1,045
973,979; 3171,788;   -0,727;   -2,500
974,530; 3225,152;    1,818;    1,318
975,082; 3227,697;   -0,545;    1,682
975,633; 3121,242;    1,091;    1,682
976,184; 3253,061;    0,909;    0,773
976,736; 3032,515;    0,091;    0,227
977,287; 2844,788;   -0,909;   -0,500
977,838; 3011,606;    0,909;   -0,318
978,389; 3073,879;   -1,000;   -0,500
978,940; 2964,333;    0,545;   -0,409
979,491; 2985,697;    0,091;   -0,500
980,042; 2938,879;    0,182;    3,045
980,593; 2995,515;   -2,545;    0,227
981,144; 3029,515;    2,545;   -0,500
981,695; 2997,788;    1,455;    1,500
982,246; 2967,061;   -0,273;    1,045
982,797; 3137,515;   -1,727;    0,682
983,347; 3243,788;    0,364;    0,591
983,898; 3403,788;    3,091;    0,409
984,449; 3222,333;    2,182;    0,773
984,999; 3130,152;    1,455;   -1,136
985,550; 2914,424;    0,182;   -0,318
986,100; 2958,152;   -0,455;   -0,318
986,651; 2989,242;   -0,818;    0,045
987,201; 2957,515;   -1,000;   -0,591
987,751; 3050,515;    0,818;    2,864
988,302; 3033,333;    2,636;    1,500
988,852; 3064,152;    0,455;   -1,136
989,402; 3090,061;    0,091;    0,682
989,952; 3006,333;   -2,182;    0,864
990,502; 3148,333;   -0,091;    0,682
991,052; 3111,333;   -0,727;    0,045
991,602; 2957,152;   -2,909;    1,318
992,152; 2953,788;    0,455;    0,682
992,702; 2933,606;    1,364;   -0,045
993,252; 2851,788;   -3,000;   -0,500
993,802; 2947,606;   -0,273;    1,318
994,352; 3185,333;   -1,545;    1,136
994,901; 3263,061;   -0,182;    3,227
995,451; 3198,515;   -0,182;    0,318
996,000; 3287,061;    1,636;    0,318
996,550; 2996,879;    2,273;    0,227
997,100; 2989,697;    1,273;   -0,045
997,649; 3279,061;    2,182;    0,955
998,198; 2917,061;    1,727;   -1,500
998,748; 3100,424;    1,091;   -2,318
999,297; 3012,424;   -0,818;   -0,409
999,846; 3075,242;    1,000;   -0,773
1000,395; 3120,152;   -0,818;    0,500
1000,945; 3048,788;    1,818;   -0,773
1001,494; 3136,970;    2,364;    0,682
1002,043; 3153,242;    4,636;    0,864
1002,592; 2995,061;   -1,091;    1,955
1003,141; 3155,697;   -0,455;   -0,682
1003,690; 3003,697;    1,727;    0,500
1004,238; 3093,424;    1,455;   -0,045
1004,787; 2720,697;    1,364;    1,227
1005,336; 2944,242;    0,364;    0,682
1005,885; 3112,970;    1,364;   -2,773
1006,433; 3247,606;    0,545;    0,955
1006,982; 3287,152;    0,455;    1,682
1007,531; 3209,424;   -1,818;   -0,227
1008,079; 3156,697;   -2,273;    0,500
1008,627; 3301,788;   -1,455;    0,409
1009,176; 3035,970;    0,000;   -1,955
1009,724; 3091,152;    1,091;    0,864
1010,273; 3145,697;    1,273;    0,500
1010,821; 3260,879;    0,091;    1,409
1011,369; 2990,606;   -1,364;    1,318
1011,917; 2974,242;   -1,364;   -0,591
1012,465; 3256,424;    1,273;   -1,591
1013,013; 3366,697;    2,091;   -1,682
1013,561; 3239,879;    0,455;   -0,773
1014,109; 3285,970;   -1,909;    1,682
1014,657; 3169,424;    0,364;    0,591
1015,205; 3321,879;    1,636;   -0,955
1015,753; 3345,606;   -0,545;   -1,409
1016,301; 3365,606;   -2,636;    3,045
1016,848; 3380,515;   -1,273;    0,409
1017,396; 3417,697;    2,545;    0,045
1017,944; 3546,697;    1,182;    1,864
1018,491; 3326,242;    0,273;    1,409
1019,039; 3437,879;    0,455;    0,591
1019,586; 3373,424;   -1,364;    1,682
1020,134; 3498,242;    0,455;    1,500
1020,681; 3486,333;    0,182;   -1,136
1021,228; 3507,424;    2,909;   -2,227
1021,776; 3333,879;    1,182;   -1,136
1022,323; 3524,697;    0,455;    0,773
1022,870; 3460,879;   -1,000;   -0,045
1023,417; 3354,061;    2,636;    1,864
1023,964; 3541,152;    2,636;    1,227
1024,511; 3372,333;    1,000;    0,773
1025,058; 3170,515;    3,182;   -0,045
1025,605; 3214,152;   -2,273;    3,136
1026,152; 3414,061;    1,727;   -0,591
1026,699; 3160,424;    1,818;    1,318
1027,245; 3345,879;   -0,091;    0,318
1027,792; 3551,788;   -1,000;    1,409
1028,339; 3443,152;    2,364;   -0,045
1028,885; 3272,515;    1,000;   -0,227
1029,432; 3206,606;   -0,091;    0,227
1029,978; 3261,970;   -1,000;   -1,591
1030,525; 3193,242;    1,000;    0,409
1031,071; 3441,970;   -1,364;    1,136
1031,618; 3516,061;    0,364;    1,682
1032,164; 3314,333;   -0,091;    3,045
1032,710; 3367,515;    1,636;   -1,500
1033,256; 3276,061;   -0,636;   -0,136
1033,803; 3289,697;   -0,545;    1,500
1034,349; 2999,242;   -1,364;    0,136
1034,895; 3152,242;    0,000;   -0,318
1035,441; 3131,697;   -0,818;    0,318
1035,987; 3133,697;   -2,364;   -0,682
1036,533; 3128,424;   -1,455;   -0,955
1037,078; 3307,788;    1,455;    1,682
1037,624; 3141,061;    2,455;   -0,955
1038,170; 3198,879;    0,455;   -0,318
1038,716; 3079,879;    1,636;   -0,409
1039,261; 3013,970;   -2,273;   -0,773
1039,807; 2941,424;   -0,091;    3,409
1040,352; 3002,606;   -1,909;   -0,318
1040,898; 3053,515;   -1,545;   -0,682
1041,443; 2952,788;   -1,455;   -2,591
1041,989; 2951,333;    1,091;    1,591
1042,534; 2838,970;   -0,364;    2,591
1043,079; 2970,242;    2,909;    0,955
1043,625; 2750,606;    1,818;    0,500
1044,170; 2789,424;   -1,364;    1,045
1044,715; 3019,424;    2,455;    0,955
1045,260; 2857,333;    2,182;   -0,955
1045,805; 2930,242;    1,182;   -0,591
1046,350; 2867,788;    1,364;   -0,409
1046,895; 2797,970;    2,909;    1,591
1047,440; 2738,879;    5,364;    0,409
1047,985; 2665,697;    2,818;   -0,955
1048,530; 2575,606;    1,545;    1,227
1049,074; 2635,515;    0,000;    0,318
1049,619; 2612,242;   -1,364;    1,955
1050,164; 2407,970;    0,455;    0,227
1050,708; 2446,606;   -0,455;    0,045
1051,253; 2799,061;    1,273;   -2,227
1051,797; 2525,788;    0,818;   -1,318
1052,342; 2559,879;   -1,182;    1,045
1052,886; 2545,424;    0,364;   -1,409
1053,430; 2432,242;   -1,364;    0,136
1053,975; 2438,697;   -0,818;   -0,318
1054,519; 2415,697;   -0,727;    3,227
1055,063; 2411,697;    0,909;    1,318
1055,607; 2288,788;   -0,182;    0,227
1056,151; 2326,515;    2,909;    1,682
1056,695; 2260,515;    2,273;   -1,136
1057,239; 2333,242;   -1,727;   -0,682
1057,783; 2328,424;    0,818;   -1,500
1058,327; 2262,697;    0,000;    1,409
1058,871; 2494,697;   -0,545;    1,318
1059,415; 2187,697;   -0,818;   -0,045
1059,958; 2439,424;    1,455;    2,591
1060,502; 2165,152;   -1,000;   -0,773
1061,046; 2089,152;    0,364;   -0,955
1061,589; 2077,515;   -3,000;   -1,136
1062,133; 1956,515;   -1,273;    1,864
1062,676; 1894,879;    1,182;    0,864
1063,220; 1885,152;    1,091;    0,500
1063,763; 1900,152;    0,909;    1,136
1064,306; 1973,606;   -0,909;    1,864
1064,849; 1853,606;   -0,909;    0,591
1065,393; 1866,424;    2,000;   -1,500
1065,936; 1994,697;    0,182;   -0,409
1066,479; 1879,242;   -1,455;    1,318
1067,022; 1891,697;   -0,273;   -0,227
1067,565; 1777,424;   -0,091;   -1,318
1068,108; 1822,333;    0,727;   -0,591
1068,651; 1808,424;   -0,636;    1,409
1069,194; 1727,515;   -0,455;   -1,682
1069,736; 1724,061;   -1,273;    0,955
1070,279; 1703,515;   -1,364;   -0,500
1070,822; 1754,879;   -2,000;   -0,318
1071,364; 1814,606;   -0,364;    1,318
1071,907; 1647,515;   -0,727;    3,227
1072,450; 1571,788;    0,000;   -0,045
1072,992; 1553,424;   -0,273;    3,136
1073,535; 1696,515;    2,091;    2,136
1074,077; 1481,515;   -0,727;    2,045
1074,619; 1435,606;   -1,364;    0,591
1075,161; 1464,970;   -1,091;    1,500
1075,704; 1641,152;    1,545;    1,227
1076,246; 1464,606;   -0,182;    0,682
1076,788; 1389,242;   -0,364;    1,773
1077,330; 1464,152;    1,273;    2,136
1077,872; 1421,424;    0,909;    0,955
1078,414; 1625,879;    2,727;    0,773
1078,956; 1364,242;    1,273;   -0,227
1079,498; 1629,424;    1,636;    0,318
1080,040; 1337,242;    1,909;   -1,318
1080,581; 1288,515;    1,636;   -0,318
1081,123; 1204,970;    0,091;   -0,773
1081,665; 1254,152;   -1,182;   -0,955
1082,206; 1553,424;    1,364;   -0,500
1082,748; 1402,970;    0,727;    2,045
1083,289; 1291,515;   -2,000;    1,318
1083,831; 1194,061;   -0,545;    0,227
1084,372; 1221,242;    0,000;    0,591
1084,913; 1231,788;    1,091;    0,864
1085,455; 1197,970;   -1,909;   -2,045
1085,996; 1166,879;   -2,273;    0,136
1086,537; 1188,788;   -0,091;    0,864
1087,078; 1213,061;   -0,909;   -2,136
1087,619; 1255,424;   -1,273;    0,227
1088,160; 1175,061;    0,000;    1,318
1088,701; 1157,970;   -1,091;    0,682
1089,242; 1104,061;    1,364;   -2,227
1089,783; 1192,788;   -0,273;    1,409
1090,324; 1156,970;    0,455;    0,682
1090,865; 1040,879;    2,727;   -0,409
1091,405; 1011,606;    0,727;    2,227
1091,946; 1041,788;    0,182;   -0,955
1092,487;  954,788;    0,818;   -1,409
1093,027; 1113,970;   -1,364;   -1,500
1093,568;  973,697;   -0,364;    1,227
1094,108; 1073,061;    0,273;    1,773
1094,649; 1018,424;   -1,182;    0,136
1095,189;  962,061;   -0,636;   -0,682
1095,729;  903,879;   -0,091;    0,955
1096,269;  909,424;    0,727;   -0,955
1096,810; 1223,333;   -1,364;    0,500
1097,350; 1043,061;    1,364;   -0,773
1097,890;  950,970;    0,364;    1,227
1098,430; 1194,061;    2,364;    2,864
1098,970; 1058,515;    2,182;    1,682
1099,510;  937,879;    0,545;   -2,318
1100,050;  874,606;    1,000;   -1,591
1100,589;  828,606;   -0,727;   -0,318
1101,129;  947,242;    0,818;   -0,955
1101,669; 1089,061;    1,727;    2,136
1102,209;  914,970;   -0,091;    2,227
1102,748;  875,152;    0,000;    0,955
1103,288;  862,515;    1,273;   -1,227
1103,827;  889,061;    3,091;   -2,227
1104,367;  759,152;   -0,091;   -2,409
1104,906;  736,424;    1,364;   -1,136
1105,445;  805,424;    0,636;   -1,136
1105,985;  750,333;   -0,727;    1,500
1106,524;  802,697;   -1,727;   -0,682
1107,063;  765,606;   -2,727;    1,409
1107,602;  748,788;   -1,909;   -1,500
1108,141;  669,606;   -1,909;    1,500
1108,680;  763,515;   -3,455;   -0,591
1109,219;  699,061;   -0,909;   -0,500
1109,758;  706,333;    0,455;    0,682
1110,297;  675,152;    1,000;   -0,682
1110,836;  618,515;   -0,727;    0,955
1111,375;  782,152;   -2,545;    0,409
1111,913;  790,697;   -1,000;    0,773
1112,452;  735,152;   -0,273;    0,136
1112,991;  617,061;    1,091;    1,955
1113,529;  576,424;   -0,818;   -0,045
1114,068;  652,970;   -0,273;    2,955
1114,606;  541,606;   -0,364;   -0,955
1115,144;  711,424;   -1,273;    1,045
1115,683;  641,697;   -0,727;    0,318
1116,221;  688,424;   -0,455;   -0,864
1116,759;  596,788;    0,636;   -0,864
1117,297;  788,879;    0,000;    1,864
1117,836;  596,697;   -2,182;   -1,227
1118,374;  603,970;    0,182;   -0,682
1118,912;  556,242;    0,909;    2,682
1119,450;  530,970;    1,000;    0,864
1119,988;  584,606;    1,545;    2,136
1120,525; 1042,242;    5,091;    3,318
1121,063;  730,788;    1,182;    1,864
1121,601;  545,697;   -0,909;   -1,227
1122,139;  500,515;   -0,727;   -2,045
1122,676;  705,788;   -0,727;    2,773
1123,214;  641,515;   -1,182;    4,409
1123,751;  438,970;    1,727;    2,227
1124,289;  566,242;   -0,091;   -0,409
1124,826;  436,697;    1,727;    0,227
1125,364;  360,242;    1,727;   -0,955
1125,901;  553,333;    1,182;    1,227
1126,438;  669,515;    0,818;    0,955
1126,975;  393,333;   -0,727;   -0,773
1127,513;  456,061;    0,273;    2,136
1128,050;  361,970;    1,636;   -0,682
1128,587;  457,061;    2,000;   -0,227
1129,124;  511,515;    0,091;    1,318
1129,661;  373,061;    0,273;    0,227
1130,198;  543,242;    1,636;    0,773
1130,734;  485,061;    0,182;    1,409
1131,271;  351,333;   -0,909;    0,864
1131,808;  519,879;    2,909;    3,045
1132,345;  384,333;    1,545;    0,318
1132,881;  261,242;   -1,545;   -1,864
1133,418;  393,606;    0,727;   -1,136
1133,954;  338,152;    2,455;   -2,682
1134,491;  408,697;    1,364;   -0,773
1135,027;  307,606;    2,364;    0,864
1135,564;  405,606;    0,273;    2,955
1136,100;  387,242;    0,364;    2,136
1136,636;  270,606;   -1,273;   -1,045
1137,172;  368,970;    0,000;   -1,045
1137,708;  282,970;   -1,364;   -1,045
1138,245;  283,061;    1,273;   -1,227
1138,781;  238,697;    1,091;   -3,318
1139,317;  312,879;    1,273;   -1,409
1139,852;  302,061;    3,091;    0,136
1140,388;  420,333;   -1,182;   -0,409
1140,924;  297,606;   -1,091;   -2,227
1141,460;  228,879;   -1,636;    0,136
1141,996;  166,515;   -1,364;    2,682
1142,531;  212,879;    1,364;    3,318
1143,067;  437,970;    1,182;    1,045
1143,602;  488,061;   -0,091;   -0,318
1144,138;  339,697;   -2,636;    1,045
1144,673;  207,152;   -1,455;    1,409
1145,209;  276,606;   -1,909;   -0,318
1145,744;  191,424;   -0,727;    0,864
1146,279;  327,970;    1,818;   -0,136
1146,815;  242,697;    1,545;   -2,682
1147,350;  276,879;   -1,364;    0,045
1147,885;  198,879;   -0,818;   -1,318
1148,420;  194,333;   -2,273;    0,773
1148,955;  165,333;   -1,727;    1,864
1149,490;  197,061;   -0,909;   -1,591
1150,025;  186,152;    0,455;   -1,773
1150,560;  301,697;    1,091;   -0,955
1151,094;  257,879;    1,455;   -0,591
1151,629;  264,333;    1,636;    0,864
1152,164;  188,333;    1,364;    1,318
1152,698;  151,788;   -0,182;   -0,136
1153,233;  110,333;    0,091;   -0,682
1153,767;  155,424;   -3,000;   -2,318
1154,302;  202,879;   -1,455;    1,773
1154,836;  207,152;   -0,455;   -2,136
1155,371;  255,697;   -1,364;    3,682
1155,905;  203,879;   -0,636;    1,682
1156,439;  172,606;   -0,636;   -0,500
1156,973;  210,061;    0,364;    0,318
1157,507;  143,788;   -0,364;    0,682
1158,042;  171,515;   -0,727;    1,045
1158,576;  212,788;    0,182;    1,773
1159,110;  206,606;   -0,818;    2,409
1159,643;  183,697;    0,636;   -0,045
1160,177;  121,152;   -1,545;    1,500

