
Integration time [ms]:   0,040
Averaging Nr. [scans]: 11
Smoothing Nr. [pixels]: 0
Data measured with spectrometer [name]: 7318044SP
Wave   ;Sample   ;Dark     ;Reference
[nm]   ;[counts] ;[counts] ;[counts] 

186,757;    9,731;   31,551;    1,318
187,357;   32,880;   22,551;    0,955
187,958;    2,871;   15,460;   -1,591
188,558;   41,720;    8,915;   -1,227
189,159;    6,715;    6,733;   -4,500
189,759;   -8,141;    7,278;   -3,591
190,360;   -7,241;    2,824;   -2,136
190,960;   15,952;    2,915;   -4,136
191,560;   17,687;    3,189;   -6,591
192,161;  216,807;    4,372;   -3,500
192,761;   87,600;    4,010;   -3,227
193,361;   52,158;    1,556;   -3,773
193,962;   82,103;    2,010;   -2,682
194,562;   11,895;    1,189;   -3,955
195,162;   16,269;   -2,448;   -2,227
195,762;  122,644;   -3,176;   -0,045
196,362;   85,169;    1,370;   -2,500
196,963;   -1,882;    2,006;   -0,864
197,563;   38,180;    1,551;   -0,955
198,163;   -3,402;    0,096;   -0,682
198,763;    9,895;    1,733;   -0,500
199,363;   48,153;    3,096;   -0,500
199,963;   24,520;    0,369;    0,409
200,563;   15,719;    2,823;   -1,409
201,163;   -4,247;    3,277;   -0,227
201,763;   30,179;    3,732;    0,318
202,363;    3,017;    1,459;    1,500
202,963;   36,538;    1,459;    1,045
203,563;   80,234;    0,277;    0,500
204,162;   15,439;    2,096;   -1,864
204,762;    8,143;    0,550;    0,591
205,362;   -6,715;    3,004;    1,955
205,962;   24,566;    3,096;    1,955
206,562;   16,719;    1,823;    2,318
207,161;   -5,280;   -0,087;    0,318
207,761;   66,297;    1,277;    2,409
208,361;    2,905;   -0,268;    1,409
208,960;   19,755;    0,459;    1,500
209,560;   21,070;    1,277;    1,591
210,160;   34,352;    0,550;    1,864
210,759;    8,690;    4,186;    1,227
211,359;   -6,207;    1,459;    1,045
211,958;   86,460;    1,277;    2,045
212,558;  101,062;    1,732;    1,864
213,157;   29,592;    1,822;    1,500
213,757;  164,555;    3,822;   -0,227
214,356;   56,677;    1,277;   -0,409
214,956;  143,567;    3,095;    0,409
215,555;   34,494;    2,095;    2,136
216,154;    6,980;   -2,723;   -0,591
216,754;   17,605;    0,277;    0,773
217,353;   22,724;   -0,268;   -1,045
217,952;  -18,053;   -0,178;    0,318
218,552;   34,953;    1,368;   -0,773
219,151;    3,782;    0,277;    0,955
219,750;   -2,861;    0,004;   -0,227
220,349;  -17,141;   -0,451;    1,045
220,948;   50,304;   -1,360;    1,136
221,548;    0,373;    0,913;    1,227
222,147;    8,194;   -0,087;   -0,409
222,746;   79,650;   -0,451;   -0,955
223,345;   33,134;    0,731;    0,500
223,944;   25,718;   -0,451;    0,773
224,543;   31,370;    1,004;   -1,409
225,142;   20,308;    0,094;    0,136
225,741;   16,636;   -0,814;    1,045
226,340;   14,424;   -0,451;   -0,955
226,939;   70,091;   -0,996;   -0,136
227,538;   12,287;   -0,360;   -0,773
228,137;   71,467;   -0,814;    0,864
228,735;   45,916;   -0,541;    1,227
229,334;  -11,914;   -0,905;   -0,227
229,933;   77,253;    0,459;    0,591
230,532;   71,002;    1,186;   -0,409
231,131;  112,351;    1,732;    0,318
231,729;   47,497;   -2,450;   -2,318
232,328;   14,447;   -0,723;   -1,500
232,927;   13,466;    1,004;   -0,500
233,525;   15,469;    3,640;    0,045
234,124;   26,787;    2,368;   -1,591
234,723;   -3,893;    0,913;   -1,045
235,321;  -10,105;    2,277;    0,136
235,920;    7,775;    1,186;   -1,227
236,518;   70,654;    3,459;    0,318
237,117;    7,710;    0,004;   -0,227
237,715;   18,514;    0,640;   -0,500
238,314;   18,837;   -0,087;   -2,318
238,912;   67,779;   -0,723;   -1,409
239,510;   38,210;    0,459;   -1,227
240,109;   83,724;    0,004;    3,773
240,707;   65,721;   -0,996;    1,227
241,305;   -0,297;    0,550;    0,136
241,904;   33,067;   -0,178;   -2,045
242,502;   95,539;   -0,632;   -0,227
243,100;   43,866;   -0,087;   -0,955
243,698;    4,125;    0,732;    1,682
244,297;   17,365;   -0,632;    0,682
244,895;   20,519;   -0,269;   -2,318
245,493;   84,545;    2,186;   -0,591
246,091;   95,035;    1,368;   -1,318
246,689;   48,393;    1,004;    0,591
247,287;   37,810;    0,822;   -1,136
247,885;   22,380;   -1,451;    1,227
248,483;    9,044;    1,822;   -0,500
249,081;   46,459;    0,185;    1,591
249,679;   51,468;   -0,178;    1,682
250,277;    2,158;   -1,723;    0,864
250,875;   41,690;   -1,087;   -1,045
251,473;    9,839;   -1,178;    0,500
252,071;   55,408;    1,459;    1,045
252,669;   18,355;   -1,814;    0,318
253,267;    7,916;   -0,087;    0,773
253,864;   18,355;   -0,360;    0,682
254,462;   59,181;    1,640;    1,591
255,060;    0,243;   -0,269;    1,318
255,658;   -5,736;    0,822;   -0,136
256,255;   14,167;    0,186;   -2,045
256,853;   36,562;   -0,269;    1,409
257,451;    6,806;    0,822;    1,864
258,048;  168,141;    1,822;    1,864
258,646;   66,903;    1,731;   -1,045
259,243;  104,289;   -0,087;    2,227
259,841;   54,783;   -0,814;    0,318
260,438;    2,899;   -0,087;    0,864
261,036;   37,584;   -1,905;    1,409
261,633;    3,366;   -0,087;    2,227
262,231;  -11,722;    2,731;   -0,045
262,828;  -16,456;   -0,905;    1,136
263,425;    0,493;    0,913;   -0,591
264,023;    3,607;    0,186;    0,045
264,620;   51,073;   -0,360;   -0,318
265,217;   91,360;   -2,087;    3,136
265,815;   21,538;   -1,905;    2,136
266,412;   46,190;    0,731;    0,136
267,009;   34,801;   -1,451;    0,773
267,606;   73,721;    0,822;   -0,955
268,203;   19,640;   -0,269;   -0,591
268,801;   21,017;    1,731;    0,591
269,398;    1,430;   -0,360;    2,500
269,995;   38,998;    0,277;    1,591
270,592;   21,846;   -0,632;   -0,500
271,189;   -8,992;    0,186;    0,409
271,786;  -20,651;   -0,632;    1,227
272,383;   53,778;   -1,087;    0,227
272,980;   12,053;    0,277;    0,318
273,577;   -7,770;    0,004;    1,227
274,174;  -10,623;    0,822;    2,591
274,771;   36,536;   -0,814;   -0,773
275,367;  184,952;    2,277;    1,409
275,964;   88,450;    0,731;   -0,500
276,561;   16,554;    1,549;   -1,045
277,158;  -14,987;    0,095;   -1,773
277,755;   71,004;    2,185;    0,409
278,351;   41,260;   -0,451;   -1,500
278,948;   56,420;   -0,815;    0,045
279,545;   34,474;   -1,360;    2,318
280,141;   70,510;   -1,723;   -2,045
280,738;   77,252;   -0,451;   -0,136
281,334;    2,976;   -1,633;    0,591
281,931;    1,408;   -0,087;   -1,318
282,528;   45,956;    0,822;   -0,500
283,124;   62,636;   -1,087;   -0,500
283,721;   60,385;   -0,451;    1,409
284,317;   23,569;    0,185;    2,500
284,913;   76,546;   -1,360;    0,591
285,510;  136,455;    0,640;   -0,318
286,106;   81,983;   -2,269;   -0,955
286,703;   40,462;   -0,360;    1,955
287,299;    7,055;   -1,451;   -0,591
287,895;   12,105;    0,822;   -1,045
288,491;    1,976;    0,186;    2,136
289,088;   30,814;   -2,360;    2,409
289,684;   35,809;   -1,723;    1,500
290,280;   92,675;    0,368;    0,682
290,876;   74,307;    1,822;    5,500
291,472;   52,591;    1,276;    2,227
292,068;   55,904;    1,367;    0,227
292,665;   22,601;    2,095;    0,773
293,261;   -3,799;    0,276;    2,136
293,857;   52,572;    2,913;    2,136
294,453;   24,156;    3,550;    0,955
295,049;   94,083;   -0,268;    1,955
295,644;   42,850;    0,095;    0,136
296,240;   -1,554;   -0,905;   -0,136
296,836;   23,955;   -0,995;    0,318
297,432;   54,791;    1,096;   -0,500
298,028;   61,038;    0,732;    0,773
298,624;   30,881;    1,459;    1,864
299,220;   30,342;    2,368;    0,591
299,815;   23,385;    1,005;   -0,409
300,411;   54,356;    0,914;    1,773
301,007;   75,566;    1,368;    0,227
301,602;   17,661;   -0,541;   -2,318
302,198;   73,689;    0,732;   -0,773
302,794;   25,020;    1,187;   -0,500
303,389;   -6,599;   -1,177;    1,045
303,985;    4,477;    0,550;    1,409
304,580;   63,196;    1,459;    1,591
305,176;   25,869;   -3,086;    0,136
305,771;  -23,956;   -1,268;   -1,227
306,367;  134,053;    4,095;    0,136
306,962;   42,843;    0,641;    1,500
307,558;   68,688;   -0,450;    0,136
308,153;   49,693;    1,095;   -1,136
308,748;    1,717;   -0,814;    1,682
309,344;  125,449;   -0,632;   -1,318
309,939;  115,974;   -1,905;   -1,318
310,534;   28,211;   -0,086;   -1,682
311,130;   11,514;    0,459;   -2,500
311,725;   13,197;    1,004;   -0,500
312,320;   25,186;    2,459;    0,045
312,915;   49,126;    1,459;   -1,045
313,510;  120,599;    1,550;   -0,500
314,105;   22,498;    1,096;    1,409
314,700;  -10,637;   -3,086;   -1,045
315,295;    5,105;   -0,904;    0,045
315,890;    4,468;    1,277;    0,864
316,485;   35,300;   -0,359;   -0,318
317,080;   -2,418;   -3,086;    1,591
317,675;  111,556;    2,005;   -0,682
318,270;  212,173;    5,550;    3,318
318,865;  141,531;    3,278;    3,045
319,460;   86,084;   -0,904;    0,591
320,055;   18,719;   -0,541;   -1,227
320,650;   12,840;   -1,995;   -0,591
321,244;   21,294;   -0,177;   -1,409
321,839;   13,653;   -1,541;   -0,227
322,434;   28,641;   -1,086;   -1,591
323,029;    8,053;    1,732;    1,591
323,623;    3,353;    1,550;    0,773
324,218;   83,739;    2,368;    1,409
324,812;   51,298;    1,096;    1,591
325,407;   42,084;   -0,814;    2,045
326,002;  115,427;    0,277;   -0,409
326,596;   76,800;    0,914;    1,318
327,191;   24,670;    0,823;   -1,045
327,785;   16,073;   -0,813;   -0,227
328,379;   13,066;    1,368;    0,136
328,974;   26,371;    0,914;   -3,955
329,568;   34,882;    0,186;   -2,409
330,163;   73,915;    2,096;    1,045
330,757;   13,194;    2,459;    1,591
331,351;   -8,838;    0,459;    0,682
331,945;   -6,713;    0,914;    1,409
332,540;   26,623;   -1,723;   -0,591
333,134;   25,173;   -1,086;    0,773
333,728;   35,136;    0,005;    0,318
334,322;   -0,731;   -1,177;   -0,864
334,916;   -0,886;    0,277;    0,955
335,510;   57,547;   -0,450;   -0,136
336,105;   36,216;   -1,086;    1,591
336,699;    5,367;   -1,086;    0,591
337,293;   21,798;   -1,723;    0,318
337,887;    5,855;   -2,723;    1,955
338,481;   52,467;    0,459;    0,591
339,074;   87,108;   -0,359;    2,682
339,668;   74,683;   -1,632;    1,227
340,262;  320,030;    1,732;    3,227
340,856;  132,322;    1,822;   -0,682
341,450;   28,615;    1,004;    1,864
342,044;   48,889;    1,459;    0,136
342,637;   78,451;    0,913;   -2,136
343,231;   40,780;   -2,360;    0,682
343,825;   26,180;   -1,086;   -0,591
344,419;   16,412;   -1,995;    0,500
345,012;  258,211;    2,459;    4,045
345,606;  157,234;    4,641;    1,591
346,199;   24,737;   -1,813;   -0,227
346,793;   70,584;    1,914;    2,045
347,386;   19,533;   -0,813;   -1,136
347,980;  -10,090;   -0,268;   -0,045
348,573;   18,240;    2,278;    0,409
349,167;  165,921;    5,278;    4,773
349,760;   81,601;    2,914;    2,682
350,354;   60,542;   -0,813;    1,136
350,947;   77,878;    1,096;    1,682
351,540;   34,626;   -0,358;   -1,409
352,134;   -6,457;    1,096;    1,136
352,727;   -3,664;   -0,086;    1,136
353,320;   -0,578;    0,005;    0,591
353,913;  -29,602;   -1,995;    1,864
354,507;   66,609;    0,823;   -1,227
355,100;   15,847;    0,460;    0,864
355,693;  216,905;    2,005;    2,409
356,286;   96,537;    0,823;    2,773
356,879;   30,795;   -0,722;    1,227
357,472;   38,935;   -0,904;    1,500
358,065;   47,537;   -0,722;    2,500
358,658;   -2,847;   -0,540;    2,318
359,251;  -17,836;   -1,631;   -0,591
359,844;   50,975;   -1,904;   -1,136
360,437;   70,554;   -2,995;    0,045
361,030;   16,496;    1,369;   -0,682
361,623;   23,553;    2,824;    0,318
362,215;  129,280;   -0,086;    2,045
362,808;   39,587;   -2,358;   -1,682
363,401;    9,110;   -2,449;    0,136
363,994;  116,390;   -0,631;   -1,500
364,586;   30,981;    0,824;   -1,500
365,179;    7,545;   -0,449;   -1,136
365,772;  -32,002;   -1,995;    2,045
366,364;   19,362;    1,915;   -3,227
366,957;   34,549;    2,279;   -0,045
367,549;   16,239;    2,188;   -0,864
368,142;   25,367;    1,825;   -1,500
368,734;    4,654;    0,734;   -2,136
369,327;  -26,457;    1,643;   -0,500
369,919;    0,774;   -1,538;    0,409
370,512;   14,891;   -1,083;   -0,500
371,104;  178,541;   -0,901;    1,591
371,696;  186,162;    1,191;   -0,955
372,289;   97,037;    0,373;    1,136
372,881;   58,257;   -2,080;    1,318
373,473;  -14,193;   -2,170;    1,136
374,066;   57,342;   -0,169;    0,500
374,658;   49,744;    0,378;    1,136
375,250;   -1,880;    0,653;   -1,409
375,842;   30,054;    0,473;   -0,045
376,434;  -19,651;   -0,435;   -0,409
377,026;  -34,651;    0,204;   -2,500
377,618;   -0,101;   -0,158;   -0,682
378,210;  -54,382;   -0,338;   -1,955
378,802;  -71,247;    0,754;   -0,591
379,394;  269,842;    1,846;    0,682
379,986;   55,786;    1,393;   -0,955
380,578;  -30,591;   -0,153;    0,773
381,170;  203,732;   -0,972;    0,045
381,762;  119,300;    0,755;    1,409
382,354;   84,539;   -0,065;   -1,318
382,945;   14,374;   -2,976;    0,318
383,537;  -33,253;   -2,705;   -1,955
384,129;  -22,857;   -2,160;   -1,136
384,721;   86,896;   -0,252;    0,955
385,312;   25,155;   -0,161;   -0,955
385,904;  101,312;   -2,706;    1,591
386,496;   28,478;   -0,979;    1,045
387,087;  135,488;    1,022;    2,500
387,679;   71,865;   -1,160;    0,045
388,270;   50,822;    2,840;    2,045
388,862;   30,129;    1,295;   -0,318
389,453;   20,162;   -0,887;    1,045
390,045;   24,311;   -0,705;   -2,682
390,636;  -75,242;    0,204;   -0,591
391,227;  -14,226;   -0,523;   -0,045
391,819;  -32,491;    0,204;    0,773
392,410;  194,344;    1,022;    0,045
393,001;   12,516;   -0,979;   -1,591
393,593;   78,181;    1,930;   -0,045
394,184;  109,618;    1,385;   -0,409
394,775;    9,111;    1,839;    2,136
395,366;  -61,676;    1,385;    0,773
395,957;   87,842;    0,113;    0,136
396,548;   -8,007;   -0,342;    2,682
397,139;   89,761;   -2,433;    0,591
397,730;   19,189;   -1,888;    0,955
398,321;   28,329;   -1,252;    0,955
398,912;  -21,774;   -0,615;    0,136
399,503;  -31,481;   -3,524;   -1,409
400,094;   15,735;    0,294;    1,682
400,685;    6,611;   -0,433;    0,045
401,276;  -37,254;    0,930;   -0,955
401,867;  -49,144;   -0,888;    0,773
402,458;  -89,116;   -2,251;   -2,318
403,048;   30,988;    1,112;    0,591
403,639;   -8,556;    0,840;    0,864
404,230;   88,850;    2,476;    0,318
404,821;  143,065;   -0,615;    0,045
405,411;   56,929;    1,203;   -2,591
406,002;  -16,696;   -1,252;   -1,136
406,592;  186,177;    2,294;    0,045
407,183;   66,310;    0,566;   -1,500
407,774;   46,020;    3,475;   -0,136
408,364;   -6,519;    0,930;    0,409
408,954;   96,149;    0,384;    1,227
409,545;   97,314;    1,021;    1,045
410,135;   65,931;    1,293;    0,500
410,726;   24,527;    1,838;    0,318
411,316;  187,285;    0,111;    0,773
411,906;   36,809;   -0,253;   -0,409
412,497;   49,717;   -1,070;   -0,045
413,087;   -1,207;   -1,980;   -0,227
413,677;  -55,987;   -0,707;    3,864
414,267;  -51,224;    0,656;    1,409
414,857;  -76,916;   -2,980;    4,227
415,448;  -74,418;    0,839;    0,500
416,038;  -45,357;    0,020;   -0,591
416,628;    3,996;   -0,889;    0,409
417,218;   41,409;    0,565;    3,318
417,808;  169,716;    0,202;   -0,409
418,398;   61,027;    0,020;    2,682
418,988;  -35,976;    2,020;    0,591
419,578;   56,470;   -0,707;    1,409
420,168;  -15,452;   -1,343;   -0,955
420,757;  112,159;   -1,343;   -1,500
421,347;   22,061;    0,111;   -0,227
421,937;   -9,924;    2,292;    1,409
422,527;  115,424;    0,838;   -0,773
423,116;  237,872;   -0,253;   -0,045
423,706;    3,279;   -1,889;    0,318
424,296;  -41,733;    1,384;    0,682
424,885;   65,176;   -0,071;   -3,045
425,475;   37,263;    1,474;   -2,864
426,065;  -60,080;   -0,980;   -0,318
426,654;  -70,232;   -0,435;   -0,318
427,244;  160,591;    0,020;    1,409
427,833;  125,278;    1,383;   -0,500
428,423;   12,036;   -0,526;    1,136
429,012;   22,284;   -0,344;   -1,136
429,601;  142,488;   -1,344;    0,136
430,191;   44,642;    1,292;    4,318
430,780;  -45,985;   -0,344;   -0,409
431,369;  116,858;    0,746;   -0,045
431,959;   16,737;   -1,254;    0,500
432,548;  -41,122;   -1,163;   -0,045
433,137;  -85,416;   -1,254;   -1,318
433,726;  -17,741;    0,292;    0,500
434,315;    2,551;   -0,526;    2,409
434,905;   94,907;   -1,254;    1,409
435,494;   88,641;    0,746;    0,955
436,083;  -31,472;   -0,981;   -0,955
436,672;   60,689;    0,110;    0,500
437,261;   15,057;    0,292;   -1,955
437,850;  218,967;    1,383;    0,682
438,439;  268,968;    3,291;    1,955
439,027;  362,378;    3,655;    1,773
439,616;  293,435;    2,927;    1,227
440,205;   85,929;    0,200;   -2,136
440,794;   36,374;    2,109;   -0,045
441,383;  -20,059;   -1,346;   -0,591
441,971;  -39,900;   -2,436;    0,591
442,560;  -29,456;    0,563;   -1,773
443,149; -118,876;    0,379;   -1,318
443,737;  -74,346;   -0,074;   -2,318
444,326;  -37,438;    0,018;    0,318
444,915;  -10,072;   -1,982;    0,864
445,503;    1,683;   -2,891;   -0,318
446,092;  241,456;    0,382;    2,136
446,680;  179,271;    0,382;    0,318
447,269;   84,291;   -0,346;   -0,318
447,857;   63,225;    0,018;   -1,773
448,445;   36,389;    0,563;    1,318
449,034;  -29,613;   -1,528;   -1,136
449,622;  -21,971;   -1,073;    3,500
450,210;  244,279;    2,017;    2,227
450,799;  167,774;    0,290;   -0,591
451,387;  132,034;    1,381;   -0,591
451,975;  111,334;    2,654;    0,864
452,563;  184,197;    3,472;    2,318
453,151;   19,184;   -0,528;   -1,227
453,739;   69,663;   -1,347;    0,136
454,328;  160,646;    2,381;   -2,136
454,916;   97,953;    2,562;   -0,136
455,504;  118,534;    1,017;    1,227
456,092;   12,764;    0,017;   -1,591
456,679;  -16,615;    1,472;    0,682
457,267;  368,592;    4,017;    1,045
457,855;   75,266;    1,017;    1,409
458,443;  -60,958;   -0,165;    1,682
459,031;   84,137;    0,108;    2,409
459,619;   43,847;   -1,801;    2,864
460,206;  -41,523;    0,835;    2,045
460,794;  -36,137;   -2,983;   -0,227
461,382;   -4,203;   -0,529;   -0,864
461,970;   -1,631;    1,198;    1,864
462,557;  -60,701;   -0,711;   -0,682
463,145;   44,294;   -3,165;   -1,682
463,732;  284,116;    2,016;   -1,045
464,320;   74,560;   -0,075;   -3,045
464,907;  201,294;    2,743;   -0,773
465,495;  113,632;    0,743;   -1,227
466,082;   34,939;   -1,984;   -0,045
466,670;   62,780;   -2,529;    1,227
467,257;  -35,162;   -1,711;    2,045
467,844;   55,832;   -0,075;    0,045
468,432;   34,433;    0,834;    3,500
469,019;    0,381;    0,925;   -1,773
469,606;   64,620;    0,470;    3,682
470,193;  100,070;   -1,439;    0,227
470,780;   54,960;   -2,075;    0,864
471,368;   -6,176;   -1,257;   -0,773
471,955;   94,499;    1,379;   -0,682
472,542;   60,773;    0,652;   -1,136
473,129;  -36,862;   -0,166;    0,136
473,716;  -27,935;    1,470;    0,591
474,303;   -0,378;    0,652;   -0,864
474,890;    5,109;   -1,439;   -0,500
475,477;   89,425;   -1,621;    0,409
476,064;    6,685;    1,106;   -1,591
476,650;  116,079;    0,288;    0,318
477,237;   26,624;   -0,258;    0,955
477,824;    9,419;   -1,076;    0,864
478,411;  -60,604;   -1,894;   -0,318
478,997;  -71,198;    0,560;   -0,773
479,584; -113,601;    1,196;   -0,409
480,171;   45,692;   -0,440;   -0,773
480,757;  103,972;    2,651;    0,773
481,344;   -2,419;    0,469;    0,409
481,931;  -80,617;    1,105;    1,045
482,517;   44,913;   -1,258;    0,318
483,104;  108,821;    1,106;    2,864
483,690;   -8,525;   -1,804;    0,045
484,276;  -26,729;   -0,895;    0,227
484,863;  167,014;    2,469;    1,136
485,449;   16,648;   -0,077;    0,318
486,035;  -17,114;   -1,986;   -0,136
486,622;   66,764;   -0,895;    0,045
487,208;  -11,914;    1,378;    1,500
487,794;  -74,590;    0,741;    0,318
488,380;  -83,180;    0,105;   -1,409
488,967;  -71,953;   -1,168;   -0,409
489,553;  -55,378;   -1,895;   -1,409
490,139;   22,056;    1,559;    0,773
490,725;  -52,824;    0,741;   -0,227
491,311;   -6,249;    3,287;    3,045
491,897;  -29,049;   -0,986;    1,500
492,483;  -18,425;    0,105;    1,227
493,069;  389,214;    3,923;    0,864
493,655;  117,539;    1,650;    0,682
494,241;    1,477;    1,377;   -0,955
494,826;    8,344;    0,287;   -1,045
495,412;   59,831;    2,559;   -0,682
495,998;  -17,328;   -0,805;   -0,318
496,584;   40,175;    0,377;    1,045
497,169;   52,479;    1,014;   -0,682
497,755;   -4,890;    0,650;    1,227
498,341;  117,837;    0,559;    0,318
498,926;  226,625;    1,832;    1,955
499,512;  -11,702;    1,286;    2,955
500,097;  -15,263;    0,195;   -0,318
500,683;   12,485;   -0,350;    2,136
501,268;  -41,198;   -0,169;   -0,955
501,854;  -11,524;   -0,169;    1,227
502,439;  -21,907;   -0,624;   -1,773
503,024;   -6,965;    0,195;    0,500
503,610;   18,323;   -0,078;   -0,682
504,195;  -30,581;    0,558;    1,955
504,780;   50,825;    2,922;    1,227
505,366;  131,608;    3,013;    2,864
505,951;   64,933;    0,740;    1,045
506,536;    6,749;   -3,260;   -3,682
507,121;   47,529;    0,285;   -0,318
507,706;    8,092;    2,376;    1,045
508,291;  -34,788;    2,649;    1,136
508,876;  -32,982;   -0,988;    2,591
509,461;    3,896;   -0,169;   -0,773
510,046;   30,360;    0,194;    0,318
510,631;   44,624;   -0,351;   -0,773
511,216;  -29,145;    2,467;   -0,500
511,801;   24,643;   -0,442;    2,591
512,386;   38,548;    0,740;    0,500
512,971;   50,529;   -2,988;    0,955
513,555;   69,568;   -0,897;   -1,500
514,140;   41,641;   -0,442;   -3,136
514,725;  147,067;   -0,715;   -1,136
515,309;   60,396;   -0,533;    0,318
515,894;  -16,278;   -0,624;   -2,227
516,479;   14,234;   -0,624;   -0,955
517,063;   14,636;    0,376;    1,227
517,648;  -21,613;    1,012;   -1,136
518,232;  -44,296;   -0,261;   -1,409
518,817;   36,320;   -0,079;    1,682
519,401;  113,980;    2,194;    0,591
519,985;  100,297;    1,103;    1,136
520,570;   -4,112;    0,830;   -1,955
521,154;   61,937;    2,102;    0,591
521,738;  188,009;   -2,352;    2,409
522,323;   67,994;   -0,170;    1,682
522,907;   68,960;    0,466;   -0,136
523,491;   37,250;    0,557;    0,955
524,075;   25,229;    2,284;    0,591
524,659;  207,435;    1,466;    0,591
525,243;  193,036;    1,739;    0,409
525,827;  184,475;    0,648;   -0,045
526,411;  236,799;   -1,989;   -0,136
526,995;  410,916;   -0,352;    1,409
527,579;  556,949;   -0,443;   -1,045
528,163;  567,165;    0,375;   -1,500
528,747;  822,590;    2,466;   -0,773
529,331;  866,866;   -0,080;   -1,409
529,915;  783,300;    1,738;    0,955
530,499; 1057,722;   -0,807;    1,227
531,082; 1386,119;   -0,534;    1,591
531,666; 1610,076;    1,374;    0,773
532,250; 1787,206;    1,284;    2,682
532,833; 2200,560;    0,920;    2,773
533,417; 2311,422;   -1,807;    0,864
534,001; 2595,201;    1,647;   -0,318
534,584; 3130,991;    0,374;    0,500
535,168; 3354,798;    0,465;    1,409
535,751; 3903,023;    0,647;    0,045
536,334; 3900,075;   -0,898;   -0,409
536,918; 4661,181;    0,011;    1,591
537,501; 5058,808;   -0,899;    1,318
538,085; 5491,030;   -0,444;    1,045
538,668; 5889,191;    0,829;    2,409
539,251; 6563,262;    1,829;    3,773
539,834; 7024,420;    0,101;    0,773
540,418; 7380,160;   -1,990;    4,318
541,001; 7823,718;   -0,990;    1,773
541,584; 8163,323;    2,101;    2,227
542,167; 8254,761;    1,374;    2,955
542,750; 8645,937;    1,919;   -0,773
543,333; 8625,733;    0,555;    2,136
543,916; 9591,546;    0,192;    2,500
544,499;10296,027;   -1,354;    0,227
545,082;10623,739;    1,374;    3,591
545,665;11015,270;    1,919;    1,500
546,248;11505,187;    1,010;   -0,318
546,830;11459,853;   -0,445;    1,955
547,413;12041,955;    1,010;   -0,773
547,996;12735,998;    0,555;    0,500
548,579;12744,428;    0,919;    0,955
549,161;12756,232;    1,828;    2,682
549,744;12727,298;   -0,809;    0,409
550,326;13372,037;   -0,809;   -1,136
550,909;13319,813;    2,737;    0,591
551,492;13888,366;   -0,263;    0,227
552,074;13852,619;   -0,173;   -1,318
552,657;14507,138;    2,373;    0,045
553,239;14442,804;   -0,173;   -0,773
553,821;14461,779;   -1,082;    1,045
554,404;14114,373;    1,282;    1,136
554,986;14526,352;    0,464;    1,045
555,568;15213,381;    1,191;   -0,955
556,151;14625,997;    1,191;   -0,227
556,733;14904,232;   -0,264;   -0,864
557,315;15407,781;    0,100;    0,500
557,897;15276,181;    0,554;   -0,500
558,479;15489,224;   -1,991;    1,318
559,061;15706,944;   -0,719;   -0,864
559,643;16068,740;   -0,264;    0,045
560,225;16464,184;    1,645;    2,864
560,807;16583,194;    0,918;    0,318
561,389;16187,015;    0,554;    2,318
561,971;16947,327;    0,463;    2,136
562,553;16783,982;   -1,628;    1,591
563,135;16967,724;   -0,537;    1,136
563,717;16577,777;    3,372;    1,136
564,298;17350,504;    3,645;   -0,045
564,880;17165,267;    0,645;   -1,409
565,462;17361,358;    0,645;    1,318
566,043;18454,198;   -0,446;    2,318
566,625;18073,829;    1,918;    1,227
567,207;17958,661;    1,099;    1,682
567,788;19038,781;   -1,264;    1,500
568,370;19854,803;    1,917;   -0,500
568,951;19694,971;    0,190;    0,227
569,533;20571,702;   -0,628;   -0,500
570,114;21054,010;   -0,446;    0,682
570,695;21566,419;   -0,174;   -1,318
571,277;22049,670;   -0,265;   -1,682
571,858;22798,008;    2,008;   -1,136
572,439;23688,900;    1,554;   -1,045
573,021;23895,968;    2,099;   -2,773
573,602;24402,165;   -1,265;    0,318
574,183;25292,026;   -2,083;    2,227
574,764;25427,249;   -1,629;    0,409
575,345;25990,222;    0,917;   -0,136
575,926;26647,532;   -0,356;    0,136
576,507;26696,432;    1,099;   -0,227
577,088;27765,399;    3,099;    1,682
577,669;27809,659;    0,735;    1,955
578,250;28555,299;    0,644;   -1,045
578,831;29211,192;   -1,356;   -2,227
579,412;29471,093;   -0,810;    0,955
579,993;30455,806;    1,008;    0,227
580,573;30875,753;   -0,629;   -0,955
581,154;29865,516;    0,735;   -0,591
581,735;30752,985;    0,644;    0,773
582,315;30247,803;   -0,629;    2,136
582,896;30603,158;   -0,174;    1,227
583,477;30123,662;    0,189;    1,227
584,057;30314,319;    0,553;    0,955
584,638;30650,715;    2,553;    2,318
585,218;30670,307;   -0,538;    2,682
585,799;30885,202;    0,281;   -0,227
586,379;30882,945;    0,372;    1,591
586,959;29804,909;    0,735;    0,318
587,540;29188,896;   -0,629;    2,227
588,120;28709,363;    1,007;   -0,045
588,700;27761,353;    2,553;    2,136
589,281;28049,416;    0,462;   -0,955
589,861;28015,937;    0,099;   -1,682
590,441;27881,973;    2,371;   -2,682
591,021;26901,891;   -0,265;   -2,591
591,601;27184,573;   -0,537;    0,500
592,181;27223,036;   -0,719;   -0,773
592,761;26517,757;    0,007;    1,409
593,341;26477,416;   -0,901;    0,045
593,921;26499,640;   -0,265;    1,591
594,501;26408,759;   -0,538;    1,318
595,081;26268,479;    0,917;   -0,318
595,661;26640,510;   -1,447;    0,955
596,240;27179,151;   -0,537;    0,136
596,820;26794,891;    0,372;    1,955
597,400;27042,707;    2,008;    0,773
597,980;27248,136;    2,008;    1,045
598,559;27270,599;    2,735;   -0,227
599,139;27048,179;   -0,174;   -1,227
599,718;27003,270;   -0,174;   -0,409
600,298;27237,722;    0,735;    0,682
600,877;27494,336;    2,917;    1,409
601,457;27785,257;    2,281;    1,136
602,036;27718,567;    0,190;    2,045
602,616;27870,585;    0,644;    1,682
603,195;28252,979;   -0,355;    3,500
603,774;27816,254;   -0,901;    2,045
604,354;27749,506;    0,826;   -0,500
604,933;27269,555;    0,463;    1,864
605,512;27384,310;    3,554;    0,591
606,091;27455,179;   -0,537;    3,773
606,671;28310,776;    0,281;    0,773
607,250;27384,061;    1,644;    3,136
607,829;27666,563;    2,372;    3,227
608,408;27573,771;    1,190;    2,591
608,987;26552,955;    1,281;    3,409
609,566;26921,516;   -1,265;   -2,500
610,145;27010,037;   -1,082;    0,682
610,723;27416,638;    4,372;    6,864
611,302;26638,721;   -0,446;    1,682
611,881;26186,222;    5,008;   11,227
612,460;27037,752;    1,645;    3,955
613,039;27475,759;   -0,082;    2,045
613,617;26258,801;    1,736;    4,773
614,196;26495,966;    1,099;    1,227
614,775;26828,261;    1,009;    2,409
615,353;26730,346;    0,736;    0,864
615,932;26493,059;    0,100;    2,409
616,510;27077,982;    0,554;    0,591
617,089;26597,135;    7,100;   17,591
617,667;26367,519;    2,372;    6,136
618,246;26267,664;   -1,537;    1,318
618,824;26445,291;   -3,355;   -0,955
619,402;26030,660;   -2,900;   -1,773
619,981;26538,585;   -0,173;   -1,045
620,559;26412,500;    0,009;    1,682
621,137;25951,321;   -0,718;    1,864
621,715;25956,922;   -1,173;   -0,682
622,293;25895,010;   -0,537;   -0,773
622,871;26399,691;   -0,718;    0,500
623,450;25956,739;    0,373;   -0,864
624,028;25884,981;    0,191;   -0,955
624,606;25531,768;   -1,718;    1,682
625,183;25936,018;   -1,536;   -1,136
625,761;25529,194;    1,009;    1,136
626,339;25842,856;    1,373;    2,591
626,917;26217,708;   -0,172;   -0,045
627,495;26269,849;   -0,354;    1,318
628,073;25759,976;   -0,263;    2,864
628,650;25470,265;    0,100;    2,136
629,228;25874,657;    0,373;    4,409
629,806;25306,367;    2,282;    1,136
630,383;25560,418;    1,464;   -0,318
630,961;25318,309;    2,555;   -0,955
631,539;25129,829;    2,464;    0,227
632,116;24400,309;   11,373;   15,409
632,694;24984,975;    2,555;    6,500
633,271;25354,276;    0,828;    2,682
633,848;25257,357;    1,828;    2,045
634,426;25321,731;   -1,081;    1,773
635,003;24499,308;    1,101;   -0,409
635,580;24748,921;    1,192;    3,682
636,158;25303,233;    3,737;    1,227
636,735;25322,308;    0,555;   -0,500
637,312;25479,627;   -0,809;   -0,682
637,889;25566,033;   -4,354;   -0,682
638,466;25082,522;   -3,990;   -0,409
639,043;25076,295;    2,101;   -1,136
639,620;25434,803;   -2,262;   -0,955
640,197;25744,606;    1,100;    1,682
640,774;25893,211;   -0,172;    1,136
641,351;26294,635;    0,737;    1,136
641,928;25702,604;   -0,627;    1,409
642,505;25362,754;    0,828;   -0,500
643,082;25527,178;   -1,718;    1,227
643,658;24512,146;   -0,718;    1,500
644,235;25294,115;    1,191;    2,500
644,812;25643,175;    1,918;    0,773
645,388;25349,053;   -0,991;    1,409
645,965;25488,385;   -0,809;    1,682
646,542;25485,445;   -1,445;   -0,227
647,118;25478,323;    1,009;   -0,955
647,695;25804,383;   -0,263;    1,136
648,271;25725,715;   -0,536;    0,500
648,848;26055,775;    0,736;    2,227
649,424;25839,016;    0,827;    1,318
650,000;25634,985;   -0,354;   -1,045
650,577;25437,227;   -0,627;   -0,955
651,153;25945,832;   -1,809;    0,955
651,729;26974,528;    1,191;    0,864
652,305;27115,861;    0,645;    2,773
652,881;31346,102;   -0,082;    1,136
653,458;38222,798;    1,100;    0,227
654,034;42280,040;    0,282;    1,591
654,610;43912,736;    0,554;    0,773
655,186;45282,068;    0,645;    3,045
655,762;45015,583;   -0,991;    0,409
656,338;45050,097;    0,100;    0,136
656,913;46043,884;   -0,082;    0,409
657,489;45318,216;    0,827;   -0,318
658,065;45318,822;   -0,173;   -1,591
658,641;45919,972;   -0,900;   -0,864
659,217;45297,668;   -0,991;    0,409
659,792;44664,455;    0,645;   -0,409
660,368;44896,697;   -2,173;   -0,682
660,944;44659,575;   -2,082;    1,227
661,519;40230,998;   -0,628;    0,409
662,095;34251,149;   -1,719;    0,591
662,670;29406,209;    1,281;   -0,136
663,246;28112,723;    1,009;   -0,409
663,821;27309,783;    0,281;    1,682
664,396;26809,479;    0,009;    1,864
664,972;27071,811;    0,009;   -0,500
665,547;27425,780;    1,372;    0,136
666,122;27435,476;   -1,082;    0,318
666,698;27720,172;   -0,173;    0,318
667,273;27076,687;   -0,173;    0,136
667,848;27894,837;    2,372;    1,500
668,423;27698,261;    2,190;    2,318
668,998;28248,229;    2,827;   -0,682
669,573;28846,380;   -3,264;   -1,500
670,148;28647,894;   -1,446;   -0,682
670,723;28491,499;   -1,810;    0,318
671,298;28918,014;    2,372;    1,045
671,873;29001,710;   -0,082;   -0,136
672,448;28877,679;    0,645;    0,136
673,023;29226,193;   -1,992;   -0,227
673,597;29601,525;    0,827;    2,318
674,172;29414,858;   -0,355;    0,318
674,747;28872,827;    0,372;   -1,045
675,321;28722,886;   -0,628;    3,318
675,896;28317,946;    0,645;    1,045
676,471;29345,188;    2,645;    1,591
677,045;29099,611;   -1,264;    0,682
677,620;29181,216;    0,190;    1,136
678,194;29494,094;   -2,628;    1,136
678,769;29054,972;   -1,083;   -0,318
679,343;29267,214;   -0,628;    1,773
679,917;29140,637;   -1,446;    1,955
680,492;29282,242;    0,826;    3,227
681,066;29384,393;    3,372;    0,409
681,640;29432,998;    1,463;   -0,318
682,214;30246,149;    0,735;    0,500
682,788;29739,754;   -1,356;   -0,773
683,363;29696,541;   -1,810;    1,682
683,937;29398,237;   -1,719;   -0,318
684,511;30219,751;    0,463;   -0,591
685,085;29909,084;   -1,356;    0,318
685,659;29656,689;   -2,538;    0,864
686,232;29914,022;   -0,356;   -0,318
686,806;29666,081;   -0,901;    0,409
687,380;30304,868;   -0,174;    0,591
687,954;30521,928;   -1,174;    1,136
688,528;30181,079;   -0,719;    1,955
689,101;30970,138;   -3,992;    1,045
689,675;30572,380;   -0,356;   -0,136
690,249;29961,440;   -0,719;    0,409
690,822;30220,136;    0,280;    0,318
691,396;30329,286;   -0,265;    1,227
691,969;29798,255;    1,280;    0,136
692,543;30293,497;   -0,447;   -1,955
693,116;29987,557;   -0,265;   -1,409
693,690;29824,707;    0,099;    0,500
694,263;30404,858;   -1,083;    2,955
694,836;30456,554;    1,371;    3,591
695,410;29028,341;   -0,265;    1,773
695,983;29496,582;    0,189;    0,591
696,556;29492,824;   -0,447;   -1,045
697,129;29895,066;   -0,356;    1,409
697,703;29535,489;   -1,629;    1,955
698,276;29485,367;    1,462;   -0,773
698,849;29290,063;    1,280;    1,409
699,422;29747,850;   -1,083;    0,591
699,995;29419,182;    0,007;    0,136
700,568;29903,424;   -0,629;    3,045
701,140;29957,938;   -2,811;    1,682
701,713;29652,725;   -0,174;    2,409
702,286;29386,058;   -0,538;    0,864
702,859;29269,845;   -0,902;   -0,591
703,432;28438,995;    0,825;    0,682
704,004;28957,146;    0,462;    0,318
704,577;28866,024;   -0,629;    0,136
705,150;29369,447;    0,189;    2,500
705,722;29152,416;   -0,356;   -3,227
706,295;28947,476;   -0,175;   -0,591
706,867;28841,445;   -0,175;    1,955
707,440;29074,232;   -1,720;   -0,409
708,012;29322,473;    0,462;    0,591
708,584;29180,533;    2,462;    0,227
709,157;29507,411;    1,825;   -0,591
709,729;29225,380;    2,280;    2,045
710,301;30032,712;    0,734;    0,045
710,874;30086,681;   -1,447;   -0,227
711,446;28929,832;    0,371;    0,864
712,018;28817,710;    0,098;    0,500
712,590;28546,406;   -1,993;    1,682
713,162;29054,284;    0,825;    1,318
713,734;29335,707;    1,825;   -2,045
714,306;29277,312;   -1,902;   -0,409
714,878;27932,281;    0,825;    0,864
715,450;28758,432;    0,643;    0,864
716,022;29036,128;    1,552;    1,318
716,593;29190,460;    0,189;    0,591
717,165;29096,156;   -3,175;   -1,227
717,737;28804,762;    0,280;    0,409
718,309;28465,730;    0,280;   -0,045
718,880;28388,881;   -0,539;   -1,409
719,452;28606,941;   -0,175;   -1,591
720,024;28220,637;    0,734;   -0,591
720,595;28794,788;   -2,902;    0,955
721,167;28321,756;    0,370;   -2,045
721,738;27823,362;   -0,812;   -1,045
722,309;27795,240;   -0,993;   -1,227
722,881;27593,845;   -1,357;    0,773
723,452;28265,268;   -2,630;    2,864
724,023;28420,873;   -0,721;    2,682
724,595;28193,933;    0,007;    0,682
725,166;27953,720;    0,007;   -0,409
725,737;27576,871;    1,734;    0,227
726,308;27647,385;   -0,266;    0,318
726,879;28136,445;   -1,630;    1,227
727,450;27936,414;    0,552;   -0,045
728,021;27944,928;    3,097;    0,682
728,592;27699,533;    0,734;    0,500
729,163;28014,411;    0,643;   -0,136
729,734;28026,289;    0,188;   -0,227
730,305;28397,439;    1,734;    0,136
730,876;28754,408;    0,188;    2,955
731,447;28469,650;    2,188;    2,682
732,017;28587,437;    1,097;    1,864
732,588;28062,406;    0,734;    1,227
733,159;28234,465;    0,643;   -1,045
733,729;28055,343;    0,006;    0,409
734,300;27312,949;    0,915;    0,864
734,870;27797,736;    3,461;    0,591
735,441;28414,159;    0,370;   -0,591
736,011;28112,582;    0,643;   -1,591
736,582;28058,733;   -0,812;    0,045
737,152;27510,247;   -1,721;   -2,045
737,722;27997,943;   -0,267;   -0,682
738,293;27705,549;   -1,358;    1,318
738,863;27571,245;    2,461;    2,318
739,433;27372,941;    5,279;    0,318
740,003;28022,546;   -0,994;   -0,682
740,573;27370,697;    2,097;   -1,591
741,143;27314,484;   -1,085;    0,318
741,713;28125,362;    1,188;   -0,500
742,283;27816,512;    0,915;    1,591
742,853;27622,845;    1,915;    1,591
743,423;27064,723;    1,733;    0,045
743,993;27225,055;   -0,358;    1,500
744,563;26630,478;    0,097;   -0,864
745,133;26607,629;   -0,812;   -0,864
745,702;27281,416;   -0,267;    1,773
746,272;26459,112;   -0,176;    0,591
746,842;26203,990;   -1,358;   -0,591
747,411;26650,413;   -0,267;   -0,318
747,981;26820,019;    0,097;    0,500
748,551;26923,897;    2,278;   -1,045
749,120;26754,229;    0,642;   -0,227
749,690;27126,471;   -0,631;    2,409
750,259;27461,530;    1,369;    2,955
750,828;27394,499;    1,551;   -1,955
751,398;27672,286;    1,278;   -0,045
751,967;27114,800;    2,187;    0,409
752,536;27337,133;   -0,813;   -0,227
753,105;27696,829;    0,096;    0,227
753,675;27511,980;    0,096;    1,773
754,244;27481,767;   -0,904;    3,591
754,813;27596,008;    0,551;    1,227
755,382;27173,250;    0,460;    0,955
755,951;27739,764;    1,551;    3,682
756,520;27174,369;   -0,085;    1,864
757,089;27758,429;    0,278;    0,500
757,658;27980,852;    1,733;    1,227
758,227;28010,548;    1,096;    0,318
758,795;28309,426;    1,187;    1,136
759,364;28548,850;   -0,086;   -0,591
759,933;27517,364;   -1,176;   -0,045
760,501;27055,696;    0,733;   -1,318
761,070;27536,120;   -2,813;   -1,409
761,639;28280,998;   -1,904;    1,318
762,207;27558,058;    1,551;   -0,955
762,776;27467,390;    0,369;    0,864
763,344;27480,904;   -0,995;    0,591
763,913;26591,509;   -0,722;    1,409
764,481;27353,842;    1,005;   -0,136
765,049;27122,629;   -1,358;    1,409
765,618;27004,598;   -0,086;    0,318
766,186;27033,385;    0,278;    0,136
766,754;27254,808;    0,005;    1,864
767,322;26274,141;   -1,995;    0,409
767,890;26300,564;   -0,722;   -1,773
768,459;26707,624;   -2,177;   -0,318
769,027;26856,320;    1,641;    3,409
769,595;25811,925;    3,278;    2,591
770,163;26259,257;    3,823;    2,955
770,730;26010,408;    0,732;   -0,136
771,298;25910,286;    0,187;   -1,409
771,866;25944,437;   -1,541;    4,955
772,434;26267,860;   -0,631;   -1,864
773,002;26435,647;    0,005;    0,682
773,569;26075,070;    0,914;    1,682
774,137;25892,585;   -0,268;   -0,045
774,705;26676,008;    0,278;   -0,136
775,272;26224,341;    0,641;    0,682
775,840;25948,946;   -0,177;    2,682
776,407;25468,278;    0,277;    1,955
776,975;25107,883;   -0,632;    0,318
777,542;26116,670;   -1,086;   -0,045
778,110;25942,094;   -1,268;   -0,045
778,677;25657,244;   -2,359;   -0,864
779,244;25373,668;    2,186;    1,045
779,812;25473,546;    1,823;    0,864
780,379;25326,515;    0,005;    1,136
780,946;25572,393;    1,005;   -0,773
781,513;25920,725;   -1,450;    0,318
782,080;25280,057;   -0,086;    2,864
782,647;26030,299;   -0,268;    3,045
783,214;25583,268;   -0,177;    3,864
783,781;25189,418;   -0,723;   -0,682
784,348;25090,387;   -0,632;    1,500
784,915;25565,174;   -3,177;    0,318
785,482;25321,598;    1,368;    2,591
786,049;25779,021;    0,186;   -0,591
786,615;25877,535;    0,277;   -0,955
787,182;25595,777;    0,186;   -0,682
787,749;25309,473;   -2,814;    1,409
788,315;24608,987;   -1,632;   -0,409
788,882;24914,774;    1,550;   -1,227
789,448;25604,289;    1,732;   -0,955
790,015;25685,166;    1,095;    3,227
790,581;25196,954;    1,459;    0,227
791,148;25077,468;    0,641;    1,045
791,714;25387,255;   -0,541;    3,136
792,280;25049,405;    0,186;    1,591
792,847;24561,738;    0,550;    2,500
793,413;25117,798;   -0,269;   -0,318
793,979;24657,039;    3,459;   -1,318
794,545;24721,099;    4,459;    2,682
795,111;24087,522;    2,186;    1,318
795,678;24304,673;    0,731;   -1,682
796,244;23949,824;    3,368;    0,136
796,810;24514,702;    1,731;    0,773
797,375;24249,307;    0,549;   -2,136
797,941;24281,548;   -0,541;    0,591
798,507;24454,244;   -0,451;   -0,955
799,073;24001,577;   -0,360;    0,591
799,639;24001,455;   -2,632;    3,136
800,205;24090,787;    0,095;    2,682
800,770;23601,756;    0,640;    1,773
801,336;23695,998;    1,368;   -0,955
801,901;23353,785;    4,549;    3,136
802,467;23914,663;   -0,542;    2,045
803,033;23269,086;   -0,087;    0,864
803,598;23481,964;    1,913;   -1,045
804,163;23509,114;    1,095;   -0,318
804,729;23435,447;   -0,178;    1,136
805,294;23871,416;    0,822;    2,227
805,859;23667,385;    0,731;   -0,409
806,425;23070,717;    1,186;    2,682
806,990;22756,322;    2,186;    4,318
807,555;23299,382;   -1,451;    2,591
808,120;23173,260;    0,822;   -0,409
808,685;23260,411;    0,185;   -2,500
809,250;22752,470;    0,004;   -0,500
809,815;23043,439;    1,913;    0,682
810,380;23571,681;   -0,269;    1,591
810,945;24087,650;   -1,087;    2,045
811,510;23294,346;    2,094;    1,591
812,075;23007,860;   -0,633;   -1,409
812,640;23054,556;    2,003;    1,409
813,204;23121,161;    0,822;   -0,227
813,769;23601,766;    2,094;   -0,045
814,334;23029,190;    0,458;    0,864
814,898;23028,249;    0,367;    0,591
815,463;22878,764;    1,276;   -0,773
816,027;22890,278;   -0,724;   -2,318
816,592;22972,429;    0,640;   -2,045
817,156;22440,398;    2,094;    1,136
817,721;22294,821;    4,276;    2,318
818,285;22256,426;    2,912;    1,500
818,849;22935,668;   -1,451;    1,682
819,414;22842,000;   -0,269;    2,955
819,978;22437,696;   -1,269;    1,773
820,542;23001,211;    2,003;    0,500
821,106;22694,270;   -0,815;    0,682
821,670;22801,603;   -0,815;    2,591
822,234;22529,662;   -0,270;    1,409
822,798;21890,268;    0,003;    0,500
823,362;21853,327;   -0,633;    4,227
823,926;21169,205;    0,094;    1,136
824,490;21342,447;   -0,997;   -0,682
825,054;21768,688;   -0,088;   -1,136
825,618;21405,748;   -1,542;   -1,500
826,181;21324,990;    0,458;   -1,318
826,745;21233,868;    1,367;   -1,045
827,309;21624,382;    1,185;    1,318
827,872;21005,351;    1,367;    0,955
828,436;21982,865;    1,185;   -0,773
828,999;22048,379;   -0,997;    1,227
829,563;20837,621;   -0,179;    1,136
830,126;20635,862;   -0,179;   -0,591
830,690;20651,649;   -1,997;    2,864
831,253;20177,891;   -0,543;    2,227
831,816;20309,587;   -1,906;    0,500
832,380;20228,556;    0,185;    0,864
832,943;20475,252;   -1,361;   -0,500
833,506;19959,312;    2,639;   -1,227
834,069;20719,735;    3,912;   -0,955
834,632;20789,977;    1,730;    1,318
835,195;20710,582;    1,003;    0,955
835,758;19885,914;   -0,997;    1,955
836,321;19744,974;    0,730;   -1,045
836,884;19856,670;   -0,725;   -0,955
837,447;19874,184;   -2,816;    1,773
838,010;20155,971;    0,366;    3,227
838,573;20420,486;   -1,179;    0,773
839,135;20374,091;   -1,361;   -0,955
839,698;19865,151;    1,275;    0,409
840,261;19356,029;    1,003;   -0,227
840,823;19202,361;   -0,543;    0,864
841,386;19509,512;   -0,452;   -2,409
841,948;19416,481;   -1,361;    1,773
842,511;19124,177;    0,912;    1,682
843,073;19260,782;    1,912;    0,227
843,636;19050,569;   -0,361;   -0,227
844,198;18987,083;    0,911;    0,591
844,760;19092,325;    1,093;    1,955
845,322;18758,657;    0,548;    1,136
845,885;19160,353;    0,730;    0,591
846,447;19610,140;   -1,998;    0,227
847,009;19213,382;    1,911;   -0,682
847,571;19559,442;    0,820;   -2,045
848,133;19644,047;   -1,089;   -1,864
848,695;19469,652;   -0,543;    1,409
849,257;19013,893;   -1,089;   -1,682
849,819;19141,953;   -0,998;   -0,409
850,381;19227,468;   -0,725;   -0,864
850,942;19631,164;    1,093;   -0,591
851,504;19546,223;    1,184;    0,227
852,066;19624,919;    1,275;   -1,591
852,628;19130,979;   -0,180;    1,955
853,189;18647,130;    1,638;    2,682
853,751;18790,462;   -0,907;    1,409
854,312;18572,249;   -0,453;   -1,682
854,874;19059,218;   -2,089;   -0,773
855,435;19618,005;   -0,907;   -1,682
855,997;19758,974;   -1,816;   -0,136
856,558;18999,125;    0,366;    1,773
857,119;19164,366;    0,820;    2,864
857,681;18849,699;    0,002;    0,318
858,242;18900,395;    1,911;   -2,136
858,803;19309,454;    0,456;   -0,773
859,364;19941,151;    0,184;   -4,773
859,925;19228,847;   -2,453;   -0,955
860,486;19104,634;   -0,453;   -0,955
861,047;18841,784;   -0,544;   -1,227
861,608;18624,935;   -1,089;   -0,773
862,169;18773,813;    0,638;   -0,045
862,730;18540,418;    0,456;    1,409
863,291;18815,023;   -0,635;   -0,500
863,852;19189,628;   -0,635;    1,955
864,412;18639,506;   -0,271;   -0,864
864,973;17202,839;   -0,089;    0,500
865,534;17077,717;   -1,726;    0,227
866,094;18584,595;    1,820;    0,227
866,655;18262,564;    1,274;    3,318
867,215;18533,987;    0,274;    0,136
867,776;18382,228;    0,547;   -0,136
868,336;18478,106;   -1,453;    0,136
868,897;17908,802;    2,638;    1,682
869,457;17653,680;    1,365;    0,318
870,017;17904,013;    0,547;   -1,227
870,578;18390,254;   -0,817;    0,773
871,138;18083,132;   -2,089;   -0,955
871,698;17604,919;   -0,817;   -1,318
872,258;17503,706;   -0,453;   -2,864
872,818;17886,039;    2,729;    0,045
873,378;17841,735;    0,638;    1,045
873,938;17386,704;    0,547;    0,500
874,498;17748,127;    0,274;   -1,955
875,058;17618,005;    2,183;    1,773
875,618;17456,610;    1,910;   -2,682
876,177;17385,943;    1,274;    0,136
876,737;16993,548;   -0,090;    1,955
877,297;16967,062;    0,183;    1,955
877,856;17031,758;   -0,362;    0,318
878,416;16955,091;    1,183;   -0,136
878,976;17179,241;   -1,817;    0,409
879,535;17365,028;    0,092;    3,136
880,095;17077,361;   -0,544;    0,045
880,654;17206,875;   -1,090;    1,318
881,213;17276,208;    2,456;    1,500
881,773;16914,449;    2,637;    2,682
882,332;17267,963;    3,365;    5,136
882,891;17138,841;    3,092;    2,136
883,451;17596,628;   -1,272;    1,682
884,010;17043,506;   -2,908;   -0,409
884,569;17135,839;   -0,999;   -0,045
885,128;17269,989;    2,819;   -1,864
885,687;17348,958;    4,455;    0,682
886,246;17018,654;    1,455;    2,136
886,805;16810,714;    2,455;    2,045
887,364;17105,047;   -0,999;   -0,500
887,922;17525,288;   -1,181;    0,045
888,481;16962,166;   -1,545;    0,591
889,040;17272,226;    1,183;    2,136
889,599;17994,286;    2,455;    1,409
890,157;18023,982;    1,455;    2,409
890,716;17712,223;   -0,090;    0,227
891,274;17513,283;    0,092;   -1,136
891,833;17971,888;    1,546;    0,864
892,391;17823,857;   -0,454;    0,500
892,950;17869,826;    1,819;   -0,773
893,508;18244,795;    0,455;   -0,409
894,067;17630,309;    0,637;    0,136
894,625;17552,096;   -0,636;   -1,500
895,183;17816,883;   -0,363;   -0,682
895,741;17647,124;    1,728;   -1,773
896,299;17470,730;   -0,545;   -2,409
896,858;17639,971;    0,819;   -1,591
897,416;17790,940;    2,728;   -1,318
897,974;17576,909;    1,819;    0,318
898,532;17676,787;    6,091;    2,682
899,089;17583,210;    2,091;   -0,682
899,647;17627,634;   -1,454;    1,318
900,205;17344,421;    1,182;    1,045
900,763;17563,117;   -0,454;    0,227
901,321;17544,904;    2,364;   -1,409
901,878;16997,509;   -1,000;   -0,773
902,436;16846,387;   -1,363;    1,318
902,994;17219,810;    4,728;    3,682
903,551;16657,324;    0,728;    0,409
904,109;17073,021;    0,182;   -1,409
904,666;16670,626;    2,455;    1,045
905,224;16510,776;    0,182;   -0,409
905,781;16213,745;    0,727;   -0,318
906,338;16300,078;   -1,363;    1,045
906,895;16248,956;    0,637;    2,045
907,453;16136,288;    1,727;    1,136
908,010;16191,530;   -0,909;    0,409
908,567;15848,498;    1,273;    0,591
909,124;15366,740;    0,364;   -1,500
909,681;15406,072;   -2,909;    0,682
910,238;15544,405;    0,636;   -1,318
910,795;15862,556;   -0,273;   -1,136
911,352;15499,101;   -2,909;   -2,682
911,909;14887,828;   -1,364;   -0,864
912,466;15404,919;   -3,182;    1,500
913,022;14955,556;   -1,636;    0,500
913,579;15248,192;   -0,909;    2,045
914,136;14985,737;    1,636;    0,955
914,692;15336,374;    0,091;   -1,227
915,249;14951,465;    1,455;    0,409
915,806;15138,646;    0,182;    1,955
916,362;14884,101;    1,909;    1,864
916,918;14446,192;    2,000;    1,045
917,475;14402,465;   -1,182;    0,955
918,031;14487,010;    3,364;   -0,045
918,587;13941,828;   -0,909;   -0,318
919,144;14163,283;   -2,273;    0,227
919,700;14512,556;    1,727;    0,773
920,256;14077,101;    0,727;    0,045
920,812;13701,101;   -0,727;   -1,045
921,368;13691,919;   -1,727;   -1,045
921,924;13307,010;    0,182;   -0,136
922,480;12878,919;   -0,545;    1,227
923,036;13467,646;    1,273;    1,955
923,592;13411,737;    0,455;    0,318
924,148;13360,374;    0,455;   -0,955
924,704;12630,465;   -1,364;   -0,409
925,259;12921,828;   -0,273;    0,591
925,815;12679,919;    1,455;    0,500
926,371;12200,828;    2,909;    1,409
926,926;12057,101;    2,091;    0,591
927,482;11721,010;   -1,364;    0,773
928,037;11586,737;    0,909;    2,045
928,593;11836,010;    1,636;    1,045
929,148;11672,646;   -1,818;   -1,500
929,704;11168,283;   -1,455;   -0,500
930,259;11397,374;    0,091;   -0,136
930,814;10430,646;   -0,818;    1,955
931,369;10112,828;    1,091;   -0,773
931,925; 9976,465;   -0,091;    0,136
932,480; 9878,465;   -2,818;   -2,591
933,035; 9759,919;    0,545;   -0,318
933,590; 9518,374;    0,364;   -1,773
934,145; 9146,374;   -1,364;   -0,318
934,700; 9521,737;    0,455;   -0,591
935,255; 9311,828;   -0,091;    0,045
935,809; 8555,737;    3,182;    0,864
936,364; 7691,283;   -0,455;   -0,136
936,919; 7621,737;    0,455;   -1,773
937,474; 7516,010;    1,455;    0,136
938,028; 7289,828;   -1,636;    1,136
938,583; 6761,374;    1,818;    4,682
939,138; 7012,646;    2,091;    2,136
939,692; 6444,737;    1,636;   -1,136
940,247; 6153,919;   -0,727;   -1,045
940,801; 5666,646;   -0,636;    0,227
941,355; 5568,828;   -0,364;    2,591
941,910; 5235,465;   -0,273;   -2,136
942,464; 5333,919;   -0,818;   -0,318
943,018; 5101,374;    1,000;   -0,227
943,572; 5052,283;    2,545;   -0,682
944,126; 4469,828;    0,091;   -0,409
944,681; 4331,192;    3,091;    0,227
945,235; 4318,192;    1,000;   -0,591
945,789; 4276,374;    0,364;   -1,864
946,342; 4347,010;    0,455;   -0,591
946,896; 4151,374;   -2,273;    0,955
947,450; 3930,465;    1,545;   -0,227
948,004; 4104,465;    1,727;   -0,045
948,558; 4117,283;    0,273;   -0,864
949,111; 4045,737;   -0,273;   -0,318
949,665; 4055,465;    1,636;   -0,682
950,219; 3925,101;   -0,091;   -1,045
950,772; 4004,646;   -1,909;    1,864
951,326; 3887,010;    0,545;   -0,955
951,879; 4028,919;    0,727;   -2,318
952,433; 4047,828;    0,000;    2,227
952,986; 3869,374;    2,909;    0,682
953,539; 3822,010;   -0,273;    0,591
954,093; 3795,556;    0,545;   -1,318
954,646; 3899,465;    0,909;    1,318
955,199; 3722,010;    0,000;   -0,500
955,752; 3587,737;   -0,455;    1,773
956,305; 3545,101;   -0,091;    2,955
956,858; 3713,465;    0,818;   -0,318
957,411; 3885,192;   -0,545;    2,136
957,964; 3701,919;    1,364;    2,136
958,517; 3692,010;   -1,545;    3,136
959,070; 3534,556;   -0,455;    1,955
959,623; 3588,101;    1,091;    1,500
960,176; 3349,919;    1,727;    2,045
960,728; 3349,556;   -2,727;    0,773
961,281; 3413,465;    0,545;    0,500
961,834; 3455,828;   -0,909;    0,864
962,386; 3374,919;    1,727;    1,045
962,939; 3299,192;    0,364;   -0,318
963,491; 3441,101;    0,455;    1,136
964,043; 3313,010;    1,182;    2,409
964,596; 3422,737;   -1,000;    2,227
965,148; 3262,737;   -1,000;    1,773
965,700; 3197,919;    1,091;   -0,227
966,253; 3341,556;   -0,636;    0,318
966,805; 3166,192;   -2,273;    0,773
967,357; 3221,919;    1,091;   -1,500
967,909; 3174,646;    0,455;   -1,227
968,461; 3300,192;    0,545;    3,136
969,013; 3236,192;   -0,182;   -0,864
969,565; 3291,374;   -0,455;   -1,136
970,117; 3339,828;   -0,364;    1,045
970,669; 3201,828;    0,182;   -0,136
971,220; 3065,192;   -0,455;   -1,500
971,772; 3000,646;   -0,636;   -0,318
972,324; 3107,192;    0,091;   -0,500
972,876; 3056,283;    0,818;   -0,045
973,427; 3178,010;    1,909;   -1,045
973,979; 3152,919;   -0,727;   -2,500
974,530; 3203,192;    1,818;    1,318
975,082; 3217,374;   -0,545;    1,682
975,633; 3110,828;    1,091;    1,682
976,184; 3233,646;    0,909;    0,773
976,736; 3039,192;    0,091;    0,227
977,287; 2828,192;   -0,909;   -0,500
977,838; 3017,828;    0,909;   -0,318
978,389; 3085,828;   -1,000;   -0,500
978,940; 2937,192;    0,545;   -0,409
979,491; 2980,556;    0,091;   -0,500
980,042; 2948,737;    0,182;    3,045
980,593; 3005,828;   -2,545;    0,227
981,144; 3048,828;    2,545;   -0,500
981,695; 2997,737;    1,455;    1,500
982,246; 2976,465;   -0,273;    1,045
982,797; 3128,374;   -1,727;    0,682
983,347; 3234,374;    0,364;    0,591
983,898; 3392,283;    3,091;    0,409
984,449; 3225,646;    2,182;    0,773
984,999; 3136,646;    1,455;   -1,136
985,550; 2923,192;    0,182;   -0,318
986,100; 2980,556;   -0,455;   -0,318
986,651; 3000,737;   -0,818;    0,045
987,201; 2964,828;   -1,000;   -0,591
987,751; 3035,646;    0,818;    2,864
988,302; 3027,010;    2,636;    1,500
988,852; 3061,283;    0,455;   -1,136
989,402; 3087,192;    0,091;    0,682
989,952; 3015,828;   -2,182;    0,864
990,502; 3124,646;   -0,091;    0,682
991,052; 3078,283;   -0,727;    0,045
991,602; 2938,283;   -2,909;    1,318
992,152; 2953,465;    0,455;    0,682
992,702; 2933,556;    1,364;   -0,045
993,252; 2847,828;   -3,000;   -0,500
993,802; 2935,374;   -0,273;    1,318
994,352; 3185,646;   -1,545;    1,136
994,901; 3290,646;   -0,182;    3,227
995,451; 3196,828;   -0,182;    0,318
996,000; 3263,465;    1,636;    0,318
996,550; 2990,646;    2,273;    0,227
997,100; 2991,737;    1,273;   -0,045
997,649; 3276,192;    2,182;    0,955
998,198; 2925,828;    1,727;   -1,500
998,748; 3092,556;    1,091;   -2,318
999,297; 3022,919;   -0,818;   -0,409
999,846; 3066,646;    1,000;   -0,773
1000,395; 3133,828;   -0,818;    0,500
1000,945; 3066,556;    1,818;   -0,773
1001,494; 3152,828;    2,364;    0,682
1002,043; 3147,646;    4,636;    0,864
1002,592; 2994,828;   -1,091;    1,955
1003,141; 3125,556;   -0,455;   -0,682
1003,690; 2975,101;    1,727;    0,500
1004,238; 3071,828;    1,455;   -0,045
1004,787; 2728,919;    1,364;    1,227
1005,336; 2950,010;    0,364;    0,682
1005,885; 3090,283;    1,364;   -2,773
1006,433; 3243,646;    0,545;    0,955
1006,982; 3277,283;    0,455;    1,682
1007,531; 3210,828;   -1,818;   -0,227
1008,079; 3161,465;   -2,273;    0,500
1008,627; 3300,919;   -1,455;    0,409
1009,176; 3042,646;    0,000;   -1,955
1009,724; 3091,737;    1,091;    0,864
1010,273; 3119,828;    1,273;    0,500
1010,821; 3263,283;    0,091;    1,409
1011,369; 2994,737;   -1,364;    1,318
1011,917; 2958,283;   -1,364;   -0,591
1012,465; 3241,465;    1,273;   -1,591
1013,013; 3367,737;    2,091;   -1,682
1013,561; 3243,737;    0,455;   -0,773
1014,109; 3285,465;   -1,909;    1,682
1014,657; 3154,828;    0,364;    0,591
1015,205; 3308,283;    1,636;   -0,955
1015,753; 3329,465;   -0,545;   -1,409
1016,301; 3375,010;   -2,636;    3,045
1016,848; 3384,919;   -1,273;    0,409
1017,396; 3407,919;    2,545;    0,045
1017,944; 3541,101;    1,182;    1,864
1018,491; 3316,192;    0,273;    1,409
1019,039; 3430,283;    0,455;    0,591
1019,586; 3364,646;   -1,364;    1,682
1020,134; 3468,192;    0,455;    1,500
1020,681; 3483,646;    0,182;   -1,136
1021,228; 3519,101;    2,909;   -2,227
1021,776; 3346,919;    1,182;   -1,136
1022,323; 3550,556;    0,455;    0,773
1022,870; 3483,374;   -1,000;   -0,045
1023,417; 3380,646;    2,636;    1,864
1023,964; 3537,283;    2,636;    1,227
1024,511; 3382,010;    1,000;    0,773
1025,058; 3145,465;    3,182;   -0,045
1025,605; 3227,828;   -2,273;    3,136
1026,152; 3429,919;    1,727;   -0,591
1026,699; 3183,828;    1,818;    1,318
1027,245; 3327,556;   -0,091;    0,318
1027,792; 3561,283;   -1,000;    1,409
1028,339; 3432,737;    2,364;   -0,045
1028,885; 3278,192;    1,000;   -0,227
1029,432; 3243,283;   -0,091;    0,227
1029,978; 3278,192;   -1,000;   -1,591
1030,525; 3189,646;    1,000;    0,409
1031,071; 3452,101;   -1,364;    1,136
1031,618; 3538,374;    0,364;    1,682
1032,164; 3324,919;   -0,091;    3,045
1032,710; 3365,465;    1,636;   -1,500
1033,256; 3288,828;   -0,636;   -0,136
1033,803; 3290,556;   -0,545;    1,500
1034,349; 3011,828;   -1,364;    0,136
1034,895; 3174,465;    0,000;   -0,318
1035,441; 3151,919;   -0,818;    0,318
1035,987; 3134,192;   -2,364;   -0,682
1036,533; 3127,374;   -1,455;   -0,955
1037,078; 3321,283;    1,455;    1,682
1037,624; 3155,737;    2,455;   -0,955
1038,170; 3187,556;    0,455;   -0,318
1038,716; 3070,192;    1,636;   -0,409
1039,261; 2993,646;   -2,273;   -0,773
1039,807; 2937,828;   -0,091;    3,409
1040,352; 3004,283;   -1,909;   -0,318
1040,898; 3064,374;   -1,545;   -0,682
1041,443; 2967,101;   -1,455;   -2,591
1041,989; 2951,737;    1,091;    1,591
1042,534; 2861,010;   -0,364;    2,591
1043,079; 2996,737;    2,909;    0,955
1043,625; 2764,919;    1,818;    0,500
1044,170; 2804,646;   -1,364;    1,045
1044,715; 3060,192;    2,455;    0,955
1045,260; 2868,737;    2,182;   -0,955
1045,805; 2927,465;    1,182;   -0,591
1046,350; 2872,465;    1,364;   -0,409
1046,895; 2811,828;    2,909;    1,591
1047,440; 2740,192;    5,364;    0,409
1047,985; 2660,828;    2,818;   -0,955
1048,530; 2557,283;    1,545;    1,227
1049,074; 2638,919;    0,000;    0,318
1049,619; 2610,374;   -1,364;    1,955
1050,164; 2416,101;    0,455;    0,227
1050,708; 2469,828;   -0,455;    0,045
1051,253; 2819,101;    1,273;   -2,227
1051,797; 2534,283;    0,818;   -1,318
1052,342; 2546,465;   -1,182;    1,045
1052,886; 2543,374;    0,364;   -1,409
1053,430; 2449,101;   -1,364;    0,136
1053,975; 2452,465;   -0,818;   -0,318
1054,519; 2433,919;   -0,727;    3,227
1055,063; 2415,010;    0,909;    1,318
1055,607; 2309,010;   -0,182;    0,227
1056,151; 2329,646;    2,909;    1,682
1056,695; 2258,828;    2,273;   -1,136
1057,239; 2328,192;   -1,727;   -0,682
1057,783; 2338,556;    0,818;   -1,500
1058,327; 2258,010;    0,000;    1,409
1058,871; 2488,101;   -0,545;    1,318
1059,415; 2194,919;   -0,818;   -0,045
1059,958; 2439,737;    1,455;    2,591
1060,502; 2158,101;   -1,000;   -0,773
1061,046; 2088,919;    0,364;   -0,955
1061,589; 2089,010;   -3,000;   -1,136
1062,133; 1952,465;   -1,273;    1,864
1062,676; 1885,646;    1,182;    0,864
1063,220; 1886,556;    1,091;    0,500
1063,763; 1900,919;    0,909;    1,136
1064,306; 1986,737;   -0,909;    1,864
1064,849; 1847,283;   -0,909;    0,591
1065,393; 1867,101;    2,000;   -1,500
1065,936; 1982,101;    0,182;   -0,409
1066,479; 1864,465;   -1,455;    1,318
1067,022; 1883,465;   -0,273;   -0,227
1067,565; 1782,374;   -0,091;   -1,318
1068,108; 1827,192;    0,727;   -0,591
1068,651; 1804,101;   -0,636;    1,409
1069,194; 1731,556;   -0,455;   -1,682
1069,736; 1717,374;   -1,273;    0,955
1070,279; 1704,919;   -1,364;   -0,500
1070,822; 1751,465;   -2,000;   -0,318
1071,364; 1818,374;   -0,364;    1,318
1071,907; 1647,737;   -0,727;    3,227
1072,450; 1554,828;    0,000;   -0,045
1072,992; 1552,919;   -0,273;    3,136
1073,535; 1680,101;    2,091;    2,136
1074,077; 1482,646;   -0,727;    2,045
1074,619; 1437,737;   -1,364;    0,591
1075,161; 1481,646;   -1,091;    1,500
1075,704; 1654,010;    1,545;    1,227
1076,246; 1465,737;   -0,182;    0,682
1076,788; 1387,101;   -0,364;    1,773
1077,330; 1470,556;    1,273;    2,136
1077,872; 1413,737;    0,909;    0,955
1078,414; 1628,192;    2,727;    0,773
1078,956; 1369,192;    1,273;   -0,227
1079,498; 1638,737;    1,636;    0,318
1080,040; 1346,010;    1,909;   -1,318
1080,581; 1293,737;    1,636;   -0,318
1081,123; 1214,646;    0,091;   -0,773
1081,665; 1263,374;   -1,182;   -0,955
1082,206; 1540,737;    1,364;   -0,500
1082,748; 1411,556;    0,727;    2,045
1083,289; 1289,737;   -2,000;    1,318
1083,831; 1199,374;   -0,545;    0,227
1084,372; 1222,828;    0,000;    0,591
1084,913; 1223,283;    1,091;    0,864
1085,455; 1210,737;   -1,909;   -2,045
1085,996; 1159,828;   -2,273;    0,136
1086,537; 1173,010;   -0,091;    0,864
1087,078; 1208,828;   -0,909;   -2,136
1087,619; 1258,283;   -1,273;    0,227
1088,160; 1180,010;    0,000;    1,318
1088,701; 1162,465;   -1,091;    0,682
1089,242; 1100,556;    1,364;   -2,227
1089,783; 1186,919;   -0,273;    1,409
1090,324; 1150,374;    0,455;    0,682
1090,865; 1042,192;    2,727;   -0,409
1091,405; 1010,101;    0,727;    2,227
1091,946; 1034,737;    0,182;   -0,955
1092,487;  960,919;    0,818;   -1,409
1093,027; 1126,556;   -1,364;   -1,500
1093,568;  984,192;   -0,364;    1,227
1094,108; 1076,192;    0,273;    1,773
1094,649; 1016,010;   -1,182;    0,136
1095,189;  956,465;   -0,636;   -0,682
1095,729;  903,828;   -0,091;    0,955
1096,269;  900,919;    0,727;   -0,955
1096,810; 1207,283;   -1,364;    0,500
1097,350; 1041,010;    1,364;   -0,773
1097,890;  940,010;    0,364;    1,227
1098,430; 1196,828;    2,364;    2,864
1098,970; 1062,737;    2,182;    1,682
1099,510;  936,646;    0,545;   -2,318
1100,050;  854,646;    1,000;   -1,591
1100,589;  822,465;   -0,727;   -0,318
1101,129;  953,556;    0,818;   -0,955
1101,669; 1092,919;    1,727;    2,136
1102,209;  918,919;   -0,091;    2,227
1102,748;  871,556;    0,000;    0,955
1103,288;  857,828;    1,273;   -1,227
1103,827;  876,283;    3,091;   -2,227
1104,367;  764,101;   -0,091;   -2,409
1104,906;  726,646;    1,364;   -1,136
1105,445;  799,374;    0,636;   -1,136
1105,985;  746,010;   -0,727;    1,500
1106,524;  800,919;   -1,727;   -0,682
1107,063;  768,465;   -2,727;    1,409
1107,602;  747,374;   -1,909;   -1,500
1108,141;  660,919;   -1,909;    1,500
1108,680;  757,283;   -3,455;   -0,591
1109,219;  692,919;   -0,909;   -0,500
1109,758;  701,646;    0,455;    0,682
1110,297;  674,374;    1,000;   -0,682
1110,836;  614,101;   -0,727;    0,955
1111,375;  782,010;   -2,545;    0,409
1111,913;  797,465;   -1,000;    0,773
1112,452;  730,374;   -0,273;    0,136
1112,991;  610,828;    1,091;    1,955
1113,529;  571,919;   -0,818;   -0,045
1114,068;  651,646;   -0,273;    2,955
1114,606;  541,283;   -0,364;   -0,955
1115,144;  703,465;   -1,273;    1,045
1115,683;  635,101;   -0,727;    0,318
1116,221;  680,010;   -0,455;   -0,864
1116,759;  595,919;    0,636;   -0,864
1117,297;  796,556;    0,000;    1,864
1117,836;  604,101;   -2,182;   -1,227
1118,374;  607,374;    0,182;   -0,682
1118,912;  548,646;    0,909;    2,682
1119,450;  534,283;    1,000;    0,864
1119,988;  588,101;    1,545;    2,136
1120,525; 1037,101;    5,091;    3,318
1121,063;  738,556;    1,182;    1,864
1121,601;  549,556;   -0,909;   -1,227
1122,139;  505,737;   -0,727;   -2,045
1122,676;  695,737;   -0,727;    2,773
1123,214;  627,101;   -1,182;    4,409
1123,751;  442,646;    1,727;    2,227
1124,289;  577,010;   -0,091;   -0,409
1124,826;  442,465;    1,727;    0,227
1125,364;  364,646;    1,727;   -0,955
1125,901;  558,101;    1,182;    1,227
1126,438;  661,283;    0,818;    0,955
1126,975;  391,737;   -0,727;   -0,773
1127,513;  464,828;    0,273;    2,136
1128,050;  361,646;    1,636;   -0,682
1128,587;  460,010;    2,000;   -0,227
1129,124;  499,283;    0,091;    1,318
1129,661;  373,374;    0,273;    0,227
1130,198;  540,374;    1,636;    0,773
1130,734;  482,101;    0,182;    1,409
1131,271;  340,010;   -0,909;    0,864
1131,808;  512,283;    2,909;    3,045
1132,345;  392,646;    1,545;    0,318
1132,881;  256,556;   -1,545;   -1,864
1133,418;  401,828;    0,727;   -1,136
1133,954;  333,737;    2,455;   -2,682
1134,491;  415,828;    1,364;   -0,773
1135,027;  313,465;    2,364;    0,864
1135,564;  398,283;    0,273;    2,955
1136,100;  384,828;    0,364;    2,136
1136,636;  274,737;   -1,273;   -1,045
1137,172;  360,465;    0,000;   -1,045
1137,708;  289,101;   -1,364;   -1,045
1138,245;  293,646;    1,273;   -1,227
1138,781;  251,101;    1,091;   -3,318
1139,317;  315,101;    1,273;   -1,409
1139,852;  299,919;    3,091;    0,136
1140,388;  410,737;   -1,182;   -0,409
1140,924;  303,919;   -1,091;   -2,227
1141,460;  229,828;   -1,636;    0,136
1141,996;  168,737;   -1,364;    2,682
1142,531;  224,737;    1,364;    3,318
1143,067;  429,828;    1,182;    1,045
1143,602;  493,919;   -0,091;   -0,318
1144,138;  336,283;   -2,636;    1,045
1144,673;  204,374;   -1,455;    1,409
1145,209;  269,192;   -1,909;   -0,318
1145,744;  195,828;   -0,727;    0,864
1146,279;  321,192;    1,818;   -0,136
1146,815;  231,101;    1,545;   -2,682
1147,350;  278,192;   -1,364;    0,045
1147,885;  190,737;   -0,818;   -1,318
1148,420;  186,192;   -2,273;    0,773
1148,955;  163,737;   -1,727;    1,864
1149,490;  195,192;   -0,909;   -1,591
1150,025;  180,283;    0,455;   -1,773
1150,560;  291,192;    1,091;   -0,955
1151,094;  267,737;    1,455;   -0,591
1151,629;  265,919;    1,636;    0,864
1152,164;  186,737;    1,364;    1,318
1152,698;  153,465;   -0,182;   -0,136
1153,233;  118,556;    0,091;   -0,682
1153,767;  164,465;   -3,000;   -2,318
1154,302;  206,919;   -1,455;    1,773
1154,836;  209,283;   -0,455;   -2,136
1155,371;  267,556;   -1,364;    3,682
1155,905;  204,010;   -0,636;    1,682
1156,439;  176,919;   -0,636;   -0,500
1156,973;  208,374;    0,364;    0,318
1157,507;  144,556;   -0,364;    0,682
1158,042;  173,737;   -0,727;    1,045
1158,576;  217,192;    0,182;    1,773
1159,110;  209,828;   -0,818;    2,409
1159,643;  176,646;    0,636;   -0,045
1160,177;  115,737;   -1,545;    1,500

