
Integration time [ms]:   0,040
Averaging Nr. [scans]: 11
Smoothing Nr. [pixels]: 0
Data measured with spectrometer [name]: 7318044SP
Wave   ;Sample   ;Dark     ;Reference
[nm]   ;[counts] ;[counts] ;[counts] 

186,757;   31,219;   31,551;    1,318
187,357;   68,085;   22,551;    0,955
187,958;   37,441;   15,460;   -1,591
188,558;   80,480;    8,915;   -1,227
189,159;   49,558;    6,733;   -4,500
189,759;   18,883;    7,278;   -3,591
190,360;    8,675;    2,824;   -2,136
190,960;   54,124;    2,915;   -4,136
191,560;   68,005;    3,189;   -6,591
192,161;  306,594;    4,372;   -3,500
192,761;  155,224;    4,010;   -3,227
193,361;  101,957;    1,556;   -3,773
193,962;  161,852;    2,010;   -2,682
194,562;   79,740;    1,189;   -3,955
195,162;  104,890;   -2,448;   -2,227
195,762;  270,196;   -3,176;   -0,045
196,362;  208,452;    1,370;   -2,500
196,963;   80,953;    2,006;   -0,864
197,563;  154,849;    1,551;   -0,955
198,163;  103,189;    0,096;   -0,682
198,763;  125,753;    1,733;   -0,500
199,363;  233,375;    3,096;   -0,500
199,963;  194,392;    0,369;    0,409
200,563;  159,322;    2,823;   -1,409
201,163;  140,090;    3,277;   -0,227
201,763;  233,241;    3,732;    0,318
202,363;  168,810;    1,459;    1,500
202,963;  281,974;    1,459;    1,045
203,563;  392,392;    0,277;    0,500
204,162;  239,599;    2,096;   -1,864
204,762;  219,774;    0,550;    0,591
205,362;  206,727;    3,004;    1,955
205,962;  302,266;    3,096;    1,955
206,562;  297,431;    1,823;    2,318
207,161;  264,537;   -0,087;    0,318
207,761;  425,736;    1,277;    2,409
208,361;  296,430;   -0,268;    1,409
208,960;  407,738;    0,459;    1,500
209,560;  474,520;    1,277;    1,591
210,160;  454,524;    0,550;    1,864
210,759;  424,858;    4,186;    1,227
211,359;  423,976;    1,459;    1,045
211,958;  702,543;    1,277;    2,045
212,558;  780,960;    1,732;    1,864
213,157;  613,131;    1,822;    1,500
213,757; 1070,650;    3,822;   -0,227
214,356;  775,310;    1,277;   -0,409
214,956; 1109,735;    3,095;    0,409
215,555;  736,953;    2,095;    2,136
216,154;  668,440;   -2,723;   -0,591
216,754;  683,428;    0,277;    0,773
217,353;  816,902;   -0,268;   -1,045
217,952;  690,142;   -0,178;    0,318
218,552;  916,148;    1,368;   -0,773
219,151;  813,527;    0,277;    0,955
219,750;  827,437;    0,004;   -0,227
220,349;  957,056;   -0,451;    1,045
220,948; 1009,870;   -1,360;    1,136
221,548; 1048,838;    0,913;    1,227
222,147; 1151,385;   -0,087;   -0,409
222,746; 1430,942;   -0,451;   -0,955
223,345; 1316,973;    0,731;    0,500
223,944; 1337,005;   -0,451;    0,773
224,543; 1521,652;    1,004;   -1,409
225,142; 1626,701;    0,094;    0,136
225,741; 1549,561;   -0,814;    1,045
226,340; 1575,534;   -0,451;   -0,955
226,939; 2025,555;   -0,996;   -0,136
227,538; 2011,484;   -0,360;   -0,773
228,137; 2144,382;   -0,814;    0,864
228,735; 2289,194;   -0,541;    1,227
229,334; 2044,545;   -0,905;   -0,227
229,933; 2402,622;    0,459;    0,591
230,532; 2515,912;    1,186;   -0,409
231,131; 2564,894;    1,732;    0,318
231,729; 2728,409;   -2,450;   -2,318
232,328; 2866,540;   -0,723;   -1,500
232,927; 2967,280;    1,004;   -0,500
233,525; 3093,208;    3,640;    0,045
234,124; 3293,879;    2,368;   -1,591
234,723; 3320,565;    0,913;   -1,045
235,321; 3466,086;    2,277;    0,136
235,920; 3731,143;    1,186;   -1,227
236,518; 3971,755;    3,459;    0,318
237,117; 4178,176;    0,004;   -0,227
237,715; 4356,246;    0,640;   -0,500
238,314; 4377,748;   -0,087;   -2,318
238,912; 4473,781;   -0,723;   -1,409
239,510; 4520,938;    0,459;   -1,227
240,109; 4692,444;    0,004;    3,773
240,707; 4747,534;   -0,996;    1,227
241,305; 5139,609;    0,550;    0,136
241,904; 5351,155;   -0,178;   -2,045
242,502; 5290,537;   -0,632;   -0,227
243,100; 5256,143;   -0,087;   -0,955
243,698; 5502,304;    0,732;    1,682
244,297; 5682,006;   -0,632;    0,682
244,895; 5521,165;   -0,269;   -2,318
245,493; 5837,922;    2,186;   -0,591
246,091; 5902,410;    1,368;   -1,318
246,689; 5892,858;    1,004;    0,591
247,287; 6087,001;    0,822;   -1,136
247,885; 6364,580;   -1,451;    1,227
248,483; 6494,327;    1,822;   -0,500
249,081; 6591,574;    0,185;    1,591
249,679; 6722,582;   -0,178;    1,682
250,277; 7014,082;   -1,723;    0,864
250,875; 7002,785;   -1,087;   -1,045
251,473; 7058,396;   -1,178;    0,500
252,071; 7244,690;    1,459;    1,045
252,669; 7406,459;   -1,814;    0,318
253,267; 7687,215;   -0,087;    0,773
253,864; 7642,456;   -0,360;    0,682
254,462; 7486,198;    1,640;    1,591
255,060; 7478,439;   -0,269;    1,318
255,658; 7826,641;    0,822;   -0,136
256,255; 8206,632;    0,186;   -2,045
256,853; 8077,125;   -0,269;    1,409
257,451; 8103,182;    0,822;    1,864
258,048; 8342,969;    1,822;    1,864
258,646; 8127,464;    1,731;   -1,045
259,243; 8296,034;   -0,087;    2,227
259,841; 8378,706;   -0,814;    0,318
260,438; 8269,644;   -0,087;    0,864
261,036; 9026,590;   -1,905;    1,409
261,633; 8914,563;   -0,087;    2,227
262,231; 8645,382;    2,731;   -0,045
262,828; 8714,728;   -0,905;    1,136
263,425; 8802,320;    0,913;   -0,591
264,023; 9076,258;    0,186;    0,045
264,620; 8621,543;   -0,360;   -0,318
265,217; 8966,920;   -2,087;    3,136
265,815; 9119,653;   -1,905;    2,136
266,412; 8870,569;    0,731;    0,136
267,009; 8900,994;   -1,451;    0,773
267,606; 8788,555;    0,822;   -0,955
268,203; 8792,011;   -0,269;   -0,591
268,801; 9061,122;    1,731;    0,591
269,398; 9407,449;   -0,360;    2,500
269,995; 9375,001;    0,277;    1,591
270,592; 9120,759;   -0,632;   -0,500
271,189; 9339,118;    0,186;    0,409
271,786; 9471,632;   -0,632;    1,227
272,383; 9292,784;   -1,087;    0,227
272,980; 9494,519;    0,277;    0,318
273,577; 9960,412;    0,004;    1,227
274,174; 9532,197;    0,822;    2,591
274,771; 9532,459;   -0,814;   -0,773
275,367; 9658,679;    2,277;    1,409
275,964; 9596,363;    0,731;   -0,500
276,561; 9669,023;    1,549;   -1,045
277,158; 9931,036;    0,095;   -1,773
277,755;10061,756;    2,185;    0,409
278,351; 9463,367;   -0,451;   -1,500
278,948; 9795,808;   -0,815;    0,045
279,545; 9803,675;   -1,360;    2,318
280,141;10419,066;   -1,723;   -2,045
280,738;10299,083;   -0,451;   -0,136
281,334;10548,085;   -1,633;    0,591
281,931; 9923,530;   -0,087;   -1,318
282,528;10028,531;    0,822;   -0,500
283,124;10750,107;   -1,087;   -0,500
283,721;10655,232;   -0,451;    1,409
284,317;10454,964;    0,185;    2,500
284,913;11003,667;   -1,360;    0,591
285,510;11176,212;    0,640;   -0,318
286,106;11178,918;   -2,269;   -0,955
286,703;10804,757;   -0,360;    1,955
287,299;11039,524;   -1,451;   -0,591
287,895;11266,302;    0,822;   -1,045
288,491;11845,994;    0,186;    2,136
289,088;11553,927;   -2,360;    2,409
289,684;11609,187;   -1,723;    1,500
290,280;11587,411;    0,368;    0,682
290,876;11714,322;    1,822;    5,500
291,472;11617,341;    1,276;    2,227
292,068;11704,930;    1,367;    0,227
292,665;11419,706;    2,095;    0,773
293,261;11025,857;    0,276;    2,136
293,857;11391,581;    2,913;    2,136
294,453;11371,707;    3,550;    0,955
295,049;11259,886;   -0,268;    1,955
295,644;11265,300;    0,095;    0,136
296,240;11167,526;   -0,905;   -0,136
296,836;11179,299;   -0,995;    0,318
297,432;11506,674;    1,096;   -0,500
298,028;11512,557;    0,732;    0,773
298,624;11938,499;    1,459;    1,864
299,220;12194,956;    2,368;    0,591
299,815;11879,004;    1,005;   -0,409
300,411;11660,522;    0,914;    1,773
301,007;11671,993;    1,368;    0,227
301,602;11741,551;   -0,541;   -2,318
302,198;11901,113;    0,732;   -0,773
302,794;12237,906;    1,187;   -0,500
303,389;12368,379;   -1,177;    1,045
303,985;12462,365;    0,550;    1,409
304,580;12402,717;    1,459;    1,591
305,176;12403,854;   -3,086;    0,136
305,771;12329,123;   -1,268;   -1,227
306,367;12129,225;    4,095;    0,136
306,962;12525,915;    0,641;    1,500
307,558;12278,123;   -0,450;    0,136
308,153;12164,678;    1,095;   -1,136
308,748;12418,790;   -0,814;    1,682
309,344;12351,258;   -0,632;   -1,318
309,939;12402,416;   -1,905;   -1,318
310,534;12744,473;   -0,086;   -1,682
311,130;12678,588;    0,459;   -2,500
311,725;12421,002;    1,004;   -0,500
312,320;12728,622;    2,459;    0,045
312,915;12594,752;    1,459;   -1,045
313,510;12661,222;    1,550;   -0,500
314,105;13170,200;    1,096;    1,409
314,700;12585,613;   -3,086;   -1,045
315,295;12211,445;   -0,904;    0,045
315,890;11769,084;    1,277;    0,864
316,485;12150,196;   -0,359;   -0,318
317,080;12287,564;   -3,086;    1,591
317,675;12832,265;    2,005;   -0,682
318,270;12186,871;    5,550;    3,318
318,865;12205,138;    3,278;    3,045
319,460;12070,883;   -0,904;    0,591
320,055;12343,868;   -0,541;   -1,227
320,650;11995,350;   -1,995;   -0,591
321,244;12046,081;   -0,177;   -1,409
321,839;13006,995;   -1,541;   -0,227
322,434;12843,622;   -1,086;   -1,591
323,029;12467,753;    1,732;    1,591
323,623;12330,154;    1,550;    0,773
324,218;12051,528;    2,368;    1,409
324,812;11922,821;    1,096;    1,591
325,407;11765,519;   -0,814;    2,045
326,002;11649,135;    0,277;   -0,409
326,596;11964,776;    0,914;    1,318
327,191;12192,286;    0,823;   -1,045
327,785;11739,503;   -0,813;   -0,227
328,379;11955,773;    1,368;    0,136
328,974;11796,896;    0,914;   -3,955
329,568;11993,405;    0,186;   -2,409
330,163;11827,252;    2,096;    1,045
330,757;12211,000;    2,459;    1,591
331,351;11520,510;    0,459;    0,682
331,945;11804,536;    0,914;    1,409
332,540;11402,062;   -1,723;   -0,591
333,134;11512,162;   -1,086;    0,773
333,728;11751,120;    0,005;    0,318
334,322;12113,430;   -1,177;   -0,864
334,916;11421,470;    0,277;    0,955
335,510;11716,712;   -0,450;   -0,136
336,105;11986,377;   -1,086;    1,591
336,699;11675,717;   -1,086;    0,591
337,293;11622,244;   -1,723;    0,318
337,887;11780,836;   -2,723;    1,955
338,481;11900,270;    0,459;    0,591
339,074;12053,737;   -0,359;    2,682
339,668;11881,310;   -1,632;    1,227
340,262;12137,201;    1,732;    3,227
340,856;11654,773;    1,822;   -0,682
341,450;11006,887;    1,004;    1,864
342,044;11886,426;    1,459;    0,136
342,637;11662,081;    0,913;   -2,136
343,231;11517,247;   -2,360;    0,682
343,825;11524,801;   -1,086;   -0,591
344,419;11474,118;   -1,995;    0,500
345,012;11221,731;    2,459;    4,045
345,606;11217,480;    4,641;    1,591
346,199;11068,250;   -1,813;   -0,227
346,793;10596,550;    1,914;    2,045
347,386;10806,964;   -0,813;   -1,136
347,980;10806,872;   -0,268;   -0,045
348,573;10583,832;    2,278;    0,409
349,167;10241,052;    5,278;    4,773
349,760;10610,460;    2,914;    2,682
350,354;10614,384;   -0,813;    1,136
350,947;10340,637;    1,096;    1,682
351,540; 9986,111;   -0,358;   -1,409
352,134; 9949,583;    1,096;    1,136
352,727;10012,932;   -0,086;    1,136
353,320; 9818,192;    0,005;    0,591
353,913; 9701,262;   -1,995;    1,864
354,507; 9837,111;    0,823;   -1,227
355,100; 9848,437;    0,460;    0,864
355,693; 9083,299;    2,005;    2,409
356,286; 9125,395;    0,823;    2,773
356,879; 9481,200;   -0,722;    1,227
357,472; 9093,523;   -0,904;    1,500
358,065; 9286,301;   -0,722;    2,500
358,658; 9203,648;   -0,540;    2,318
359,251; 8865,297;   -1,631;   -0,591
359,844; 8326,828;   -1,904;   -1,136
360,437; 8509,145;   -2,995;    0,045
361,030; 8811,810;    1,369;   -0,682
361,623; 8368,493;    2,824;    0,318
362,215; 8407,951;   -0,086;    2,045
362,808; 8257,988;   -2,358;   -1,682
363,401; 8458,048;   -2,449;    0,136
363,994; 8177,960;   -0,631;   -1,500
364,586; 8091,904;    0,824;   -1,500
365,179; 8301,007;   -0,449;   -1,136
365,772; 7776,031;   -1,995;    2,045
366,364; 8099,374;    1,915;   -3,227
366,957; 8298,907;    2,279;   -0,045
367,549; 8294,774;    2,188;   -0,864
368,142; 7974,165;    1,825;   -1,500
368,734; 8172,343;    0,734;   -2,136
369,327; 8122,953;    1,643;   -0,500
369,919; 8028,443;   -1,538;    0,409
370,512; 7824,633;   -1,083;   -0,500
371,104; 7582,615;   -0,901;    1,591
371,696; 7725,107;    1,191;   -0,955
372,289; 7821,321;    0,373;    1,136
372,881; 7988,681;   -2,080;    1,318
373,473; 7901,015;   -2,170;    1,136
374,066; 7706,938;   -0,169;    0,500
374,658; 7572,346;    0,378;    1,136
375,250; 7945,549;    0,653;   -1,409
375,842; 7783,209;    0,473;   -0,045
376,434; 7649,341;   -0,435;   -0,409
377,026; 8229,786;    0,204;   -2,500
377,618; 8106,605;   -0,158;   -0,682
378,210; 7964,694;   -0,338;   -1,955
378,802; 7834,314;    0,754;   -0,591
379,394; 7753,354;    1,846;    0,682
379,986; 8372,170;    1,393;   -0,955
380,578; 8485,147;   -0,153;    0,773
381,170; 7796,779;   -0,972;    0,045
381,762; 7769,940;    0,755;    1,409
382,354; 7976,430;   -0,065;   -1,318
382,945; 8105,334;   -2,976;    0,318
383,537; 8246,238;   -2,705;   -1,955
384,129; 8232,513;   -2,160;   -1,136
384,721; 8430,197;   -0,252;    0,955
385,312; 8401,925;   -0,161;   -0,955
385,904; 8462,162;   -2,706;    1,591
386,496; 7824,588;   -0,979;    1,045
387,087; 7948,574;    1,022;    2,500
387,679; 8008,577;   -1,160;    0,045
388,270; 8139,889;    2,840;    2,045
388,862; 8269,838;    1,295;   -0,318
389,453; 8180,867;   -0,887;    1,045
390,045; 8411,744;   -0,705;   -2,682
390,636; 8342,908;    0,204;   -0,591
391,227; 8216,846;   -0,523;   -0,045
391,819; 8327,224;    0,204;    0,773
392,410; 8378,704;    1,022;    0,045
393,001; 8308,993;   -0,979;   -1,591
393,593; 8600,028;    1,930;   -0,045
394,184; 8472,097;    1,385;   -0,409
394,775; 8384,408;    1,839;    2,136
395,366; 8565,062;    1,385;    0,773
395,957; 8595,112;    0,113;    0,136
396,548; 8899,546;   -0,342;    2,682
397,139; 9229,934;   -2,433;    0,591
397,730; 8946,108;   -1,888;    0,955
398,321; 9000,075;   -1,252;    0,955
398,912; 9048,157;   -0,615;    0,136
399,503; 9124,722;   -3,524;   -1,409
400,094; 8561,217;    0,294;    1,682
400,685; 8402,446;   -0,433;    0,045
401,276; 8483,487;    0,930;   -0,955
401,867; 8831,060;   -0,888;    0,773
402,458; 8922,897;   -2,251;   -2,318
403,048; 8918,830;    1,112;    0,591
403,639; 8499,911;    0,840;    0,864
404,230; 8718,148;    2,476;    0,318
404,821; 8662,995;   -0,615;    0,045
405,411; 8796,229;    1,203;   -2,591
406,002; 8362,511;   -1,252;   -1,136
406,592; 8225,575;    2,294;    0,045
407,183; 8546,811;    0,566;   -1,500
407,774; 8462,244;    3,475;   -0,136
408,364; 8800,702;    0,930;    0,409
408,954; 8403,192;    0,384;    1,227
409,545; 8462,900;    1,021;    1,045
410,135; 7997,437;    1,293;    0,500
410,726; 8149,324;    1,838;    0,318
411,316; 8538,069;    0,111;    0,773
411,906; 8256,420;   -0,253;   -0,409
412,497; 7683,405;   -1,070;   -0,045
413,087; 8310,391;   -1,980;   -0,227
413,677; 8681,720;   -0,707;    3,864
414,267; 8532,300;    0,656;    1,409
414,857; 8539,155;   -2,980;    4,227
415,448; 8829,545;    0,839;    0,500
416,038; 8514,790;    0,020;   -0,591
416,628; 8485,702;   -0,889;    0,409
417,218; 7911,483;    0,565;    3,318
417,808; 8184,157;    0,202;   -0,409
418,398; 8697,286;    0,020;    2,682
418,988; 8698,739;    2,020;    0,591
419,578; 8987,180;   -0,707;    1,409
420,168; 9319,159;   -1,343;   -0,955
420,757; 8874,850;   -1,343;   -1,500
421,347; 8584,148;    0,111;   -0,227
421,937; 8759,162;    2,292;    1,409
422,527; 8663,152;    0,838;   -0,773
423,116; 8533,312;   -0,253;   -0,045
423,706; 8901,179;   -1,889;    0,318
424,296; 8841,166;    1,384;    0,682
424,885; 9275,621;   -0,071;   -3,045
425,475; 9561,714;    1,474;   -2,864
426,065; 9487,915;   -0,980;   -0,318
426,654; 9102,234;   -0,435;   -0,318
427,244; 9211,498;    0,020;    1,409
427,833; 8635,182;    1,383;   -0,500
428,423; 9148,133;   -0,526;    1,136
429,012; 9919,755;   -0,344;   -1,136
429,601; 9410,329;   -1,344;    0,136
430,191; 9652,746;    1,292;    4,318
430,780; 9283,023;   -0,344;   -0,409
431,369; 9192,789;    0,746;   -0,045
431,959; 9865,489;   -1,254;    0,500
432,548; 9630,449;   -1,163;   -0,045
433,137; 9783,160;   -1,254;   -1,318
433,726;10304,377;    0,292;    0,500
434,315; 9645,309;   -0,526;    2,409
434,905; 9744,316;   -1,254;    1,409
435,494; 9674,497;    0,746;    0,955
436,083;10154,648;   -0,981;   -0,955
436,672;10040,449;    0,110;    0,500
437,261; 9575,189;    0,292;   -1,955
437,850; 9661,913;    1,383;    0,682
438,439; 9638,837;    3,291;    1,955
439,027; 9470,614;    3,655;    1,773
439,616; 9848,952;    2,927;    1,227
440,205; 9732,438;    0,200;   -2,136
440,794; 9803,346;    2,109;   -0,045
441,383;10079,469;   -1,346;   -0,591
441,971; 9950,171;   -2,436;    0,591
442,560; 9815,352;    0,563;   -1,773
443,149; 9570,674;    0,379;   -1,318
443,737; 9714,945;   -0,074;   -2,318
444,326; 9987,280;    0,018;    0,318
444,915;10024,281;   -1,982;    0,864
445,503;10428,031;   -2,891;   -0,318
446,092; 9670,353;    0,382;    2,136
446,680;10230,355;    0,382;    0,318
447,269;10423,106;   -0,346;   -0,318
447,857;10208,321;    0,018;   -1,773
448,445;10333,760;    0,563;    1,318
449,034;10557,846;   -1,528;   -1,136
449,622;10685,216;   -1,073;    3,500
450,210; 9857,664;    2,017;    2,227
450,799;10412,071;    0,290;   -0,591
451,387;10384,971;    1,381;   -0,591
451,975;10011,903;    2,654;    0,864
452,563;10108,668;    3,472;    2,318
453,151;10175,120;   -0,528;   -1,227
453,739;10078,069;   -1,347;    0,136
454,328; 9926,047;    2,381;   -2,136
454,916; 9620,814;    2,562;   -0,136
455,504; 9819,118;    1,017;    1,227
456,092;10030,251;    0,017;   -1,591
456,679;10027,874;    1,472;    0,682
457,267; 9896,634;    4,017;    1,045
457,855;10072,221;    1,017;    1,409
458,443; 9863,643;   -0,165;    1,682
459,031;10004,277;    0,108;    2,409
459,619;10454,619;   -1,801;    2,864
460,206;10617,252;    0,835;    2,045
460,794;10683,735;   -2,983;   -0,227
461,382;10929,226;   -0,529;   -0,864
461,970;10480,524;    1,198;    1,864
462,557;10527,454;   -0,711;   -0,682
463,145;10739,989;   -3,165;   -1,682
463,732;10894,187;    2,016;   -1,045
464,320;10813,368;   -0,075;   -3,045
464,907;10503,917;    2,743;   -0,773
465,495;10380,545;    0,743;   -1,227
466,082;10533,655;   -1,984;   -0,045
466,670;10487,770;   -2,529;    1,227
467,257;10889,741;   -1,711;    2,045
467,844;11028,375;   -0,075;    0,045
468,432;11029,341;    0,834;    3,500
469,019;10567,118;    0,925;   -1,773
469,606;11035,805;    0,470;    3,682
470,193;10842,632;   -1,439;    0,227
470,780;10379,875;   -2,075;    0,864
471,368;10781,018;   -1,257;   -0,773
471,955;10525,963;    1,379;   -0,682
472,542;10163,338;    0,652;   -1,136
473,129;10414,695;   -0,166;    0,136
473,716;10138,983;    1,470;    0,591
474,303;10394,813;    0,652;   -0,864
474,890;10668,773;   -1,439;   -0,500
475,477;10669,912;   -1,621;    0,409
476,064;10580,636;    1,106;   -1,591
476,650;10508,021;    0,288;    0,318
477,237;10331,567;   -0,258;    0,955
477,824;10497,818;   -1,076;    0,864
478,411;10549,611;   -1,894;   -0,318
478,997;10762,026;    0,560;   -0,773
479,584;10840,179;    1,196;   -0,409
480,171;11563,742;   -0,440;   -0,773
480,757;11198,123;    2,651;    0,773
481,344;11517,540;    0,469;    0,409
481,931;11018,554;    1,105;    1,045
482,517;12013,071;   -1,258;    0,318
483,104;12606,511;    1,106;    2,864
483,690;12944,802;   -1,804;    0,045
484,276;13306,425;   -0,895;    0,227
484,863;13028,799;    2,469;    1,136
485,449;13693,355;   -0,077;    0,318
486,035;13702,684;   -1,986;   -0,136
486,622;14142,645;   -0,895;    0,045
487,208;14087,427;    1,378;    1,500
487,794;13913,031;    0,741;    0,318
488,380;14044,899;    0,105;   -1,409
488,967;14136,413;   -1,168;   -0,409
489,553;14189,710;   -1,895;   -1,409
490,139;14363,326;    1,559;    0,773
490,725;13758,266;    0,741;   -0,227
491,311;13345,476;    3,287;    3,045
491,897;12675,222;   -0,986;    1,500
492,483;12479,485;    0,105;    1,227
493,069;12175,214;    3,923;    0,864
493,655;12152,637;    1,650;    0,682
494,241;12074,755;    1,377;   -0,955
494,826;12466,613;    0,287;   -1,045
495,412;11934,373;    2,559;   -0,682
495,998;12110,415;   -0,805;   -0,318
496,584;12257,549;    0,377;    1,045
497,169;12246,676;    1,014;   -0,682
497,755;12202,957;    0,650;    1,227
498,341;12745,579;    0,559;    0,318
498,926;12281,736;    1,832;    1,955
499,512;12512,803;    1,286;    2,955
500,097;12678,592;    0,195;   -0,318
500,683;12616,700;   -0,350;    2,136
501,268;12961,199;   -0,169;   -0,955
501,854;12672,786;   -0,169;    1,227
502,439;12589,414;   -0,624;   -1,773
503,024;12781,349;    0,195;    0,500
503,610;12913,908;   -0,078;   -0,682
504,195;12926,463;    0,558;    1,955
504,780;13043,224;    2,922;    1,227
505,366;12837,187;    3,013;    2,864
505,951;12561,991;    0,740;    1,045
506,536;12589,623;   -3,260;   -3,682
507,121;12597,672;    0,285;   -0,318
507,706;13116,690;    2,376;    1,045
508,291;13524,634;    2,649;    1,136
508,876;12996,824;   -0,988;    2,591
509,461;12429,967;   -0,169;   -0,773
510,046;12840,884;    0,194;    0,318
510,631;13095,688;   -0,351;   -0,773
511,216;12787,469;    2,467;   -0,500
511,801;13162,972;   -0,442;    2,591
512,386;13444,614;    0,740;    0,500
512,971;13385,969;   -2,988;    0,955
513,555;12917,910;   -0,897;   -1,500
514,140;13736,986;   -0,442;   -3,136
514,725;13736,060;   -0,715;   -1,136
515,309;13857,296;   -0,533;    0,318
515,894;13321,167;   -0,624;   -2,227
516,479;13776,228;   -0,624;   -0,955
517,063;13622,991;    0,376;    1,227
517,648;13749,470;    1,012;   -1,136
518,232;13379,715;   -0,261;   -1,409
518,817;13718,149;   -0,079;    1,682
519,401;13875,716;    2,194;    0,591
519,985;13411,394;    1,103;    1,136
520,570;13323,901;    0,830;   -1,955
521,154;13632,683;    2,102;    0,591
521,738;13763,038;   -2,352;    2,409
522,323;14338,464;   -0,170;    1,682
522,907;14111,260;    0,466;   -0,136
523,491;13824,551;    0,557;    0,955
524,075;13803,804;    2,284;    0,591
524,659;13838,276;    1,466;    0,591
525,243;13316,152;    1,739;    0,409
525,827;13599,596;    0,648;   -0,045
526,411;14465,185;   -1,989;   -0,136
526,995;14640,942;   -0,352;    1,409
527,579;14236,989;   -0,443;   -1,045
528,163;14591,848;    0,375;   -1,500
528,747;14497,362;    2,466;   -0,773
529,331;14814,182;   -0,080;   -1,409
529,915;15048,256;    1,738;    0,955
530,499;14968,315;   -0,807;    1,227
531,082;14637,795;   -0,534;    1,591
531,666;14093,587;    1,374;    0,773
532,250;14811,251;    1,284;    2,682
532,833;15143,614;    0,920;    2,773
533,417;15009,477;   -1,807;    0,864
534,001;14965,445;    1,647;   -0,318
534,584;15652,153;    0,374;    0,500
535,168;15503,322;    0,465;    1,409
535,751;15569,807;    0,647;    0,045
536,334;15026,772;   -0,898;   -0,409
536,918;15629,149;    0,011;    1,591
537,501;15765,508;   -0,899;    1,318
538,085;15747,370;   -0,444;    1,045
538,668;15914,986;    0,829;    2,409
539,251;16214,966;    1,829;    3,773
539,834;16253,578;    0,101;    0,773
540,418;16141,965;   -1,990;    4,318
541,001;16277,156;   -0,990;    1,773
541,584;16285,960;    2,101;    2,227
542,167;15991,841;    1,374;    2,955
542,750;16140,020;    1,919;   -0,773
543,333;15692,828;    0,555;    2,136
543,916;16517,724;    0,192;    2,500
544,499;17141,663;   -1,354;    0,227
545,082;17124,376;    1,374;    3,591
545,665;17270,086;    1,919;    1,500
546,248;17644,191;    1,010;   -0,318
546,830;17299,583;   -0,445;    1,955
547,413;17725,602;    1,010;   -0,773
547,996;18288,650;    0,555;    0,500
548,579;18050,631;    0,919;    0,955
549,161;17841,890;    1,828;    2,682
549,744;17609,145;   -0,809;    0,409
550,326;18100,339;   -0,809;   -1,136
550,909;17877,484;    2,737;    0,591
551,492;18331,848;   -0,263;    0,227
552,074;18101,384;   -0,173;   -1,318
552,657;18622,267;    2,373;    0,045
553,239;18398,025;   -0,173;   -0,773
553,821;18378,265;   -1,082;    1,045
554,404;17887,411;    1,282;    1,136
554,986;18234,758;    0,464;    1,045
555,568;18813,243;    1,191;   -0,955
556,151;18019,859;    1,191;   -0,227
556,733;18245,181;   -0,264;   -0,864
557,315;18695,288;    0,100;    0,500
557,897;18532,140;    0,554;   -0,500
558,479;18665,094;   -1,991;    1,318
559,061;18745,280;   -0,719;   -0,864
559,643;19075,797;   -0,264;    0,045
560,225;19495,956;    1,645;    2,864
560,807;19502,888;    0,918;    0,318
561,389;19006,438;    0,554;    2,318
561,971;19763,855;    0,463;    2,136
562,553;19561,500;   -1,628;    1,591
563,135;19680,514;   -0,537;    1,136
563,717;19286,930;    3,372;    1,136
564,298;20023,388;    3,645;   -0,045
564,880;19750,530;    0,645;   -1,409
565,462;19937,348;    0,645;    1,318
566,043;21105,722;   -0,446;    2,318
566,625;20628,989;    1,918;    1,227
567,207;20457,555;    1,099;    1,682
567,788;21662,858;   -1,264;    1,500
568,370;22485,617;    1,917;   -0,500
568,951;22351,051;    0,190;    0,227
569,533;23173,794;   -0,628;   -0,500
570,114;23631,719;   -0,446;    0,682
570,695;24182,051;   -0,174;   -1,318
571,277;24706,398;   -0,265;   -1,682
571,858;25463,096;    2,008;   -1,136
572,439;26376,529;    1,554;   -1,045
573,021;26609,344;    2,099;   -2,773
573,602;27104,445;   -1,265;    0,318
574,183;28031,402;   -2,083;    2,227
574,764;28142,078;   -1,629;    0,409
575,345;28729,147;    0,917;   -0,136
575,926;29394,992;   -0,356;    0,136
576,507;29374,893;    1,099;   -0,227
577,088;30516,861;    3,099;    1,682
577,669;30550,219;    0,735;    1,955
578,250;31255,584;    0,644;   -1,045
578,831;31946,216;   -1,356;   -2,227
579,412;32190,744;   -0,810;    0,955
579,993;33198,367;    1,008;    0,227
580,573;33528,951;   -0,629;   -0,955
581,154;32570,894;    0,735;   -0,591
581,735;33431,362;    0,644;    0,773
582,315;32857,453;   -0,629;    2,136
582,896;33171,533;   -0,174;    1,227
583,477;32651,227;    0,189;    1,227
584,057;32845,335;    0,553;    0,955
584,638;33109,185;    2,553;    2,318
585,218;33048,595;   -0,538;    2,682
585,799;33243,669;    0,281;   -0,227
586,379;33266,861;    0,372;    1,591
586,959;31998,921;    0,735;    0,318
587,540;31323,101;   -0,629;    2,227
588,120;30891,306;    1,007;   -0,045
588,700;29788,469;    2,553;    2,136
589,281;30058,613;    0,462;   -0,955
589,861;30003,592;    0,099;   -1,682
590,441;29823,444;    2,371;   -2,682
591,021;28813,997;   -0,265;   -2,591
591,601;29098,123;   -0,537;    0,500
592,181;29046,767;   -0,719;   -0,773
592,761;28328,058;    0,007;    1,409
593,341;28203,792;   -0,901;    0,045
593,921;28249,374;   -0,265;    1,591
594,501;28054,681;   -0,538;    1,318
595,081;27900,849;    0,917;   -0,318
595,661;28266,157;   -1,447;    0,955
596,240;28800,610;   -0,537;    0,136
596,820;28409,706;    0,372;    1,955
597,400;28618,262;    2,008;    0,773
597,980;28864,320;    2,008;    1,045
598,559;28898,152;    2,735;   -0,227
599,139;28569,917;   -0,174;   -1,227
599,718;28540,917;   -0,174;   -0,409
600,298;28758,276;    0,735;    0,682
600,877;28949,884;    2,917;    1,409
601,457;29226,071;    2,281;    1,136
602,036;29087,117;    0,190;    2,045
602,616;29333,041;    0,644;    1,682
603,195;29695,065;   -0,355;    3,500
603,774;29230,161;   -0,901;    2,045
604,354;29102,050;    0,826;   -0,500
604,933;28617,741;    0,463;    1,864
605,512;28760,036;    3,554;    0,591
606,091;28794,535;   -0,537;    3,773
606,671;29568,318;    0,281;    0,773
607,250;28670,421;    1,644;    3,136
607,829;28929,097;    2,372;    3,227
608,408;28829,581;    1,190;    2,591
608,987;27751,026;    1,281;    3,409
609,566;28067,072;   -1,265;   -2,500
610,145;28194,473;   -1,082;    0,682
610,723;28571,984;    4,372;    6,864
611,302;27864,516;   -0,446;    1,682
611,881;27375,747;    5,008;   11,227
612,460;28175,551;    1,645;    3,955
613,039;28603,460;   -0,082;    2,045
613,617;27356,336;    1,736;    4,773
614,196;27567,311;    1,099;    1,227
614,775;27883,324;    1,009;    2,409
615,353;27831,769;    0,736;    0,864
615,932;27569,028;    0,100;    2,409
616,510;28160,136;    0,554;    0,591
617,089;27594,742;    7,100;   17,591
617,667;27358,307;    2,372;    6,136
618,246;27267,174;   -1,537;    1,318
618,824;27432,076;   -3,355;   -0,955
619,402;26956,537;   -2,900;   -1,773
619,981;27443,911;   -0,173;   -1,045
620,559;27308,004;    0,009;    1,682
621,137;26882,373;   -0,718;    1,864
621,715;26893,066;   -1,173;   -0,682
622,293;26764,153;   -0,537;   -0,773
622,871;27256,743;   -0,718;    0,500
623,450;26818,419;    0,373;   -0,864
624,028;26690,394;    0,191;   -0,955
624,606;26338,904;   -1,718;    1,682
625,183;26738,240;   -1,536;   -1,136
625,761;26344,779;    1,009;    1,136
626,339;26587,812;    1,373;    2,591
626,917;27008,831;   -0,172;   -0,045
627,495;27062,064;   -0,354;    1,318
628,073;26508,821;   -0,263;    2,864
628,650;26181,574;    0,100;    2,136
629,228;26615,699;    0,373;    4,409
629,806;25999,404;    2,282;    1,136
630,383;26301,812;    1,464;   -0,318
630,961;26079,346;    2,555;   -0,955
631,539;25759,131;    2,464;    0,227
632,116;25080,982;   11,373;   15,409
632,694;25646,552;    2,555;    6,500
633,271;25978,295;    0,828;    2,682
633,848;25928,473;    1,828;    2,045
634,426;26012,928;   -1,081;    1,773
635,003;25158,310;    1,101;   -0,409
635,580;25366,467;    1,192;    3,682
636,158;25980,244;    3,737;    1,227
636,735;25932,237;    0,555;   -0,500
637,312;26150,653;   -0,809;   -0,682
637,889;26231,683;   -4,354;   -0,682
638,466;25707,702;   -3,990;   -0,409
639,043;25713,828;    2,101;   -1,136
639,620;25999,244;   -2,262;   -0,955
640,197;26317,447;    1,100;    1,682
640,774;26448,690;   -0,172;    1,136
641,351;26846,114;    0,737;    1,136
641,928;26274,902;   -0,627;    1,409
642,505;25891,326;    0,828;   -0,500
643,082;26010,114;   -1,718;    1,227
643,658;25076,538;   -0,718;    1,500
644,235;25847,872;    1,191;    2,500
644,812;26090,114;    1,918;    0,773
645,388;25823,721;   -0,991;    1,409
645,965;25917,145;   -0,809;    1,682
646,542;26025,296;   -1,445;   -0,227
647,118;25971,357;    1,009;   -0,955
647,695;26289,600;   -0,263;    1,136
648,271;26209,478;   -0,536;    0,500
648,848;26540,175;    0,736;    2,227
649,424;26395,418;    0,827;    1,318
650,000;26171,660;   -0,354;   -1,045
650,577;25925,721;   -0,627;   -0,955
651,153;26421,782;   -1,809;    0,955
651,729;27428,661;    1,191;    0,864
652,305;27596,812;    0,645;    2,773
652,881;32045,146;   -0,082;    1,136
653,458;39075,025;    1,100;    0,227
654,034;43173,267;    0,282;    1,591
654,610;44839,873;    0,554;    0,773
655,186;46291,843;    0,645;    3,045
655,762;46039,994;   -0,991;    0,409
656,338;46056,873;    0,100;    0,136
656,913;47010,298;   -0,082;    0,409
657,489;46305,086;    0,827;   -0,318
658,065;46261,964;   -0,173;   -1,591
658,641;46900,298;   -0,900;   -0,864
659,217;46259,904;   -0,991;    0,409
659,792;45571,692;    0,645;   -0,409
660,368;45794,389;   -2,173;   -0,682
660,944;45508,813;   -2,082;    1,227
661,519;40987,056;   -0,628;    0,409
662,095;34760,662;   -1,719;    0,591
662,670;29841,632;    1,281;   -0,136
663,246;28499,874;    1,009;   -0,409
663,821;27760,935;    0,281;    1,682
664,396;27185,359;    0,009;    1,864
664,972;27431,238;    0,009;   -0,500
665,547;27804,935;    1,372;    0,136
666,122;27837,359;   -1,082;    0,318
666,698;28078,511;   -0,173;    0,318
667,273;27430,208;   -0,173;    0,136
667,848;28244,632;    2,372;    1,500
668,423;28061,875;    2,190;    2,318
668,998;28627,845;    2,827;   -0,682
669,573;29166,723;   -3,264;   -1,500
670,148;28982,784;   -1,446;   -0,682
670,723;28792,208;   -1,810;    0,318
671,298;29249,269;    2,372;    1,045
671,873;29348,875;   -0,082;   -0,136
672,448;29297,754;    0,645;    0,136
673,023;29672,997;   -1,992;   -0,227
673,597;30008,512;    0,827;    2,318
674,172;29772,209;   -0,355;    0,318
674,747;29230,633;    0,372;   -1,045
675,321;29071,603;   -0,628;    3,318
675,896;28680,664;    0,645;    1,045
676,471;29661,724;    2,645;    1,591
677,045;29404,330;   -1,264;    0,682
677,620;29500,755;    0,190;    1,136
678,194;29827,997;   -2,628;    1,136
678,769;29384,694;   -1,083;   -0,318
679,343;29588,118;   -0,628;    1,773
679,917;29482,725;   -1,446;    1,955
680,492;29591,058;    0,826;    3,227
681,066;29715,028;    3,372;    0,409
681,640;29772,998;    1,463;   -0,318
682,214;30567,785;    0,735;    0,500
682,788;30110,573;   -1,356;   -0,773
683,363;30052,180;   -1,810;    1,682
683,937;29733,149;   -1,719;   -0,318
684,511;30525,665;    0,463;   -0,591
685,085;30231,362;   -1,356;    0,318
685,659;30027,059;   -2,538;    0,864
686,232;30266,119;   -0,356;   -0,318
686,806;29949,271;   -0,901;    0,409
687,380;30607,422;   -0,174;    0,591
687,954;30836,665;   -1,174;    1,136
688,528;30527,362;   -0,719;    1,955
689,101;31289,514;   -3,992;    1,045
689,675;30889,938;   -0,356;   -0,136
690,249;30241,271;   -0,719;    0,409
690,822;30615,423;    0,280;    0,318
691,396;30634,574;   -0,265;    1,227
691,969;30114,090;    1,280;    0,136
692,543;30606,969;   -0,447;   -1,955
693,116;30284,393;   -0,265;   -1,409
693,690;30162,908;    0,099;    0,500
694,263;30700,151;   -1,083;    2,955
694,836;30691,302;    1,371;    3,591
695,410;29376,363;   -0,265;    1,773
695,983;29796,787;    0,189;    0,591
696,556;29737,030;   -0,447;   -1,045
697,129;30169,818;   -0,356;    1,409
697,703;29799,606;   -1,629;    1,955
698,276;29762,939;    1,462;   -0,773
698,849;29546,091;    1,280;    1,409
699,422;29967,151;   -1,083;    0,591
699,995;29647,485;    0,007;    0,136
700,568;30177,727;   -0,629;    3,045
701,140;30215,242;   -2,811;    1,682
701,713;29891,212;   -0,174;    2,409
702,286;29594,091;   -0,538;    0,864
702,859;29555,424;   -0,902;   -0,591
703,432;28709,030;    0,825;    0,682
704,004;29197,000;    0,462;    0,318
704,577;29040,697;   -0,629;    0,136
705,150;29634,031;    0,189;    2,500
705,722;29405,910;   -0,356;   -3,227
706,295;29186,334;   -0,175;   -0,591
706,867;29068,485;   -0,175;    1,955
707,440;29263,364;   -1,720;   -0,409
708,012;29502,698;    0,462;    0,591
708,584;29464,031;    2,462;    0,227
709,157;29762,546;    1,825;   -0,591
709,729;29417,789;    2,280;    2,045
710,301;30323,122;    0,734;    0,045
710,874;30275,819;   -1,447;   -0,227
711,446;29189,062;    0,371;    0,864
712,018;29081,031;    0,098;    0,500
712,590;28775,274;   -1,993;    1,682
713,162;29311,971;    0,825;    1,318
713,734;29556,486;    1,825;   -2,045
714,306;29485,911;   -1,902;   -0,409
714,878;28080,517;    0,825;    0,864
715,450;28956,668;    0,643;    0,864
716,022;29226,093;    1,552;    1,318
716,593;29357,608;    0,189;    0,591
717,165;29257,759;   -3,175;   -1,227
717,737;28981,275;    0,280;    0,409
718,309;28589,335;    0,280;   -0,045
718,880;28598,578;   -0,539;   -1,409
719,452;28817,275;   -0,175;   -1,591
720,024;28391,335;    0,734;   -0,591
720,595;28957,760;   -2,902;    0,955
721,167;28533,002;    0,370;   -2,045
721,738;28071,427;   -0,812;   -1,045
722,309;28005,669;   -0,993;   -1,227
722,881;27757,093;   -1,357;    0,773
723,452;28414,881;   -2,630;    2,864
724,023;28540,215;   -0,721;    2,682
724,595;28294,548;    0,007;    0,682
725,166;28095,154;    0,007;   -0,409
725,737;27795,397;    1,734;    0,227
726,308;27823,548;   -0,266;    0,318
726,879;28252,245;   -1,630;    1,227
727,450;28106,033;    0,552;   -0,045
728,021;28074,730;    3,097;    0,682
728,592;27847,700;    0,734;    0,500
729,163;28196,488;    0,643;   -0,136
729,734;28241,731;    0,188;   -0,227
730,305;28587,609;    1,734;    0,136
730,876;28965,216;    0,188;    2,955
731,447;28667,004;    2,188;    2,682
732,017;28753,701;    1,097;    1,864
732,588;28255,216;    0,734;    1,227
733,159;28372,640;    0,643;   -1,045
733,729;28319,883;    0,006;    0,409
734,300;27555,125;    0,915;    0,864
734,870;27973,731;    3,461;    0,591
735,441;28574,337;    0,370;   -0,591
736,011;28279,034;    0,643;   -1,591
736,582;28240,731;   -0,812;    0,045
737,152;27757,792;   -1,721;   -2,045
737,722;28128,216;   -0,267;   -0,682
738,293;27892,732;   -1,358;    1,318
738,863;27734,520;    2,461;    2,318
739,433;27579,853;    5,279;    0,318
740,003;28231,459;   -0,994;   -0,682
740,573;27541,429;    2,097;   -1,591
741,143;27549,035;   -1,085;    0,318
741,713;28340,914;    1,188;   -0,500
742,283;28032,247;    0,915;    1,591
742,853;27789,399;    1,915;    1,591
743,423;27221,096;    1,733;    0,045
743,993;27333,429;   -0,358;    1,500
744,563;26692,308;    0,097;   -0,864
745,133;26655,460;   -0,812;   -0,864
745,702;27322,611;   -0,267;    1,773
746,272;26582,763;   -0,176;    0,591
746,842;26309,914;   -1,358;   -0,591
747,411;26736,157;   -0,267;   -0,318
747,981;26963,399;    0,097;    0,500
748,551;27015,642;    2,278;   -1,045
749,120;26831,884;    0,642;   -0,227
749,690;27269,127;   -0,631;    2,409
750,259;27562,642;    1,369;    2,955
750,828;27472,066;    1,551;   -1,955
751,398;27803,036;    1,278;   -0,045
751,967;27289,006;    2,187;    0,409
752,536;27481,430;   -0,813;   -0,227
753,105;27913,400;    0,096;    0,227
753,675;27730,643;    0,096;    1,773
754,244;27689,249;   -0,904;    3,591
754,813;27720,946;    0,551;    1,227
755,382;27262,279;    0,460;    0,955
755,951;27852,340;    1,551;    3,682
756,520;27395,764;   -0,085;    1,864
757,089;27920,097;    0,278;    0,500
757,658;28090,613;    1,733;    1,227
758,227;28057,037;    1,096;    0,318
758,795;28395,461;    1,187;    1,136
759,364;28637,158;   -0,086;   -0,591
759,933;27635,219;   -1,176;   -0,045
760,501;27192,280;    0,733;   -1,318
761,070;27615,886;   -2,813;   -1,409
761,639;28330,583;   -1,904;    1,318
762,207;27669,098;    1,551;   -0,955
762,776;27568,704;    0,369;    0,864
763,344;27565,401;   -0,995;    0,591
763,913;26692,371;   -0,722;    1,409
764,481;27399,704;    1,005;   -0,136
765,049;27239,765;   -1,358;    1,409
765,618;27141,917;   -0,086;    0,318
766,186;27221,796;    0,278;    0,136
766,754;27343,765;    0,005;    1,864
767,322;26354,099;   -1,995;    0,409
767,890;26422,341;   -0,722;   -1,773
768,459;26787,402;   -2,177;   -0,318
769,027;26985,735;    1,641;    3,409
769,595;25908,432;    3,278;    2,591
770,163;26356,402;    3,823;    2,955
770,730;26126,190;    0,732;   -0,136
771,298;25973,160;    0,187;   -1,409
771,866;26090,039;   -1,541;    4,955
772,434;26386,827;   -0,631;   -1,864
773,002;26555,615;    0,005;    0,682
773,569;26156,039;    0,914;    1,682
774,137;25984,372;   -0,268;   -0,045
774,705;26795,160;    0,278;   -0,136
775,272;26304,948;    0,641;    0,682
775,840;26041,827;   -0,177;    2,682
776,407;25560,524;    0,277;    1,955
776,975;25201,676;   -0,632;    0,318
777,542;26232,100;   -1,086;   -0,045
778,110;26062,888;   -1,268;   -0,045
778,677;25774,403;   -2,359;   -0,864
779,244;25486,464;    2,186;    1,045
779,812;25595,888;    1,823;    0,864
780,379;25416,403;    0,005;    1,136
780,946;25666,737;    1,005;   -0,773
781,513;26043,252;   -1,450;    0,318
782,080;25381,858;   -0,086;    2,864
782,647;26121,010;   -0,268;    3,045
783,214;25643,252;   -0,177;    3,864
783,781;25287,222;   -0,723;   -0,682
784,348;25168,828;   -0,632;    1,500
784,915;25693,161;   -3,177;    0,318
785,482;25468,677;    1,368;    2,591
786,049;25835,556;    0,186;   -0,591
786,615;25986,525;    0,277;   -0,955
787,182;25714,495;    0,186;   -0,682
787,749;25436,101;   -2,814;    1,409
788,315;24740,253;   -1,632;   -0,409
788,882;25049,223;    1,550;   -1,227
789,448;25709,829;    1,732;   -0,955
790,015;25779,071;    1,095;    3,227
790,581;25309,950;    1,459;    0,227
791,148;25216,011;    0,641;    1,045
791,714;25487,435;   -0,541;    3,136
792,280;25131,950;    0,186;    1,591
792,847;24648,011;    0,550;    2,500
793,413;25267,162;   -0,269;   -0,318
793,979;24749,587;    3,459;   -1,318
794,545;24811,829;    4,459;    2,682
795,111;24244,254;    2,186;    1,318
795,678;24454,132;    0,731;   -1,682
796,244;24045,193;    3,368;    0,136
796,810;24564,799;    1,731;    0,773
797,375;24338,224;    0,549;   -2,136
797,941;24327,921;   -0,541;    0,591
798,507;24503,345;   -0,451;   -0,955
799,073;24032,133;   -0,360;    0,591
799,639;24104,557;   -2,632;    3,136
800,205;24096,254;    0,095;    2,682
800,770;23671,588;    0,640;    1,773
801,336;23797,557;    1,368;   -0,955
801,901;23422,254;    4,549;    3,136
802,467;24035,679;   -0,542;    2,045
803,033;23355,558;   -0,087;    0,864
803,598;23573,436;    1,913;   -1,045
804,163;23609,861;    1,095;   -0,318
804,729;23569,376;   -0,178;    1,136
805,294;24004,891;    0,822;    2,227
805,859;23745,952;    0,731;   -0,409
806,425;23183,194;    1,186;    2,682
806,990;22847,346;    2,186;    4,318
807,555;23367,770;   -1,451;    2,591
808,120;23254,376;    0,822;   -0,409
808,685;23362,528;    0,185;   -2,500
809,250;22816,770;    0,004;   -0,500
809,815;23153,831;    1,913;    0,682
810,380;23672,165;   -0,269;    1,591
810,945;24220,225;   -1,087;    2,045
811,510;23360,013;    2,094;    1,591
812,075;23080,074;   -0,633;   -1,409
812,640;23092,498;    2,003;    1,409
813,204;23179,650;    0,822;   -0,227
813,769;23685,165;    2,094;   -0,045
814,334;23042,771;    0,458;    0,864
814,898;23096,104;    0,367;    0,591
815,463;22978,983;    1,276;   -0,773
816,027;22968,771;   -0,724;   -2,318
816,592;23029,468;    0,640;   -2,045
817,156;22547,074;    2,094;    1,136
817,721;22407,771;    4,276;    2,318
818,285;22337,196;    2,912;    1,500
818,849;22987,256;   -1,451;    1,682
819,414;22842,863;   -0,269;    2,955
819,978;22448,196;   -1,269;    1,773
820,542;23056,529;    2,003;    0,500
821,106;22739,772;   -0,815;    0,682
821,670;22809,742;   -0,815;    2,591
822,234;22582,439;   -0,270;    1,409
822,798;21920,499;    0,003;    0,500
823,362;21871,469;   -0,633;    4,227
823,926;21206,712;    0,094;    1,136
824,490;21384,045;   -0,997;   -0,682
825,054;21894,378;   -0,088;   -1,136
825,618;21462,985;   -1,542;   -1,500
826,181;21421,863;    0,458;   -1,318
826,745;21343,560;    1,367;   -1,045
827,309;21662,621;    1,185;    1,318
827,872;21032,682;    1,367;    0,955
828,436;22011,833;    1,185;   -0,773
828,999;22128,076;   -0,997;    1,227
829,563;20903,137;   -0,179;    1,136
830,126;20724,924;   -0,179;   -0,591
830,690;20721,622;   -1,997;    2,864
831,253;20265,682;   -0,543;    2,227
831,816;20404,561;   -1,906;    0,500
832,380;20309,349;    0,185;    0,864
832,943;20508,046;   -1,361;   -0,500
833,506;20037,561;    2,639;   -1,227
834,069;20803,895;    3,912;   -0,955
834,632;20881,501;    1,730;    1,318
835,195;20800,380;    1,003;    0,955
835,758;19956,895;   -0,997;    1,955
836,321;19827,592;    0,730;   -1,045
836,884;19900,834;   -0,725;   -0,955
837,447;19933,077;   -2,816;    1,773
838,010;20160,319;    0,366;    3,227
838,573;20503,562;   -1,179;    0,773
839,135;20450,441;   -1,361;   -0,955
839,698;19915,956;    1,275;    0,409
840,261;19415,926;    1,003;   -0,227
840,823;19265,441;   -0,543;    0,864
841,386;19581,593;   -0,452;   -2,409
841,948;19383,017;   -1,361;    1,773
842,511;19119,168;    0,912;    1,682
843,073;19270,320;    1,912;    0,227
843,636;19092,108;   -0,361;   -0,227
844,198;19031,896;    0,911;    0,591
844,760;19155,866;    1,093;    1,955
845,322;18805,563;    0,548;    1,136
845,885;19210,714;    0,730;    0,591
846,447;19651,411;   -1,998;    0,227
847,009;19218,654;    1,911;   -0,682
847,571;19559,351;    0,820;   -2,045
848,133;19662,412;   -1,089;   -1,864
848,695;19454,654;   -0,543;    1,409
849,257;19036,078;   -1,089;   -1,682
849,819;19192,775;   -0,998;   -0,409
850,381;19272,109;   -0,725;   -0,864
850,942;19619,624;    1,093;   -0,591
851,504;19601,321;    1,184;    0,227
852,066;19633,291;    1,275;   -1,591
852,628;19159,533;   -0,180;    1,955
853,189;18712,958;    1,638;    2,682
853,751;18832,382;   -0,907;    1,409
854,312;18637,624;   -0,453;   -1,682
854,874;19129,685;   -2,089;   -0,773
855,435;19664,655;   -0,907;   -1,682
855,997;19810,261;   -1,816;   -0,136
856,558;19094,503;    0,366;    1,773
857,119;19187,655;    0,820;    2,864
857,681;18908,625;    0,002;    0,318
858,242;18932,776;    1,911;   -2,136
858,803;19343,564;    0,456;   -0,773
859,364;19950,807;    0,184;   -4,773
859,925;19258,595;   -2,453;   -0,955
860,486;19173,837;   -0,453;   -0,955
861,047;18902,807;   -0,544;   -1,227
861,608;18714,140;   -1,089;   -0,773
862,169;18831,837;    0,638;   -0,045
862,730;18574,989;    0,456;    1,409
863,291;18847,959;   -0,635;   -0,500
863,852;19215,383;   -0,635;    1,955
864,412;18656,444;   -0,271;   -0,864
864,973;17231,323;   -0,089;    0,500
865,534;17099,565;   -1,726;    0,227
866,094;18633,080;    1,820;    0,227
866,655;18301,050;    1,274;    3,318
867,215;18567,565;    0,274;    0,136
867,776;18366,081;    0,547;   -0,136
868,336;18482,050;   -1,453;    0,136
868,897;17932,020;    2,638;    1,682
869,457;17661,172;    1,365;    0,318
870,017;17929,869;    0,547;   -1,227
870,578;18500,839;   -0,817;    0,773
871,138;18153,172;   -2,089;   -0,955
871,698;17676,505;   -0,817;   -1,318
872,258;17523,930;   -0,453;   -2,864
872,818;17920,263;    2,729;    0,045
873,378;17881,415;    0,638;    1,045
873,938;17428,930;    0,547;    0,500
874,498;17752,354;    0,274;   -1,955
875,058;17670,415;    2,183;    1,773
875,618;17515,930;    1,910;   -2,682
876,177;17410,900;    1,274;    0,136
876,737;17021,051;   -0,090;    1,955
877,297;17039,203;    0,183;    1,955
877,856;17013,173;   -0,362;    0,318
878,416;17003,324;    1,183;   -0,136
878,976;17215,385;   -1,817;    0,409
879,535;17375,627;    0,092;    3,136
880,095;17122,779;   -0,544;    0,045
880,654;17259,112;   -1,090;    1,318
881,213;17346,719;    2,456;    1,500
881,773;16939,597;    2,637;    2,682
882,332;17272,204;    3,365;    5,136
882,891;17153,082;    3,092;    2,136
883,451;17673,507;   -1,272;    1,682
884,010;17100,658;   -2,908;   -0,409
884,569;17198,992;   -0,999;   -0,045
885,128;17310,507;    2,819;   -1,864
885,687;17375,568;    4,455;    0,682
886,246;17063,083;    1,455;    2,136
886,805;16824,598;    2,455;    2,045
887,364;17153,477;   -0,999;   -0,500
887,922;17529,447;   -1,181;    0,045
888,481;17040,598;   -1,545;    0,591
889,040;17342,386;    1,183;    2,136
889,599;18041,992;    2,455;    1,409
890,157;18072,053;    1,455;    2,409
890,716;17729,114;   -0,090;    0,227
891,274;17541,083;    0,092;   -1,136
891,833;17986,599;    1,546;    0,864
892,391;17903,932;   -0,454;    0,500
892,950;17921,356;    1,819;   -0,773
893,508;18262,690;    0,455;   -0,409
894,067;17707,478;    0,637;    0,136
894,625;17587,629;   -0,636;   -1,500
895,183;17817,054;   -0,363;   -0,682
895,741;17689,114;    1,728;   -1,773
896,299;17544,630;   -0,545;   -2,409
896,858;17754,872;    0,819;   -1,591
897,416;17846,933;    2,728;   -1,318
897,974;17594,539;    1,819;    0,318
898,532;17720,872;    6,091;    2,682
899,089;17648,387;    2,091;   -0,682
899,647;17705,812;   -1,454;    1,318
900,205;17398,327;    1,182;    1,045
900,763;17554,569;   -0,454;    0,227
901,321;17572,448;    2,364;   -1,409
901,878;17017,054;   -1,000;   -0,773
902,436;16887,661;   -1,363;    1,318
902,994;17253,994;    4,728;    3,682
903,551;16706,055;    0,728;    0,409
904,109;17066,297;    0,182;   -1,409
904,666;16646,721;    2,455;    1,045
905,224;16499,873;    0,182;   -0,409
905,781;16278,297;    0,727;   -0,318
906,338;16321,540;   -1,363;    1,045
906,895;16299,419;    0,637;    2,045
907,453;16205,207;    1,727;    1,136
908,010;16218,267;   -0,909;    0,409
908,567;15856,692;    1,273;    0,591
909,124;15384,389;    0,364;   -1,500
909,681;15443,540;   -2,909;    0,682
910,238;15584,874;    0,636;   -1,318
910,795;15904,389;   -0,273;   -1,136
911,352;15522,843;   -2,909;   -2,682
911,909;14931,662;   -1,364;   -0,864
912,466;15424,843;   -3,182;    1,500
913,022;14964,753;   -1,636;    0,500
913,579;15338,480;   -0,909;    2,045
914,136;15029,389;    1,636;    0,955
914,692;15342,480;    0,091;   -1,227
915,249;14941,662;    1,455;    0,409
915,806;15187,389;    0,182;    1,955
916,362;14925,389;    1,909;    1,864
916,918;14480,389;    2,000;    1,045
917,475;14453,207;   -1,182;    0,955
918,031;14541,207;    3,364;   -0,045
918,587;13979,934;   -0,909;   -0,318
919,144;14184,480;   -2,273;    0,227
919,700;14537,025;    1,727;    0,773
920,256;14073,298;    0,727;    0,045
920,812;13704,662;   -0,727;   -1,045
921,368;13677,934;   -1,727;   -1,045
921,924;13333,389;    0,182;   -0,136
922,480;12907,571;   -0,545;    1,227
923,036;13517,207;    1,273;    1,955
923,592;13482,389;    0,455;    0,318
924,148;13389,662;    0,455;   -0,955
924,704;12679,389;   -1,364;   -0,409
925,259;12947,298;   -0,273;    0,591
925,815;12679,298;    1,455;    0,500
926,371;12200,116;    2,909;    1,409
926,926;12073,662;    2,091;    0,591
927,482;11722,025;   -1,364;    0,773
928,037;11576,753;    0,909;    2,045
928,593;11852,025;    1,636;    1,045
929,148;11663,753;   -1,818;   -1,500
929,704;11184,753;   -1,455;   -0,500
930,259;11367,934;    0,091;   -0,136
930,814;10421,662;   -0,818;    1,955
931,369;10105,662;    1,091;   -0,773
931,925; 9994,480;   -0,091;    0,136
932,480; 9916,298;   -2,818;   -2,591
933,035; 9773,025;    0,545;   -0,318
933,590; 9530,298;    0,364;   -1,773
934,145; 9204,753;   -1,364;   -0,318
934,700; 9547,662;    0,455;   -0,591
935,255; 9296,389;   -0,091;    0,045
935,809; 8558,662;    3,182;    0,864
936,364; 7671,025;   -0,455;   -0,136
936,919; 7659,934;    0,455;   -1,773
937,474; 7544,207;    1,455;    0,136
938,028; 7308,298;   -1,636;    1,136
938,583; 6728,480;    1,818;    4,682
939,138; 7039,298;    2,091;    2,136
939,692; 6467,934;    1,636;   -1,136
940,247; 6152,843;   -0,727;   -1,045
940,801; 5689,207;   -0,636;    0,227
941,355; 5567,571;   -0,364;    2,591
941,910; 5246,753;   -0,273;   -2,136
942,464; 5354,389;   -0,818;   -0,318
943,018; 5117,298;    1,000;   -0,227
943,572; 5048,662;    2,545;   -0,682
944,126; 4462,753;    0,091;   -0,409
944,681; 4353,571;    3,091;    0,227
945,235; 4332,843;    1,000;   -0,591
945,789; 4280,934;    0,364;   -1,864
946,342; 4348,025;    0,455;   -0,591
946,896; 4153,116;   -2,273;    0,955
947,450; 3944,843;    1,545;   -0,227
948,004; 4106,298;    1,727;   -0,045
948,558; 4122,116;    0,273;   -0,864
949,111; 4040,298;   -0,273;   -0,318
949,665; 4047,207;    1,636;   -0,682
950,219; 3945,298;   -0,091;   -1,045
950,772; 4024,753;   -1,909;    1,864
951,326; 3903,662;    0,545;   -0,955
951,879; 4028,662;    0,727;   -2,318
952,433; 4050,116;    0,000;    2,227
952,986; 3881,116;    2,909;    0,682
953,539; 3848,389;   -0,273;    0,591
954,093; 3770,207;    0,545;   -1,318
954,646; 3904,207;    0,909;    1,318
955,199; 3725,025;    0,000;   -0,500
955,752; 3596,298;   -0,455;    1,773
956,305; 3548,480;   -0,091;    2,955
956,858; 3728,025;    0,818;   -0,318
957,411; 3894,843;   -0,545;    2,136
957,964; 3722,116;    1,364;    2,136
958,517; 3702,571;   -1,545;    3,136
959,070; 3542,207;   -0,455;    1,955
959,623; 3610,207;    1,091;    1,500
960,176; 3376,934;    1,727;    2,045
960,728; 3355,025;   -2,727;    0,773
961,281; 3411,480;    0,545;    0,500
961,834; 3463,298;   -0,909;    0,864
962,386; 3379,389;    1,727;    1,045
962,939; 3298,025;    0,364;   -0,318
963,491; 3449,207;    0,455;    1,136
964,043; 3312,753;    1,182;    2,409
964,596; 3436,025;   -1,000;    2,227
965,148; 3282,843;   -1,000;    1,773
965,700; 3205,480;    1,091;   -0,227
966,253; 3340,934;   -0,636;    0,318
966,805; 3179,116;   -2,273;    0,773
967,357; 3243,025;    1,091;   -1,500
967,909; 3192,298;    0,455;   -1,227
968,461; 3294,207;    0,545;    3,136
969,013; 3222,207;   -0,182;   -0,864
969,565; 3305,207;   -0,455;   -1,136
970,117; 3356,389;   -0,364;    1,045
970,669; 3211,571;    0,182;   -0,136
971,220; 3086,662;   -0,455;   -1,500
971,772; 3014,934;   -0,636;   -0,318
972,324; 3117,207;    0,091;   -0,500
972,876; 3081,025;    0,818;   -0,045
973,427; 3199,480;    1,909;   -1,045
973,979; 3179,480;   -0,727;   -2,500
974,530; 3235,389;    1,818;    1,318
975,082; 3239,662;   -0,545;    1,682
975,633; 3111,843;    1,091;    1,682
976,184; 3264,298;    0,909;    0,773
976,736; 3051,207;    0,091;    0,227
977,287; 2843,480;   -0,909;   -0,500
977,838; 3016,662;    0,909;   -0,318
978,389; 3088,571;   -1,000;   -0,500
978,940; 2950,571;    0,545;   -0,409
979,491; 2985,843;    0,091;   -0,500
980,042; 2952,389;    0,182;    3,045
980,593; 3026,843;   -2,545;    0,227
981,144; 3056,934;    2,545;   -0,500
981,695; 3019,934;    1,455;    1,500
982,246; 2968,207;   -0,273;    1,045
982,797; 3138,662;   -1,727;    0,682
983,347; 3242,389;    0,364;    0,591
983,898; 3402,571;    3,091;    0,409
984,449; 3232,753;    2,182;    0,773
984,999; 3146,571;    1,455;   -1,136
985,550; 2906,753;    0,182;   -0,318
986,100; 2964,843;   -0,455;   -0,318
986,651; 3004,934;   -0,818;    0,045
987,201; 2972,662;   -1,000;   -0,591
987,751; 3077,298;    0,818;    2,864
988,302; 3049,662;    2,636;    1,500
988,852; 3081,298;    0,455;   -1,136
989,402; 3102,571;    0,091;    0,682
989,952; 3021,025;   -2,182;    0,864
990,502; 3120,389;   -0,091;    0,682
991,052; 3097,025;   -0,727;    0,045
991,602; 2962,753;   -2,909;    1,318
992,152; 2951,389;    0,455;    0,682
992,702; 2942,207;    1,364;   -0,045
993,252; 2872,025;   -3,000;   -0,500
993,802; 2946,298;   -0,273;    1,318
994,352; 3192,662;   -1,545;    1,136
994,901; 3290,571;   -0,182;    3,227
995,451; 3208,662;   -0,182;    0,318
996,000; 3305,753;    1,636;    0,318
996,550; 2995,389;    2,273;    0,227
997,100; 2982,843;    1,273;   -0,045
997,649; 3271,389;    2,182;    0,955
998,198; 2903,025;    1,727;   -1,500
998,748; 3103,207;    1,091;   -2,318
999,297; 3013,934;   -0,818;   -0,409
999,846; 3075,662;    1,000;   -0,773
1000,395; 3121,571;   -0,818;    0,500
1000,945; 3047,934;    1,818;   -0,773
1001,494; 3149,025;    2,364;    0,682
1002,043; 3164,662;    4,636;    0,864
1002,592; 3000,571;   -1,091;    1,955
1003,141; 3159,298;   -0,455;   -0,682
1003,690; 3008,298;    1,727;    0,500
1004,238; 3094,480;    1,455;   -0,045
1004,787; 2715,753;    1,364;    1,227
1005,336; 2943,116;    0,364;    0,682
1005,885; 3097,843;    1,364;   -2,773
1006,433; 3237,298;    0,545;    0,955
1006,982; 3292,662;    0,455;    1,682
1007,531; 3217,389;   -1,818;   -0,227
1008,079; 3178,571;   -2,273;    0,500
1008,627; 3317,207;   -1,455;    0,409
1009,176; 3040,571;    0,000;   -1,955
1009,724; 3093,571;    1,091;    0,864
1010,273; 3127,934;    1,273;    0,500
1010,821; 3280,025;    0,091;    1,409
1011,369; 3011,843;   -1,364;    1,318
1011,917; 2977,480;   -1,364;   -0,591
1012,465; 3254,662;    1,273;   -1,591
1013,013; 3357,662;    2,091;   -1,682
1013,561; 3244,116;    0,455;   -0,773
1014,109; 3284,843;   -1,909;    1,682
1014,657; 3178,843;    0,364;    0,591
1015,205; 3309,934;    1,636;   -0,955
1015,753; 3329,389;   -0,545;   -1,409
1016,301; 3358,843;   -2,636;    3,045
1016,848; 3380,480;   -1,273;    0,409
1017,396; 3420,753;    2,545;    0,045
1017,944; 3546,207;    1,182;    1,864
1018,491; 3293,389;    0,273;    1,409
1019,039; 3427,662;    0,455;    0,591
1019,586; 3373,298;   -1,364;    1,682
1020,134; 3465,662;    0,455;    1,500
1020,681; 3485,934;    0,182;   -1,136
1021,228; 3521,571;    2,909;   -2,227
1021,776; 3337,207;    1,182;   -1,136
1022,323; 3550,207;    0,455;    0,773
1022,870; 3490,298;   -1,000;   -0,045
1023,417; 3386,753;    2,636;    1,864
1023,964; 3539,753;    2,636;    1,227
1024,511; 3376,025;    1,000;    0,773
1025,058; 3160,207;    3,182;   -0,045
1025,605; 3219,207;   -2,273;    3,136
1026,152; 3421,571;    1,727;   -0,591
1026,699; 3147,753;    1,818;    1,318
1027,245; 3331,934;   -0,091;    0,318
1027,792; 3569,934;   -1,000;    1,409
1028,339; 3420,934;    2,364;   -0,045
1028,885; 3286,025;    1,000;   -0,227
1029,432; 3218,753;   -0,091;    0,227
1029,978; 3289,843;   -1,000;   -1,591
1030,525; 3193,662;    1,000;    0,409
1031,071; 3452,389;   -1,364;    1,136
1031,618; 3520,116;    0,364;    1,682
1032,164; 3328,207;   -0,091;    3,045
1032,710; 3375,116;    1,636;   -1,500
1033,256; 3294,571;   -0,636;   -0,136
1033,803; 3292,025;   -0,545;    1,500
1034,349; 3004,389;   -1,364;    0,136
1034,895; 3163,571;    0,000;   -0,318
1035,441; 3122,116;   -0,818;    0,318
1035,987; 3134,571;   -2,364;   -0,682
1036,533; 3117,298;   -1,455;   -0,955
1037,078; 3323,025;    1,455;    1,682
1037,624; 3142,298;    2,455;   -0,955
1038,170; 3185,389;    0,455;   -0,318
1038,716; 3057,207;    1,636;   -0,409
1039,261; 2985,753;   -2,273;   -0,773
1039,807; 2943,571;   -0,091;    3,409
1040,352; 2998,207;   -1,909;   -0,318
1040,898; 3035,025;   -1,545;   -0,682
1041,443; 2971,662;   -1,455;   -2,591
1041,989; 2959,389;    1,091;    1,591
1042,534; 2854,843;   -0,364;    2,591
1043,079; 3003,480;    2,909;    0,955
1043,625; 2766,843;    1,818;    0,500
1044,170; 2804,298;   -1,364;    1,045
1044,715; 3059,025;    2,455;    0,955
1045,260; 2885,207;    2,182;   -0,955
1045,805; 2938,116;    1,182;   -0,591
1046,350; 2871,843;    1,364;   -0,409
1046,895; 2803,389;    2,909;    1,591
1047,440; 2738,116;    5,364;    0,409
1047,985; 2665,389;    2,818;   -0,955
1048,530; 2601,025;    1,545;    1,227
1049,074; 2639,571;    0,000;    0,318
1049,619; 2620,753;   -1,364;    1,955
1050,164; 2418,025;    0,455;    0,227
1050,708; 2454,571;   -0,455;    0,045
1051,253; 2812,207;    1,273;   -2,227
1051,797; 2516,025;    0,818;   -1,318
1052,342; 2563,207;   -1,182;    1,045
1052,886; 2548,753;    0,364;   -1,409
1053,430; 2432,480;   -1,364;    0,136
1053,975; 2429,934;   -0,818;   -0,318
1054,519; 2413,298;   -0,727;    3,227
1055,063; 2421,662;    0,909;    1,318
1055,607; 2300,571;   -0,182;    0,227
1056,151; 2336,571;    2,909;    1,682
1056,695; 2256,662;    2,273;   -1,136
1057,239; 2331,298;   -1,727;   -0,682
1057,783; 2332,025;    0,818;   -1,500
1058,327; 2253,025;    0,000;    1,409
1058,871; 2476,480;   -0,545;    1,318
1059,415; 2175,389;   -0,818;   -0,045
1059,958; 2446,207;    1,455;    2,591
1060,502; 2167,934;   -1,000;   -0,773
1061,046; 2090,389;    0,364;   -0,955
1061,589; 2079,571;   -3,000;   -1,136
1062,133; 1945,753;   -1,273;    1,864
1062,676; 1882,843;    1,182;    0,864
1063,220; 1892,298;    1,091;    0,500
1063,763; 1903,934;    0,909;    1,136
1064,306; 1991,571;   -0,909;    1,864
1064,849; 1875,934;   -0,909;    0,591
1065,393; 1866,662;    2,000;   -1,500
1065,936; 1989,753;    0,182;   -0,409
1066,479; 1881,025;   -1,455;    1,318
1067,022; 1895,934;   -0,273;   -0,227
1067,565; 1791,116;   -0,091;   -1,318
1068,108; 1838,025;    0,727;   -0,591
1068,651; 1814,843;   -0,636;    1,409
1069,194; 1726,025;   -0,455;   -1,682
1069,736; 1719,025;   -1,273;    0,955
1070,279; 1694,934;   -1,364;   -0,500
1070,822; 1737,934;   -2,000;   -0,318
1071,364; 1814,116;   -0,364;    1,318
1071,907; 1646,389;   -0,727;    3,227
1072,450; 1575,662;    0,000;   -0,045
1072,992; 1545,389;   -0,273;    3,136
1073,535; 1688,934;    2,091;    2,136
1074,077; 1491,389;   -0,727;    2,045
1074,619; 1462,571;   -1,364;    0,591
1075,161; 1481,662;   -1,091;    1,500
1075,704; 1645,025;    1,545;    1,227
1076,246; 1460,298;   -0,182;    0,682
1076,788; 1384,116;   -0,364;    1,773
1077,330; 1477,025;    1,273;    2,136
1077,872; 1416,298;    0,909;    0,955
1078,414; 1628,843;    2,727;    0,773
1078,956; 1374,662;    1,273;   -0,227
1079,498; 1622,753;    1,636;    0,318
1080,040; 1327,389;    1,909;   -1,318
1080,581; 1295,571;    1,636;   -0,318
1081,123; 1217,116;    0,091;   -0,773
1081,665; 1252,389;   -1,182;   -0,955
1082,206; 1546,207;    1,364;   -0,500
1082,748; 1402,843;    0,727;    2,045
1083,289; 1283,116;   -2,000;    1,318
1083,831; 1202,207;   -0,545;    0,227
1084,372; 1213,753;    0,000;    0,591
1084,913; 1229,116;    1,091;    0,864
1085,455; 1204,116;   -1,909;   -2,045
1085,996; 1159,843;   -2,273;    0,136
1086,537; 1186,298;   -0,091;    0,864
1087,078; 1218,662;   -0,909;   -2,136
1087,619; 1260,662;   -1,273;    0,227
1088,160; 1183,389;    0,000;    1,318
1088,701; 1161,207;   -1,091;    0,682
1089,242; 1107,934;    1,364;   -2,227
1089,783; 1200,480;   -0,273;    1,409
1090,324; 1159,571;    0,455;    0,682
1090,865; 1051,843;    2,727;   -0,409
1091,405; 1015,389;    0,727;    2,227
1091,946; 1021,207;    0,182;   -0,955
1092,487;  975,571;    0,818;   -1,409
1093,027; 1121,753;   -1,364;   -1,500
1093,568;  978,116;   -0,364;    1,227
1094,108; 1069,389;    0,273;    1,773
1094,649; 1012,843;   -1,182;    0,136
1095,189;  946,207;   -0,636;   -0,682
1095,729;  899,480;   -0,091;    0,955
1096,269;  914,298;    0,727;   -0,955
1096,810; 1217,025;   -1,364;    0,500
1097,350; 1042,298;    1,364;   -0,773
1097,890;  946,934;    0,364;    1,227
1098,430; 1201,662;    2,364;    2,864
1098,970; 1076,389;    2,182;    1,682
1099,510;  947,934;    0,545;   -2,318
1100,050;  866,025;    1,000;   -1,591
1100,589;  830,025;   -0,727;   -0,318
1101,129;  949,207;    0,818;   -0,955
1101,669; 1090,662;    1,727;    2,136
1102,209;  923,571;   -0,091;    2,227
1102,748;  870,025;    0,000;    0,955
1103,288;  849,116;    1,273;   -1,227
1103,827;  891,753;    3,091;   -2,227
1104,367;  772,571;   -0,091;   -2,409
1104,906;  747,207;    1,364;   -1,136
1105,445;  812,843;    0,636;   -1,136
1105,985;  744,025;   -0,727;    1,500
1106,524;  796,480;   -1,727;   -0,682
1107,063;  760,389;   -2,727;    1,409
1107,602;  742,116;   -1,909;   -1,500
1108,141;  659,389;   -1,909;    1,500
1108,680;  762,753;   -3,455;   -0,591
1109,219;  699,025;   -0,909;   -0,500
1109,758;  702,025;    0,455;    0,682
1110,297;  680,843;    1,000;   -0,682
1110,836;  616,480;   -0,727;    0,955
1111,375;  785,480;   -2,545;    0,409
1111,913;  799,753;   -1,000;    0,773
1112,452;  721,480;   -0,273;    0,136
1112,991;  621,843;    1,091;    1,955
1113,529;  580,843;   -0,818;   -0,045
1114,068;  648,025;   -0,273;    2,955
1114,606;  551,662;   -0,364;   -0,955
1115,144;  717,843;   -1,273;    1,045
1115,683;  638,843;   -0,727;    0,318
1116,221;  687,116;   -0,455;   -0,864
1116,759;  594,480;    0,636;   -0,864
1117,297;  792,843;    0,000;    1,864
1117,836;  602,934;   -2,182;   -1,227
1118,374;  618,025;    0,182;   -0,682
1118,912;  554,934;    0,909;    2,682
1119,450;  528,934;    1,000;    0,864
1119,988;  584,025;    1,545;    2,136
1120,525; 1039,389;    5,091;    3,318
1121,063;  735,753;    1,182;    1,864
1121,601;  551,934;   -0,909;   -1,227
1122,139;  495,116;   -0,727;   -2,045
1122,676;  691,025;   -0,727;    2,773
1123,214;  630,753;   -1,182;    4,409
1123,751;  441,843;    1,727;    2,227
1124,289;  572,389;   -0,091;   -0,409
1124,826;  443,843;    1,727;    0,227
1125,364;  372,480;    1,727;   -0,955
1125,901;  555,025;    1,182;    1,227
1126,438;  673,116;    0,818;    0,955
1126,975;  402,753;   -0,727;   -0,773
1127,513;  466,571;    0,273;    2,136
1128,050;  371,571;    1,636;   -0,682
1128,587;  465,753;    2,000;   -0,227
1129,124;  513,571;    0,091;    1,318
1129,661;  381,571;    0,273;    0,227
1130,198;  547,934;    1,636;    0,773
1130,734;  489,207;    0,182;    1,409
1131,271;  340,662;   -0,909;    0,864
1131,808;  525,753;    2,909;    3,045
1132,345;  388,843;    1,545;    0,318
1132,881;  262,207;   -1,545;   -1,864
1133,418;  392,298;    0,727;   -1,136
1133,954;  340,298;    2,455;   -2,682
1134,491;  408,662;    1,364;   -0,773
1135,027;  300,662;    2,364;    0,864
1135,564;  402,934;    0,273;    2,955
1136,100;  381,298;    0,364;    2,136
1136,636;  268,116;   -1,273;   -1,045
1137,172;  366,480;    0,000;   -1,045
1137,708;  284,571;   -1,364;   -1,045
1138,245;  292,207;    1,273;   -1,227
1138,781;  255,753;    1,091;   -3,318
1139,317;  324,025;    1,273;   -1,409
1139,852;  303,843;    3,091;    0,136
1140,388;  422,298;   -1,182;   -0,409
1140,924;  298,116;   -1,091;   -2,227
1141,460;  236,753;   -1,636;    0,136
1141,996;  169,480;   -1,364;    2,682
1142,531;  215,934;    1,364;    3,318
1143,067;  433,480;    1,182;    1,045
1143,602;  491,571;   -0,091;   -0,318
1144,138;  329,753;   -2,636;    1,045
1144,673;  200,207;   -1,455;    1,409
1145,209;  271,207;   -1,909;   -0,318
1145,744;  196,753;   -0,727;    0,864
1146,279;  331,298;    1,818;   -0,136
1146,815;  242,753;    1,545;   -2,682
1147,350;  280,571;   -1,364;    0,045
1147,885;  194,480;   -0,818;   -1,318
1148,420;  192,480;   -2,273;    0,773
1148,955;  169,298;   -1,727;    1,864
1149,490;  198,480;   -0,909;   -1,591
1150,025;  179,843;    0,455;   -1,773
1150,560;  290,753;    1,091;   -0,955
1151,094;  253,843;    1,455;   -0,591
1151,629;  264,389;    1,636;    0,864
1152,164;  193,116;    1,364;    1,318
1152,698;  138,571;   -0,182;   -0,136
1153,233;  102,843;    0,091;   -0,682
1153,767;  164,025;   -3,000;   -2,318
1154,302;  214,843;   -1,455;    1,773
1154,836;  209,843;   -0,455;   -2,136
1155,371;  260,571;   -1,364;    3,682
1155,905;  206,934;   -0,636;    1,682
1156,439;  179,480;   -0,636;   -0,500
1156,973;  208,207;    0,364;    0,318
1157,507;  142,298;   -0,364;    0,682
1158,042;  171,389;   -0,727;    1,045
1158,576;  222,843;    0,182;    1,773
1159,110;  206,207;   -0,818;    2,409
1159,643;  182,116;    0,636;   -0,045
1160,177;  121,207;   -1,545;    1,500

