
Integration time [ms]:   0,040
Averaging Nr. [scans]: 11
Smoothing Nr. [pixels]: 0
Data measured with spectrometer [name]: 7318044SP
Wave   ;Sample   ;Dark     ;Reference
[nm]   ;[counts] ;[counts] ;[counts] 

186,757;   29,015;   31,551;    1,318
187,357;   68,061;   22,551;    0,955
187,958;   36,872;   15,460;   -1,591
188,558;   76,548;    8,915;   -1,227
189,159;   45,534;    6,733;   -4,500
189,759;   12,314;    7,278;   -3,591
190,360;   17,832;    2,824;   -2,136
190,960;   56,187;    2,915;   -4,136
191,560;   74,518;    3,189;   -6,591
192,161;  315,188;    4,372;   -3,500
192,761;  153,355;    4,010;   -3,227
193,361;  103,996;    1,556;   -3,773
193,962;  155,259;    2,010;   -2,682
194,562;   82,706;    1,189;   -3,955
195,162;  115,406;   -2,448;   -2,227
195,762;  266,170;   -3,176;   -0,045
196,362;  213,972;    1,370;   -2,500
196,963;   88,929;    2,006;   -0,864
197,563;  157,918;    1,551;   -0,955
198,163;  110,987;    0,096;   -0,682
198,763;  129,277;    1,733;   -0,500
199,363;  214,627;    3,096;   -0,500
199,963;  183,372;    0,369;    0,409
200,563;  163,940;    2,823;   -1,409
201,163;  148,254;    3,277;   -0,227
201,763;  233,586;    3,732;    0,318
202,363;  173,610;    1,459;    1,500
202,963;  281,047;    1,459;    1,045
203,563;  385,829;    0,277;    0,500
204,162;  238,399;    2,096;   -1,864
204,762;  228,940;    0,550;    0,591
205,362;  196,438;    3,004;    1,955
205,962;  300,884;    3,096;    1,955
206,562;  299,960;    1,823;    2,318
207,161;  278,613;   -0,087;    0,318
207,761;  426,901;    1,277;    2,409
208,361;  296,503;   -0,268;    1,409
208,960;  403,084;    0,459;    1,500
209,560;  477,868;    1,277;    1,591
210,160;  453,781;    0,550;    1,864
210,759;  420,478;    4,186;    1,227
211,359;  423,416;    1,459;    1,045
211,958;  690,708;    1,277;    2,045
212,558;  774,944;    1,732;    1,864
213,157;  619,752;    1,822;    1,500
213,757; 1059,817;    3,822;   -0,227
214,356;  765,386;    1,277;   -0,409
214,956; 1091,809;    3,095;    0,409
215,555;  734,030;    2,095;    2,136
216,154;  669,881;   -2,723;   -0,591
216,754;  679,777;    0,277;    0,773
217,353;  814,705;   -0,268;   -1,045
217,952;  677,674;   -0,178;    0,318
218,552;  913,771;    1,368;   -0,773
219,151;  820,696;    0,277;    0,955
219,750;  810,334;    0,004;   -0,227
220,349;  944,043;   -0,451;    1,045
220,948; 1015,130;   -1,360;    1,136
221,548; 1043,916;    0,913;    1,227
222,147; 1151,917;   -0,087;   -0,409
222,746; 1448,384;   -0,451;   -0,955
223,345; 1308,233;    0,731;    0,500
223,944; 1322,901;   -0,451;    0,773
224,543; 1526,001;    1,004;   -1,409
225,142; 1624,053;    0,094;    0,136
225,741; 1535,276;   -0,814;    1,045
226,340; 1557,975;   -0,451;   -0,955
226,939; 1999,904;   -0,996;   -0,136
227,538; 1976,926;   -0,360;   -0,773
228,137; 2138,458;   -0,814;    0,864
228,735; 2289,543;   -0,541;    1,227
229,334; 2033,712;   -0,905;   -0,227
229,933; 2405,699;    0,459;    0,591
230,532; 2525,260;    1,186;   -0,409
231,131; 2574,697;    1,732;    0,318
231,729; 2740,668;   -2,450;   -2,318
232,328; 2873,707;   -0,723;   -1,500
232,927; 2946,900;    1,004;   -0,500
233,525; 3077,740;    3,640;    0,045
234,124; 3299,228;    2,368;   -1,591
234,723; 3323,096;    0,913;   -1,045
235,321; 3469,981;    2,277;    0,136
235,920; 3722,492;    1,186;   -1,227
236,518; 3970,378;    3,459;    0,318
237,117; 4146,708;    0,004;   -0,227
237,715; 4323,232;    0,640;   -0,500
238,314; 4378,006;   -0,087;   -2,318
238,912; 4487,039;   -0,723;   -1,409
239,510; 4529,196;    0,459;   -1,227
240,109; 4694,337;    0,004;    3,773
240,707; 4720,063;   -0,996;    1,227
241,305; 5113,958;    0,550;    0,136
241,904; 5338,958;   -0,178;   -2,045
242,502; 5297,158;   -0,632;   -0,227
243,100; 5249,401;   -0,087;   -0,955
243,698; 5478,471;    0,732;    1,682
244,297; 5685,991;   -0,632;    0,682
244,895; 5494,969;   -0,269;   -2,318
245,493; 5854,544;    2,186;   -0,591
246,091; 5887,396;    1,368;   -1,318
246,689; 5864,390;    1,004;    0,591
247,287; 6060,260;    0,822;   -1,136
247,885; 6353,567;   -1,451;    1,227
248,483; 6474,676;    1,822;   -0,500
249,081; 6573,835;    0,185;    1,591
249,679; 6739,660;   -0,178;    1,682
250,277; 7000,523;   -1,723;    0,864
250,875; 7006,953;   -1,087;   -1,045
251,473; 7021,019;   -1,178;    0,500
252,071; 7235,222;    1,459;    1,045
252,669; 7366,446;   -1,814;    0,318
253,267; 7644,476;   -0,087;    0,773
253,864; 7619,806;   -0,360;    0,682
254,462; 7482,185;    1,640;    1,591
255,060; 7470,063;   -0,269;    1,318
255,658; 7794,628;    0,822;   -0,136
256,255; 8219,436;    0,186;   -2,045
256,853; 8085,294;   -0,269;    1,409
257,451; 8098,896;    0,822;    1,864
258,048; 8358,683;    1,822;    1,864
258,646; 8104,178;    1,731;   -1,045
259,243; 8292,840;   -0,087;    2,227
259,841; 8361,602;   -0,814;    0,318
260,438; 8276,904;   -0,087;    0,864
261,036; 9007,212;   -1,905;    1,409
261,633; 8925,640;   -0,087;    2,227
262,231; 8650,732;    2,731;   -0,045
262,828; 8732,350;   -0,905;    1,136
263,425; 8803,488;    0,913;   -0,591
264,023; 9031,699;    0,186;    0,045
264,620; 8585,075;   -0,360;   -0,318
265,217; 8964,270;   -2,087;    3,136
265,815; 9079,822;   -1,905;    2,136
266,412; 8841,738;    0,731;    0,136
267,009; 8890,162;   -1,451;    0,773
267,606; 8788,906;    0,822;   -0,955
268,203; 8768,815;   -0,269;   -0,591
268,801; 9063,654;    1,731;    0,591
269,398; 9397,436;   -0,360;    2,500
269,995; 9351,623;    0,277;    1,591
270,592; 9123,199;   -0,632;   -0,500
271,189; 9295,105;    0,186;    0,409
271,786; 9438,981;   -0,632;    1,227
272,383; 9278,679;   -1,087;    0,227
272,980; 9485,233;    0,277;    0,318
273,577; 9983,034;    0,004;    1,227
274,174; 9558,727;    0,822;    2,591
274,771; 9537,537;   -0,814;   -0,773
275,367; 9659,573;    2,277;    1,409
275,964; 9594,440;    0,731;   -0,500
276,561; 9722,465;    1,549;   -1,045
277,158; 9921,206;    0,095;   -1,773
277,755;10060,471;    2,185;    0,409
278,351; 9443,445;   -0,451;   -1,500
278,948; 9763,433;   -0,815;    0,045
279,545; 9780,299;   -1,360;    2,318
280,141;10410,962;   -1,723;   -2,045
280,738;10287,797;   -0,451;   -0,136
281,334;10521,618;   -1,633;    0,591
281,931; 9926,428;   -0,087;   -1,318
282,528;10044,338;    0,822;   -0,500
283,124;10742,457;   -1,087;   -0,500
283,721;10644,403;   -0,451;    1,409
284,317;10468,771;    0,185;    2,500
284,913;11018,201;   -1,360;    0,591
285,510;11207,474;    0,640;   -0,318
286,106;11215,451;   -2,269;   -0,955
286,703;10810,927;   -0,360;    1,955
287,299;11023,874;   -1,451;   -0,591
287,895;11281,289;    0,822;   -1,045
288,491;11867,345;    0,186;    2,136
289,088;11557,187;   -2,360;    2,409
289,684;11619,173;   -1,723;    1,500
290,280;11603,579;    0,368;    0,682
290,876;11690,127;    1,822;    5,500
291,472;11600,329;    1,276;    2,227
292,068;11690,555;    1,367;    0,227
292,665;11401,602;    2,095;    0,773
293,261;10999,754;    0,276;    2,136
293,857;11402,749;    2,913;    2,136
294,453;11367,238;    3,550;    0,955
295,049;11239,869;   -0,268;    1,955
295,644;11261,557;    0,095;    0,136
296,240;11148,418;   -0,905;   -0,136
296,836;11196,917;   -0,995;    0,318
297,432;11445,929;    1,096;   -0,500
298,028;11480,448;    0,732;    0,773
298,624;11930,391;    1,459;    1,864
299,220;12190,757;    2,368;    0,591
299,815;11877,078;    1,005;   -0,409
300,411;11659,960;    0,914;    1,773
301,007;11693,793;    1,368;    0,227
301,602;11730,079;   -0,541;   -2,318
302,198;11915,730;    0,732;   -0,773
302,794;12271,342;    1,187;   -0,500
303,389;12410,361;   -1,177;    1,045
303,985;12462,983;    0,550;    1,409
304,580;12411,245;    1,459;    1,591
305,176;12406,655;   -3,086;    0,136
305,771;12328,289;   -1,268;   -1,227
306,367;12128,482;    4,095;    0,136
306,962;12507,625;    0,641;    1,500
307,558;12254,833;   -0,450;    0,136
308,153;12164,206;    1,095;   -1,136
308,748;12417,864;   -0,814;    1,682
309,344;12388,151;   -0,632;   -1,318
309,939;12471,490;   -1,905;   -1,318
310,534;12799,730;   -0,086;   -1,682
311,130;12704,299;    0,459;   -2,500
311,725;12444,167;    1,004;   -0,500
312,320;12745,878;    2,459;    0,045
312,915;12581,736;    1,459;   -1,045
313,510;12673,569;    1,550;   -0,500
314,105;13192,181;    1,096;    1,409
314,700;12604,231;   -3,086;   -1,045
315,295;12212,063;   -0,904;    0,045
315,890;11811,431;    1,277;    0,864
316,485;12155,634;   -0,359;   -0,318
317,080;12260,546;   -3,086;    1,591
317,675;12785,702;    2,005;   -0,682
318,270;12213,671;    5,550;    3,318
318,865;12232,574;    3,278;    3,045
319,460;12070,138;   -0,904;    0,591
320,055;12339,394;   -0,541;   -1,227
320,650;12023,331;   -1,995;   -0,591
321,244;12059,153;   -0,177;   -1,409
321,839;12980,250;   -1,541;   -0,227
322,434;12893,878;   -1,086;   -1,591
323,029;12481,371;    1,732;    1,591
323,623;12296,773;    1,550;    0,773
324,218;12106,600;    2,368;    1,409
324,812;11990,712;    1,096;    1,591
325,407;11785,592;   -0,814;    2,045
326,002;11650,936;    0,277;   -0,409
326,596;11974,485;    0,914;    1,318
327,191;12178,814;    0,823;   -1,045
327,785;11779,576;   -0,813;   -0,227
328,379;12014,028;    1,368;    0,136
328,974;11802,152;    0,914;   -3,955
329,568;11976,478;    0,186;   -2,409
330,163;11789,052;    2,096;    1,045
330,757;12154,984;    2,459;    1,591
331,351;11484,493;    0,459;    0,682
331,945;11822,518;    0,914;    1,409
332,540;11410,045;   -1,723;   -0,591
333,134;11582,509;   -1,086;    0,773
333,728;11797,649;    0,005;    0,318
334,322;12139,230;   -1,177;   -0,864
334,916;11434,273;    0,277;    0,955
335,510;11734,513;   -0,450;   -0,136
336,105;12011,723;   -1,086;    1,591
336,699;11717,063;   -1,086;    0,591
337,293;11663,228;   -1,723;    0,318
337,887;11779,910;   -2,723;    1,955
338,481;11882,162;    0,459;    0,591
339,074;12026,539;   -0,359;    2,682
339,668;11860,657;   -1,632;    1,227
340,262;12114,911;    1,732;    3,227
340,856;11635,393;    1,822;   -0,682
341,450;11005,326;    1,004;    1,864
342,044;11947,864;    1,459;    0,136
342,637;11689,337;    0,913;   -2,136
343,231;11533,233;   -2,360;    0,682
343,825;11500,148;   -1,086;   -0,591
344,419;11479,010;   -1,995;    0,500
345,012;11235,895;    2,459;    4,045
345,606;11229,916;    4,641;    1,591
346,199;11103,231;   -1,813;   -0,227
346,793;10614,531;    1,914;    2,045
347,386;10828,401;   -0,813;   -1,136
347,980;10814,852;   -0,268;   -0,045
348,573;10594,902;    2,278;    0,409
349,167;10261,576;    5,278;    4,773
349,760;10615,984;    2,914;    2,682
350,354;10599,633;   -0,813;    1,136
350,947;10302,069;    1,096;    1,682
351,540; 9976,725;   -0,358;   -1,409
352,134; 9937,835;    1,096;    1,136
352,727;10024,548;   -0,086;    1,136
353,320; 9820,535;    0,005;    0,591
353,913; 9663,059;   -1,995;    1,864
354,507; 9866,454;    0,823;   -1,227
355,100; 9894,780;    0,460;    0,864
355,693; 9070,731;    2,005;    2,409
356,286; 9130,374;    0,823;    2,773
356,879; 9489,178;   -0,722;    1,227
357,472; 9101,411;   -0,904;    1,500
358,065; 9309,643;   -0,722;    2,500
358,658; 9221,445;   -0,540;    2,318
359,251; 8838,094;   -1,631;   -0,591
359,844; 8323,624;   -1,904;   -1,136
360,437; 8505,851;   -2,995;    0,045
361,030; 8789,152;    1,369;   -0,682
361,623; 8386,471;    2,824;    0,318
362,215; 8413,384;   -0,086;    2,045
362,808; 8233,876;   -2,358;   -1,682
363,401; 8439,661;   -2,449;    0,136
363,994; 8167,664;   -0,631;   -1,500
364,586; 8117,334;    0,824;   -1,500
365,179; 8304,526;   -0,449;   -1,136
365,772; 7778,827;   -1,995;    2,045
366,364; 8064,530;    1,915;   -3,227
366,957; 8264,789;    2,279;   -0,045
367,549; 8294,201;    2,188;   -0,864
368,142; 7958,863;    1,825;   -1,500
368,734; 8164,402;    0,734;   -2,136
369,327; 8139,557;    1,643;   -0,500
369,919; 8049,773;   -1,538;    0,409
370,512; 7811,324;   -1,083;   -0,500
371,104; 7556,210;   -0,901;    1,591
371,696; 7735,334;    1,191;   -0,955
372,289; 7832,364;    0,373;    1,136
372,881; 7962,900;   -2,080;    1,318
373,473; 7889,865;   -2,170;    1,136
374,066; 7693,599;   -0,169;    0,500
374,658; 7531,723;    0,378;    1,136
375,250; 7914,643;    0,653;   -1,409
375,842; 7753,837;    0,473;   -0,045
376,434; 7644,141;   -0,435;   -0,409
377,026; 8224,392;    0,204;   -2,500
377,618; 8107,198;   -0,158;   -0,682
378,210; 7954,731;   -0,338;   -1,955
378,802; 7796,889;    0,754;   -0,591
379,394; 7728,378;    1,846;    0,682
379,986; 8351,462;    1,393;   -0,955
380,578; 8461,618;   -0,153;    0,773
381,170; 7774,619;   -0,972;    0,045
381,762; 7762,241;    0,755;    1,409
382,354; 7968,830;   -0,065;   -1,318
382,945; 8086,016;   -2,976;    0,318
383,537; 8229,567;   -2,705;   -1,955
384,129; 8247,122;   -2,160;   -1,136
384,721; 8431,808;   -0,252;    0,955
385,312; 8361,720;   -0,161;   -0,955
385,904; 8454,865;   -2,706;    1,591
386,496; 7847,743;   -0,979;    1,045
387,087; 7942,272;    1,022;    2,500
387,679; 8006,001;   -1,160;    0,045
388,270; 8138,312;    2,840;    2,045
388,862; 8241,717;    1,295;   -0,318
389,453; 8146,745;   -0,887;    1,045
390,045; 8403,986;   -0,705;   -2,682
390,636; 8377,421;    0,204;   -0,591
391,227; 8220,088;   -0,523;   -0,045
391,819; 8315,921;    0,204;    0,773
392,410; 8368,311;    1,022;    0,045
393,001; 8298,059;   -0,979;   -1,591
393,593; 8596,821;    1,930;   -0,045
394,184; 8468,980;    1,385;   -0,409
394,775; 8392,292;    1,839;    2,136
395,366; 8553,944;    1,385;    0,773
395,957; 8570,447;    0,113;    0,136
396,548; 8889,700;   -0,342;    2,682
397,139; 9214,541;   -2,433;    0,591
397,730; 8946,263;   -1,888;    0,955
398,321; 9002,776;   -1,252;    0,955
398,912; 9051,676;   -0,615;    0,136
399,503; 9102,605;   -3,524;   -1,409
400,094; 8521,374;    0,294;    1,682
400,685; 8382,602;   -0,433;    0,045
401,276; 8449,552;    0,930;   -0,955
401,867; 8786,670;   -0,888;    0,773
402,458; 8880,234;   -2,251;   -2,318
403,048; 8894,532;    1,112;    0,591
403,639; 8524,248;    0,840;    0,864
404,230; 8730,304;    2,476;    0,318
404,821; 8659,060;   -0,615;    0,045
405,411; 8766,023;    1,203;   -2,591
406,002; 8392,486;   -1,252;   -1,136
406,592; 8214,823;    2,294;    0,045
407,183; 8536,971;    0,566;   -1,500
407,774; 8451,221;    3,475;   -0,136
408,364; 8789,041;    0,930;    0,409
408,954; 8377,441;    0,384;    1,227
409,545; 8440,059;    1,021;    1,045
410,135; 8006,234;    1,293;    0,500
410,726; 8140,123;    1,838;    0,318
411,316; 8530,230;    0,111;    0,773
411,906; 8202,763;   -0,253;   -0,409
412,497; 7696,110;   -1,070;   -0,045
413,087; 8300,915;   -1,980;   -0,227
413,677; 8705,974;   -0,707;    3,864
414,267; 8563,644;    0,656;    1,409
414,857; 8575,408;   -2,980;    4,227
415,448; 8863,524;    0,839;    0,500
416,038; 8528,133;    0,020;   -0,591
416,628; 8502,500;   -0,889;    0,409
417,218; 7932,555;    0,565;    3,318
417,808; 8205,684;    0,202;   -0,409
418,398; 8713,268;    0,020;    2,682
418,988; 8743,539;    2,020;    0,591
419,578; 8989,979;   -0,707;    1,409
420,168; 9313,412;   -1,343;   -0,955
420,757; 8906,283;   -1,343;   -1,500
421,347; 8579,767;    0,111;   -0,227
421,937; 8744,599;    2,292;    1,409
422,527; 8667,862;    0,838;   -0,773
423,116; 8506,021;   -0,253;   -0,045
423,706; 8828,706;   -1,889;    0,318
424,296; 8834,603;    1,384;    0,682
424,885; 9274,330;   -0,071;   -3,045
425,475; 9576,514;    1,474;   -2,864
426,065; 9482,443;   -0,980;   -0,318
426,654; 9114,218;   -0,435;   -0,318
427,244; 9209,208;    0,020;    1,409
427,833; 8666,437;    1,383;   -0,500
428,423; 9155,481;   -0,526;    1,136
429,012; 9942,104;   -0,344;   -1,136
429,601; 9402,587;   -1,344;    0,136
430,191; 9665,276;    1,292;    4,318
430,780; 9305,461;   -0,344;   -0,409
431,369; 9199,139;    0,746;   -0,045
431,959; 9885,021;   -1,254;    0,500
432,548; 9646,072;   -1,163;   -0,045
433,137; 9796,419;   -1,254;   -1,318
433,726;10303,363;    0,292;    0,500
434,315; 9650,750;   -0,526;    2,409
434,905; 9762,032;   -1,254;    1,409
435,494; 9668,485;    0,746;    0,955
436,083;10171,635;   -0,981;   -0,955
436,672;10027,618;    0,110;    0,500
437,261; 9580,450;    0,292;   -1,955
437,850; 9660,992;    1,383;    0,682
438,439; 9653,463;    3,291;    1,955
439,027; 9476,604;    3,655;    1,773
439,616; 9843,761;    2,927;    1,227
440,205; 9726,156;    0,200;   -2,136
440,794; 9840,065;    2,109;   -0,045
441,383;10131,916;   -1,346;   -0,591
441,971; 9971,163;   -2,436;    0,591
442,560; 9818,254;    0,563;   -1,773
443,149; 9559,408;    0,379;   -1,318
443,737; 9720,761;   -0,074;   -2,318
444,326; 9991,364;    0,018;    0,318
444,915;10016,638;   -1,982;    0,864
445,503;10444,751;   -2,891;   -0,318
446,092; 9704,892;    0,382;    2,136
446,680;10253,713;    0,382;    0,318
447,269;10435,282;   -0,346;   -0,318
447,857;10216,134;    0,018;   -1,773
448,445;10339,846;    0,563;    1,318
449,034;10589,841;   -1,528;   -1,136
449,622;10703,029;   -1,073;    3,500
450,210; 9866,934;    2,017;    2,227
450,799;10440,705;    0,290;   -0,591
451,387;10394,060;    1,381;   -0,591
451,975;10025,900;    2,654;    0,864
452,563;10134,210;    3,472;    2,318
453,151;10184,573;   -0,528;   -1,227
453,739;10104,978;   -1,347;    0,136
454,328; 9929,319;    2,381;   -2,136
454,916; 9626,087;    2,562;   -0,136
455,504; 9822,753;    1,017;    1,227
456,092;10036,432;    0,017;   -1,591
456,679; 9983,328;    1,472;    0,682
457,267; 9877,725;    4,017;    1,045
457,855;10124,676;    1,017;    1,409
458,443; 9873,553;   -0,165;    1,682
459,031; 9968,551;    0,108;    2,409
459,619;10491,528;   -1,801;    2,864
460,206;10640,526;    0,835;    2,045
460,794;10685,827;   -2,983;   -0,227
461,382;10928,410;   -0,529;   -0,864
461,970;10515,255;    1,198;    1,864
462,557;10556,093;   -0,711;   -0,682
463,145;10729,083;   -3,165;   -1,682
463,732;10887,009;    2,016;   -1,045
464,320;10817,282;   -0,075;   -3,045
464,907;10474,557;    2,743;   -0,773
465,495;10359,188;    0,743;   -1,227
466,082;10528,023;   -1,984;   -0,045
466,670;10459,412;   -2,529;    1,227
467,257;10893,929;   -1,711;    2,045
467,844;11018,563;   -0,075;    0,045
468,432;11030,165;    0,834;    3,500
469,019;10537,035;    0,925;   -1,773
469,606;11032,812;    0,470;    3,682
470,193;10868,277;   -1,439;    0,227
470,780;10403,882;   -2,075;    0,864
471,368;10763,481;   -1,257;   -0,773
471,955;10552,334;    1,379;   -0,682
472,542;10166,619;    0,652;   -1,136
473,129;10455,157;   -0,166;    0,136
473,716;10161,354;    1,470;    0,591
474,303;10399,093;    0,652;   -0,864
474,890;10664,964;   -1,439;   -0,500
475,477;10652,922;   -1,621;    0,409
476,064;10568,194;    1,106;   -1,591
476,650;10480,850;    0,288;    0,318
477,237;10353,213;   -0,258;    0,955
477,824;10515,920;   -1,076;    0,864
478,411;10576,713;   -1,894;   -0,318
478,997;10757,583;    0,560;   -0,773
479,584;10822,738;    1,196;   -0,409
480,171;11558,663;   -0,440;   -0,773
480,757;11203,682;    2,651;    0,773
481,344;11508,189;    0,469;    0,409
481,931;11034,116;    1,105;    1,045
482,517;12003,904;   -1,258;    0,318
483,104;12600,706;    1,106;    2,864
483,690;12943,997;   -1,804;    0,045
484,276;13376,894;   -0,895;    0,227
484,863;13105,995;    2,469;    1,136
485,449;13713,552;   -0,077;    0,318
486,035;13730,791;   -1,986;   -0,136
486,622;14173,660;   -0,895;    0,045
487,208;14143,987;    1,378;    1,500
487,794;13979,775;    0,741;    0,318
488,380;14086,097;    0,105;   -1,409
488,967;14117,613;   -1,168;   -0,409
489,553;14186,818;   -1,895;   -1,409
490,139;14391,526;    1,559;    0,773
490,725;13821,921;    0,741;   -0,227
491,311;13379,857;    3,287;    3,045
491,897;12691,148;   -0,986;    1,500
492,483;12489,503;    0,105;    1,227
493,069;12184,959;    3,923;    0,864
493,655;12202,110;    1,650;    0,682
494,241;12125,228;    1,377;   -0,955
494,826;12493,267;    0,287;   -1,045
495,412;11944,935;    2,559;   -0,682
495,998;12097,344;   -0,805;   -0,318
496,584;12282,205;    0,377;    1,045
497,169;12260,423;    1,014;   -0,682
497,755;12223,342;    0,650;    1,227
498,341;12769,871;    0,559;    0,318
498,926;12336,575;    1,832;    1,955
499,512;12544,918;    1,286;    2,955
500,097;12676,069;    0,195;   -0,318
500,683;12633,722;   -0,350;    2,136
501,268;12993,130;   -0,169;   -0,955
501,854;12691,446;   -0,169;    1,227
502,439;12609,075;   -0,624;   -1,773
503,024;12867,918;    0,195;    0,500
503,610;12914,204;   -0,078;   -0,682
504,195;12924,669;    0,558;    1,955
504,780;13031,155;    2,922;    1,227
505,366;12832,572;    3,013;    2,864
505,951;12531,653;    0,740;    1,045
506,536;12591,829;   -3,260;   -3,682
507,121;12611,878;    0,285;   -0,318
507,706;13130,078;    2,376;    1,045
508,291;13504,022;    2,649;    1,136
508,876;12979,489;   -0,988;    2,591
509,461;12412,994;   -0,169;   -0,773
510,046;12821,002;    0,194;    0,318
510,631;13095,986;   -0,351;   -0,773
511,216;12776,496;    2,467;   -0,500
511,801;13142,816;   -0,442;    2,591
512,386;13443,004;    0,740;    0,500
512,971;13389,997;   -2,988;    0,955
513,555;12933,755;   -0,897;   -1,500
514,140;13731,013;   -0,442;   -3,136
514,725;13717,089;   -0,715;   -1,136
515,309;13871,324;   -0,533;    0,318
515,894;13300,740;   -0,624;   -2,227
516,479;13729,803;   -0,624;   -0,955
517,063;13601,928;    0,376;    1,227
517,648;13759,590;    1,012;   -1,136
518,232;13406,927;   -0,261;   -1,409
518,817;13737,635;   -0,079;    1,682
519,401;13954,565;    2,194;    0,591
519,985;13462,879;    1,103;    1,136
520,570;13304,205;    0,830;   -1,955
521,154;13579,896;    2,102;    0,591
521,738;13783,889;   -2,352;    2,409
522,323;14368,950;   -0,170;    1,682
522,907;14150,838;    0,466;   -0,136
523,491;13847,402;    0,557;    0,955
524,075;13783,110;    2,284;    0,591
524,659;13880,036;    1,466;    0,591
525,243;13355,093;    1,739;    0,409
525,827;13595,902;    0,648;   -0,045
526,411;14464,218;   -1,989;   -0,136
526,995;14694,975;   -0,352;    1,409
527,579;14256,206;   -0,443;   -1,045
528,163;14595,974;    0,375;   -1,500
528,747;14474,216;    2,466;   -0,773
529,331;14814,671;   -0,080;   -1,409
529,915;15051,201;    1,738;    0,955
530,499;14946,532;   -0,807;    1,227
531,082;14642,375;   -0,534;    1,591
531,666;14092,714;    1,374;    0,773
532,250;14799,378;    1,284;    2,682
532,833;15144,014;    0,920;    2,773
533,417;14981,150;   -1,807;    0,864
534,001;14985,119;    1,647;   -0,318
534,584;15673,555;    0,374;    0,500
535,168;15549,361;    0,465;    1,409
535,751;15566,753;    0,647;    0,045
536,334;15017,536;   -0,898;   -0,409
536,918;15648,004;    0,011;    1,591
537,501;15751,637;   -0,899;    1,318
538,085;15754,862;   -0,444;    1,045
538,668;15952,933;    0,829;    2,409
539,251;16230,914;    1,829;    3,773
539,834;16207,980;    0,101;    0,773
540,418;16167,641;   -1,990;    4,318
541,001;16310,195;   -0,990;    1,773
541,584;16280,456;    2,101;    2,227
542,167;15975,426;    1,374;    2,955
542,750;16197,787;    1,919;   -0,773
543,333;15741,596;    0,555;    2,136
543,916;16492,674;    0,192;    2,500
544,499;17167,522;   -1,354;    0,227
545,082;17145,144;    1,374;    3,591
545,665;17296,036;    1,919;    1,500
546,248;17663,596;    1,010;   -0,318
546,830;17255,624;   -0,445;    1,955
547,413;17669,189;    1,010;   -0,773
547,996;18280,783;    0,555;    0,500
548,579;18054,857;    0,919;    0,955
549,161;17842,389;    1,828;    2,682
549,744;17608,099;   -0,809;    0,409
550,326;18151,384;   -0,809;   -1,136
550,909;17888,348;    2,737;    0,591
551,492;18303,983;   -0,263;    0,227
552,074;18068,521;   -0,173;   -1,318
552,657;18638,495;    2,373;    0,045
553,239;18360,435;   -0,173;   -0,773
553,821;18331,311;   -1,082;    1,045
554,404;17817,093;    1,282;    1,136
554,986;18188,349;    0,464;    1,045
555,568;18820,744;    1,191;   -0,955
556,151;18001,542;    1,191;   -0,227
556,733;18223,682;   -0,264;   -0,864
557,315;18702,518;    0,100;    0,500
557,897;18541,642;    0,554;   -0,500
558,479;18673,323;   -1,991;    1,318
559,061;18781,965;   -0,719;   -0,864
559,643;19164,573;   -0,264;    0,045
560,225;19497,185;    1,645;    2,864
560,807;19500,482;    0,918;    0,318
561,389;19032,578;    0,554;    2,318
561,971;19829,724;    0,463;    2,136
562,553;19592,185;   -1,628;    1,591
563,135;19686,472;   -0,537;    1,136
563,717;19295,979;    3,372;    1,136
564,298;19984,346;    3,645;   -0,045
564,880;19710,764;    0,645;   -1,409
565,462;19904,582;    0,645;    1,318
566,043;21079,863;   -0,446;    2,318
566,625;20611,948;    1,918;    1,227
567,207;20496,605;    1,099;    1,682
567,788;21629,636;   -1,264;    1,500
568,370;22419,124;    1,917;   -0,500
568,951;22304,920;    0,190;    0,227
569,533;23174,665;   -0,628;   -0,500
570,114;23641,770;   -0,446;    0,682
570,695;24123,013;   -0,174;   -1,318
571,277;24688,178;   -0,265;   -1,682
571,858;25437,967;    2,008;   -1,136
572,439;26391,853;    1,554;   -1,045
573,021;26577,580;    2,099;   -2,773
573,602;27075,044;   -1,265;    0,318
574,183;27991,547;   -2,083;    2,227
574,764;28193,678;   -1,629;    0,409
575,345;28754,747;    0,917;   -0,136
575,926;29394,773;   -0,356;    0,136
576,507;29396,220;    1,099;   -0,227
577,088;30514,187;    3,099;    1,682
577,669;30498,819;    0,735;    1,955
578,250;31223,547;    0,644;   -1,045
578,831;31935,181;   -1,356;   -2,227
579,412;32246,526;   -0,810;    0,955
579,993;33193,967;    1,008;    0,227
580,573;33541,642;   -0,629;   -0,955
581,154;32509,130;    0,735;   -0,591
581,735;33320,144;    0,644;    0,773
582,315;32821,871;   -0,629;    2,136
582,896;33183,133;   -0,174;    1,227
583,477;32678,009;    0,189;    1,227
584,057;32841,480;    0,553;    0,955
584,638;33120,422;    2,553;    2,318
585,218;33101,740;   -0,538;    2,682
585,799;33315,814;    0,281;   -0,227
586,379;33283,096;    0,372;    1,591
586,959;32047,703;    0,735;    0,318
587,540;31380,247;   -0,629;    2,227
588,120;30888,454;    1,007;   -0,045
588,700;29807,252;    2,553;    2,136
589,281;30019,577;    0,462;   -0,955
589,861;30000,647;    0,099;   -1,682
590,441;29870,317;    2,371;   -2,682
591,021;28808,415;   -0,265;   -2,591
591,601;29063,903;   -0,537;    0,500
592,181;29040,002;   -0,719;   -0,773
592,761;28349,478;    0,007;    1,409
593,341;28226,119;   -0,901;    0,045
593,921;28190,337;   -0,265;    1,591
594,501;28099,281;   -0,538;    1,318
595,081;27969,811;    0,917;   -0,318
595,661;28325,393;   -1,447;    0,955
596,240;28791,390;   -0,537;    0,136
596,820;28374,304;    0,372;    1,955
597,400;28629,134;    2,008;    0,773
597,980;28907,191;    2,008;    1,045
598,559;28880,661;    2,735;   -0,227
599,139;28594,425;   -0,174;   -1,227
599,718;28542,243;   -0,174;   -0,409
600,298;28739,238;    0,735;    0,682
600,877;28953,301;    2,917;    1,409
601,457;29232,033;    2,281;    1,136
602,036;29186,806;    0,190;    2,045
602,616;29398,276;    0,644;    1,682
603,195;29742,299;   -0,355;    3,500
603,774;29260,031;   -0,901;    2,045
604,354;29122,012;    0,826;   -0,500
604,933;28628,066;    0,463;    1,864
605,512;28790,361;    3,554;    0,591
606,091;28831,041;   -0,537;    3,773
606,671;29619,643;    0,281;    0,773
607,250;28688,928;    1,644;    3,136
607,829;28900,421;    2,372;    3,227
608,408;28808,087;    1,190;    2,591
608,987;27795,530;    1,281;    3,409
609,566;28138,490;   -1,265;   -2,500
610,145;28256,978;   -1,082;    0,682
610,723;28642,489;    4,372;    6,864
611,302;27825,020;   -0,446;    1,682
611,881;27366,524;    5,008;   11,227
612,460;28214,783;    1,645;    3,955
613,039;28617,146;   -0,082;    2,045
613,617;27339,660;    1,736;    4,773
614,196;27572,361;    1,099;    1,227
614,775;27894,646;    1,009;    2,409
615,353;27800,545;    0,736;    0,864
615,932;27555,804;    0,100;    2,409
616,510;28201,276;    0,554;    0,591
617,089;27636,063;    7,100;   17,591
617,667;27351,720;    2,372;    6,136
618,246;27271,041;   -1,537;    1,318
618,824;27417,852;   -3,355;   -0,955
619,402;27012,585;   -2,900;   -1,773
619,981;27481,959;   -0,173;   -1,045
620,559;27314,416;    0,009;    1,682
621,137;26844,239;   -0,718;    1,864
621,715;26811,387;   -1,173;   -0,682
622,293;26752,746;   -0,537;   -0,773
622,871;27239,063;   -0,718;    0,500
623,450;26827,738;    0,373;   -0,864
624,028;26699,078;    0,191;   -0,955
624,606;26305,951;   -1,718;    1,682
625,183;26728,195;   -1,536;   -1,136
625,761;26340,189;    1,009;    1,136
626,339;26656,677;    1,373;    2,591
626,917;27028,330;   -0,172;   -0,045
627,495;27055,109;   -0,354;    1,318
628,073;26500,593;   -0,263;    2,864
628,650;26249,347;    0,100;    2,136
629,228;26625,473;    0,373;    4,409
629,806;26020,632;    2,282;    1,136
630,383;26321,494;    1,464;   -0,318
630,961;26072,755;    2,555;   -0,955
631,539;25792,176;    2,464;    0,227
632,116;25075,028;   11,373;   15,409
632,694;25670,506;    2,555;    6,500
633,271;26053,794;    0,828;    2,682
633,848;25921,790;    1,828;    2,045
634,426;25983,426;   -1,081;    1,773
635,003;25123,897;    1,101;   -0,409
635,580;25374,417;    1,192;    3,682
636,158;25989,014;    3,737;    1,227
636,735;25978,099;    0,555;   -0,500
637,312;26116,243;   -0,809;   -0,682
637,889;26222,272;   -4,354;   -0,682
638,466;25671,925;   -3,990;   -0,409
639,043;25704,959;    2,101;   -1,136
639,620;26050,284;   -2,262;   -0,955
640,197;26362,582;    1,100;    1,682
640,774;26466,097;   -0,172;    1,136
641,351;26876,431;    0,737;    1,136
641,928;26254,946;   -0,627;    1,409
642,505;25916,189;    0,828;   -0,500
643,082;26027,704;   -1,718;    1,227
643,658;25056,220;   -0,718;    1,500
644,235;25835,826;    1,191;    2,500
644,812;26161,432;    1,918;    0,773
645,388;25883,675;   -0,991;    1,409
645,965;26006,281;   -0,809;    1,682
646,542;26051,887;   -1,445;   -0,227
647,118;26005,039;    1,009;   -0,955
647,695;26327,645;   -0,263;    1,136
648,271;26225,615;   -0,536;    0,500
648,848;26571,858;    0,736;    2,227
649,424;26367,373;    0,827;    1,318
650,000;26140,888;   -0,354;   -1,045
650,577;25940,585;   -0,627;   -0,955
651,153;26419,737;   -1,809;    0,955
651,729;27444,343;    1,191;    0,864
652,305;27593,313;    0,645;    2,773
652,881;32029,374;   -0,082;    1,136
653,458;39043,526;    1,100;    0,227
654,034;43139,677;    0,282;    1,591
654,610;44829,284;    0,554;    0,773
655,186;46262,254;    0,645;    3,045
655,762;45960,314;   -0,991;    0,409
656,338;45976,193;    0,100;    0,136
656,913;46912,891;   -0,082;    0,409
657,489;46229,497;    0,827;   -0,318
658,065;46258,921;   -0,173;   -1,591
658,641;46880,527;   -0,900;   -0,864
659,217;46187,497;   -0,991;    0,409
659,792;45639,467;    0,645;   -0,409
660,368;45881,073;   -2,173;   -0,682
660,944;45504,952;   -2,082;    1,227
661,519;40962,104;   -0,628;    0,409
662,095;34795,710;   -1,719;    0,591
662,670;29862,317;    1,281;   -0,136
663,246;28497,196;    1,009;   -0,409
663,821;27729,438;    0,281;    1,682
664,396;27210,863;    0,009;    1,864
664,972;27484,923;    0,009;   -0,500
665,547;27770,621;    1,372;    0,136
666,122;27797,591;   -1,082;    0,318
666,698;28091,015;   -0,173;    0,318
667,273;27428,348;   -0,173;    0,136
667,848;28287,591;    2,372;    1,500
668,423;28048,197;    2,190;    2,318
668,998;28614,985;    2,827;   -0,682
669,573;29216,137;   -3,264;   -1,500
670,148;29010,743;   -1,446;   -0,682
670,723;28826,077;   -1,810;    0,318
671,298;29240,774;    2,372;    1,045
671,873;29363,653;   -0,082;   -0,136
672,448;29350,532;    0,645;    0,136
673,023;29729,593;   -1,992;   -0,227
673,597;29981,835;    0,827;    2,318
674,172;29800,805;   -0,355;    0,318
674,747;29290,321;    0,372;   -1,045
675,321;29122,109;   -0,628;    3,318
675,896;28668,533;    0,645;    1,045
676,471;29688,776;    2,645;    1,591
677,045;29496,200;   -1,264;    0,682
677,620;29517,625;    0,190;    1,136
678,194;29801,049;   -2,628;    1,136
678,769;29357,928;   -1,083;   -0,318
679,343;29632,171;   -0,628;    1,773
679,917;29476,504;   -1,446;    1,955
680,492;29579,110;    0,826;    3,227
681,066;29724,626;    3,372;    0,409
681,640;29768,868;    1,463;   -0,318
682,214;30605,565;    0,735;    0,500
682,788;30065,444;   -1,356;   -0,773
683,363;30024,869;   -1,810;    1,682
683,937;29742,202;   -1,719;   -0,318
684,511;30567,445;    0,463;   -0,591
685,085;30248,142;   -1,356;    0,318
685,659;30066,385;   -2,538;    0,864
686,232;30232,173;   -0,356;   -0,318
686,806;29953,506;   -0,901;    0,409
687,380;30640,931;   -0,174;    0,591
687,954;30886,992;   -1,174;    1,136
688,528;30492,780;   -0,719;    1,955
689,101;31315,022;   -3,992;    1,045
689,675;30927,810;   -0,356;   -0,136
690,249;30250,144;   -0,719;    0,409
690,822;30577,841;    0,280;    0,318
691,396;30668,811;   -0,265;    1,227
691,969;30143,690;    1,280;    0,136
692,543;30599,296;   -0,447;   -1,955
693,116;30281,811;   -0,265;   -1,409
693,690;30145,418;    0,099;    0,500
694,263;30644,933;   -1,083;    2,955
694,836;30708,085;    1,371;    3,591
695,410;29359,873;   -0,265;    1,773
695,983;29818,388;    0,189;    0,591
696,556;29793,267;   -0,447;   -1,045
697,129;30177,510;   -0,356;    1,409
697,703;29808,207;   -1,629;    1,955
698,276;29786,268;    1,462;   -0,773
698,849;29582,692;    1,280;    1,409
699,422;29985,298;   -1,083;    0,591
699,995;29677,996;    0,007;    0,136
700,568;30200,420;   -0,629;    3,045
701,140;30216,753;   -2,811;    1,682
701,713;29904,996;   -0,174;    2,409
702,286;29666,784;   -0,538;    0,864
702,859;29573,481;   -0,902;   -0,591
703,432;28701,815;    0,825;    0,682
704,004;29221,148;    0,462;    0,318
704,577;29091,391;   -0,629;    0,136
705,150;29697,543;    0,189;    2,500
705,722;29454,149;   -0,356;   -3,227
706,295;29215,482;   -0,175;   -0,591
706,867;29047,089;   -0,175;    1,955
707,440;29258,513;   -1,720;   -0,409
708,012;29466,392;    0,462;    0,591
708,584;29476,726;    2,462;    0,227
709,157;29754,968;    1,825;   -0,591
709,729;29410,302;    2,280;    2,045
710,301;30304,453;    0,734;    0,045
710,874;30267,514;   -1,447;   -0,227
711,446;29132,757;    0,371;    0,864
712,018;29073,545;    0,098;    0,500
712,590;28790,788;   -1,993;    1,682
713,162;29307,576;    0,825;    1,318
713,734;29563,546;    1,825;   -2,045
714,306;29474,970;   -1,902;   -0,409
714,878;28137,485;    0,825;    0,864
715,450;28978,182;    0,643;    0,864
716,022;29211,607;    1,552;    1,318
716,593;29387,759;    0,189;    0,591
717,165;29307,001;   -3,175;   -1,227
717,737;28988,244;    0,280;    0,409
718,309;28674,668;    0,280;   -0,045
718,880;28613,184;   -0,539;   -1,409
719,452;28834,881;   -0,175;   -1,591
720,024;28422,032;    0,734;   -0,591
720,595;29046,184;   -2,902;    0,955
721,167;28576,699;    0,370;   -2,045
721,738;28074,033;   -0,812;   -1,045
722,309;27969,548;   -0,993;   -1,227
722,881;27748,882;   -1,357;    0,773
723,452;28368,670;   -2,630;    2,864
724,023;28603,640;   -0,721;    2,682
724,595;28358,337;    0,007;    0,682
725,166;28124,034;    0,007;   -0,409
725,737;27786,731;    1,734;    0,227
726,308;27875,156;   -0,266;    0,318
726,879;28301,307;   -1,630;    1,227
727,450;28158,368;    0,552;   -0,045
728,021;28144,702;    3,097;    0,682
728,592;27898,126;    0,734;    0,500
729,163;28226,551;    0,643;   -0,136
729,734;28244,157;    0,188;   -0,227
730,305;28637,854;    1,734;    0,136
730,876;28936,369;    0,188;    2,955
731,447;28651,066;    2,188;    2,682
732,017;28754,036;    1,097;    1,864
732,588;28292,188;    0,734;    1,227
733,159;28449,158;    0,643;   -1,045
733,729;28310,128;    0,006;    0,409
734,300;27537,552;    0,915;    0,864
734,870;27959,613;    3,461;    0,591
735,441;28546,492;    0,370;   -0,591
736,011;28312,371;    0,643;   -1,591
736,582;28271,432;   -0,812;    0,045
737,152;27779,311;   -1,721;   -2,045
737,722;28144,553;   -0,267;   -0,682
738,293;27895,705;   -1,358;    1,318
738,863;27765,766;    2,461;    2,318
739,433;27525,099;    5,279;    0,318
740,003;28195,342;   -0,994;   -0,682
740,573;27582,312;    2,097;   -1,591
741,143;27514,918;   -1,085;    0,318
741,713;28337,343;    1,188;   -0,500
742,283;27985,585;    0,915;    1,591
742,853;27788,373;    1,915;    1,591
743,423;27217,161;    1,733;    0,045
743,993;27397,677;   -0,358;    1,500
744,563;26738,465;    0,097;   -0,864
745,133;26674,980;   -0,812;   -0,864
745,702;27408,768;   -0,267;    1,773
746,272;26615,465;   -0,176;    0,591
746,842;26344,072;   -1,358;   -0,591
747,411;26773,860;   -0,267;   -0,318
747,981;27027,011;    0,097;    0,500
748,551;27049,072;    2,278;   -1,045
749,120;26866,042;    0,642;   -0,227
749,690;27272,921;   -0,631;    2,409
750,259;27544,618;    1,369;    2,955
750,828;27470,952;    1,551;   -1,955
751,398;27754,831;    1,278;   -0,045
751,967;27274,982;    2,187;    0,409
752,536;27477,770;   -0,813;   -0,227
753,105;27931,013;    0,096;    0,227
753,675;27780,619;    0,096;    1,773
754,244;27688,226;   -0,904;    3,591
754,813;27723,377;    0,551;    1,227
755,382;27260,983;    0,460;    0,955
755,951;27841,317;    1,551;    3,682
756,520;27373,378;   -0,085;    1,864
757,089;27917,529;    0,278;    0,500
757,658;28075,318;    1,733;    1,227
758,227;28110,015;    1,096;    0,318
758,795;28416,894;    1,187;    1,136
759,364;28678,318;   -0,086;   -0,591
759,933;27681,106;   -1,176;   -0,045
760,501;27201,349;    0,733;   -1,318
761,070;27648,682;   -2,813;   -1,409
761,639;28344,470;   -1,904;    1,318
762,207;27683,258;    1,551;   -0,955
762,776;27607,228;    0,369;    0,864
763,344;27559,835;   -0,995;    0,591
763,913;26699,623;   -0,722;    1,409
764,481;27454,683;    1,005;   -0,136
765,049;27234,199;   -1,358;    1,409
765,618;27086,260;   -0,086;    0,318
766,186;27190,411;    0,278;    0,136
766,754;27396,745;    0,005;    1,864
767,322;26366,533;   -1,995;    0,409
767,890;26458,321;   -0,722;   -1,773
768,459;26802,018;   -2,177;   -0,318
769,027;26948,624;    1,641;    3,409
769,595;25929,231;    3,278;    2,591
770,163;26411,746;    3,823;    2,955
770,730;26160,170;    0,732;   -0,136
771,298;25946,595;    0,187;   -1,409
771,866;26039,656;   -1,541;    4,955
772,434;26467,898;   -0,631;   -1,864
773,002;26621,141;    0,005;    0,682
773,569;26242,020;    0,914;    1,682
774,137;26045,353;   -0,268;   -0,045
774,705;26815,050;    0,278;   -0,136
775,272;26336,748;    0,641;    0,682
775,840;26065,354;   -0,177;    2,682
776,407;25573,687;    0,277;    1,955
776,975;25205,203;   -0,632;    0,318
777,542;26221,900;   -1,086;   -0,045
778,110;26009,688;   -1,268;   -0,045
778,677;25765,385;   -2,359;   -0,864
779,244;25477,810;    2,186;    1,045
779,812;25597,961;    1,823;    0,864
780,379;25466,113;    0,005;    1,136
780,946;25700,446;    1,005;   -0,773
781,513;26036,962;   -1,450;    0,318
782,080;25379,568;   -0,086;    2,864
782,647;26111,629;   -0,268;    3,045
783,214;25672,326;   -0,177;    3,864
783,781;25320,932;   -0,723;   -0,682
784,348;25219,357;   -0,632;    1,500
784,915;25672,327;   -3,177;    0,318
785,482;25406,751;    1,368;    2,591
786,049;25909,812;    0,186;   -0,591
786,615;26003,600;    0,277;   -0,955
787,182;25750,933;    0,186;   -0,682
787,749;25435,903;   -2,814;    1,409
788,315;24702,782;   -1,632;   -0,409
788,882;24974,752;    1,550;   -1,227
789,448;25681,540;    1,732;   -0,955
790,015;25796,237;    1,095;    3,227
790,581;25290,389;    1,459;    0,227
791,148;25198,632;    0,641;    1,045
791,714;25463,511;   -0,541;    3,136
792,280;25104,935;    0,186;    1,591
792,847;24636,996;    0,550;    2,500
793,413;25280,238;   -0,269;   -0,318
793,979;24773,390;    3,459;   -1,318
794,545;24847,360;    4,459;    2,682
795,111;24253,694;    2,186;    1,318
795,678;24441,391;    0,731;   -1,682
796,244;24047,542;    3,368;    0,136
796,810;24622,694;    1,731;    0,773
797,375;24314,937;    0,549;   -2,136
797,941;24333,816;   -0,541;    0,591
798,507;24493,240;   -0,451;   -0,955
799,073;24021,392;   -0,360;    0,591
799,639;24064,271;   -2,632;    3,136
800,205;24126,968;    0,095;    2,682
800,770;23647,211;    0,640;    1,773
801,336;23761,908;    1,368;   -0,955
801,901;23456,878;    4,549;    3,136
802,467;24012,938;   -0,542;    2,045
803,033;23335,181;   -0,087;    0,864
803,598;23554,969;    1,913;   -1,045
804,163;23589,394;    1,095;   -0,318
804,729;23513,454;   -0,178;    1,136
805,294;24001,606;    0,822;    2,227
805,859;23744,212;    0,731;   -0,409
806,425;23173,546;    1,186;    2,682
806,990;22833,698;    2,186;    4,318
807,555;23318,122;   -1,451;    2,591
808,120;23218,637;    0,822;   -0,409
808,685;23313,334;    0,185;   -2,500
809,250;22792,032;    0,004;   -0,500
809,815;23116,274;    1,913;    0,682
810,380;23671,971;   -0,269;    1,591
810,945;24216,305;   -1,087;    2,045
811,510;23335,184;    2,094;    1,591
812,075;23058,972;   -0,633;   -1,409
812,640;23103,033;    2,003;    1,409
813,204;23171,094;    0,822;   -0,227
813,769;23643,154;    2,094;   -0,045
814,334;23079,579;    0,458;    0,864
814,898;23113,185;    0,367;    0,591
815,463;22973,882;    1,276;   -0,773
816,027;22921,307;   -0,724;   -2,318
816,592;23032,549;    0,640;   -2,045
817,156;22531,155;    2,094;    1,136
817,721;22377,762;    4,276;    2,318
818,285;22290,004;    2,912;    1,500
818,849;22984,611;   -1,451;    1,682
819,414;22898,035;   -0,269;    2,955
819,978;22490,369;   -1,269;    1,773
820,542;23082,884;    2,003;    0,500
821,106;22722,217;   -0,815;    0,682
821,670;22840,187;   -0,815;    2,591
822,234;22577,248;   -0,270;    1,409
822,798;21964,309;    0,003;    0,500
823,362;21875,188;   -0,633;    4,227
823,926;21166,430;    0,094;    1,136
824,490;21441,673;   -0,997;   -0,682
825,054;21882,734;   -0,088;   -1,136
825,618;21529,795;   -1,542;   -1,500
826,181;21441,401;    0,458;   -1,318
826,745;21336,825;    1,367;   -1,045
827,309;21683,522;    1,185;    1,318
827,872;21090,492;    1,367;    0,955
828,436;22084,099;    1,185;   -0,773
828,999;22174,523;   -0,997;    1,227
829,563;20916,311;   -0,179;    1,136
830,126;20738,190;   -0,179;   -0,591
830,690;20728,796;   -1,997;    2,864
831,253;20255,221;   -0,543;    2,227
831,816;20368,009;   -1,906;    0,500
832,380;20325,342;    0,185;    0,864
832,943;20547,403;   -1,361;   -0,500
833,506;20036,373;    2,639;   -1,227
834,069;20845,797;    3,912;   -0,955
834,632;20842,040;    1,730;    1,318
835,195;20775,646;    1,003;    0,955
835,758;19976,162;   -0,997;    1,955
836,321;19814,677;    0,730;   -1,045
836,884;19925,011;   -0,725;   -0,955
837,447;19988,526;   -2,816;    1,773
838,010;20217,768;    0,366;    3,227
838,573;20487,920;   -1,179;    0,773
839,135;20454,254;   -1,361;   -0,955
839,698;19892,224;    1,275;    0,409
840,261;19433,648;    1,003;   -0,227
840,823;19275,709;   -0,543;    0,864
841,386;19576,679;   -0,452;   -2,409
841,948;19413,467;   -1,361;    1,773
842,511;19155,346;    0,912;    1,682
843,073;19274,679;    1,912;    0,227
843,636;19082,467;   -0,361;   -0,227
844,198;19037,255;    0,911;    0,591
844,760;19141,407;    1,093;    1,955
845,322;18787,013;    0,548;    1,136
845,885;19188,074;    0,730;    0,591
846,447;19667,953;   -1,998;    0,227
847,009;19241,196;    1,911;   -0,682
847,571;19583,711;    0,820;   -2,045
848,133;19653,681;   -1,089;   -1,864
848,695;19497,651;   -0,543;    1,409
849,257;19036,803;   -1,089;   -1,682
849,819;19181,863;   -0,998;   -0,409
850,381;19233,924;   -0,725;   -0,864
850,942;19657,894;    1,093;   -0,591
851,504;19558,046;    1,184;    0,227
852,066;19600,379;    1,275;   -1,591
852,628;19163,531;   -0,180;    1,955
853,189;18749,592;    1,638;    2,682
853,751;18830,289;   -0,907;    1,409
854,312;18637,077;   -0,453;   -1,682
854,874;19129,683;   -2,089;   -0,773
855,435;19659,289;   -0,907;   -1,682
855,997;19784,896;   -1,816;   -0,136
856,558;19090,957;    0,366;    1,773
857,119;19210,108;    0,820;    2,864
857,681;18899,896;    0,002;    0,318
858,242;18943,321;    1,911;   -2,136
858,803;19364,200;    0,456;   -0,773
859,364;19955,533;    0,184;   -4,773
859,925;19270,049;   -2,453;   -0,955
860,486;19174,109;   -0,453;   -0,955
861,047;18863,170;   -0,544;   -1,227
861,608;18726,049;   -1,089;   -0,773
862,169;18836,474;    0,638;   -0,045
862,730;18591,080;    0,456;    1,409
863,291;18876,777;   -0,635;   -0,500
863,852;19201,474;   -0,635;    1,955
864,412;18644,171;   -0,271;   -0,864
864,973;17223,505;   -0,089;    0,500
865,534;17086,929;   -1,726;    0,227
866,094;18643,445;    1,820;    0,227
866,655;18280,142;    1,274;    3,318
867,215;18551,475;    0,274;    0,136
867,776;18387,900;    0,547;   -0,136
868,336;18475,688;   -1,453;    0,136
868,897;17941,294;    2,638;    1,682
869,457;17689,173;    1,365;    0,318
870,017;17929,779;    0,547;   -1,227
870,578;18459,658;   -0,817;    0,773
871,138;18168,174;   -2,089;   -0,955
871,698;17695,416;   -0,817;   -1,318
872,258;17566,477;   -0,453;   -2,864
872,818;17935,720;    2,729;    0,045
873,378;17879,962;    0,638;    1,045
873,938;17453,387;    0,547;    0,500
874,498;17813,811;    0,274;   -1,955
875,058;17669,417;    2,183;    1,773
875,618;17515,114;    1,910;   -2,682
876,177;17468,721;    1,274;    0,136
876,737;17071,418;   -0,090;    1,955
877,297;17018,206;    0,183;    1,955
877,856;17024,994;   -0,362;    0,318
878,416;16988,237;    1,183;   -0,136
878,976;17201,388;   -1,817;    0,409
879,535;17383,813;    0,092;    3,136
880,095;17148,692;   -0,544;    0,045
880,654;17256,934;   -1,090;    1,318
881,213;17325,995;    2,456;    1,500
881,773;16987,238;    2,637;    2,682
882,332;17307,117;    3,365;    5,136
882,891;17163,814;    3,092;    2,136
883,451;17658,420;   -1,272;    1,682
884,010;17113,845;   -2,908;   -0,409
884,569;17186,905;   -0,999;   -0,045
885,128;17303,330;    2,819;   -1,864
885,687;17406,027;    4,455;    0,682
886,246;17040,542;    1,455;    2,136
886,805;16858,148;    2,455;    2,045
887,364;17187,664;   -0,999;   -0,500
887,922;17552,634;   -1,181;    0,045
888,481;17034,695;   -1,545;    0,591
889,040;17326,664;    1,183;    2,136
889,599;17978,816;    2,455;    1,409
890,157;18109,422;    1,455;    2,409
890,716;17772,392;   -0,090;    0,227
891,274;17542,998;    0,092;   -1,136
891,833;18008,332;    1,546;    0,864
892,391;17883,484;   -0,454;    0,500
892,950;17956,090;    1,819;   -0,773
893,508;18339,333;    0,455;   -0,409
894,067;17675,393;    0,637;    0,136
894,625;17580,636;   -0,636;   -1,500
895,183;17835,242;   -0,363;   -0,682
895,741;17710,394;    1,728;   -1,773
896,299;17558,182;   -0,545;   -2,409
896,858;17728,516;    0,819;   -1,591
897,416;17883,667;    2,728;   -1,318
897,974;17604,910;    1,819;    0,318
898,532;17723,971;    6,091;    2,682
899,089;17640,940;    2,091;   -0,682
899,647;17663,729;   -1,454;    1,318
900,205;17362,880;    1,182;    1,045
900,763;17608,850;   -0,454;    0,227
901,321;17593,002;    2,364;   -1,409
901,878;17004,154;   -1,000;   -0,773
902,436;16838,760;   -1,363;    1,318
902,994;17254,275;    4,728;    3,682
903,551;16711,154;    0,728;    0,409
904,109;17127,488;    0,182;   -1,409
904,666;16683,821;    2,455;    1,045
905,224;16548,518;    0,182;   -0,409
905,781;16260,034;    0,727;   -0,318
906,338;16330,185;   -1,363;    1,045
906,895;16251,155;    0,637;    2,045
907,453;16196,034;    1,727;    1,136
908,010;16248,550;   -0,909;    0,409
908,567;15870,338;    1,273;    0,591
909,124;15404,671;    0,364;   -1,500
909,681;15493,732;   -2,909;    0,682
910,238;15557,065;    0,636;   -1,318
910,795;15894,581;   -0,273;   -1,136
911,352;15542,854;   -2,909;   -2,682
911,909;14928,672;   -1,364;   -0,864
912,466;15425,763;   -3,182;    1,500
913,022;14984,308;   -1,636;    0,500
913,579;15349,672;   -0,909;    2,045
914,136;15037,399;    1,636;    0,955
914,692;15363,672;    0,091;   -1,227
915,249;14972,126;    1,455;    0,409
915,806;15202,217;    0,182;    1,955
916,362;14932,581;    1,909;    1,864
916,918;14488,217;    2,000;    1,045
917,475;14435,763;   -1,182;    0,955
918,031;14516,035;    3,364;   -0,045
918,587;13976,581;   -0,909;   -0,318
919,144;14215,581;   -2,273;    0,227
919,700;14508,126;    1,727;    0,773
920,256;14081,399;    0,727;    0,045
920,812;13722,490;   -0,727;   -1,045
921,368;13715,399;   -1,727;   -1,045
921,924;13369,217;    0,182;   -0,136
922,480;12913,672;   -0,545;    1,227
923,036;13531,399;    1,273;    1,955
923,592;13505,763;    0,455;    0,318
924,148;13393,126;    0,455;   -0,955
924,704;12655,672;   -1,364;   -0,409
925,259;12943,854;   -0,273;    0,591
925,815;12682,308;    1,455;    0,500
926,371;12216,217;    2,909;    1,409
926,926;12104,490;    2,091;    0,591
927,482;11714,308;   -1,364;    0,773
928,037;11572,399;    0,909;    2,045
928,593;11842,854;    1,636;    1,045
929,148;11667,944;   -1,818;   -1,500
929,704;11174,035;   -1,455;   -0,500
930,259;11400,763;    0,091;   -0,136
930,814;10409,035;   -0,818;    1,955
931,369;10116,217;    1,091;   -0,773
931,925;10025,399;   -0,091;    0,136
932,480; 9930,217;   -2,818;   -2,591
933,035; 9781,490;    0,545;   -0,318
933,590; 9517,035;    0,364;   -1,773
934,145; 9175,399;   -1,364;   -0,318
934,700; 9536,763;    0,455;   -0,591
935,255; 9312,581;   -0,091;    0,045
935,809; 8559,581;    3,182;    0,864
936,364; 7728,126;   -0,455;   -0,136
936,919; 7674,763;    0,455;   -1,773
937,474; 7560,490;    1,455;    0,136
938,028; 7321,854;   -1,636;    1,136
938,583; 6753,308;    1,818;    4,682
939,138; 7030,035;    2,091;    2,136
939,692; 6489,035;    1,636;   -1,136
940,247; 6141,126;   -0,727;   -1,045
940,801; 5695,308;   -0,636;    0,227
941,355; 5599,763;   -0,364;    2,591
941,910; 5240,944;   -0,273;   -2,136
942,464; 5330,308;   -0,818;   -0,318
943,018; 5111,035;    1,000;   -0,227
943,572; 5059,672;    2,545;   -0,682
944,126; 4467,035;    0,091;   -0,409
944,681; 4369,126;    3,091;    0,227
945,235; 4339,581;    1,000;   -0,591
945,789; 4275,308;    0,364;   -1,864
946,342; 4350,854;    0,455;   -0,591
946,896; 4181,763;   -2,273;    0,955
947,450; 3956,126;    1,545;   -0,227
948,004; 4111,581;    1,727;   -0,045
948,558; 4118,672;    0,273;   -0,864
949,111; 4040,217;   -0,273;   -0,318
949,665; 4066,217;    1,636;   -0,682
950,219; 3925,490;   -0,091;   -1,045
950,772; 4015,490;   -1,909;    1,864
951,326; 3917,217;    0,545;   -0,955
951,879; 4046,126;    0,727;   -2,318
952,433; 4035,944;    0,000;    2,227
952,986; 3859,399;    2,909;    0,682
953,539; 3837,944;   -0,273;    0,591
954,093; 3786,581;    0,545;   -1,318
954,646; 3906,581;    0,909;    1,318
955,199; 3700,490;    0,000;   -0,500
955,752; 3588,217;   -0,455;    1,773
956,305; 3558,944;   -0,091;    2,955
956,858; 3711,126;    0,818;   -0,318
957,411; 3889,399;   -0,545;    2,136
957,964; 3743,126;    1,364;    2,136
958,517; 3721,399;   -1,545;    3,136
959,070; 3545,581;   -0,455;    1,955
959,623; 3611,035;    1,091;    1,500
960,176; 3377,672;    1,727;    2,045
960,728; 3348,217;   -2,727;    0,773
961,281; 3429,399;    0,545;    0,500
961,834; 3480,763;   -0,909;    0,864
962,386; 3396,490;    1,727;    1,045
962,939; 3299,035;    0,364;   -0,318
963,491; 3446,126;    0,455;    1,136
964,043; 3345,581;    1,182;    2,409
964,596; 3456,035;   -1,000;    2,227
965,148; 3275,126;   -1,000;    1,773
965,700; 3218,126;    1,091;   -0,227
966,253; 3364,944;   -0,636;    0,318
966,805; 3196,126;   -2,273;    0,773
967,357; 3240,490;    1,091;   -1,500
967,909; 3169,672;    0,455;   -1,227
968,461; 3304,581;    0,545;    3,136
969,013; 3249,035;   -0,182;   -0,864
969,565; 3320,854;   -0,455;   -1,136
970,117; 3350,944;   -0,364;    1,045
970,669; 3207,308;    0,182;   -0,136
971,220; 3090,581;   -0,455;   -1,500
971,772; 2992,308;   -0,636;   -0,318
972,324; 3132,399;    0,091;   -0,500
972,876; 3065,399;    0,818;   -0,045
973,427; 3205,035;    1,909;   -1,045
973,979; 3157,490;   -0,727;   -2,500
974,530; 3225,944;    1,818;    1,318
975,082; 3228,490;   -0,545;    1,682
975,633; 3117,308;    1,091;    1,682
976,184; 3269,944;    0,909;    0,773
976,736; 3060,399;    0,091;    0,227
977,287; 2865,854;   -0,909;   -0,500
977,838; 3043,854;    0,909;   -0,318
978,389; 3090,126;   -1,000;   -0,500
978,940; 2966,763;    0,545;   -0,409
979,491; 3003,854;    0,091;   -0,500
980,042; 2951,490;    0,182;    3,045
980,593; 3026,217;   -2,545;    0,227
981,144; 3053,490;    2,545;   -0,500
981,695; 3017,672;    1,455;    1,500
982,246; 2969,581;   -0,273;    1,045
982,797; 3146,308;   -1,727;    0,682
983,347; 3251,126;    0,364;    0,591
983,898; 3413,581;    3,091;    0,409
984,449; 3230,854;    2,182;    0,773
984,999; 3160,490;    1,455;   -1,136
985,550; 2930,399;    0,182;   -0,318
986,100; 2979,581;   -0,455;   -0,318
986,651; 2991,035;   -0,818;    0,045
987,201; 2985,944;   -1,000;   -0,591
987,751; 3054,126;    0,818;    2,864
988,302; 3030,854;    2,636;    1,500
988,852; 3067,035;    0,455;   -1,136
989,402; 3105,217;    0,091;    0,682
989,952; 3017,035;   -2,182;    0,864
990,502; 3135,854;   -0,091;    0,682
991,052; 3114,854;   -0,727;    0,045
991,602; 2959,217;   -2,909;    1,318
992,152; 2955,944;    0,455;    0,682
992,702; 2936,944;    1,364;   -0,045
993,252; 2867,126;   -3,000;   -0,500
993,802; 2949,399;   -0,273;    1,318
994,352; 3191,035;   -1,545;    1,136
994,901; 3281,126;   -0,182;    3,227
995,451; 3212,944;   -0,182;    0,318
996,000; 3303,126;    1,636;    0,318
996,550; 3013,581;    2,273;    0,227
997,100; 2981,490;    1,273;   -0,045
997,649; 3280,854;    2,182;    0,955
998,198; 2926,763;    1,727;   -1,500
998,748; 3113,217;    1,091;   -2,318
999,297; 3021,672;   -0,818;   -0,409
999,846; 3078,854;    1,000;   -0,773
1000,395; 3140,672;   -0,818;    0,500
1000,945; 3068,126;    1,818;   -0,773
1001,494; 3157,581;    2,364;    0,682
1002,043; 3161,763;    4,636;    0,864
1002,592; 3024,490;   -1,091;    1,955
1003,141; 3161,126;   -0,455;   -0,682
1003,690; 3003,944;    1,727;    0,500
1004,238; 3094,035;    1,455;   -0,045
1004,787; 2728,126;    1,364;    1,227
1005,336; 2940,399;    0,364;    0,682
1005,885; 3077,217;    1,364;   -2,773
1006,433; 3235,944;    0,545;    0,955
1006,982; 3288,035;    0,455;    1,682
1007,531; 3213,217;   -1,818;   -0,227
1008,079; 3163,035;   -2,273;    0,500
1008,627; 3312,672;   -1,455;    0,409
1009,176; 3063,854;    0,000;   -1,955
1009,724; 3107,308;    1,091;    0,864
1010,273; 3131,854;    1,273;    0,500
1010,821; 3256,126;    0,091;    1,409
1011,369; 2999,035;   -1,364;    1,318
1011,917; 2986,399;   -1,364;   -0,591
1012,465; 3260,854;    1,273;   -1,591
1013,013; 3373,763;    2,091;   -1,682
1013,561; 3246,217;    0,455;   -0,773
1014,109; 3297,581;   -1,909;    1,682
1014,657; 3174,944;    0,364;    0,591
1015,205; 3297,035;    1,636;   -0,955
1015,753; 3342,854;   -0,545;   -1,409
1016,301; 3381,854;   -2,636;    3,045
1016,848; 3376,672;   -1,273;    0,409
1017,396; 3412,490;    2,545;    0,045
1017,944; 3547,581;    1,182;    1,864
1018,491; 3291,035;    0,273;    1,409
1019,039; 3423,581;    0,455;    0,591
1019,586; 3373,126;   -1,364;    1,682
1020,134; 3485,035;    0,455;    1,500
1020,681; 3499,308;    0,182;   -1,136
1021,228; 3518,581;    2,909;   -2,227
1021,776; 3330,035;    1,182;   -1,136
1022,323; 3539,035;    0,455;    0,773
1022,870; 3487,217;   -1,000;   -0,045
1023,417; 3374,399;    2,636;    1,864
1023,964; 3533,763;    2,636;    1,227
1024,511; 3367,490;    1,000;    0,773
1025,058; 3162,217;    3,182;   -0,045
1025,605; 3216,217;   -2,273;    3,136
1026,152; 3434,217;    1,727;   -0,591
1026,699; 3173,672;    1,818;    1,318
1027,245; 3355,035;   -0,091;    0,318
1027,792; 3570,581;   -1,000;    1,409
1028,339; 3432,399;    2,364;   -0,045
1028,885; 3270,399;    1,000;   -0,227
1029,432; 3235,581;   -0,091;    0,227
1029,978; 3292,944;   -1,000;   -1,591
1030,525; 3198,944;    1,000;    0,409
1031,071; 3456,399;   -1,364;    1,136
1031,618; 3522,217;    0,364;    1,682
1032,164; 3341,581;   -0,091;    3,045
1032,710; 3382,581;    1,636;   -1,500
1033,256; 3283,581;   -0,636;   -0,136
1033,803; 3284,944;   -0,545;    1,500
1034,349; 3005,581;   -1,364;    0,136
1034,895; 3152,490;    0,000;   -0,318
1035,441; 3137,944;   -0,818;    0,318
1035,987; 3141,672;   -2,364;   -0,682
1036,533; 3139,944;   -1,455;   -0,955
1037,078; 3318,126;    1,455;    1,682
1037,624; 3151,035;    2,455;   -0,955
1038,170; 3186,217;    0,455;   -0,318
1038,716; 3089,217;    1,636;   -0,409
1039,261; 3013,126;   -2,273;   -0,773
1039,807; 2957,035;   -0,091;    3,409
1040,352; 3013,399;   -1,909;   -0,318
1040,898; 3064,217;   -1,545;   -0,682
1041,443; 2952,308;   -1,455;   -2,591
1041,989; 2955,035;    1,091;    1,591
1042,534; 2861,308;   -0,364;    2,591
1043,079; 2986,763;    2,909;    0,955
1043,625; 2761,217;    1,818;    0,500
1044,170; 2809,490;   -1,364;    1,045
1044,715; 3037,399;    2,455;    0,955
1045,260; 2876,126;    2,182;   -0,955
1045,805; 2948,763;    1,182;   -0,591
1046,350; 2874,490;    1,364;   -0,409
1046,895; 2821,763;    2,909;    1,591
1047,440; 2745,490;    5,364;    0,409
1047,985; 2668,217;    2,818;   -0,955
1048,530; 2588,672;    1,545;    1,227
1049,074; 2645,217;    0,000;    0,318
1049,619; 2619,217;   -1,364;    1,955
1050,164; 2434,672;    0,455;    0,227
1050,708; 2464,490;   -0,455;    0,045
1051,253; 2821,490;    1,273;   -2,227
1051,797; 2543,763;    0,818;   -1,318
1052,342; 2567,581;   -1,182;    1,045
1052,886; 2555,217;    0,364;   -1,409
1053,430; 2435,672;   -1,364;    0,136
1053,975; 2437,308;   -0,818;   -0,318
1054,519; 2440,944;   -0,727;    3,227
1055,063; 2425,035;    0,909;    1,318
1055,607; 2295,217;   -0,182;    0,227
1056,151; 2344,763;    2,909;    1,682
1056,695; 2244,490;    2,273;   -1,136
1057,239; 2328,944;   -1,727;   -0,682
1057,783; 2332,854;    0,818;   -1,500
1058,327; 2268,854;    0,000;    1,409
1058,871; 2489,763;   -0,545;    1,318
1059,415; 2197,763;   -0,818;   -0,045
1059,958; 2450,944;    1,455;    2,591
1060,502; 2162,035;   -1,000;   -0,773
1061,046; 2092,308;    0,364;   -0,955
1061,589; 2081,581;   -3,000;   -1,136
1062,133; 1949,672;   -1,273;    1,864
1062,676; 1885,399;    1,182;    0,864
1063,220; 1880,672;    1,091;    0,500
1063,763; 1901,490;    0,909;    1,136
1064,306; 1991,490;   -0,909;    1,864
1064,849; 1864,217;   -0,909;    0,591
1065,393; 1879,308;    2,000;   -1,500
1065,936; 1995,854;    0,182;   -0,409
1066,479; 1886,672;   -1,455;    1,318
1067,022; 1897,581;   -0,273;   -0,227
1067,565; 1783,581;   -0,091;   -1,318
1068,108; 1820,672;    0,727;   -0,591
1068,651; 1801,581;   -0,636;    1,409
1069,194; 1729,490;   -0,455;   -1,682
1069,736; 1729,399;   -1,273;    0,955
1070,279; 1699,035;   -1,364;   -0,500
1070,822; 1753,944;   -2,000;   -0,318
1071,364; 1825,672;   -0,364;    1,318
1071,907; 1650,672;   -0,727;    3,227
1072,450; 1560,399;    0,000;   -0,045
1072,992; 1547,581;   -0,273;    3,136
1073,535; 1684,763;    2,091;    2,136
1074,077; 1487,035;   -0,727;    2,045
1074,619; 1448,854;   -1,364;    0,591
1075,161; 1461,854;   -1,091;    1,500
1075,704; 1656,763;    1,545;    1,227
1076,246; 1468,490;   -0,182;    0,682
1076,788; 1396,490;   -0,364;    1,773
1077,330; 1471,217;    1,273;    2,136
1077,872; 1430,217;    0,909;    0,955
1078,414; 1635,399;    2,727;    0,773
1078,956; 1378,308;    1,273;   -0,227
1079,498; 1622,217;    1,636;    0,318
1080,040; 1336,581;    1,909;   -1,318
1080,581; 1293,126;    1,636;   -0,318
1081,123; 1218,035;    0,091;   -0,773
1081,665; 1259,763;   -1,182;   -0,955
1082,206; 1552,854;    1,364;   -0,500
1082,748; 1409,672;    0,727;    2,045
1083,289; 1289,854;   -2,000;    1,318
1083,831; 1199,944;   -0,545;    0,227
1084,372; 1225,763;    0,000;    0,591
1084,913; 1229,035;    1,091;    0,864
1085,455; 1204,490;   -1,909;   -2,045
1085,996; 1177,490;   -2,273;    0,136
1086,537; 1183,763;   -0,091;    0,864
1087,078; 1223,854;   -0,909;   -2,136
1087,619; 1261,490;   -1,273;    0,227
1088,160; 1182,854;    0,000;    1,318
1088,701; 1161,126;   -1,091;    0,682
1089,242; 1104,035;    1,364;   -2,227
1089,783; 1203,854;   -0,273;    1,409
1090,324; 1170,399;    0,455;    0,682
1090,865; 1035,581;    2,727;   -0,409
1091,405; 1022,035;    0,727;    2,227
1091,946; 1047,126;    0,182;   -0,955
1092,487;  980,126;    0,818;   -1,409
1093,027; 1128,035;   -1,364;   -1,500
1093,568;  983,217;   -0,364;    1,227
1094,108; 1072,217;    0,273;    1,773
1094,649; 1016,308;   -1,182;    0,136
1095,189;  965,035;   -0,636;   -0,682
1095,729;  908,217;   -0,091;    0,955
1096,269;  908,581;    0,727;   -0,955
1096,810; 1220,308;   -1,364;    0,500
1097,350; 1033,581;    1,364;   -0,773
1097,890;  947,672;    0,364;    1,227
1098,430; 1195,854;    2,364;    2,864
1098,970; 1065,035;    2,182;    1,682
1099,510;  935,763;    0,545;   -2,318
1100,050;  860,126;    1,000;   -1,591
1100,589;  826,126;   -0,727;   -0,318
1101,129;  946,944;    0,818;   -0,955
1101,669; 1087,672;    1,727;    2,136
1102,209;  924,672;   -0,091;    2,227
1102,748;  883,217;    0,000;    0,955
1103,288;  856,672;    1,273;   -1,227
1103,827;  895,217;    3,091;   -2,227
1104,367;  777,308;   -0,091;   -2,409
1104,906;  735,854;    1,364;   -1,136
1105,445;  807,399;    0,636;   -1,136
1105,985;  750,672;   -0,727;    1,500
1106,524;  793,035;   -1,727;   -0,682
1107,063;  772,581;   -2,727;    1,409
1107,602;  745,581;   -1,909;   -1,500
1108,141;  660,035;   -1,909;    1,500
1108,680;  754,126;   -3,455;   -0,591
1109,219;  697,308;   -0,909;   -0,500
1109,758;  708,035;    0,455;    0,682
1110,297;  680,217;    1,000;   -0,682
1110,836;  626,944;   -0,727;    0,955
1111,375;  785,399;   -2,545;    0,409
1111,913;  798,126;   -1,000;    0,773
1112,452;  730,854;   -0,273;    0,136
1112,991;  617,217;    1,091;    1,955
1113,529;  568,854;   -0,818;   -0,045
1114,068;  643,490;   -0,273;    2,955
1114,606;  554,399;   -0,364;   -0,955
1115,144;  701,399;   -1,273;    1,045
1115,683;  631,399;   -0,727;    0,318
1116,221;  694,308;   -0,455;   -0,864
1116,759;  612,126;    0,636;   -0,864
1117,297;  799,944;    0,000;    1,864
1117,836;  596,581;   -2,182;   -1,227
1118,374;  600,308;    0,182;   -0,682
1118,912;  553,944;    0,909;    2,682
1119,450;  540,490;    1,000;    0,864
1119,988;  599,854;    1,545;    2,136
1120,525; 1044,763;    5,091;    3,318
1121,063;  742,763;    1,182;    1,864
1121,601;  553,763;   -0,909;   -1,227
1122,139;  503,126;   -0,727;   -2,045
1122,676;  706,308;   -0,727;    2,773
1123,214;  636,581;   -1,182;    4,409
1123,751;  448,126;    1,727;    2,227
1124,289;  575,399;   -0,091;   -0,409
1124,826;  444,399;    1,727;    0,227
1125,364;  376,944;    1,727;   -0,955
1125,901;  565,672;    1,182;    1,227
1126,438;  675,490;    0,818;    0,955
1126,975;  403,035;   -0,727;   -0,773
1127,513;  467,854;    0,273;    2,136
1128,050;  365,490;    1,636;   -0,682
1128,587;  464,854;    2,000;   -0,227
1129,124;  507,035;    0,091;    1,318
1129,661;  370,944;    0,273;    0,227
1130,198;  536,217;    1,636;    0,773
1130,734;  485,126;    0,182;    1,409
1131,271;  342,126;   -0,909;    0,864
1131,808;  516,308;    2,909;    3,045
1132,345;  387,581;    1,545;    0,318
1132,881;  262,308;   -1,545;   -1,864
1133,418;  404,581;    0,727;   -1,136
1133,954;  342,672;    2,455;   -2,682
1134,491;  419,944;    1,364;   -0,773
1135,027;  306,035;    2,364;    0,864
1135,564;  391,035;    0,273;    2,955
1136,100;  378,944;    0,364;    2,136
1136,636;  285,126;   -1,273;   -1,045
1137,172;  375,490;    0,000;   -1,045
1137,708;  285,126;   -1,364;   -1,045
1138,245;  294,763;    1,273;   -1,227
1138,781;  248,399;    1,091;   -3,318
1139,317;  321,217;    1,273;   -1,409
1139,852;  302,581;    3,091;    0,136
1140,388;  423,035;   -1,182;   -0,409
1140,924;  307,399;   -1,091;   -2,227
1141,460;  241,399;   -1,636;    0,136
1141,996;  169,581;   -1,364;    2,682
1142,531;  230,126;    1,364;    3,318
1143,067;  438,126;    1,182;    1,045
1143,602;  494,308;   -0,091;   -0,318
1144,138;  340,217;   -2,636;    1,045
1144,673;  209,308;   -1,455;    1,409
1145,209;  269,126;   -1,909;   -0,318
1145,744;  196,581;   -0,727;    0,864
1146,279;  331,854;    1,818;   -0,136
1146,815;  243,399;    1,545;   -2,682
1147,350;  285,217;   -1,364;    0,045
1147,885;  190,490;   -0,818;   -1,318
1148,420;  187,308;   -2,273;    0,773
1148,955;  183,490;   -1,727;    1,864
1149,490;  199,944;   -0,909;   -1,591
1150,025;  187,126;    0,455;   -1,773
1150,560;  299,035;    1,091;   -0,955
1151,094;  274,672;    1,455;   -0,591
1151,629;  270,399;    1,636;    0,864
1152,164;  183,944;    1,364;    1,318
1152,698;  150,581;   -0,182;   -0,136
1153,233;  109,399;    0,091;   -0,682
1153,767;  161,490;   -3,000;   -2,318
1154,302;  207,763;   -1,455;    1,773
1154,836;  203,944;   -0,455;   -2,136
1155,371;  264,581;   -1,364;    3,682
1155,905;  209,308;   -0,636;    1,682
1156,439;  177,308;   -0,636;   -0,500
1156,973;  214,581;    0,364;    0,318
1157,507;  151,854;   -0,364;    0,682
1158,042;  175,672;   -0,727;    1,045
1158,576;  221,308;    0,182;    1,773
1159,110;  210,581;   -0,818;    2,409
1159,643;  178,490;    0,636;   -0,045
1160,177;  120,672;   -1,545;    1,500

