
Integration time [ms]:   0,040
Averaging Nr. [scans]: 11
Smoothing Nr. [pixels]: 0
Data measured with spectrometer [name]: 7318044SP
Wave   ;Sample   ;Dark     ;Reference
[nm]   ;[counts] ;[counts] ;[counts] 

186,757;   33,755;   31,551;    1,318
187,357;   68,040;   22,551;    0,955
187,958;   31,012;   15,460;   -1,591
188,558;   69,390;    8,915;   -1,227
189,159;   50,406;    6,733;   -4,500
189,759;   19,647;    7,278;   -3,591
190,360;   19,406;    2,824;   -2,136
190,960;   52,830;    2,915;   -4,136
191,560;   55,704;    3,189;   -6,591
192,161;  295,779;    4,372;   -3,500
192,761;  143,559;    4,010;   -3,227
193,361;  100,305;    1,556;   -3,773
193,962;  147,682;    2,010;   -2,682
194,562;   81,520;    1,189;   -3,955
195,162;  113,515;   -2,448;   -2,227
195,762;  264,221;   -3,176;   -0,045
196,362;  213,593;    1,370;   -2,500
196,963;   87,453;    2,006;   -0,864
197,563;  152,300;    1,551;   -0,955
198,163;  103,444;    0,096;   -0,682
198,763;  124,554;    1,733;   -0,500
199,363;  227,071;    3,096;   -0,500
199,963;  191,184;    0,369;    0,409
200,563;  168,678;    2,823;   -1,409
201,163;  144,264;    3,277;   -0,227
201,763;  238,079;    3,732;    0,318
202,363;  175,418;    1,459;    1,500
202,963;  277,399;    1,459;    1,045
203,563;  390,604;    0,277;    0,500
204,162;  233,152;    2,096;   -1,864
204,762;  220,727;    0,550;    0,591
205,362;  196,685;    3,004;    1,955
205,962;  299,445;    3,096;    1,955
206,562;  297,800;    1,823;    2,318
207,161;  269,976;   -0,087;    0,318
207,761;  419,649;    1,277;    2,409
208,361;  299,881;   -0,268;    1,409
208,960;  395,676;    0,459;    1,500
209,560;  470,183;    1,277;    1,591
210,160;  449,356;    0,550;    1,864
210,759;  417,470;    4,186;    1,227
211,359;  421,284;    1,459;    1,045
211,958;  684,539;    1,277;    2,045
212,558;  766,717;    1,732;    1,864
213,157;  604,999;    1,822;    1,500
213,757; 1051,288;    3,822;   -0,227
214,356;  751,490;    1,277;   -0,409
214,956; 1077,258;    3,095;    0,409
215,555;  716,655;    2,095;    2,136
216,154;  652,504;   -2,723;   -0,591
216,754;  668,957;    0,277;    0,773
217,353;  793,094;   -0,268;   -1,045
217,952;  654,184;   -0,178;    0,318
218,552;  892,821;    1,368;   -0,773
219,151;  786,678;    0,277;    0,955
219,750;  791,115;    0,004;   -0,227
220,349;  917,612;   -0,451;    1,045
220,948;  990,622;   -1,360;    1,136
221,548; 1008,908;    0,913;    1,227
222,147; 1109,844;   -0,087;   -0,409
222,746; 1396,529;   -0,451;   -0,955
223,345; 1277,350;    0,731;    0,500
223,944; 1280,671;   -0,451;    0,773
224,543; 1466,480;    1,004;   -1,409
225,142; 1570,333;    0,094;    0,136
225,741; 1474,008;   -0,814;    1,045
226,340; 1492,951;   -0,451;   -0,955
226,939; 1937,298;   -0,996;   -0,136
227,538; 1893,401;   -0,360;   -0,773
228,137; 2060,171;   -0,814;    0,864
228,735; 2208,079;   -0,541;    1,227
229,334; 1961,714;   -0,905;   -0,227
229,933; 2308,686;    0,459;    0,591
230,532; 2440,950;    1,186;   -0,409
231,131; 2494,794;    1,732;    0,318
231,729; 2621,137;   -2,450;   -2,318
232,328; 2756,741;   -0,723;   -1,500
232,927; 2827,668;    1,004;   -0,500
233,525; 2951,000;    3,640;    0,045
234,124; 3151,556;    2,368;   -1,591
234,723; 3165,471;    0,913;   -1,045
235,321; 3316,542;    2,277;    0,136
235,920; 3548,410;    1,186;   -1,227
236,518; 3808,391;    3,459;    0,318
237,117; 3988,878;    0,004;   -0,227
237,715; 4144,139;    0,640;   -0,500
238,314; 4174,225;   -0,087;   -2,318
238,912; 4277,074;   -0,723;   -1,409
239,510; 4325,162;    0,459;   -1,227
240,109; 4506,421;    0,004;    3,773
240,707; 4533,121;   -0,996;    1,227
241,305; 4899,338;    0,550;    0,136
241,904; 5111,520;   -0,178;   -2,045
242,502; 5082,613;   -0,632;   -0,227
243,100; 5034,228;   -0,087;   -0,955
243,698; 5268,853;    0,732;    1,682
244,297; 5452,442;   -0,632;    0,682
244,895; 5274,904;   -0,269;   -2,318
245,493; 5602,698;    2,186;   -0,591
246,091; 5622,483;    1,368;   -1,318
246,689; 5616,665;    1,004;    0,591
247,287; 5791,815;    0,822;   -1,136
247,885; 6069,283;   -1,451;    1,227
248,483; 6211,420;    1,822;   -0,500
249,081; 6312,902;    0,185;    1,591
249,679; 6466,293;   -0,178;    1,682
250,277; 6707,642;   -1,723;    0,864
250,875; 6688,138;   -1,087;   -1,045
251,473; 6732,546;   -1,178;    0,500
252,071; 6892,420;    1,459;    1,045
252,669; 7079,398;   -1,814;    0,318
253,267; 7339,057;   -0,087;    0,773
253,864; 7284,542;   -0,360;    0,682
254,462; 7155,554;    1,640;    1,591
255,060; 7166,914;   -0,269;    1,318
255,658; 7443,307;    0,822;   -0,136
256,255; 7836,087;    0,186;   -2,045
256,853; 7708,738;   -0,269;    1,409
257,451; 7741,424;    0,822;    1,864
258,048; 7984,330;    1,822;    1,864
258,646; 7720,644;    1,731;   -1,045
259,243; 7925,192;   -0,087;    2,227
259,841; 7991,732;   -0,814;    0,318
260,438; 7903,344;   -0,087;    0,864
261,036; 8597,201;   -1,905;    1,409
261,633; 8498,763;   -0,087;    2,227
262,231; 8237,972;    2,731;   -0,045
262,828; 8322,105;   -0,905;    1,136
263,425; 8375,874;    0,913;   -0,591
264,023; 8637,823;    0,186;    0,045
264,620; 8217,643;   -0,360;   -0,318
265,217; 8548,944;   -2,087;    3,136
265,815; 8665,991;   -1,905;    2,136
266,412; 8435,036;    0,731;    0,136
267,009; 8451,787;   -1,451;    0,773
267,606; 8386,735;    0,822;   -0,955
268,203; 8367,416;   -0,269;   -0,591
268,801; 8643,973;    1,731;    0,591
269,398; 8943,498;   -0,360;    2,500
269,995; 8927,560;    0,277;    1,591
270,592; 8713,472;   -0,632;   -0,500
271,189; 8889,801;    0,186;    0,409
271,786; 8993,178;   -0,632;    1,227
272,383; 8806,111;   -1,087;    0,227
272,980; 9050,031;    0,277;    0,318
273,577; 9525,009;    0,004;    1,227
274,174; 9052,224;    0,822;    2,591
274,771; 9046,580;   -0,814;   -0,773
275,367; 9178,554;    2,277;    1,409
275,964; 9110,987;    0,731;   -0,500
276,561; 9237,127;    1,549;   -1,045
277,158; 9469,202;    0,095;   -1,773
277,755; 9594,084;    2,185;    0,409
278,351; 8991,189;   -0,451;   -1,500
278,948; 9283,961;   -0,815;    0,045
279,545; 9313,439;   -1,360;    2,318
280,141; 9921,149;   -1,723;   -2,045
280,738; 9737,306;   -0,451;   -0,136
281,334; 9987,225;   -1,633;    0,591
281,931; 9395,671;   -0,087;   -1,318
282,528; 9496,153;    0,822;   -0,500
283,124;10176,281;   -1,087;   -0,500
283,721;10098,486;   -0,451;    1,409
284,317; 9922,278;    0,185;    2,500
284,913;10457,003;   -1,360;    0,591
285,510;10636,912;    0,640;   -0,318
286,106;10642,600;   -2,269;   -0,955
286,703;10262,838;   -0,360;    1,955
287,299;10444,004;   -1,451;   -0,591
287,895;10679,128;    0,822;   -1,045
288,491;11253,316;    0,186;    2,136
289,088;10960,200;   -2,360;    2,409
289,684;11040,580;   -1,723;    1,500
290,280;11042,511;    0,368;    0,682
290,876;11107,703;    1,822;    5,500
291,472;11008,324;    1,276;    2,227
292,068;11077,328;    1,367;    0,227
292,665;10802,277;    2,095;    0,773
293,261;10431,257;    0,276;    2,136
293,857;10815,964;    2,913;    2,136
294,453;10775,231;    3,550;    0,955
295,049;10630,618;   -0,268;    1,955
295,644;10672,970;    0,095;    0,136
296,240;10603,565;   -0,905;   -0,136
296,836;10634,004;   -0,995;    0,318
297,432;10875,841;    1,096;   -0,500
298,028;10895,720;    0,732;    0,773
298,624;11341,188;    1,459;    1,864
299,220;11568,970;    2,368;    0,591
299,815;11266,039;    1,005;   -0,409
300,411;11076,346;    0,914;    1,773
301,007;11076,264;    1,368;    0,227
301,602;11109,248;   -0,541;   -2,318
302,198;11266,711;    0,732;   -0,773
302,794;11584,301;    1,187;   -0,500
303,389;11715,667;   -1,177;    1,045
303,985;11778,911;    0,550;    1,409
304,580;11729,755;    1,459;    1,591
305,176;11759,224;   -3,086;    0,136
305,771;11710,170;   -1,268;   -1,227
306,367;11524,689;    4,095;    0,136
306,962;11877,702;    0,641;    1,500
307,558;11609,732;   -0,450;    0,136
308,153;11488,134;    1,095;   -1,136
308,748;11732,099;   -0,814;    1,682
309,344;11690,447;   -0,632;   -1,318
309,939;11763,290;   -1,905;   -1,318
310,534;12114,959;   -0,086;   -1,682
311,130;12000,343;    0,459;   -2,500
311,725;11748,621;    1,004;   -0,500
312,320;12033,673;    2,459;    0,045
312,915;11882,324;    1,459;   -1,045
313,510;11970,016;    1,550;   -0,500
314,105;12485,266;    1,096;    1,409
314,700;11900,999;   -3,086;   -1,045
315,295;11513,118;   -0,904;    0,045
315,890;11080,156;    1,277;    0,864
316,485;11448,713;   -0,359;   -0,318
317,080;11565,795;   -3,086;    1,591
317,675;12110,401;    2,005;   -0,682
318,270;11532,169;    5,550;    3,318
318,865;11507,169;    3,278;    3,045
319,460;11359,308;   -0,904;    0,591
320,055;11636,405;   -0,541;   -1,227
320,650;11308,280;   -1,995;   -0,591
321,244;11341,590;   -0,177;   -1,409
321,839;12239,183;   -1,541;   -0,227
322,434;12118,401;   -1,086;   -1,591
323,029;11738,931;    1,732;    1,591
323,623;11561,827;    1,550;    0,773
324,218;11328,289;    2,368;    1,409
324,812;11215,847;    1,096;    1,591
325,407;11067,126;   -0,814;    2,045
326,002;10962,825;    0,277;   -0,409
326,596;11274,452;    0,914;    1,318
327,191;11463,912;    0,823;   -1,045
327,785;11049,997;   -0,813;   -0,227
328,379;11272,761;    1,368;    0,136
328,974;11088,973;    0,914;   -3,955
329,568;11292,333;    0,186;   -2,409
330,163;11109,781;    2,096;    1,045
330,757;11464,230;    2,459;    1,591
331,351;10808,162;    0,459;    0,682
331,945;11097,482;    0,914;    1,409
332,540;10708,436;   -1,723;   -0,591
333,134;10859,110;   -1,086;    0,773
333,728;11095,314;    0,005;    0,318
334,322;11432,245;   -1,177;   -0,864
334,916;10701,451;    0,277;    0,955
335,510;11024,010;   -0,450;   -0,136
336,105;11294,458;   -1,086;    1,591
336,699;11001,165;   -1,086;    0,591
337,293;10936,782;   -1,723;    0,318
337,887;11080,249;   -2,723;    1,955
338,481;11172,647;    0,459;    0,591
339,074;11332,450;   -0,359;    2,682
339,668;11137,961;   -1,632;    1,227
340,262;11415,505;    1,732;    3,227
340,856;10909,609;    1,822;   -0,682
341,450;10291,584;    1,004;    1,864
342,044;11168,782;    1,459;    0,136
342,637;10983,421;    0,913;   -2,136
343,231;10821,122;   -2,360;    0,682
343,825;10803,801;   -1,086;   -0,591
344,419;10773,850;   -1,995;    0,500
345,012;10535,783;    2,459;    4,045
345,606;10541,840;    4,641;    1,591
346,199;10415,771;   -1,813;   -0,227
346,793; 9970,464;    1,914;    2,045
347,386;10159,998;   -0,813;   -1,136
347,980;10107,305;   -0,268;   -0,045
348,573; 9939,081;    2,278;    0,409
349,167; 9593,584;    5,278;    4,773
349,760; 9960,798;    2,914;    2,682
350,354; 9935,252;   -0,813;    1,136
350,947; 9655,842;    1,096;    1,682
351,540; 9365,053;   -0,358;   -1,409
352,134; 9328,738;    1,096;    1,136
352,727; 9400,483;   -0,086;    1,136
353,320; 9173,408;    0,005;    0,591
353,913; 9044,715;   -1,995;    1,864
354,507; 9241,809;    0,823;   -1,227
355,100; 9235,442;    0,460;    0,864
355,693; 8437,326;    2,005;    2,409
356,286; 8491,464;    0,823;    2,773
356,879; 8867,527;   -0,722;    1,227
357,472; 8499,923;   -0,904;    1,500
358,065; 8688,609;   -0,722;    2,500
358,658; 8616,617;   -0,540;    2,318
359,251; 8282,164;   -1,631;   -0,591
359,844; 7768,243;   -1,904;   -1,136
360,437; 7943,322;   -2,995;    0,045
361,030; 8224,769;    1,369;   -0,682
361,623; 7821,327;    2,824;    0,318
362,215; 7848,001;   -0,086;    2,045
362,808; 7703,369;   -2,358;   -1,682
363,401; 7909,019;   -2,449;    0,136
363,994; 7631,346;   -0,631;   -1,500
364,586; 7566,720;    0,824;   -1,500
365,179; 7765,375;   -0,449;   -1,136
365,772; 7243,663;   -1,995;    2,045
366,364; 7520,140;    1,915;   -3,227
366,957; 7702,473;    2,279;   -0,045
367,549; 7755,131;    2,188;   -0,864
368,142; 7419,569;    1,825;   -1,500
368,734; 7592,202;    0,734;   -2,136
369,327; 7576,826;    1,643;   -0,500
369,919; 7485,046;   -1,538;    0,409
370,512; 7290,135;   -1,083;   -0,500
371,104; 7048,865;   -0,901;    1,591
371,696; 7196,191;    1,191;   -0,955
372,289; 7310,391;    0,373;    1,136
372,881; 7460,193;   -2,080;    1,318
373,473; 7372,404;   -2,170;    1,136
374,066; 7186,741;   -0,169;    0,500
374,658; 7026,588;    0,378;    1,136
375,250; 7380,624;    0,653;   -1,409
375,842; 7222,550;    0,473;   -0,045
376,434; 7108,117;   -0,435;   -0,409
377,026; 7679,120;    0,204;   -2,500
377,618; 7584,434;   -0,158;   -0,682
378,210; 7440,949;   -0,338;   -1,955
378,802; 7308,175;    0,754;   -0,591
379,394; 7246,027;    1,846;    0,682
379,986; 7830,658;    1,393;   -0,955
380,578; 7912,336;   -0,153;    0,773
381,170; 7235,341;   -0,972;    0,045
381,762; 7196,791;    0,755;    1,409
382,354; 7415,186;   -0,065;   -1,318
382,945; 7528,795;   -2,976;    0,318
383,537; 7692,569;   -2,705;   -1,955
384,129; 7692,041;   -2,160;   -1,136
384,721; 7863,322;   -0,252;    0,955
385,312; 7789,651;   -0,161;   -0,955
385,904; 7874,237;   -2,706;    1,591
386,496; 7281,123;   -0,979;    1,045
387,087; 7414,355;    1,022;    2,500
387,679; 7427,063;   -1,160;    0,045
388,270; 7567,593;    2,840;    2,045
388,862; 7693,180;    1,295;   -0,318
389,453; 7578,264;   -0,887;    1,045
390,045; 7839,961;   -0,705;   -2,682
390,636; 7773,730;    0,204;   -0,591
391,227; 7616,389;   -0,523;   -0,045
391,819; 7731,946;    0,204;    0,773
392,410; 7790,204;    1,022;    0,045
393,001; 7730,192;   -0,979;   -1,591
393,593; 7994,687;    1,930;   -0,045
394,184; 7861,557;    1,385;   -0,409
394,775; 7786,406;    1,839;    2,136
395,366; 7973,351;    1,385;    0,773
395,957; 7954,873;    0,113;    0,136
396,548; 8252,708;   -0,342;    2,682
397,139; 8561,863;   -2,433;    0,591
397,730; 8301,138;   -1,888;    0,955
398,321; 8377,881;   -1,252;    0,955
398,912; 8426,917;   -0,615;    0,136
399,503; 8505,310;   -3,524;   -1,409
400,094; 7933,533;    0,294;    1,682
400,685; 7788,545;   -0,433;    0,045
401,276; 7903,540;    0,930;   -0,955
401,867; 8208,916;   -0,888;    0,773
402,458; 8273,235;   -2,251;   -2,318
403,048; 8278,921;    1,112;    0,591
403,639; 7902,991;    0,840;    0,864
404,230; 8142,407;    2,476;    0,318
404,821; 8046,219;   -0,615;    0,045
405,411; 8163,443;    1,203;   -2,591
406,002; 7793,407;   -1,252;   -1,136
406,592; 7651,970;    2,294;    0,045
407,183; 7928,841;    0,566;   -1,500
407,774; 7850,529;    3,475;   -0,136
408,364; 8175,219;    0,930;    0,409
408,954; 7794,105;    0,384;    1,227
409,545; 7842,740;    1,021;    1,045
410,135; 7384,486;    1,293;    0,500
410,726; 7532,004;    1,838;    0,318
411,316; 7943,495;    0,111;    0,773
411,906; 7616,722;   -0,253;   -0,409
412,497; 7124,364;   -1,070;   -0,045
413,087; 7720,881;   -1,980;   -0,227
413,677; 8070,762;   -0,707;    3,864
414,267; 7908,274;    0,656;    1,409
414,857; 7943,733;   -2,980;    4,227
415,448; 8205,642;    0,839;    0,500
416,038; 7892,222;    0,020;   -0,591
416,628; 7875,396;   -0,889;    0,409
417,218; 7372,648;    0,565;    3,318
417,808; 7614,288;    0,202;   -0,409
418,398; 8086,229;    0,020;    2,682
418,988; 8121,747;    2,020;    0,591
419,578; 8329,827;   -0,707;    1,409
420,168; 8635,905;   -1,343;   -0,955
420,757; 8248,127;   -1,343;   -1,500
421,347; 7935,035;    0,111;   -0,227
421,937; 8095,063;    2,292;    1,409
422,527; 8034,890;    0,838;   -0,773
423,116; 7876,077;   -0,253;   -0,045
423,706; 8196,055;   -1,889;    0,318
424,296; 8193,963;    1,384;    0,682
424,885; 8606,054;   -0,071;   -3,045
425,475; 8867,609;    1,474;   -2,864
426,065; 8798,911;   -0,980;   -0,318
426,654; 8425,909;   -0,435;   -0,318
427,244; 8529,551;    0,020;    1,409
427,833; 7994,092;    1,383;   -0,500
428,423; 8456,325;   -0,526;    1,136
429,012; 9222,162;   -0,344;   -1,136
429,601; 8723,929;   -1,344;    0,136
430,191; 8971,487;    1,292;    4,318
430,780; 8570,296;   -0,344;   -0,409
431,369; 8524,202;    0,746;   -0,045
431,959; 9141,600;   -1,254;    0,500
432,548; 8917,632;   -1,163;   -0,045
433,137; 9044,640;   -1,254;   -1,318
433,726; 9573,907;    0,292;    0,500
434,315; 8950,519;   -0,526;    2,409
434,905; 9053,849;   -1,254;    1,409
435,494; 8976,957;    0,746;    0,955
436,083; 9388,153;   -0,981;   -0,955
436,672; 9264,979;    0,110;    0,500
437,261; 8859,963;    0,292;   -1,955
437,850; 8965,199;    1,383;    0,682
438,439; 8949,920;    3,291;    1,955
439,027; 8783,107;    3,655;    1,773
439,616; 9131,606;    2,927;    1,227
440,205; 9000,926;    0,200;   -2,136
440,794; 9057,791;    2,109;   -0,045
441,383; 9348,414;   -1,346;   -0,591
441,971; 9218,684;   -2,436;    0,591
442,560; 9073,367;    0,563;   -1,773
443,149; 8833,405;    0,379;   -1,318
443,737; 8966,267;   -0,074;   -2,318
444,326; 9204,369;    0,018;    0,318
444,915; 9264,850;   -1,982;    0,864
445,503; 9651,479;   -2,891;   -0,318
446,092; 8927,303;    0,382;    2,136
446,680; 9435,949;    0,382;    0,318
447,269; 9604,380;   -0,346;   -0,318
447,857; 9378,393;    0,018;   -1,773
448,445; 9531,974;    0,563;    1,318
449,034; 9732,091;   -1,528;   -1,136
449,622; 9875,092;   -1,073;    3,500
450,210; 9102,666;    2,017;    2,227
450,799; 9645,762;    0,290;   -0,591
451,387; 9615,252;    1,381;   -0,591
451,975; 9253,790;    2,654;    0,864
452,563; 9354,293;    3,472;    2,318
453,151; 9436,676;   -0,528;   -1,227
453,739; 9317,855;   -1,347;    0,136
454,328; 9138,725;    2,381;   -2,136
454,916; 8872,766;    2,562;   -0,136
455,504; 9071,605;    1,017;    1,227
456,092; 9262,172;    0,017;   -1,591
456,679; 9232,598;    1,472;    0,682
457,267; 9148,430;    4,017;    1,045
457,855; 9321,680;    1,017;    1,409
458,443; 9098,332;   -0,165;    1,682
459,031; 9216,595;    0,108;    2,409
459,619; 9650,919;   -1,801;    2,864
460,206; 9801,774;    0,835;    2,045
460,794; 9876,087;   -2,983;   -0,227
461,382;10102,228;   -0,529;   -0,864
461,970; 9692,713;    1,198;    1,864
462,557; 9735,742;   -0,711;   -0,682
463,145; 9910,613;   -3,165;   -1,682
463,732;10067,453;    2,016;   -1,045
464,320;10003,045;   -0,075;   -3,045
464,907; 9659,826;    2,743;   -0,773
465,495; 9559,101;    0,743;   -1,227
466,082; 9704,164;   -1,984;   -0,045
466,670; 9625,440;   -2,529;    1,227
467,257;10044,446;   -1,711;    2,045
467,844;10171,392;   -0,075;    0,045
468,432;10224,516;    0,834;    3,500
469,019; 9727,504;    0,925;   -1,773
469,606;10167,281;    0,470;    3,682
470,193;10015,093;   -1,439;    0,227
470,780; 9592,952;   -2,075;    0,864
471,368; 9966,086;   -1,257;   -0,773
471,955; 9767,898;    1,379;   -0,682
472,542; 9363,582;    0,652;   -1,136
473,129; 9617,599;   -0,166;    0,136
473,716; 9366,927;    1,470;    0,591
474,303; 9550,292;    0,652;   -0,864
474,890; 9841,536;   -1,439;   -0,500
475,477; 9858,514;   -1,621;    0,409
476,064; 9778,079;    1,106;   -1,591
476,650; 9669,244;    0,288;    0,318
477,237; 9506,062;   -0,258;    0,955
477,824; 9665,824;   -1,076;    0,864
478,411; 9692,548;   -1,894;   -0,318
478,997; 9917,018;    0,560;   -0,773
479,584; 9984,099;    1,196;   -0,409
480,171;10627,454;   -0,440;   -0,773
480,757;10294,048;    2,651;    0,773
481,344;10617,061;    0,469;    0,409
481,931;10131,722;    1,105;    1,045
482,517;11059,517;   -1,258;    0,318
483,104;11589,250;    1,106;    2,864
483,690;11890,070;   -1,804;    0,045
484,276;12302,206;   -0,895;    0,227
484,863;12007,743;    2,469;    1,136
485,449;12607,127;   -0,077;    0,318
486,035;12615,161;   -1,986;   -0,136
486,622;13038,510;   -0,895;    0,045
487,208;12983,307;    1,378;    1,500
487,794;12845,532;    0,741;    0,318
488,380;12943,265;    0,105;   -1,409
488,967;13033,655;   -1,168;   -0,409
489,553;13059,766;   -1,895;   -1,409
490,139;13251,464;    1,559;    0,773
490,725;12734,467;    0,741;   -0,227
491,311;12334,160;    3,287;    3,045
491,897;11689,890;   -0,986;    1,500
492,483;11480,653;    0,105;    1,227
493,069;11251,862;    3,923;    0,864
493,655;11246,269;    1,650;    0,682
494,241;11155,689;    1,377;   -0,955
494,826;11558,401;    0,287;   -1,045
495,412;11034,704;    2,559;   -0,682
495,998;11227,921;   -0,805;   -0,318
496,584;11317,124;    0,377;    1,045
497,169;11286,646;    1,014;   -0,682
497,755;11306,367;    0,650;    1,227
498,341;11849,282;    0,559;    0,318
498,926;11379,171;    1,832;    1,955
499,512;11591,164;    1,286;    2,955
500,097;11743,323;    0,195;   -0,318
500,683;11683,042;   -0,350;    2,136
501,268;12022,529;   -0,169;   -0,955
501,854;11795,961;   -0,169;    1,227
502,439;11766,525;   -0,624;   -1,773
503,024;11946,390;    0,195;    0,500
503,610;12005,419;   -0,078;   -0,682
504,195;12017,457;    0,558;    1,955
504,780;12125,350;    2,922;    1,227
505,366;11973,800;    3,013;    2,864
505,951;11692,511;    0,740;    1,045
506,536;11738,538;   -3,260;   -3,682
507,121;11755,651;    0,285;   -0,318
507,706;12247,017;    2,376;    1,045
508,291;12640,967;    2,649;    1,136
508,876;12103,579;   -0,988;    2,591
509,461;11589,565;   -0,169;   -0,773
510,046;11974,502;    0,194;    0,318
510,631;12208,582;   -0,351;   -0,773
511,216;11921,288;    2,467;   -0,500
511,801;12265,873;   -0,442;    2,591
512,386;12590,738;    0,740;    0,500
512,971;12549,939;   -2,988;    0,955
513,555;12082,078;   -0,897;   -1,500
514,140;12860,113;   -0,442;   -3,136
514,725;12850,195;   -0,715;   -1,136
515,309;13007,100;   -0,533;    0,318
515,894;12464,978;   -0,624;   -2,227
516,479;12908,166;   -0,624;   -0,955
517,063;12747,069;    0,376;    1,227
517,648;12851,981;    1,012;   -1,136
518,232;12534,772;   -0,261;   -1,409
518,817;12860,924;   -0,079;    1,682
519,401;13062,708;    2,194;    0,591
519,985;12573,066;    1,103;    1,136
520,570;12469,473;    0,830;   -1,955
521,154;12777,451;    2,102;    0,591
521,738;12933,107;   -2,352;    2,409
522,323;13517,538;   -0,170;    1,682
522,907;13254,619;    0,466;   -0,136
523,491;12945,349;    0,557;    0,955
524,075;12946,592;    2,284;    0,591
524,659;13039,884;    1,466;    0,591
525,243;12517,281;    1,739;    0,409
525,827;12759,381;    0,648;   -0,045
526,411;13607,884;   -1,989;   -0,136
526,995;13812,406;   -0,352;    1,409
527,579;13396,522;   -0,443;   -1,045
528,163;13681,199;    0,375;   -1,500
528,747;13616,105;    2,466;   -0,773
529,331;13908,950;   -0,080;   -1,409
529,915;14101,322;    1,738;    0,955
530,499;14080,746;   -0,807;    1,227
531,082;13791,702;   -0,534;    1,591
531,666;13226,974;    1,374;    0,773
532,250;13890,894;    1,284;    2,682
532,833;14209,850;    0,920;    2,773
533,417;14111,882;   -1,807;    0,864
534,001;14042,834;    1,647;   -0,318
534,584;14751,424;    0,374;    0,500
535,168;14610,332;    0,465;    1,409
535,751;14669,642;    0,647;    0,045
536,334;14094,830;   -0,898;   -0,409
536,918;14708,131;    0,011;    1,591
537,501;14803,504;   -0,899;    1,318
538,085;14791,145;   -0,444;    1,045
538,668;14959,025;    0,829;    2,409
539,251;15244,814;    1,829;    3,773
539,834;15268,266;    0,101;    0,773
540,418;15172,315;   -1,990;    4,318
541,001;15293,370;   -0,990;    1,773
541,584;15273,462;    2,101;    2,227
542,167;14995,621;    1,374;    2,955
542,750;15146,749;    1,919;   -0,773
543,333;14732,013;    0,555;    2,136
543,916;15519,302;    0,192;    2,500
544,499;16106,005;   -1,354;    0,227
545,082;16095,431;    1,374;    3,591
545,665;16247,456;    1,919;    1,500
546,248;16564,922;    1,010;   -0,318
546,830;16250,888;   -0,445;    1,955
547,413;16675,055;    1,010;   -0,773
547,996;17185,579;    0,555;    0,500
548,579;16939,832;    0,919;    0,955
549,161;16757,440;    1,828;    2,682
549,744;16557,148;   -0,809;    0,409
550,326;17034,513;   -0,809;   -1,136
550,909;16827,310;    2,737;    0,591
551,492;17249,418;   -0,263;    0,227
552,074;17019,437;   -0,173;   -1,318
552,657;17554,407;    2,373;    0,045
553,239;17321,047;   -0,173;   -0,773
553,821;17268,579;   -1,082;    1,045
554,404;16750,922;    1,282;    1,136
554,986;17136,111;    0,464;    1,045
555,568;17725,478;    1,191;   -0,955
556,151;16909,086;    1,191;   -0,227
556,733;17141,017;   -0,264;   -0,864
557,315;17617,584;    0,100;    0,500
557,897;17428,278;    0,554;   -0,500
558,479;17550,583;   -1,991;    1,318
559,061;17669,876;   -0,719;   -0,864
559,643;17973,108;   -0,264;    0,045
560,225;18309,904;    1,645;    2,864
560,807;18380,017;    0,918;    0,318
561,389;17853,173;    0,554;    2,318
561,971;18612,017;    0,463;    2,136
562,553;18381,634;   -1,628;    1,591
563,135;18535,754;   -0,537;    1,136
563,717;18127,268;    3,372;    1,136
564,298;18817,578;    3,645;   -0,045
564,880;18552,849;    0,645;   -1,409
565,462;18717,667;    0,645;    1,318
566,043;19832,494;   -0,446;    2,318
566,625;19373,311;    1,918;    1,227
567,207;19218,778;    1,099;    1,682
567,788;20330,054;   -1,264;    1,500
568,370;21081,676;    1,917;   -0,500
568,951;20904,119;    0,190;    0,227
569,533;21731,777;   -0,628;   -0,500
570,114;22189,894;   -0,446;    0,682
570,695;22652,465;   -0,174;   -1,318
571,277;23113,564;   -0,265;   -1,682
571,858;23817,134;    2,008;   -1,136
572,439;24720,094;    1,554;   -1,045
573,021;24883,979;    2,099;   -2,773
573,602;25332,879;   -1,265;    0,318
574,183;26232,948;   -2,083;    2,227
574,764;26338,552;   -1,629;    0,409
575,345;26830,741;    0,917;   -0,136
575,926;27479,543;   -0,356;    0,136
576,507;27453,060;    1,099;   -0,227
577,088;28566,757;    3,099;    1,682
577,669;28490,830;    0,735;    1,955
578,250;29173,403;    0,644;   -1,045
578,831;29823,940;   -1,356;   -2,227
579,412;30042,255;   -0,810;    0,955
579,993;31013,409;    1,008;    0,227
580,573;31353,531;   -0,629;   -0,955
581,154;30347,225;    0,735;   -0,591
581,735;31175,344;    0,644;    0,773
582,315;30655,162;   -0,629;    2,136
582,896;30983,188;   -0,174;    1,227
583,477;30467,659;    0,189;    1,227
584,057;30656,196;    0,553;    0,955
584,638;31010,863;    2,553;    2,318
585,218;30882,195;   -0,538;    2,682
585,799;31108,947;    0,281;   -0,227
586,379;31106,484;    0,372;    1,591
586,959;29928,736;    0,735;    0,318
587,540;29298,574;   -0,629;    2,227
588,120;28890,623;    1,007;   -0,045
588,700;27872,911;    2,553;    2,136
589,281;28157,379;    0,462;   -0,955
589,861;28082,595;    0,099;   -1,682
590,441;27880,107;    2,371;   -2,682
591,021;26910,135;   -0,265;   -2,591
591,601;27189,237;   -0,537;    0,500
592,181;27143,629;   -0,719;   -0,773
592,761;26498,734;    0,007;    1,409
593,341;26471,978;   -0,901;    0,045
593,921;26423,545;   -0,265;    1,591
594,501;26281,767;   -0,538;    1,318
595,081;26138,574;    0,917;   -0,318
595,661;26488,642;   -1,447;    0,955
596,240;27025,995;   -0,537;    0,136
596,820;26663,831;    0,372;    1,955
597,400;26820,579;    2,008;    0,773
597,980;27052,566;    2,008;    1,045
598,559;27075,577;    2,735;   -0,227
599,139;26778,127;   -0,174;   -1,227
599,718;26709,672;   -0,174;   -0,409
600,298;26911,335;    0,735;    0,682
600,877;27156,659;    2,917;    1,409
601,457;27450,585;    2,281;    1,136
602,036;27282,328;    0,190;    2,045
602,616;27517,656;    0,644;    1,682
603,195;27848,676;   -0,355;    3,500
603,774;27394,195;   -0,901;    2,045
604,354;27250,165;    0,826;   -0,500
604,933;26806,235;    0,463;    1,864
605,512;26944,592;    3,554;    0,591
606,091;27017,822;   -0,537;    3,773
606,671;27821,010;    0,281;    0,773
607,250;26890,557;    1,644;    3,136
607,829;27145,542;    2,372;    3,227
608,408;27051,245;    1,190;    2,591
608,987;26071,951;    1,281;    3,409
609,566;26405,369;   -1,265;   -2,500
610,145;26489,469;   -1,082;    0,682
610,723;26882,775;    4,372;    6,864
611,302;26165,127;   -0,446;    1,682
611,881;25682,314;    5,008;   11,227
612,460;26528,650;    1,645;    3,955
613,039;26958,758;   -0,082;    2,045
613,617;25676,211;    1,736;    4,773
614,196;25854,953;    1,099;    1,227
614,775;26199,089;    1,009;    2,409
615,353;26143,870;    0,736;    0,864
615,932;25930,387;    0,100;    2,409
616,510;26467,452;    0,554;    0,591
617,089;25998,267;    7,100;   17,591
617,667;25784,024;    2,372;    6,136
618,246;25640,955;   -1,537;    1,318
618,824;25823,200;   -3,355;   -0,955
619,402;25363,746;   -2,900;   -1,773
619,981;25870,646;   -0,173;   -1,045
620,559;25736,428;    0,009;    1,682
621,137;25248,402;   -0,718;    1,864
621,715;25276,344;   -1,173;   -0,682
622,293;25212,098;   -0,537;   -0,773
622,871;25685,130;   -0,718;    0,500
623,450;25225,569;    0,373;   -0,864
624,028;25140,458;    0,191;   -0,955
624,606;24771,663;   -1,718;    1,682
625,183;25205,168;   -1,536;   -1,136
625,761;24812,350;    1,009;    1,136
626,339;25084,545;    1,373;    2,591
626,917;25505,245;   -0,172;   -0,045
627,495;25519,368;   -0,354;    1,318
628,073;24931,116;   -0,263;    2,864
628,650;24673,465;    0,100;    2,136
629,228;25115,051;    0,373;    4,409
629,806;24492,284;    2,282;    1,136
630,383;24787,606;    1,464;   -0,318
630,961;24587,042;    2,555;   -0,955
631,539;24308,847;    2,464;    0,227
632,116;23661,315;   11,373;   15,409
632,694;24211,153;    2,555;    6,500
633,271;24557,344;    0,828;    2,682
633,848;24434,535;    1,828;    2,045
634,426;24522,125;   -1,081;    1,773
635,003;23615,252;    1,101;   -0,409
635,580;23972,976;    1,192;    3,682
636,158;24476,692;    3,737;    1,227
636,735;24421,102;    0,555;   -0,500
637,312;24626,417;   -0,809;   -0,682
637,889;24698,273;   -4,354;   -0,682
638,466;24166,700;   -3,990;   -0,409
639,043;24183,893;    2,101;   -1,136
639,620;24488,225;   -2,262;   -0,955
640,197;24845,082;    1,100;    1,682
640,774;24989,129;   -0,172;    1,136
641,351;25404,721;    0,737;    1,136
641,928;24762,677;   -0,627;    1,409
642,505;24408,633;    0,828;   -0,500
643,082;24593,953;   -1,718;    1,227
643,658;23617,545;   -0,718;    1,500
644,235;24334,138;    1,191;    2,500
644,812;24621,185;    1,918;    0,773
645,388;24379,959;   -0,991;    1,409
645,965;24459,006;   -0,809;    1,682
646,542;24536,325;   -1,445;   -0,227
647,118;24516,281;    1,009;   -0,955
647,695;24782,783;   -0,263;    1,136
648,271;24713,648;   -0,536;    0,500
648,848;25050,149;    0,736;    2,227
649,424;24864,651;    0,827;    1,318
650,000;24683,879;   -0,354;   -1,045
650,577;24470,381;   -0,627;   -0,955
651,153;24890,519;   -1,809;    0,955
651,729;25861,111;    1,191;    0,864
652,305;26012,067;    0,645;    2,773
652,881;29937,296;   -0,082;    1,136
653,458;36385,070;    1,100;    0,227
654,034;40250,117;    0,282;    1,591
654,610;41783,073;    0,554;    0,773
655,186;43130,665;    0,645;    3,045
655,762;42876,530;   -0,991;    0,409
656,338;42854,577;    0,100;    0,136
656,913;43786,533;   -0,082;    0,409
657,489;43097,580;    0,827;   -0,318
658,065;43112,718;   -0,173;   -1,591
658,641;43751,856;   -0,900;   -0,864
659,217;43078,175;   -0,991;    0,409
659,792;42482,404;    0,645;   -0,409
660,368;42781,724;   -2,173;   -0,682
660,944;42545,316;   -2,082;    1,227
661,519;38392,454;   -0,628;    0,409
662,095;32799,319;   -1,719;    0,591
662,670;28182,093;    1,281;   -0,136
663,246;26908,322;    1,009;   -0,409
663,821;26165,278;    0,281;    1,682
664,396;25622,870;    0,009;    1,864
664,972;25947,099;    0,009;   -0,500
665,547;26253,146;    1,372;    0,136
666,122;26271,193;   -1,082;    0,318
666,698;26488,967;   -0,173;    0,318
667,273;25838,286;   -0,173;    0,136
667,848;26666,152;    2,372;    1,500
668,423;26415,380;    2,190;    2,318
668,998;26986,700;    2,827;   -0,682
669,573;27542,020;   -3,264;   -1,500
670,148;27360,975;   -1,446;   -0,682
670,723;27154,931;   -1,810;    0,318
671,298;27577,706;    2,372;    1,045
671,873;27688,934;   -0,082;   -0,136
672,448;27634,709;    0,645;    0,136
673,023;27979,028;   -1,992;   -0,227
673,597;28313,075;    0,827;    2,318
674,172;28096,940;   -0,355;    0,318
674,747;27573,623;    0,372;   -1,045
675,321;27425,943;   -0,628;    3,318
675,896;27003,263;    0,645;    1,045
676,471;27968,219;    2,645;    1,591
677,045;27749,084;   -1,264;    0,682
677,620;27818,585;    0,190;    1,136
678,194;28145,814;   -2,628;    1,136
678,769;27697,588;   -1,083;   -0,318
679,343;27977,453;   -0,628;    1,773
679,917;27856,046;   -1,446;    1,955
680,492;27903,183;    0,826;    3,227
681,066;28012,594;    3,372;    0,409
681,640;28095,186;    1,463;   -0,318
682,214;28837,051;    0,735;    0,500
682,788;28369,371;   -1,356;   -0,773
683,363;28325,327;   -1,810;    1,682
683,937;28040,192;   -1,719;   -0,318
684,511;28794,239;    0,463;   -0,591
685,085;28501,377;   -1,356;    0,318
685,659;28296,424;   -2,538;    0,864
686,232;28495,561;   -0,356;   -0,318
686,806;28238,517;   -0,901;    0,409
687,380;28868,110;   -0,174;    0,591
687,954;29139,520;   -1,174;    1,136
688,528;28834,295;   -0,719;    1,955
689,101;29625,796;   -3,992;    1,045
689,675;29213,116;   -0,356;   -0,136
690,249;28543,163;   -0,719;    0,409
690,822;28879,028;    0,280;    0,318
691,396;28935,438;   -0,265;    1,227
691,969;28386,758;    1,280;    0,136
692,543;28868,714;   -0,447;   -1,955
693,116;28547,397;   -0,265;   -1,409
693,690;28428,535;    0,099;    0,500
694,263;28949,127;   -1,083;    2,955
694,836;28957,629;    1,371;    3,591
695,410;27634,766;   -0,265;    1,773
695,983;28125,359;    0,189;    0,591
696,556;28082,497;   -0,447;   -1,045
697,129;28416,271;   -0,356;    1,409
697,703;28057,590;   -1,629;    1,955
698,276;28042,910;    1,462;   -0,773
698,849;27858,684;    1,280;    1,409
699,422;28259,186;   -1,083;    0,591
699,995;27958,142;    0,007;    0,136
700,568;28476,280;   -0,629;    3,045
701,140;28538,417;   -2,811;    1,682
701,713;28233,737;   -0,174;    2,409
702,286;27990,693;   -0,538;    0,864
702,859;27872,922;   -0,902;   -0,591
703,432;27040,605;    0,825;    0,682
704,004;27551,743;    0,462;    0,318
704,577;27436,971;   -0,629;    0,136
705,150;27985,018;    0,189;    2,500
705,722;27739,611;   -0,356;   -3,227
706,295;27498,476;   -0,175;   -0,591
706,867;27401,341;   -0,175;    1,955
707,440;27619,388;   -1,720;   -0,409
708,012;27842,889;    0,462;    0,591
708,584;27717,391;    2,462;    0,227
709,157;28070,892;    1,825;   -0,591
709,729;27747,757;    2,280;    2,045
710,301;28557,895;    0,734;    0,045
710,874;28541,033;   -1,447;   -0,227
711,446;27442,080;    0,371;    0,864
712,018;27398,854;    0,098;    0,500
712,590;27129,355;   -1,993;    1,682
713,162;27603,220;    0,825;    1,318
713,734;27879,267;    1,825;   -2,045
714,306;27793,769;   -1,902;   -0,409
714,878;26446,088;    0,825;    0,864
715,450;27291,954;    0,643;    0,864
716,022;27561,546;    1,552;    1,318
716,593;27661,593;    0,189;    0,591
717,165;27646,731;   -3,175;   -1,227
717,737;27322,414;    0,280;    0,409
718,309;27001,824;    0,280;   -0,045
718,880;26976,417;   -0,539;   -1,409
719,452;27199,282;   -0,175;   -1,591
720,024;26794,601;    0,734;   -0,591
720,595;27344,285;   -2,902;    0,955
721,167;26903,513;    0,370;   -2,045
721,738;26362,015;   -0,812;   -1,045
722,309;26355,607;   -0,993;   -1,227
722,881;26180,654;   -1,357;    0,773
723,452;26787,792;   -2,630;    2,864
724,023;26987,839;   -0,721;    2,682
724,595;26733,886;    0,007;    0,682
725,166;26479,205;    0,007;   -0,409
725,737;26141,798;    1,734;    0,227
726,308;26246,299;   -0,266;    0,318
726,879;26720,982;   -1,630;    1,227
727,450;26576,757;    0,552;   -0,045
728,021;26494,622;    3,097;    0,682
728,592;26272,214;    0,734;    0,500
729,163;26641,625;    0,643;   -0,136
729,734;26630,672;    0,188;   -0,227
730,305;26914,537;    1,734;    0,136
730,876;27287,856;    0,188;    2,955
731,447;27007,176;    2,188;    2,682
732,017;27117,496;    1,097;    1,864
732,588;26639,906;    0,734;    1,227
733,159;26793,044;    0,643;   -1,045
733,729;26623,091;    0,006;    0,409
734,300;25894,592;    0,915;    0,864
734,870;26336,094;    3,461;    0,591
735,441;26902,141;    0,370;   -0,591
736,011;26685,551;    0,643;   -1,591
736,582;26625,598;   -0,812;    0,045
737,152;26068,281;   -1,721;   -2,045
737,722;26514,146;   -0,267;   -0,682
738,293;26234,284;   -1,358;    1,318
738,863;26095,422;    2,461;    2,318
739,433;25904,742;    5,279;    0,318
740,003;26525,516;   -0,994;   -0,682
740,573;25968,017;    2,097;   -1,591
741,143;25960,701;   -1,085;    0,318
741,713;26758,293;    1,188;   -0,500
742,283;26418,522;    0,915;    1,591
742,853;26215,478;    1,915;    1,591
743,423;25657,706;    1,733;    0,045
743,993;25813,026;   -0,358;    1,500
744,563;25217,164;    0,097;   -0,864
745,133;25143,847;   -0,812;   -0,864
745,702;25805,712;   -0,267;    1,773
746,272;25024,941;   -0,176;    0,591
746,842;24791,533;   -1,358;   -0,591
747,411;25314,762;   -0,267;   -0,318
747,981;25452,263;    0,097;    0,500
748,551;25498,128;    2,278;   -1,045
749,120;25388,448;    0,642;   -0,227
749,690;25743,859;   -0,631;    2,409
750,259;26015,815;    1,369;    2,955
750,828;25973,589;    1,551;   -1,955
751,398;26201,817;    1,278;   -0,045
751,967;25713,864;    2,187;    0,409
752,536;25912,093;   -0,813;   -0,227
753,105;26315,595;    0,096;    0,227
753,675;26142,187;    0,096;    1,773
754,244;26108,779;   -0,904;    3,591
754,813;26122,917;    0,551;    1,227
755,382;25704,873;    0,460;    0,955
755,951;26223,829;    1,551;    3,682
756,520;25729,512;   -0,085;    1,864
757,089;26313,741;    0,278;    0,500
757,658;26454,697;    1,733;    1,227
758,227;26457,653;    1,096;    0,318
758,795;26789,154;    1,187;    1,136
759,364;27048,201;   -0,086;   -0,591
759,933;26016,885;   -1,176;   -0,045
760,501;25583,568;    0,733;   -1,318
761,070;26048,342;   -2,813;   -1,409
761,639;26744,298;   -1,904;    1,318
762,207;26054,254;    1,551;   -0,955
762,776;25995,483;    0,369;    0,864
763,344;25992,893;   -0,995;    0,591
763,913;25102,122;   -0,722;    1,409
764,481;25801,714;    1,005;   -0,136
765,049;25612,398;   -1,358;    1,409
765,618;25491,445;   -0,086;    0,318
766,186;25623,037;    0,278;    0,136
766,754;25845,629;    0,005;    1,864
767,322;24782,585;   -1,995;    0,409
767,890;24848,359;   -0,722;   -1,773
768,459;25204,225;   -2,177;   -0,318
769,027;25363,726;    1,641;    3,409
769,595;24355,227;    3,278;    2,591
770,163;24828,729;    3,823;    2,955
770,730;24616,230;    0,732;   -0,136
771,298;24515,914;    0,187;   -1,409
771,866;24602,870;   -1,541;    4,955
772,434;24879,917;   -0,631;   -1,864
773,002;25054,509;    0,005;    0,682
773,569;24676,829;    0,914;    1,682
774,137;24468,966;   -0,268;   -0,045
774,705;25286,922;    0,278;   -0,136
775,272;24806,878;    0,641;    0,682
775,840;24582,016;   -0,177;    2,682
776,407;24093,427;    0,277;    1,955
776,975;23687,201;   -0,632;    0,318
777,542;24729,611;   -1,086;   -0,045
778,110;24577,658;   -1,268;   -0,045
778,677;24272,705;   -2,359;   -0,864
779,244;23990,661;    2,186;    1,045
779,812;24048,344;    1,823;    0,864
780,379;23938,573;    0,005;    1,136
780,946;24231,984;    1,005;   -0,773
781,513;24546,485;   -1,450;    0,318
782,080;23950,623;   -0,086;    2,864
782,647;24626,943;   -0,268;    3,045
783,214;24216,808;   -0,177;    3,864
783,781;23879,582;   -0,723;   -0,682
784,348;23711,538;   -0,632;    1,500
784,915;24189,403;   -3,177;    0,318
785,482;23955,086;    1,368;    2,591
786,049;24390,860;    0,186;   -0,591
786,615;24475,362;    0,277;   -0,955
787,182;24248,409;    0,186;   -0,682
787,749;23940,910;   -2,814;    1,409
788,315;23269,048;   -1,632;   -0,409
788,882;23581,913;    1,550;   -1,227
789,448;24221,233;    1,732;   -0,955
790,015;24300,007;    1,095;    3,227
790,581;23832,963;    1,459;    0,227
791,148;23758,373;    0,641;    1,045
791,714;23951,784;   -0,541;    3,136
792,280;23639,194;    0,186;    1,591
792,847;23194,787;    0,550;    2,500
793,413;23777,016;   -0,269;   -0,318
793,979;23306,153;    3,459;   -1,318
794,545;23371,473;    4,459;    2,682
795,111;22811,884;    2,186;    1,318
795,678;23045,112;    0,731;   -1,682
796,244;22645,886;    3,368;    0,136
796,810;23226,297;    1,731;    0,773
797,375;22926,526;    0,549;   -2,136
797,941;22893,391;   -0,541;    0,591
798,507;23059,983;   -0,451;   -0,955
799,073;22645,575;   -0,360;    0,591
799,639;22697,077;   -2,632;    3,136
800,205;22753,851;    0,095;    2,682
800,770;22314,534;    0,640;    1,773
801,336;22380,854;    1,368;   -0,955
801,901;22043,628;    4,549;    3,136
802,467;22624,130;   -0,542;    2,045
803,033;22012,540;   -0,087;    0,864
803,598;22178,678;    1,913;   -1,045
804,163;22215,179;    1,095;   -0,318
804,729;22167,135;   -0,178;    1,136
805,294;22595,546;    0,822;    2,227
805,859;22403,411;    0,731;   -0,409
806,425;21865,731;    1,186;    2,682
806,990;21508,596;    2,186;    4,318
807,555;22017,370;   -1,451;    2,591
808,120;21886,599;    0,822;   -0,409
808,685;21992,191;    0,185;   -2,500
809,250;21468,783;    0,004;   -0,500
809,815;21785,739;    1,913;    0,682
810,380;22297,877;   -0,269;    1,591
810,945;22824,651;   -1,087;    2,045
811,510;22001,244;    2,094;    1,591
812,075;21735,745;   -0,633;   -1,409
812,640;21748,701;    2,003;    1,409
813,204;21833,839;    0,822;   -0,227
813,769;22304,977;    2,094;   -0,045
814,334;21789,024;    0,458;    0,864
814,898;21799,525;    0,367;    0,591
815,463;21624,572;    1,276;   -0,773
816,027;21622,801;   -0,724;   -2,318
816,592;21724,484;    0,640;   -2,045
817,156;21257,167;    2,094;    1,136
817,721;21053,669;    4,276;    2,318
818,285;21048,807;    2,912;    1,500
818,849;21677,126;   -1,451;    1,682
819,414;21604,264;   -0,269;    2,955
819,978;21176,220;   -1,269;    1,773
820,542;21742,994;    2,003;    0,500
821,106;21494,314;   -0,815;    0,682
821,670;21551,906;   -0,815;    2,591
822,234;21295,135;   -0,270;    1,409
822,798;20687,364;    0,003;    0,500
823,362;20614,592;   -0,633;    4,227
823,926;19918,548;    0,094;    1,136
824,490;20161,595;   -0,997;   -0,682
825,054;20608,733;   -0,088;   -1,136
825,618;20242,689;   -1,542;   -1,500
826,181;20180,554;    0,458;   -1,318
826,745;20085,419;    1,367;   -1,045
827,309;20411,557;    1,185;    1,318
827,872;19845,786;    1,367;    0,955
828,436;20864,560;    1,185;   -0,773
828,999;20899,243;   -0,997;    1,227
829,563;19698,199;   -0,179;    1,136
830,126;19561,064;   -0,179;   -0,591
830,690;19517,566;   -1,997;    2,864
831,253;19077,885;   -0,543;    2,227
831,816;19196,114;   -1,906;    0,500
832,380;19119,434;    0,185;    0,864
832,943;19360,481;   -1,361;   -0,500
833,506;18847,709;    2,639;   -1,227
834,069;19604,938;    3,912;   -0,955
834,632;19691,803;    1,730;    1,318
835,195;19609,395;    1,003;    0,955
835,758;18830,261;   -0,997;    1,955
836,321;18641,126;    0,730;   -1,045
836,884;18737,718;   -0,725;   -0,955
837,447;18805,492;   -2,816;    1,773
838,010;19019,721;    0,366;    3,227
838,573;19307,222;   -1,179;    0,773
839,135;19287,178;   -1,361;   -0,955
839,698;18759,771;    1,275;    0,409
840,261;18304,908;    1,003;   -0,227
840,823;18158,410;   -0,543;    0,864
841,386;18454,548;   -0,452;   -2,409
841,948;18322,867;   -1,361;    1,773
842,511;18060,096;    0,912;    1,682
843,073;18152,325;    1,912;    0,227
843,636;17966,463;   -0,361;   -0,227
844,198;17902,964;    0,911;    0,591
844,760;18070,556;    1,093;    1,955
845,322;17695,331;    0,548;    1,136
845,885;18133,287;    0,730;    0,591
846,447;18553,606;   -1,998;    0,227
847,009;18140,108;    1,911;   -0,682
847,571;18483,791;    0,820;   -2,045
848,133;18579,474;   -1,089;   -1,864
848,695;18434,612;   -0,543;    1,409
849,257;17963,023;   -1,089;   -1,682
849,819;18101,706;   -0,998;   -0,409
850,381;18178,844;   -0,725;   -0,864
850,942;18513,254;    1,093;   -0,591
851,504;18471,119;    1,184;    0,227
852,066;18502,712;    1,275;   -1,591
852,628;18044,122;   -0,180;    1,955
853,189;17594,078;    1,638;    2,682
853,751;17701,580;   -0,907;    1,409
854,312;17543,717;   -0,453;   -1,682
854,874;17998,946;   -2,089;   -0,773
855,435;18580,266;   -0,907;   -1,682
855,997;18726,585;   -1,816;   -0,136
856,558;17997,360;    0,366;    1,773
857,119;18078,952;    0,820;    2,864
857,681;17801,362;    0,002;    0,318
858,242;17859,682;    1,911;   -2,136
858,803;18271,820;    0,456;   -0,773
859,364;18871,140;    0,184;   -4,773
859,925;18148,550;   -2,453;   -0,955
860,486;18043,506;   -0,453;   -0,955
861,047;17793,553;   -0,544;   -1,227
861,608;17662,236;   -1,089;   -0,773
862,169;17771,192;    0,638;   -0,045
862,730;17535,694;    0,456;    1,409
863,291;17774,650;   -0,635;   -0,500
863,852;18145,697;   -0,635;    1,955
864,412;17638,107;   -0,271;   -0,864
864,973;16212,336;   -0,089;    0,500
865,534;16032,928;   -1,726;    0,227
866,094;17547,157;    1,820;    0,227
866,655;17251,113;    1,274;    3,318
867,215;17496,614;    0,274;    0,136
867,776;17332,934;    0,547;   -0,136
868,336;17445,072;   -1,453;    0,136
868,897;16902,755;    2,638;    1,682
869,457;16684,438;    1,365;    0,318
870,017;16897,303;    0,547;   -1,227
870,578;17409,441;   -0,817;    0,773
871,138;17097,579;   -2,089;   -0,955
871,698;16640,444;   -0,817;   -1,318
872,258;16531,309;   -0,453;   -2,864
872,818;16928,538;    2,729;    0,045
873,378;16827,767;    0,638;    1,045
873,938;16415,450;    0,547;    0,500
874,498;16760,497;    0,274;   -1,955
875,058;16664,907;    2,183;    1,773
875,618;16500,682;    1,910;   -2,682
876,177;16444,819;    1,274;    0,136
876,737;16054,412;   -0,090;    1,955
877,297;16034,459;    0,183;    1,955
877,856;16028,687;   -0,362;    0,318
878,416;15988,280;    1,183;   -0,136
878,976;16227,508;   -1,817;    0,409
879,535;16412,646;    0,092;    3,136
880,095;16133,420;   -0,544;    0,045
880,654;16247,195;   -1,090;    1,318
881,213;16309,514;    2,456;    1,500
881,773;15984,016;    2,637;    2,682
882,332;16320,063;    3,365;    5,136
882,891;16177,291;    3,092;    2,136
883,451;16629,156;   -1,272;    1,682
884,010;16109,658;   -2,908;   -0,409
884,569;16230,977;   -0,999;   -0,045
885,128;16356,842;    2,819;   -1,864
885,687;16385,798;    4,455;    0,682
886,246;16098,664;    1,455;    2,136
886,805;15828,347;    2,455;    2,045
887,364;16147,212;   -0,999;   -0,500
887,922;16523,622;   -1,181;    0,045
888,481;15996,033;   -1,545;    0,591
889,040;16357,534;    1,183;    2,136
889,599;17016,309;    2,455;    1,409
890,157;17072,719;    1,455;    2,409
890,716;16708,948;   -0,090;    0,227
891,274;16516,995;    0,092;   -1,136
891,833;16934,496;    1,546;    0,864
892,391;16852,543;   -0,454;    0,500
892,950;16914,317;    1,819;   -0,773
893,508;17276,637;    0,455;   -0,409
894,067;16642,138;    0,637;    0,136
894,625;16527,094;   -0,636;   -1,500
895,183;16765,141;   -0,363;   -0,682
895,741;16629,370;    1,728;   -1,773
896,299;16489,599;   -0,545;   -2,409
896,858;16690,191;    0,819;   -1,591
897,416;16798,965;    2,728;   -1,318
897,974;16566,830;    1,819;    0,318
898,532;16703,514;    6,091;    2,682
899,089;16603,924;    2,091;   -0,682
899,647;16652,789;   -1,454;    1,318
900,205;16348,927;    1,182;    1,045
900,763;16570,974;   -0,454;    0,227
901,321;16547,475;    2,364;   -1,409
901,878;16015,431;   -1,000;   -0,773
902,436;15926,660;   -1,363;    1,318
902,994;16307,434;    4,728;    3,682
903,551;15788,390;    0,728;    0,409
904,109;16186,528;    0,182;   -1,409
904,666;15722,120;    2,455;    1,045
905,224;15581,895;    0,182;   -0,409
905,781;15345,214;    0,727;   -0,318
906,338;15381,170;   -1,363;    1,045
906,895;15346,581;    0,637;    2,045
907,453;15237,173;    1,727;    1,136
908,010;15317,765;   -0,909;    0,409
908,567;14986,994;    1,273;    0,591
909,124;14506,768;    0,364;   -1,500
909,681;14548,906;   -2,909;    0,682
910,238;14682,680;    0,636;   -1,318
910,795;15010,364;   -0,273;   -1,136
911,352;14649,818;   -2,909;   -2,682
911,909;14083,545;   -1,364;   -0,864
912,466;14551,273;   -3,182;    1,500
913,022;14124,000;   -1,636;    0,500
913,579;14471,364;   -0,909;    2,045
914,136;14188,909;    1,636;    0,955
914,692;14509,545;    0,091;   -1,227
915,249;14104,000;    1,455;    0,409
915,806;14345,182;    0,182;    1,955
916,362;14097,909;    1,909;    1,864
916,918;13656,455;    2,000;    1,045
917,475;13597,909;   -1,182;    0,955
918,031;13666,818;    3,364;   -0,045
918,587;13151,273;   -0,909;   -0,318
919,144;13395,727;   -2,273;    0,227
919,700;13695,545;    1,727;    0,773
920,256;13287,818;    0,727;    0,045
920,812;12927,273;   -0,727;   -1,045
921,368;12941,455;   -1,727;   -1,045
921,924;12565,455;    0,182;   -0,136
922,480;12173,182;   -0,545;    1,227
923,036;12736,182;    1,273;    1,955
923,592;12708,636;    0,455;    0,318
924,148;12586,818;    0,455;   -0,955
924,704;11922,091;   -1,364;   -0,409
925,259;12203,273;   -0,273;    0,591
925,815;11964,818;    1,455;    0,500
926,371;11507,727;    2,909;    1,409
926,926;11381,000;    2,091;    0,591
927,482;11045,273;   -1,364;    0,773
928,037;10918,545;    0,909;    2,045
928,593;11215,545;    1,636;    1,045
929,148;11061,909;   -1,818;   -1,500
929,704;10556,091;   -1,455;   -0,500
930,259;10735,182;    0,091;   -0,136
930,814; 9822,364;   -0,818;    1,955
931,369; 9508,364;    1,091;   -0,773
931,925; 9373,818;   -0,091;    0,136
932,480; 9295,818;   -2,818;   -2,591
933,035; 9188,455;    0,545;   -0,318
933,590; 8967,182;    0,364;   -1,773
934,145; 8658,455;   -1,364;   -0,318
934,700; 8991,818;    0,455;   -0,591
935,255; 8778,091;   -0,091;    0,045
935,809; 8058,273;    3,182;    0,864
936,364; 7236,364;   -0,455;   -0,136
936,919; 7231,364;    0,455;   -1,773
937,474; 7141,545;    1,455;    0,136
938,028; 6885,091;   -1,636;    1,136
938,583; 6366,273;    1,818;    4,682
939,138; 6616,636;    2,091;    2,136
939,692; 6086,182;    1,636;   -1,136
940,247; 5803,000;   -0,727;   -1,045
940,801; 5364,364;   -0,636;    0,227
941,355; 5264,091;   -0,364;    2,591
941,910; 4932,000;   -0,273;   -2,136
942,464; 5040,091;   -0,818;   -0,318
943,018; 4822,364;    1,000;   -0,227
943,572; 4755,818;    2,545;   -0,682
944,126; 4211,636;    0,091;   -0,409
944,681; 4113,364;    3,091;    0,227
945,235; 4082,727;    1,000;   -0,591
945,789; 4020,727;    0,364;   -1,864
946,342; 4132,182;    0,455;   -0,591
946,896; 3946,727;   -2,273;    0,955
947,450; 3720,273;    1,545;   -0,227
948,004; 3899,818;    1,727;   -0,045
948,558; 3898,636;    0,273;   -0,864
949,111; 3833,455;   -0,273;   -0,318
949,665; 3858,636;    1,636;   -0,682
950,219; 3728,727;   -0,091;   -1,045
950,772; 3807,545;   -1,909;    1,864
951,326; 3711,091;    0,545;   -0,955
951,879; 3807,727;    0,727;   -2,318
952,433; 3842,000;    0,000;    2,227
952,986; 3673,545;    2,909;    0,682
953,539; 3638,818;   -0,273;    0,591
954,093; 3549,909;    0,545;   -1,318
954,646; 3675,727;    0,909;    1,318
955,199; 3498,364;    0,000;   -0,500
955,752; 3400,091;   -0,455;    1,773
956,305; 3353,455;   -0,091;    2,955
956,858; 3522,455;    0,818;   -0,318
957,411; 3689,909;   -0,545;    2,136
957,964; 3522,273;    1,364;    2,136
958,517; 3522,364;   -1,545;    3,136
959,070; 3360,455;   -0,455;    1,955
959,623; 3413,727;    1,091;    1,500
960,176; 3206,455;    1,727;    2,045
960,728; 3180,455;   -2,727;    0,773
961,281; 3227,818;    0,545;    0,500
961,834; 3270,818;   -0,909;    0,864
962,386; 3199,091;    1,727;    1,045
962,939; 3131,000;    0,364;   -0,318
963,491; 3275,091;    0,455;    1,136
964,043; 3136,455;    1,182;    2,409
964,596; 3245,364;   -1,000;    2,227
965,148; 3087,000;   -1,000;    1,773
965,700; 3028,455;    1,091;   -0,227
966,253; 3184,455;   -0,636;    0,318
966,805; 3025,091;   -2,273;    0,773
967,357; 3060,909;    1,091;   -1,500
967,909; 3017,818;    0,455;   -1,227
968,461; 3127,455;    0,545;    3,136
969,013; 3066,545;   -0,182;   -0,864
969,565; 3129,273;   -0,455;   -1,136
970,117; 3194,818;   -0,364;    1,045
970,669; 3056,091;    0,182;   -0,136
971,220; 2907,455;   -0,455;   -1,500
971,772; 2838,182;   -0,636;   -0,318
972,324; 2967,364;    0,091;   -0,500
972,876; 2897,182;    0,818;   -0,045
973,427; 3016,273;    1,909;   -1,045
973,979; 2991,091;   -0,727;   -2,500
974,530; 3024,364;    1,818;    1,318
975,082; 3034,818;   -0,545;    1,682
975,633; 2940,545;    1,091;    1,682
976,184; 3077,727;    0,909;    0,773
976,736; 2873,818;    0,091;    0,227
977,287; 2702,364;   -0,909;   -0,500
977,838; 2874,182;    0,909;   -0,318
978,389; 2928,364;   -1,000;   -0,500
978,940; 2795,455;    0,545;   -0,409
979,491; 2829,818;    0,091;   -0,500
980,042; 2789,273;    0,182;    3,045
980,593; 2832,182;   -2,545;    0,227
981,144; 2904,091;    2,545;   -0,500
981,695; 2865,909;    1,455;    1,500
982,246; 2840,000;   -0,273;    1,045
982,797; 2967,545;   -1,727;    0,682
983,347; 3078,636;    0,364;    0,591
983,898; 3240,091;    3,091;    0,409
984,449; 3055,818;    2,182;    0,773
984,999; 2984,000;    1,455;   -1,136
985,550; 2769,364;    0,182;   -0,318
986,100; 2792,273;   -0,455;   -0,318
986,651; 2834,364;   -0,818;    0,045
987,201; 2811,455;   -1,000;   -0,591
987,751; 2879,818;    0,818;    2,864
988,302; 2873,727;    2,636;    1,500
988,852; 2911,364;    0,455;   -1,136
989,402; 2961,000;    0,091;    0,682
989,952; 2856,545;   -2,182;    0,864
990,502; 2956,818;   -0,091;    0,682
991,052; 2928,364;   -0,727;    0,045
991,602; 2803,818;   -2,909;    1,318
992,152; 2799,636;    0,455;    0,682
992,702; 2787,455;    1,364;   -0,045
993,252; 2707,636;   -3,000;   -0,500
993,802; 2798,727;   -0,273;    1,318
994,352; 3026,182;   -1,545;    1,136
994,901; 3115,000;   -0,182;    3,227
995,451; 3034,727;   -0,182;    0,318
996,000; 3112,727;    1,636;    0,318
996,550; 2829,091;    2,273;    0,227
997,100; 2827,182;    1,273;   -0,045
997,649; 3104,182;    2,182;    0,955
998,198; 2749,182;    1,727;   -1,500
998,748; 2918,091;    1,091;   -2,318
999,297; 2851,455;   -0,818;   -0,409
999,846; 2920,182;    1,000;   -0,773
1000,395; 2961,364;   -0,818;    0,500
1000,945; 2922,727;    1,818;   -0,773
1001,494; 2995,182;    2,364;    0,682
1002,043; 2991,818;    4,636;    0,864
1002,592; 2836,455;   -1,091;    1,955
1003,141; 2966,455;   -0,455;   -0,682
1003,690; 2834,909;    1,727;    0,500
1004,238; 2921,364;    1,455;   -0,045
1004,787; 2578,273;    1,364;    1,227
1005,336; 2812,636;    0,364;    0,682
1005,885; 2942,636;    1,364;   -2,773
1006,433; 3064,545;    0,545;    0,955
1006,982; 3113,909;    0,455;    1,682
1007,531; 3031,545;   -1,818;   -0,227
1008,079; 3000,364;   -2,273;    0,500
1008,627; 3157,455;   -1,455;    0,409
1009,176; 2904,091;    0,000;   -1,955
1009,724; 2937,000;    1,091;    0,864
1010,273; 2987,364;    1,273;    0,500
1010,821; 3093,636;    0,091;    1,409
1011,369; 2839,727;   -1,364;    1,318
1011,917; 2823,000;   -1,364;   -0,591
1012,465; 3096,818;    1,273;   -1,591
1013,013; 3207,455;    2,091;   -1,682
1013,561; 3073,364;    0,455;   -0,773
1014,109; 3119,273;   -1,909;    1,682
1014,657; 3005,364;    0,364;    0,591
1015,205; 3142,636;    1,636;   -0,955
1015,753; 3152,091;   -0,545;   -1,409
1016,301; 3181,727;   -2,636;    3,045
1016,848; 3197,273;   -1,273;    0,409
1017,396; 3242,364;    2,545;    0,045
1017,944; 3354,636;    1,182;    1,864
1018,491; 3139,455;    0,273;    1,409
1019,039; 3280,455;    0,455;    0,591
1019,586; 3199,000;   -1,364;    1,682
1020,134; 3302,909;    0,455;    1,500
1020,681; 3318,727;    0,182;   -1,136
1021,228; 3333,364;    2,909;   -2,227
1021,776; 3168,000;    1,182;   -1,136
1022,323; 3373,000;    0,455;    0,773
1022,870; 3305,182;   -1,000;   -0,045
1023,417; 3206,000;    2,636;    1,864
1023,964; 3360,000;    2,636;    1,227
1024,511; 3212,727;    1,000;    0,773
1025,058; 2998,727;    3,182;   -0,045
1025,605; 3047,909;   -2,273;    3,136
1026,152; 3250,909;    1,727;   -0,591
1026,699; 2999,455;    1,818;    1,318
1027,245; 3163,182;   -0,091;    0,318
1027,792; 3350,818;   -1,000;    1,409
1028,339; 3240,182;    2,364;   -0,045
1028,885; 3105,273;    1,000;   -0,227
1029,432; 3051,182;   -0,091;    0,227
1029,978; 3108,091;   -1,000;   -1,591
1030,525; 3016,636;    1,000;    0,409
1031,071; 3273,636;   -1,364;    1,136
1031,618; 3374,000;    0,364;    1,682
1032,164; 3168,909;   -0,091;    3,045
1032,710; 3211,818;    1,636;   -1,500
1033,256; 3117,909;   -0,636;   -0,136
1033,803; 3103,818;   -0,545;    1,500
1034,349; 2837,455;   -1,364;    0,136
1034,895; 2991,455;    0,000;   -0,318
1035,441; 2962,273;   -0,818;    0,318
1035,987; 2964,636;   -2,364;   -0,682
1036,533; 2956,273;   -1,455;   -0,955
1037,078; 3155,091;    1,455;    1,682
1037,624; 2978,545;    2,455;   -0,955
1038,170; 3017,000;    0,455;   -0,318
1038,716; 2925,091;    1,636;   -0,409
1039,261; 2837,727;   -2,273;   -0,773
1039,807; 2776,727;   -0,091;    3,409
1040,352; 2848,273;   -1,909;   -0,318
1040,898; 2878,636;   -1,545;   -0,682
1041,443; 2793,364;   -1,455;   -2,591
1041,989; 2815,455;    1,091;    1,591
1042,534; 2705,455;   -0,364;    2,591
1043,079; 2818,909;    2,909;    0,955
1043,625; 2614,545;    1,818;    0,500
1044,170; 2655,818;   -1,364;    1,045
1044,715; 2903,909;    2,455;    0,955
1045,260; 2727,455;    2,182;   -0,955
1045,805; 2775,909;    1,182;   -0,591
1046,350; 2707,000;    1,364;   -0,409
1046,895; 2663,727;    2,909;    1,591
1047,440; 2637,727;    5,364;    0,409
1047,985; 2538,273;    2,818;   -0,955
1048,530; 2443,727;    1,545;    1,227
1049,074; 2525,727;    0,000;    0,318
1049,619; 2497,455;   -1,364;    1,955
1050,164; 2299,182;    0,455;    0,227
1050,708; 2343,455;   -0,455;    0,045
1051,253; 2698,818;    1,273;   -2,227
1051,797; 2408,636;    0,818;   -1,318
1052,342; 2416,636;   -1,182;    1,045
1052,886; 2410,455;    0,364;   -1,409
1053,430; 2316,727;   -1,364;    0,136
1053,975; 2319,000;   -0,818;   -0,318
1054,519; 2286,909;   -0,727;    3,227
1055,063; 2327,364;    0,909;    1,318
1055,607; 2211,273;   -0,182;    0,227
1056,151; 2220,909;    2,909;    1,682
1056,695; 2134,636;    2,273;   -1,136
1057,239; 2205,000;   -1,727;   -0,682
1057,783; 2211,364;    0,818;   -1,500
1058,327; 2155,909;    0,000;    1,409
1058,871; 2399,636;   -0,545;    1,318
1059,415; 2108,182;   -0,818;   -0,045
1059,958; 2366,273;    1,455;    2,591
1060,502; 2070,364;   -1,000;   -0,773
1061,046; 1989,909;    0,364;   -0,955
1061,589; 1974,818;   -3,000;   -1,136
1062,133; 1849,909;   -1,273;    1,864
1062,676; 1797,545;    1,182;    0,864
1063,220; 1807,727;    1,091;    0,500
1063,763; 1815,636;    0,909;    1,136
1064,306; 1897,364;   -0,909;    1,864
1064,849; 1779,273;   -0,909;    0,591
1065,393; 1785,273;    2,000;   -1,500
1065,936; 1889,455;    0,182;   -0,409
1066,479; 1800,182;   -1,455;    1,318
1067,022; 1832,909;   -0,273;   -0,227
1067,565; 1711,364;   -0,091;   -1,318
1068,108; 1732,545;    0,727;   -0,591
1068,651; 1707,000;   -0,636;    1,409
1069,194; 1631,545;   -0,455;   -1,682
1069,736; 1643,727;   -1,273;    0,955
1070,279; 1629,455;   -1,364;   -0,500
1070,822; 1673,091;   -2,000;   -0,318
1071,364; 1751,818;   -0,364;    1,318
1071,907; 1579,455;   -0,727;    3,227
1072,450; 1488,818;    0,000;   -0,045
1072,992; 1473,000;   -0,273;    3,136
1073,535; 1607,455;    2,091;    2,136
1074,077; 1406,818;   -0,727;    2,045
1074,619; 1375,636;   -1,364;    0,591
1075,161; 1410,818;   -1,091;    1,500
1075,704; 1582,727;    1,545;    1,227
1076,246; 1390,091;   -0,182;    0,682
1076,788; 1334,727;   -0,364;    1,773
1077,330; 1398,727;    1,273;    2,136
1077,872; 1351,818;    0,909;    0,955
1078,414; 1574,182;    2,727;    0,773
1078,956; 1321,000;    1,273;   -0,227
1079,498; 1566,636;    1,636;    0,318
1080,040; 1281,273;    1,909;   -1,318
1080,581; 1216,727;    1,636;   -0,318
1081,123; 1160,000;    0,091;   -0,773
1081,665; 1202,909;   -1,182;   -0,955
1082,206; 1488,545;    1,364;   -0,500
1082,748; 1351,545;    0,727;    2,045
1083,289; 1235,091;   -2,000;    1,318
1083,831; 1143,364;   -0,545;    0,227
1084,372; 1173,364;    0,000;    0,591
1084,913; 1187,636;    1,091;    0,864
1085,455; 1162,182;   -1,909;   -2,045
1085,996; 1120,091;   -2,273;    0,136
1086,537; 1140,364;   -0,091;    0,864
1087,078; 1166,000;   -0,909;   -2,136
1087,619; 1196,909;   -1,273;    0,227
1088,160; 1126,000;    0,000;    1,318
1088,701; 1107,273;   -1,091;    0,682
1089,242; 1048,273;    1,364;   -2,227
1089,783; 1138,636;   -0,273;    1,409
1090,324; 1113,818;    0,455;    0,682
1090,865;  992,818;    2,727;   -0,409
1091,405;  970,636;    0,727;    2,227
1091,946; 1003,000;    0,182;   -0,955
1092,487;  922,455;    0,818;   -1,409
1093,027; 1081,455;   -1,364;   -1,500
1093,568;  955,818;   -0,364;    1,227
1094,108; 1041,091;    0,273;    1,773
1094,649;  971,818;   -1,182;    0,136
1095,189;  910,455;   -0,636;   -0,682
1095,729;  856,273;   -0,091;    0,955
1096,269;  877,000;    0,727;   -0,955
1096,810; 1181,636;   -1,364;    0,500
1097,350;  993,909;    1,364;   -0,773
1097,890;  911,182;    0,364;    1,227
1098,430; 1166,727;    2,364;    2,864
1098,970; 1029,455;    2,182;    1,682
1099,510;  896,909;    0,545;   -2,318
1100,050;  821,818;    1,000;   -1,591
1100,589;  789,000;   -0,727;   -0,318
1101,129;  917,000;    0,818;   -0,955
1101,669; 1059,273;    1,727;    2,136
1102,209;  875,909;   -0,091;    2,227
1102,748;  839,364;    0,000;    0,955
1103,288;  826,182;    1,273;   -1,227
1103,827;  861,818;    3,091;   -2,227
1104,367;  743,636;   -0,091;   -2,409
1104,906;  706,091;    1,364;   -1,136
1105,445;  768,364;    0,636;   -1,136
1105,985;  715,455;   -0,727;    1,500
1106,524;  759,000;   -1,727;   -0,682
1107,063;  740,364;   -2,727;    1,409
1107,602;  712,000;   -1,909;   -1,500
1108,141;  635,091;   -1,909;    1,500
1108,680;  738,727;   -3,455;   -0,591
1109,219;  672,455;   -0,909;   -0,500
1109,758;  676,364;    0,455;    0,682
1110,297;  646,545;    1,000;   -0,682
1110,836;  596,545;   -0,727;    0,955
1111,375;  755,727;   -2,545;    0,409
1111,913;  772,545;   -1,000;    0,773
1112,452;  707,545;   -0,273;    0,136
1112,991;  587,273;    1,091;    1,955
1113,529;  541,364;   -0,818;   -0,045
1114,068;  616,182;   -0,273;    2,955
1114,606;  523,000;   -0,364;   -0,955
1115,144;  682,545;   -1,273;    1,045
1115,683;  612,182;   -0,727;    0,318
1116,221;  660,818;   -0,455;   -0,864
1116,759;  571,818;    0,636;   -0,864
1117,297;  766,000;    0,000;    1,864
1117,836;  577,727;   -2,182;   -1,227
1118,374;  596,455;    0,182;   -0,682
1118,912;  540,455;    0,909;    2,682
1119,450;  523,364;    1,000;    0,864
1119,988;  565,455;    1,545;    2,136
1120,525; 1015,273;    5,091;    3,318
1121,063;  720,727;    1,182;    1,864
1121,601;  530,727;   -0,909;   -1,227
1122,139;  482,182;   -0,727;   -2,045
1122,676;  678,727;   -0,727;    2,773
1123,214;  602,636;   -1,182;    4,409
1123,751;  422,909;    1,727;    2,227
1124,289;  556,091;   -0,091;   -0,409
1124,826;  434,091;    1,727;    0,227
1125,364;  359,091;    1,727;   -0,955
1125,901;  534,545;    1,182;    1,227
1126,438;  646,091;    0,818;    0,955
1126,975;  384,273;   -0,727;   -0,773
1127,513;  445,000;    0,273;    2,136
1128,050;  350,545;    1,636;   -0,682
1128,587;  451,364;    2,000;   -0,227
1129,124;  497,091;    0,091;    1,318
1129,661;  357,545;    0,273;    0,227
1130,198;  527,455;    1,636;    0,773
1130,734;  470,727;    0,182;    1,409
1131,271;  326,182;   -0,909;    0,864
1131,808;  507,182;    2,909;    3,045
1132,345;  375,091;    1,545;    0,318
1132,881;  247,909;   -1,545;   -1,864
1133,418;  380,818;    0,727;   -1,136
1133,954;  327,364;    2,455;   -2,682
1134,491;  394,545;    1,364;   -0,773
1135,027;  293,273;    2,364;    0,864
1135,564;  388,545;    0,273;    2,955
1136,100;  374,636;    0,364;    2,136
1136,636;  258,273;   -1,273;   -1,045
1137,172;  348,000;    0,000;   -1,045
1137,708;  276,455;   -1,364;   -1,045
1138,245;  278,818;    1,273;   -1,227
1138,781;  231,000;    1,091;   -3,318
1139,317;  301,182;    1,273;   -1,409
1139,852;  288,636;    3,091;    0,136
1140,388;  407,909;   -1,182;   -0,409
1140,924;  292,727;   -1,091;   -2,227
1141,460;  231,818;   -1,636;    0,136
1141,996;  162,364;   -1,364;    2,682
1142,531;  207,636;    1,364;    3,318
1143,067;  422,182;    1,182;    1,045
1143,602;  482,364;   -0,091;   -0,318
1144,138;  323,545;   -2,636;    1,045
1144,673;  185,455;   -1,455;    1,409
1145,209;  255,455;   -1,909;   -0,318
1145,744;  168,636;   -0,727;    0,864
1146,279;  312,273;    1,818;   -0,136
1146,815;  235,000;    1,545;   -2,682
1147,350;  268,727;   -1,364;    0,045
1147,885;  179,545;   -0,818;   -1,318
1148,420;  185,727;   -2,273;    0,773
1148,955;  166,909;   -1,727;    1,864
1149,490;  186,909;   -0,909;   -1,591
1150,025;  174,091;    0,455;   -1,773
1150,560;  287,273;    1,091;   -0,955
1151,094;  254,636;    1,455;   -0,591
1151,629;  251,273;    1,636;    0,864
1152,164;  184,000;    1,364;    1,318
1152,698;  145,545;   -0,182;   -0,136
1153,233;  107,909;    0,091;   -0,682
1153,767;  148,182;   -3,000;   -2,318
1154,302;  200,727;   -1,455;    1,773
1154,836;  198,273;   -0,455;   -2,136
1155,371;  254,364;   -1,364;    3,682
1155,905;  206,273;   -0,636;    1,682
1156,439;  172,636;   -0,636;   -0,500
1156,973;  199,273;    0,364;    0,318
1157,507;  142,545;   -0,364;    0,682
1158,042;  169,545;   -0,727;    1,045
1158,576;  215,364;    0,182;    1,773
1159,110;  202,273;   -0,818;    2,409
1159,643;  175,636;    0,636;   -0,045
1160,177;  114,545;   -1,545;    1,500

