
Integration time [ms]:   0,040
Averaging Nr. [scans]: 11
Smoothing Nr. [pixels]: 0
Data measured with spectrometer [name]: 7318044SP
Wave   ;Sample   ;Dark     ;Reference
[nm]   ;[counts] ;[counts] ;[counts] 

186,757;   29,040;   31,551;    1,318
187,357;   48,687;   22,551;    0,955
187,958;   22,659;   15,460;   -1,591
188,558;   70,947;    8,915;   -1,227
189,159;   32,871;    6,733;   -4,500
189,759;    1,203;    7,278;   -3,591
190,360;    1,141;    2,824;   -2,136
190,960;   37,381;    2,915;   -4,136
191,560;   54,248;    3,189;   -6,591
192,161;  274,947;    4,372;   -3,500
192,761;  133,897;    4,010;   -3,227
193,361;   82,004;    1,556;   -3,773
193,962;  142,661;    2,010;   -2,682
194,562;   62,062;    1,189;   -3,955
195,162;   88,064;   -2,448;   -2,227
195,762;  231,683;   -3,176;   -0,045
196,362;  183,965;    1,370;   -2,500
196,963;   64,463;    2,006;   -0,864
197,563;  120,403;    1,551;   -0,955
198,163;   78,277;    0,096;   -0,682
198,763;   91,295;    1,733;   -0,500
199,363;  182,267;    3,096;   -0,500
199,963;  153,199;    0,369;    0,409
200,563;  126,694;    2,823;   -1,409
201,163;  114,827;    3,277;   -0,227
201,763;  200,824;    3,732;    0,318
202,363;  129,618;    1,459;    1,500
202,963;  223,327;    1,459;    1,045
203,563;  329,259;    0,277;    0,500
204,162;  189,898;    2,096;   -1,864
204,762;  180,657;    0,550;    0,591
205,362;  151,341;    3,004;    1,955
205,962;  244,372;    3,096;    1,955
206,562;  240,001;    1,823;    2,318
207,161;  208,907;   -0,087;    0,318
207,761;  352,668;    1,277;    2,409
208,361;  235,990;   -0,268;    1,409
208,960;  332,695;    0,459;    1,500
209,560;  396,114;    1,277;    1,591
210,160;  374,012;    0,550;    1,864
210,759;  340,036;    4,186;    1,227
211,359;  351,215;    1,459;    1,045
211,958;  598,015;    1,277;    2,045
212,558;  661,556;    1,732;    1,864
213,157;  506,020;    1,822;    1,500
213,757;  927,220;    3,822;   -0,227
214,356;  627,693;    1,277;   -0,409
214,956;  951,278;    3,095;    0,409
215,555;  594,314;    2,095;    2,136
216,154;  538,436;   -2,723;   -0,591
216,754;  543,798;    0,277;    0,773
217,353;  663,479;   -0,268;   -1,045
217,952;  527,208;   -0,178;    0,318
218,552;  760,664;    1,368;   -0,773
219,151;  645,430;    0,277;    0,955
219,750;  650,415;    0,004;   -0,227
220,349;  722,819;   -0,451;    1,045
220,948;  807,374;   -1,360;    1,136
221,548;  788,205;    0,913;    1,227
222,147;  895,232;   -0,087;   -0,409
222,746; 1168,190;   -0,451;   -0,955
223,345; 1033,740;    0,731;    0,500
223,944; 1021,422;   -0,451;    0,773
224,543; 1159,685;    1,004;   -1,409
225,142; 1268,178;    0,094;    0,136
225,741; 1167,306;   -0,814;    1,045
226,340; 1176,613;   -0,451;   -0,955
226,939; 1568,776;   -0,996;   -0,136
227,538; 1437,243;   -0,360;   -0,773
228,137; 1600,103;   -0,814;    0,864
228,735; 1655,920;   -0,541;    1,227
229,334; 1444,010;   -0,905;   -0,227
229,933; 1805,163;    0,459;    0,591
230,532; 1884,700;    1,186;   -0,409
231,131; 1938,634;    1,732;    0,318
231,729; 1973,069;   -2,450;   -2,318
232,328; 2025,490;   -0,723;   -1,500
232,927; 2037,235;    1,004;   -0,500
233,525; 2104,115;    3,640;    0,045
234,124; 2264,124;    2,368;   -1,591
234,723; 2252,039;    0,913;   -1,045
235,321; 2367,565;    2,277;    0,136
235,920; 2534,342;    1,186;   -1,227
236,518; 2779,869;    3,459;    0,318
237,117; 2853,266;    0,004;   -0,227
237,715; 2999,889;    0,640;   -0,500
238,314; 3046,884;   -0,087;   -2,318
238,912; 3184,914;   -0,723;   -1,409
239,510; 3189,457;    0,459;   -1,227
240,109; 3382,805;    0,004;    3,773
240,707; 3388,506;   -0,996;    1,227
241,305; 3676,723;    0,550;    0,136
241,904; 3880,359;   -0,178;   -2,045
242,502; 3874,453;   -0,632;   -0,227
243,100; 3836,888;   -0,087;   -0,955
243,698; 4084,056;    0,732;    1,682
244,297; 4246,829;   -0,632;    0,682
244,895; 4161,655;   -0,269;   -2,318
245,493; 4455,268;    2,186;   -0,591
246,091; 4503,507;    1,368;   -1,318
246,689; 4482,416;    1,004;    0,591
247,287; 4645,293;    0,822;   -1,136
247,885; 4910,217;   -1,451;    1,227
248,483; 5034,808;    1,822;   -0,500
249,081; 5142,837;    0,185;    1,591
249,679; 5294,501;   -0,178;    1,682
250,277; 5531,121;   -1,723;    0,864
250,875; 5532,706;   -1,087;   -1,045
251,473; 5552,752;   -1,178;    0,500
252,071; 5743,899;    1,459;    1,045
252,669; 5897,513;   -1,814;    0,318
253,267; 6150,629;   -0,087;    0,773
253,864; 6106,475;   -0,360;    0,682
254,462; 6029,942;    1,640;    1,591
255,060; 5995,393;   -0,269;    1,318
255,658; 6288,240;    0,822;   -0,136
256,255; 6663,565;    0,186;   -2,045
256,853; 6532,945;   -0,269;    1,409
257,451; 6541,448;    0,822;    1,864
258,048; 6854,627;    1,822;    1,864
258,646; 6605,305;    1,731;   -1,045
259,243; 6781,854;   -0,087;    2,227
259,841; 6834,302;   -0,814;    0,318
260,438; 6719,733;   -0,087;    0,864
261,036; 7391,496;   -1,905;    1,409
261,633; 7314,697;   -0,087;    2,227
262,231; 7091,269;    2,731;   -0,045
262,828; 7206,128;   -0,905;    1,136
263,425; 7264,534;    0,913;   -0,591
264,023; 7494,393;    0,186;    0,045
264,620; 7065,940;   -0,360;   -0,318
265,217; 7387,605;   -2,087;    3,136
265,815; 7480,017;   -1,905;    2,136
266,412; 7304,243;    0,731;    0,136
267,009; 7334,539;   -1,451;    0,773
267,606; 7270,396;    0,822;   -0,955
268,203; 7249,803;   -0,269;   -0,591
268,801; 7516,088;    1,731;    0,591
269,398; 7784,068;   -0,360;    2,500
269,995; 7768,491;    0,277;    1,591
270,592; 7538,222;   -0,632;   -0,500
271,189; 7729,281;    0,186;    0,409
271,786; 7834,565;   -0,632;    1,227
272,383; 7706,771;   -1,087;    0,227
272,980; 7884,237;    0,277;    0,318
273,577; 8321,486;    0,004;    1,227
274,174; 7905,156;    0,822;    2,591
274,771; 7856,877;   -0,814;   -0,773
275,367; 8001,940;    2,277;    1,409
275,964; 7956,828;    0,731;   -0,500
276,561; 8076,515;    1,549;   -1,045
277,158; 8249,956;    0,095;   -1,773
277,755; 8397,837;    2,185;    0,409
278,351; 7858,577;   -0,451;   -1,500
278,948; 8173,897;   -0,815;    0,045
279,545; 8191,918;   -1,360;    2,318
280,141; 8783,900;   -1,723;   -2,045
280,738; 8647,875;   -0,451;   -0,136
281,334; 8877,432;   -1,633;    0,591
281,931; 8313,789;   -0,087;   -1,318
282,528; 8453,362;    0,822;   -0,500
283,124; 9114,397;   -1,087;   -0,500
283,721; 9047,786;   -0,451;    1,409
284,317; 8899,033;    0,185;    2,500
284,913; 9425,939;   -1,360;    0,591
285,510; 9627,212;    0,640;   -0,318
286,106; 9649,444;   -2,269;   -0,955
286,703; 9276,500;   -0,360;    1,955
287,299; 9496,211;   -1,451;   -0,591
287,895; 9741,607;    0,822;   -1,045
288,491;10318,341;    0,186;    2,136
289,088;10058,135;   -2,360;    2,409
289,684;10102,786;   -1,723;    1,500
290,280;10113,534;    0,368;    0,682
290,876;10215,545;    1,822;    5,500
291,472;10173,168;    1,276;    2,227
292,068;10320,991;    1,367;    0,227
292,665;10030,847;    2,095;    0,773
293,261; 9638,828;    0,276;    2,136
293,857;10027,442;    2,913;    2,136
294,453;10033,708;    3,550;    0,955
295,049; 9916,729;   -0,268;    1,955
295,644; 9953,082;    0,095;    0,136
296,240; 9844,494;   -0,905;   -0,136
296,836; 9905,659;   -0,995;    0,318
297,432;10205,768;    1,096;   -0,500
298,028;10243,738;    0,732;    0,773
298,624;10653,389;    1,459;    1,864
299,220;10915,261;    2,368;    0,591
299,815;10580,513;    1,005;   -0,409
300,411;10367,547;    0,914;    1,773
301,007;10384,099;    1,368;    0,227
301,602;10474,449;   -0,541;   -2,318
302,198;10654,637;    0,732;   -0,773
302,794;10974,864;    1,187;   -0,500
303,389;11046,412;   -1,177;    1,045
303,985;11133,566;    0,550;    1,409
304,580;11103,227;    1,459;    1,591
305,176;11066,698;   -3,086;    0,136
305,771;11005,735;   -1,268;   -1,227
306,367;10864,437;    4,095;    0,136
306,962;11202,539;    0,641;    1,500
307,558;10884,751;   -0,450;    0,136
308,153;10809,971;    1,095;   -1,136
308,748;11090,300;   -0,814;    1,682
309,344;11029,468;   -0,632;   -1,318
309,939;11116,492;   -1,905;   -1,318
310,534;11365,889;   -0,086;   -1,682
311,130;11280,271;    0,459;   -2,500
311,725;11034,004;    1,004;   -0,500
312,320;11369,601;    2,459;    0,045
312,915;11197,435;    1,459;   -1,045
313,510;11284,854;    1,550;   -0,500
314,105;11727,466;    1,096;    1,409
314,700;11168,926;   -3,086;   -1,045
315,295;10821,136;   -0,904;    0,045
315,890;10396,992;    1,277;    0,864
316,485;10734,824;   -0,359;   -0,318
317,080;10859,905;   -3,086;    1,591
317,675;11376,147;    2,005;   -0,682
318,270;10807,641;    5,550;    3,318
318,865;10795,913;    3,278;    3,045
319,460;10658,782;   -0,904;    0,591
320,055;10919,512;   -0,541;   -1,227
320,650;10581,114;   -1,995;   -0,591
321,244;10633,516;   -0,177;   -1,409
321,839;11520,565;   -1,541;   -0,227
322,434;11374,147;   -1,086;   -1,591
323,029;11040,857;    1,732;    1,591
323,623;10919,846;    1,550;    0,773
324,218;10639,306;    2,368;    1,409
324,812;10528,138;    1,096;    1,591
325,407;10384,963;   -0,814;    2,045
326,002;10283,662;    0,277;   -0,409
326,596;10577,924;    0,914;    1,318
327,191;10805,022;    0,823;   -1,045
327,785;10414,379;   -0,813;   -0,227
328,379;10626,688;    1,368;    0,136
328,974;10450,446;    0,914;   -3,955
329,568;10666,351;    0,186;   -2,409
330,163;10507,616;    2,096;    1,045
330,757;10844,341;    2,459;    1,591
331,351;10219,273;    0,459;    0,682
331,945;10507,864;    0,914;    1,409
332,540;10145,091;   -1,723;   -0,591
333,134;10285,221;   -1,086;    0,773
333,728;10517,697;    0,005;    0,318
334,322;10864,536;   -1,177;   -0,864
334,916;10191,108;    0,277;    0,955
335,510;10512,756;   -0,450;   -0,136
336,105;10768,476;   -1,086;    1,591
336,699;10526,457;   -1,086;    0,591
337,293;10466,712;   -1,723;    0,318
337,887;10617,632;   -2,723;    1,955
338,481;10709,030;    0,459;    0,591
339,074;10853,834;   -0,359;    2,682
339,668;10687,709;   -1,632;    1,227
340,262;10957,798;    1,732;    3,227
340,856;10498,539;    1,822;   -0,682
341,450; 9918,424;    1,004;    1,864
342,044;10783,167;    1,459;    0,136
342,637;10578,260;    0,913;   -2,136
343,231;10409,237;   -2,360;    0,682
343,825;10391,548;   -1,086;   -0,591
344,419;10355,050;   -1,995;    0,500
345,012;10147,892;    2,459;    4,045
345,606;10176,948;    4,641;    1,591
346,199;10020,878;   -1,813;   -0,227
346,793; 9567,662;    1,914;    2,045
347,386; 9778,925;   -0,813;   -1,136
347,980; 9778,684;   -0,268;   -0,045
348,573; 9576,005;    2,278;    0,409
349,167; 9277,598;    5,278;    4,773
349,760; 9594,811;    2,914;    2,682
350,354; 9549,626;   -0,813;    1,136
350,947; 9329,490;    1,096;    1,682
351,540; 9036,701;   -0,358;   -1,409
352,134; 8950,115;    1,096;    1,136
352,727; 9029,953;   -0,086;    1,136
353,320; 8873,058;    0,005;    0,591
353,913; 8698,275;   -1,995;    1,864
354,507; 8862,824;    0,823;   -1,227
355,100; 8908,274;    0,460;    0,864
355,693; 8164,156;    2,005;    2,409
356,286; 8186,387;    0,823;    2,773
356,879; 8533,267;   -0,722;    1,227
357,472; 8162,391;   -0,904;    1,500
358,065; 8342,349;   -0,722;    2,500
358,658; 8259,449;   -0,540;    2,318
359,251; 7910,995;   -1,631;   -0,591
359,844; 7440,347;   -1,904;   -1,136
360,437; 7614,700;   -2,995;    0,045
361,030; 7874,965;    1,369;   -0,682
361,623; 7458,248;    2,824;    0,318
362,215; 7474,741;   -0,086;    2,045
362,808; 7358,654;   -2,358;   -1,682
363,401; 7553,303;   -2,449;    0,136
363,994; 7322,811;   -0,631;   -1,500
364,586; 7226,457;    0,824;   -1,500
365,179; 7409,292;   -0,449;   -1,136
365,772; 6922,857;   -1,995;    2,045
366,364; 7181,876;    1,915;   -3,227
366,957; 7362,478;    2,279;   -0,045
367,549; 7391,318;    2,188;   -0,864
368,142; 7065,663;    1,825;   -1,500
368,734; 7243,566;    0,734;   -2,136
369,327; 7201,461;    1,643;   -0,500
369,919; 7105,316;   -1,538;    0,409
370,512; 6936,402;   -1,083;   -0,500
371,104; 6707,308;   -0,901;    1,591
371,696; 6850,809;    1,191;   -0,955
372,289; 6915,732;    0,373;    1,136
372,881; 7070,346;   -2,080;    1,318
373,473; 6986,914;   -2,170;    1,136
374,066; 6803,331;   -0,169;    0,500
374,658; 6652,527;    0,378;    1,136
375,250; 6995,822;    0,653;   -1,409
375,842; 6865,459;    0,473;   -0,045
376,434; 6728,104;   -0,435;   -0,409
377,026; 7279,545;    0,204;   -2,500
377,618; 7172,934;   -0,158;   -0,682
378,210; 7021,980;   -0,338;   -1,955
378,802; 6873,832;    0,754;   -0,591
379,394; 6857,858;    1,846;    0,682
379,986; 7414,210;    1,393;   -0,955
380,578; 7486,795;   -0,153;    0,773
381,170; 6822,442;   -0,972;    0,045
381,762; 6806,719;    0,755;    1,409
382,354; 7009,398;   -0,065;   -1,318
382,945; 7089,383;   -2,976;    0,318
383,537; 7256,352;   -2,705;   -1,955
384,129; 7258,198;   -2,160;   -1,136
384,721; 7420,937;   -0,252;    0,955
385,312; 7341,996;   -0,161;   -0,955
385,904; 7414,398;   -2,706;    1,591
386,496; 6805,737;   -0,979;    1,045
387,087; 6980,874;    1,022;    2,500
387,679; 7023,216;   -1,160;    0,045
388,270; 7152,744;    2,840;    2,045
388,862; 7272,878;    1,295;   -0,318
389,453; 7126,234;   -0,887;    1,045
390,045; 7386,385;   -0,705;   -2,682
390,636; 7326,244;    0,204;   -0,591
391,227; 7176,996;   -0,523;   -0,045
391,819; 7295,463;    0,204;    0,773
392,410; 7345,905;    1,022;    0,045
393,001; 7279,806;   -0,979;   -1,591
393,593; 7570,029;    1,930;   -0,045
394,184; 7413,080;    1,385;   -0,409
394,775; 7316,020;    1,839;    2,136
395,366; 7529,145;    1,385;    0,773
395,957; 7522,937;    0,113;    0,136
396,548; 7800,592;   -0,342;    2,682
397,139; 8087,836;   -2,433;    0,591
397,730; 7830,659;   -1,888;    0,955
398,321; 7913,949;   -1,252;    0,955
398,912; 7937,531;   -0,615;    0,136
399,503; 7991,651;   -3,524;   -1,409
400,094; 7453,784;    0,294;    1,682
400,685; 7328,431;   -0,433;    0,045
401,276; 7389,880;    0,930;   -0,955
401,867; 7722,257;   -0,888;    0,773
402,458; 7808,393;   -2,251;   -2,318
403,048; 7765,262;    1,112;    0,591
403,639; 7402,876;    0,840;    0,864
404,230; 7656,840;    2,476;    0,318
404,821; 7561,378;   -0,615;    0,045
405,411; 7679,331;    1,203;   -2,591
406,002; 7300,567;   -1,252;   -1,136
406,592; 7173,495;    2,294;    0,045
407,183; 7444,822;    0,566;   -1,500
407,774; 7383,691;    3,475;   -0,136
408,364; 7682,927;    0,930;    0,409
408,954; 7269,450;    0,384;    1,227
409,545; 7306,811;    1,021;    1,045
410,135; 6892,286;    1,293;    0,500
410,726; 7016,808;    1,838;    0,318
411,316; 7345,206;    0,111;    0,773
411,906; 7042,980;   -0,253;   -0,409
412,497; 6569,983;   -1,070;   -0,045
413,087; 7152,682;   -1,980;   -0,227
413,677; 7506,021;   -0,707;    3,864
414,267; 7315,533;    0,656;    1,409
414,857; 7300,719;   -2,980;    4,227
415,448; 7562,989;    0,839;    0,500
416,038; 7268,569;    0,020;   -0,591
416,628; 7217,291;   -0,889;    0,409
417,218; 6722,271;    0,565;    3,318
417,808; 6948,184;    0,202;   -0,409
418,398; 7350,670;    0,020;    2,682
418,988; 7340,916;    2,020;    0,591
419,578; 7525,994;   -0,707;    1,409
420,168; 7819,254;   -1,343;   -0,955
420,757; 7439,201;   -1,343;   -1,500
421,347; 7119,387;    0,111;   -0,227
421,937; 7253,324;    2,292;    1,409
422,527; 7208,879;    0,838;   -0,773
423,116; 7020,791;   -0,253;   -0,045
423,706; 7334,224;   -1,889;    0,318
424,296; 7254,950;    1,384;    0,682
424,885; 7648,132;   -0,071;   -3,045
425,475; 7859,961;    1,474;   -2,864
426,065; 7799,627;   -0,980;   -0,318
426,654; 7449,627;   -0,435;   -0,318
427,244; 7536,540;    0,020;    1,409
427,833; 6994,899;    1,383;   -0,500
428,423; 7403,316;   -0,526;    1,136
429,012; 8080,517;   -0,344;   -1,136
429,601; 7610,558;   -1,344;    0,136
430,191; 7841,570;    1,292;    4,318
430,780; 7463,832;   -0,344;   -0,409
431,369; 7371,195;    0,746;   -0,045
431,959; 7952,775;   -1,254;    0,500
432,548; 7696,262;   -1,163;   -0,045
433,137; 7792,362;   -1,254;   -1,318
433,726; 8266,810;    0,292;    0,500
434,315; 7661,604;   -0,526;    2,409
434,905; 7722,391;   -1,254;    1,409
435,494; 7653,771;    0,746;    0,955
436,083; 8019,874;   -0,981;   -0,955
436,672; 7865,246;    0,110;    0,500
437,261; 7452,232;    0,292;   -1,955
437,850; 7567,285;    1,383;    0,682
438,439; 7507,009;    3,291;    1,955
439,027; 7368,924;    3,655;    1,773
439,616; 7645,060;    2,927;    1,227
440,205; 7467,925;    0,200;   -2,136
440,794; 7475,427;    2,109;   -0,045
441,383; 7661,506;   -1,346;   -0,591
441,971; 7534,958;   -2,436;    0,591
442,560; 7367,461;    0,563;   -1,773
443,149; 7086,062;    0,379;   -1,318
443,737; 7215,820;   -0,074;   -2,318
444,326; 7406,190;    0,018;    0,318
444,915; 7400,944;   -1,982;    0,864
445,503; 7674,663;   -2,891;   -0,318
446,092; 7052,487;    0,382;    2,136
446,680; 7525,408;    0,382;    0,318
447,269; 7625,111;   -0,346;   -0,318
447,857; 7417,580;    0,018;   -1,773
448,445; 7479,343;    0,563;    1,318
449,034; 7647,733;   -1,528;   -1,136
449,622; 7717,824;   -1,073;    3,500
450,210; 7058,402;    2,017;    2,227
450,799; 7511,134;    0,290;   -0,591
451,387; 7428,352;    1,381;   -0,591
451,975; 7120,890;    2,654;    0,864
452,563; 7202,300;    3,472;    2,318
453,151; 7186,140;   -0,528;   -1,227
453,739; 7117,685;   -1,347;    0,136
454,328; 6982,827;    2,381;   -2,136
454,916; 6728,778;    2,562;   -0,136
455,504; 6854,525;    1,017;    1,227
456,092; 7018,909;    0,017;   -1,591
456,679; 6930,154;    1,472;    0,682
457,267; 6953,350;    4,017;    1,045
457,855; 7006,692;    1,017;    1,409
458,443; 6767,346;   -0,165;    1,682
459,031; 6911,063;    0,108;    2,409
459,619; 7255,022;   -1,801;    2,864
460,206; 7305,241;    0,835;    2,045
460,794; 7389,373;   -2,983;   -0,227
461,382; 7555,153;   -0,529;   -0,864
461,970; 7197,819;    1,198;    1,864
462,557; 7219,303;   -0,711;   -0,682
463,145; 7348,719;   -3,165;   -1,682
463,732; 7477,924;    2,016;   -1,045
464,320; 7364,972;   -0,075;   -3,045
464,907; 7106,117;    2,743;   -0,773
465,495; 7008,031;    0,743;   -1,227
466,082; 7093,182;   -1,984;   -0,045
466,670; 6980,095;   -2,529;    1,227
467,257; 7369,193;   -1,711;    2,045
467,844; 7477,230;   -0,075;    0,045
468,432; 7500,900;    0,834;    3,500
469,019; 7074,526;    0,925;   -1,773
469,606; 7432,575;    0,470;    3,682
470,193; 7277,753;   -1,439;    0,227
470,780; 6955,519;   -2,075;    0,864
471,368; 7215,835;   -1,257;   -0,773
471,955; 6992,101;    1,379;   -0,682
472,542; 6669,878;    0,652;   -1,136
473,129; 6831,803;   -0,166;    0,136
473,716; 6589,403;    1,470;    0,591
474,303; 6725,041;    0,652;   -0,864
474,890; 6938,106;   -1,439;   -0,500
475,477; 6926,267;   -1,621;    0,409
476,064; 6795,834;    1,106;   -1,591
476,650; 6677,542;    0,288;    0,318
477,237; 6521,542;   -0,258;    0,955
477,824; 6647,122;   -1,076;    0,864
478,411; 6613,756;   -1,894;   -0,318
478,997; 6750,864;    0,560;   -0,773
479,584; 6759,310;    1,196;   -0,409
480,171; 7310,574;   -0,440;   -0,773
480,757; 6994,533;    2,651;    0,773
481,344; 7181,999;    0,469;    0,409
481,931; 6723,210;    1,105;    1,045
482,517; 7442,276;   -1,258;    0,318
483,104; 7808,188;    1,106;    2,864
483,690; 7916,918;   -1,804;    0,045
484,276; 8115,601;   -0,895;    0,227
484,863; 7926,500;    2,469;    1,136
485,449; 8335,069;   -0,077;    0,318
486,035; 8306,011;   -1,986;   -0,136
486,622; 8697,632;   -0,895;    0,045
487,208; 8598,794;    1,378;    1,500
487,794; 8468,656;    0,741;    0,318
488,380; 8609,571;    0,105;   -1,409
488,967; 8667,873;   -1,168;   -0,409
489,553; 8741,346;   -1,895;   -1,409
490,139; 8917,044;    1,559;    0,773
490,725; 8528,230;    0,741;   -0,227
491,311; 8265,741;    3,287;    3,045
491,897; 7791,016;   -0,986;    1,500
492,483; 7798,143;    0,105;    1,227
493,069; 7835,625;    3,923;    0,864
493,655; 7778,942;    1,650;    0,682
494,241; 7780,362;    1,377;   -0,955
494,826; 8122,618;    0,287;   -1,045
495,412; 7723,467;    2,559;   -0,682
495,998; 7954,959;   -0,805;   -0,318
496,584; 8114,616;    0,377;    1,045
497,169; 8156,776;    1,014;   -0,682
497,755; 8220,317;    0,650;    1,227
498,341; 8810,411;    0,559;    0,318
498,926; 8504,847;    1,832;    1,955
499,512; 8754,754;    1,286;    2,955
500,097; 8931,729;    0,195;   -0,318
500,683; 8989,538;   -0,350;    2,136
501,268; 9456,934;   -0,169;   -0,955
501,854; 9346,821;   -0,169;    1,227
502,439; 9376,569;   -0,624;   -1,773
503,024; 9664,160;    0,195;    0,500
503,610; 9829,461;   -0,078;   -0,682
504,195; 9927,409;    0,558;    1,955
504,780;10167,209;    2,922;    1,227
505,366;10123,023;    3,013;    2,864
505,951;10016,102;    0,740;    1,045
506,536;10139,947;   -3,260;   -3,682
507,121;10215,059;    0,285;   -0,318
507,706;10805,607;    2,376;    1,045
508,291;11211,194;    2,649;    1,136
508,876;10829,810;   -0,988;    2,591
509,461;10416,159;   -0,169;   -0,773
510,046;10885,732;    0,194;    0,318
510,631;11170,083;   -0,351;   -0,773
511,216;10972,062;    2,467;   -0,500
511,801;11405,645;   -0,442;    2,591
512,386;11770,240;    0,740;    0,500
512,971;11759,260;   -2,988;    0,955
513,555;11391,671;   -0,897;   -1,500
514,140;12234,524;   -0,442;   -3,136
514,725;12286,517;   -0,715;   -1,136
515,309;12465,422;   -0,533;    0,318
515,894;11985,754;   -0,624;   -2,227
516,479;12426,580;   -0,624;   -0,955
517,063;12357,028;    0,376;    1,227
517,648;12538,849;    1,012;   -1,136
518,232;12168,279;   -0,261;   -1,409
518,817;12564,796;   -0,079;    1,682
519,401;12807,670;    2,194;    0,591
519,985;12328,937;    1,103;    1,136
520,570;12227,344;    0,830;   -1,955
521,154;12572,869;    2,102;    0,591
521,738;12729,799;   -2,352;    2,409
522,323;13326,501;   -0,170;    1,682
522,907;13081,857;    0,466;   -0,136
523,491;12806,405;    0,557;    0,955
524,075;12810,921;    2,284;    0,591
524,659;12889,030;    1,466;    0,591
525,243;12402,518;    1,739;    0,409
525,827;12681,528;    0,648;   -0,045
526,411;13508,303;   -1,989;   -0,136
526,995;13723,643;   -0,352;    1,409
527,579;13317,125;   -0,443;   -1,045
528,163;13646,622;    0,375;   -1,500
528,747;13548,982;    2,466;   -0,773
529,331;13867,918;   -0,080;   -1,409
529,915;14067,199;    1,738;    0,955
530,499;14036,532;   -0,807;    1,227
531,082;13728,487;   -0,534;    1,591
531,666;13239,671;    1,374;    0,773
532,250;13863,498;    1,284;    2,682
532,833;14192,183;    0,920;    2,773
533,417;14054,124;   -1,807;    0,864
534,001;14024,350;    1,647;   -0,318
534,584;14680,578;    0,374;    0,500
535,168;14563,940;    0,465;    1,409
535,751;14583,885;    0,647;    0,045
536,334;14067,709;   -0,898;   -0,409
536,918;14677,738;    0,011;    1,591
537,501;14771,293;   -0,899;    1,318
538,085;14735,753;   -0,444;    1,045
538,668;14906,815;    0,829;    2,409
539,251;15208,877;    1,829;    3,773
539,834;15260,692;    0,101;    0,773
540,418;15163,470;   -1,990;    4,318
541,001;15292,798;   -0,990;    1,773
541,584;15306,529;    2,101;    2,227
542,167;14969,322;    1,374;    2,955
542,750;15141,359;    1,919;   -0,773
543,333;14734,080;    0,555;    2,136
543,916;15523,367;    0,192;    2,500
544,499;16090,981;   -1,354;    0,227
545,082;16118,134;    1,374;    3,591
545,665;16241,977;    1,919;    1,500
546,248;16575,535;    1,010;   -0,318
546,830;16249,137;   -0,445;    1,955
547,413;16638,214;    1,010;   -0,773
547,996;17176,557;    0,555;    0,500
548,579;16993,448;    0,919;    0,955
549,161;16763,147;    1,828;    2,682
549,744;16519,583;   -0,809;    0,409
550,326;17026,221;   -0,809;   -1,136
550,909;16812,837;    2,737;    0,591
551,492;17230,126;   -0,263;    0,227
552,074;17037,146;   -0,173;   -1,318
552,657;17548,026;    2,373;    0,045
553,239;17318,484;   -0,173;   -0,773
553,821;17236,651;   -1,082;    1,045
554,404;16741,722;    1,282;    1,136
554,986;17145,185;    0,464;    1,045
555,568;17733,916;    1,191;   -0,955
556,151;16950,341;    1,191;   -0,227
556,733;17121,636;   -0,264;   -0,864
557,315;17558,659;    0,100;    0,500
557,897;17375,535;    0,554;   -0,500
558,479;17502,476;   -1,991;    1,318
559,061;17632,953;   -0,719;   -0,864
559,643;17984,730;   -0,264;    0,045
560,225;18350,706;    1,645;    2,864
560,807;18362,548;    0,918;    0,318
561,389;17903,704;    0,554;    2,318
561,971;18607,186;    0,463;    2,136
562,553;18427,802;   -1,628;    1,591
563,135;18512,467;   -0,537;    1,136
563,717;18118,708;    3,372;    1,136
564,298;18882,474;    3,645;   -0,045
564,880;18578,747;    0,645;   -1,409
565,462;18761,747;    0,645;    1,318
566,043;19888,663;   -0,446;    2,318
566,625;19383,026;    1,918;    1,227
567,207;19235,493;    1,099;    1,682
567,788;20351,043;   -1,264;    1,500
568,370;21122,030;    1,917;   -0,500
568,951;20906,017;    0,190;    0,227
569,533;21768,132;   -0,628;   -0,500
570,114;22178,609;   -0,446;    0,682
570,695;22652,456;   -0,174;   -1,318
571,277;23146,647;   -0,265;   -1,682
571,858;23825,488;    2,008;   -1,136
572,439;24705,539;    1,554;   -1,045
573,021;24858,063;    2,099;   -2,773
573,602;25344,871;   -1,265;    0,318
574,183;26245,214;   -2,083;    2,227
574,764;26365,909;   -1,629;    0,409
575,345;26869,189;    0,917;   -0,136
575,926;27483,898;   -0,356;    0,136
576,507;27415,598;    1,099;   -0,227
577,088;28529,295;    3,099;    1,682
577,669;28487,642;    0,735;    1,955
578,250;29215,123;    0,644;   -1,045
578,831;29866,663;   -1,356;   -2,227
579,412;30047,158;   -0,810;    0,955
579,993;31001,493;    1,008;    0,227
580,573;31403,706;   -0,629;   -0,955
581,154;30392,037;    0,735;   -0,591
581,735;31198,701;    0,644;    0,773
582,315;30695,065;   -0,629;    2,136
582,896;31019,545;   -0,174;    1,227
583,477;30498,381;    0,189;    1,227
584,057;30679,372;    0,553;    0,955
584,638;30970,039;    2,553;    2,318
585,218;30945,007;   -0,538;    2,682
585,799;31106,668;    0,281;   -0,227
586,379;31094,386;    0,372;    1,591
586,959;29902,730;    0,735;    0,318
587,540;29364,115;   -0,629;    2,227
588,120;28905,984;    1,007;   -0,045
588,700;27907,907;    2,553;    2,136
589,281;28124,918;    0,462;   -0,955
589,861;28060,044;    0,099;   -1,682
590,441;27956,283;    2,371;   -2,682
591,021;26958,765;   -0,265;   -2,591
591,601;27202,047;   -0,537;    0,500
592,181;27198,075;   -0,719;   -0,773
592,761;26529,730;    0,007;    1,409
593,341;26450,062;   -0,901;    0,045
593,921;26447,264;   -0,265;    1,591
594,501;26326,669;   -0,538;    1,318
595,081;26171,475;    0,917;   -0,318
595,661;26485,362;   -1,447;    0,955
596,240;27007,896;   -0,537;    0,136
596,820;26651,731;    0,372;    1,955
597,400;26798,299;    2,008;    0,773
597,980;27049,739;    2,008;    1,045
598,559;27109,751;    2,735;   -0,227
599,139;26846,392;   -0,174;   -1,227
599,718;26741,119;   -0,174;   -0,409
600,298;26991,509;    0,735;    0,682
600,877;27213,014;    2,917;    1,409
601,457;27473,758;    2,281;    1,136
602,036;27356,319;    0,190;    2,045
602,616;27531,284;    0,644;    1,682
603,195;27859,757;   -0,355;    3,500
603,774;27444,094;   -0,901;    2,045
604,354;27318,611;    0,826;   -0,500
604,933;26823,136;    0,463;    1,864
605,512;26956,128;    3,554;    0,591
606,091;27032,630;   -0,537;    3,773
606,671;27852,455;    0,281;    0,773
607,250;26925,002;    1,644;    3,136
607,829;27143,531;    2,372;    3,227
608,408;27035,144;    1,190;    2,591
608,987;26095,666;    1,281;    3,409
609,566;26386,181;   -1,265;   -2,500
610,145;26454,366;   -1,082;    0,682
610,723;26953,036;    4,372;    6,864
611,302;26214,114;   -0,446;    1,682
611,881;25677,484;    5,008;   11,227
612,460;26519,365;    1,645;    3,955
613,039;26942,290;   -0,082;    2,045
613,617;25681,200;    1,736;    4,773
614,196;25868,668;    1,099;    1,227
614,775;26209,803;    1,009;    2,409
615,353;26185,401;    0,736;    0,864
615,932;25907,827;    0,100;    2,409
616,510;26464,348;    0,554;    0,591
617,089;26005,071;    7,100;   17,591
617,667;25767,646;    2,372;    6,136
618,246;25683,122;   -1,537;    1,318
618,824;25785,094;   -3,355;   -0,955
619,402;25375,822;   -2,900;   -1,773
619,981;25875,813;   -0,173;   -1,045
620,559;25764,230;    0,009;    1,682
621,137;25291,750;   -0,718;    1,864
621,715;25316,419;   -1,173;   -0,682
622,293;25212,082;   -0,537;   -0,773
622,871;25669,569;   -0,718;    0,500
623,450;25233,370;    0,373;   -0,864
624,028;25168,442;    0,191;   -0,955
624,606;24792,101;   -1,718;    1,682
625,183;25188,333;   -1,536;   -1,136
625,761;24804,605;    1,009;    1,136
626,339;25098,892;    1,373;    2,591
626,917;25515,135;   -0,172;   -0,045
627,495;25531,531;   -0,354;    1,318
628,073;24969,278;   -0,263;    2,864
628,650;24678,538;    0,100;    2,136
629,228;25112,852;    0,373;    4,409
629,806;24538,721;    2,282;    1,136
630,383;24812,223;    1,464;   -0,318
630,961;24607,024;    2,555;   -0,955
631,539;24325,828;    2,464;    0,227
632,116;23629,661;   11,373;   15,409
632,694;24236,316;    2,555;    6,500
633,271;24511,141;    0,828;    2,682
633,848;24466,060;    1,828;    2,045
634,426;24525,376;   -1,081;    1,773
635,003;23662,682;    1,101;   -0,409
635,580;23951,861;    1,192;    3,682
636,158;24517,488;    3,737;    1,227
636,735;24475,353;    0,555;   -0,500
637,312;24636,306;   -0,809;   -0,682
637,889;24759,705;   -4,354;   -0,682
638,466;24158,130;   -3,990;   -0,409
639,043;24197,684;    2,101;   -1,136
639,620;24498,471;   -2,262;   -0,955
640,197;24859,880;    1,100;    1,682
640,774;24998,109;   -0,172;    1,136
641,351;25386,337;    0,737;    1,136
641,928;24760,930;   -0,627;    1,409
642,505;24440,522;    0,828;   -0,500
643,082;24563,660;   -1,718;    1,227
643,658;23651,344;   -0,718;    1,500
644,235;24358,936;    1,191;    2,500
644,812;24637,438;    1,918;    0,773
645,388;24382,758;   -0,991;    1,409
645,965;24494,987;   -0,809;    1,682
646,542;24548,034;   -1,445;   -0,227
647,118;24539,263;    1,009;   -0,955
647,695;24869,219;   -0,263;    1,136
648,271;24773,357;   -0,536;    0,500
648,848;25085,040;    0,736;    2,227
649,424;24872,724;    0,827;    1,318
650,000;24651,134;   -0,354;   -1,045
650,577;24468,818;   -0,627;   -0,955
651,153;24951,138;   -1,809;    0,955
651,729;25901,457;    1,191;    0,864
652,305;26013,959;    0,645;    2,773
652,881;29997,642;   -0,082;    1,136
653,458;36521,326;    1,100;    0,227
654,034;40299,555;    0,282;    1,591
654,610;41865,874;    0,554;    0,773
655,186;43215,921;    0,645;    3,045
655,762;42873,423;   -0,991;    0,409
656,338;42908,743;    0,100;    0,136
656,913;43863,063;   -0,082;    0,409
657,489;43245,019;    0,827;   -0,318
658,065;43171,793;   -0,173;   -1,591
658,641;43833,295;   -0,900;   -0,864
659,217;43218,887;   -0,991;    0,409
659,792;42552,934;    0,645;   -0,409
660,368;42794,527;   -2,173;   -0,682
660,944;42579,756;   -2,082;    1,227
661,519;38426,166;   -0,628;    0,409
662,095;32834,123;   -1,719;    0,591
662,670;28189,897;    1,281;   -0,136
663,246;26948,308;    1,009;   -0,409
663,821;26192,446;    0,281;    1,682
664,396;25691,038;    0,009;    1,864
664,972;25910,449;    0,009;   -0,500
665,547;26203,860;    1,372;    0,136
666,122;26273,270;   -1,082;    0,318
666,698;26534,045;   -0,173;    0,318
667,273;25874,092;   -0,173;    0,136
667,848;26691,775;    2,372;    1,500
668,423;26465,549;    2,190;    2,318
668,998;27082,506;    2,827;   -0,682
669,573;27583,916;   -3,264;   -1,500
670,148;27403,054;   -1,446;   -0,682
670,723;27223,192;   -1,810;    0,318
671,298;27603,694;    2,372;    1,045
671,873;27725,559;   -0,082;   -0,136
672,448;27654,697;    0,645;    0,136
673,023;28031,562;   -1,992;   -0,227
673,597;28347,973;    0,827;    2,318
674,172;28148,475;   -0,355;    0,318
674,747;27601,703;    0,372;   -1,045
675,321;27444,478;   -0,628;    3,318
675,896;27035,343;    0,645;    1,045
676,471;28017,936;    2,645;    1,591
677,045;27765,255;   -1,264;    0,682
677,620;27789,666;    0,190;    1,136
678,194;28152,168;   -2,628;    1,136
678,769;27705,124;   -1,083;   -0,318
679,343;27944,171;   -0,628;    1,773
679,917;27838,854;   -1,446;    1,955
680,492;27883,629;    0,826;    3,227
681,066;28019,767;    3,372;    0,409
681,640;28099,450;    1,463;   -0,318
682,214;28903,133;    0,735;    0,500
682,788;28407,090;   -1,356;   -0,773
683,363;28347,137;   -1,810;    1,682
683,937;28077,638;   -1,719;   -0,318
684,511;28804,776;    0,463;   -0,591
685,085;28495,551;   -1,356;    0,318
685,659;28285,507;   -2,538;    0,864
686,232;28561,372;   -0,356;   -0,318
686,806;28239,419;   -0,901;    0,409
687,380;28949,739;   -0,174;    0,591
687,954;29158,422;   -1,174;    1,136
688,528;28825,287;   -0,719;    1,955
689,101;29594,153;   -3,992;    1,045
689,675;29168,745;   -0,356;   -0,136
690,249;28534,610;   -0,719;    0,409
690,822;28877,385;    0,280;    0,318
691,396;28958,432;   -0,265;    1,227
691,969;28414,115;    1,280;    0,136
692,543;28901,617;   -0,447;   -1,955
693,116;28553,209;   -0,265;   -1,409
693,690;28403,438;    0,099;    0,500
694,263;28992,576;   -1,083;    2,955
694,836;28980,714;    1,371;    3,591
695,410;27633,761;   -0,265;    1,773
695,983;28080,717;    0,189;    0,591
696,556;28107,401;   -0,447;   -1,045
697,129;28470,539;   -0,356;    1,409
697,703;28097,222;   -1,629;    1,955
698,276;28119,724;    1,462;   -0,773
698,849;27901,771;    1,280;    1,409
699,422;28293,273;   -1,083;    0,591
699,995;28008,411;    0,007;    0,136
700,568;28480,730;   -0,629;    3,045
701,140;28477,868;   -2,811;    1,682
701,713;28214,643;   -0,174;    2,409
702,286;28027,690;   -0,538;    0,864
702,859;27910,555;   -0,902;   -0,591
703,432;27040,875;    0,825;    0,682
704,004;27527,922;    0,462;    0,318
704,577;27375,969;   -0,629;    0,136
705,150;27993,925;    0,189;    2,500
705,722;27769,881;   -0,356;   -3,227
706,295;27615,292;   -0,175;   -0,591
706,867;27420,612;   -0,175;    1,955
707,440;27594,750;   -1,720;   -0,409
708,012;27862,160;    0,462;    0,591
708,584;27774,480;    2,462;    0,227
709,157;28078,618;    1,825;   -0,591
709,729;27728,665;    2,280;    2,045
710,301;28578,621;    0,734;    0,045
710,874;28601,032;   -1,447;   -0,227
711,446;27523,624;    0,371;    0,864
712,018;27331,944;    0,098;    0,500
712,590;27046,628;   -1,993;    1,682
713,162;27627,038;    0,825;    1,318
713,734;27910,995;    1,825;   -2,045
714,306;27774,042;   -1,902;   -0,409
714,878;26481,089;    0,825;    0,864
715,450;27337,045;    0,643;    0,864
716,022;27600,910;    1,552;    1,318
716,593;27711,684;    0,189;    0,591
717,165;27650,186;   -3,175;   -1,227
717,737;27313,688;    0,280;    0,409
718,309;27011,098;    0,280;   -0,045
718,880;27022,691;   -0,539;   -1,409
719,452;27248,374;   -0,175;   -1,591
720,024;26780,330;    0,734;   -0,591
720,595;27343,559;   -2,902;    0,955
721,167;26897,697;    0,370;   -2,045
721,738;26415,290;   -0,812;   -1,045
722,309;26424,064;   -0,993;   -1,227
722,881;26191,748;   -1,357;    0,773
723,452;26835,886;   -2,630;    2,864
724,023;27015,478;   -0,721;    2,682
724,595;26791,434;    0,007;    0,682
725,166;26610,572;    0,007;   -0,409
725,737;26238,983;    1,734;    0,227
726,308;26294,848;   -0,266;    0,318
726,879;26691,077;   -1,630;    1,227
727,450;26529,124;    0,552;   -0,045
728,021;26536,898;    3,097;    0,682
728,592;26327,491;    0,734;    0,500
729,163;26643,265;    0,643;   -0,136
729,734;26640,494;    0,188;   -0,227
730,305;27003,178;    1,734;    0,136
730,876;27298,497;    0,188;    2,955
731,447;26985,363;    2,188;    2,682
732,017;27125,773;    1,097;    1,864
732,588;26633,093;    0,734;    1,227
733,159;26837,049;    0,643;   -1,045
733,729;26659,005;    0,006;    0,409
734,300;25934,234;    0,915;    0,864
734,870;26323,281;    3,461;    0,591
735,441;26882,147;    0,370;   -0,591
736,011;26684,648;    0,643;   -1,591
736,582;26644,059;   -0,812;    0,045
737,152;26133,470;   -1,721;   -2,045
737,722;26535,971;   -0,267;   -0,682
738,293;26303,836;   -1,358;    1,318
738,863;26179,156;    2,461;    2,318
739,433;25943,840;    5,279;    0,318
740,003;26586,614;   -0,994;   -0,682
740,573;25974,934;    2,097;   -1,591
741,143;25947,708;   -1,085;    0,318
741,713;26715,028;    1,188;   -0,500
742,283;26451,984;    0,915;    1,591
742,853;26242,577;    1,915;    1,591
743,423;25727,533;    1,733;    0,045
743,993;25830,489;   -0,358;    1,500
744,563;25231,718;    0,097;   -0,864
745,133;25168,765;   -0,812;   -0,864
745,702;25838,266;   -0,267;    1,773
746,272;25079,586;   -0,176;    0,591
746,842;24834,906;   -1,358;   -0,591
747,411;25274,226;   -0,267;   -0,318
747,981;25446,182;    0,097;    0,500
748,551;25484,229;    2,278;   -1,045
749,120;25334,640;    0,642;   -0,227
749,690;25694,869;   -0,631;    2,409
750,259;26052,643;    1,369;    2,955
750,828;25993,963;    1,551;   -1,955
751,398;26260,828;    1,278;   -0,045
751,967;25744,602;    2,187;    0,409
752,536;25972,922;   -0,813;   -0,227
753,105;26357,515;    0,096;    0,227
753,675;26170,562;    0,096;    1,773
754,244;26126,609;   -0,904;    3,591
754,813;26145,292;    0,551;    1,227
755,382;25790,066;    0,460;    0,955
755,951;26299,932;    1,551;    3,682
756,520;25771,979;   -0,085;    1,864
757,089;26344,208;    0,278;    0,500
757,658;26514,164;    1,733;    1,227
758,227;26516,484;    1,096;    0,318
758,795;26774,167;    1,187;    1,136
759,364;27035,578;   -0,086;   -0,591
759,933;26052,807;   -1,176;   -0,045
760,501;25614,035;    0,733;   -1,318
761,070;26071,992;   -2,813;   -1,409
761,639;26752,948;   -1,904;    1,318
762,207;26059,177;    1,551;   -0,955
762,776;25993,042;    0,369;    0,864
763,344;25963,634;   -0,995;    0,591
763,913;25097,227;   -0,722;    1,409
764,481;25801,092;    1,005;   -0,136
765,049;25600,594;   -1,358;    1,409
765,618;25545,732;   -0,086;    0,318
766,186;25630,142;    0,278;    0,136
766,754;25827,371;    0,005;    1,864
767,322;24814,327;   -1,995;    0,409
767,890;24873,375;   -0,722;   -1,773
768,459;25242,422;   -2,177;   -0,318
769,027;25414,741;    1,641;    3,409
769,595;24438,516;    3,278;    2,591
770,163;24866,199;    3,823;    2,955
770,730;24597,610;    0,732;   -0,136
771,298;24479,657;    0,187;   -1,409
771,866;24601,795;   -1,541;    4,955
772,434;24921,206;   -0,631;   -1,864
773,002;25049,344;    0,005;    0,682
773,569;24714,027;    0,914;    1,682
774,137;24518,529;   -0,268;   -0,045
774,705;25325,848;    0,278;   -0,136
775,272;24838,805;    0,641;    0,682
775,840;24535,852;   -0,177;    2,682
776,407;24102,899;    0,277;    1,955
776,975;23765,855;   -0,632;    0,318
777,542;24740,902;   -1,086;   -0,045
778,110;24570,313;   -1,268;   -0,045
778,677;24268,087;   -2,359;   -0,864
779,244;24020,134;    2,186;    1,045
779,812;24115,090;    1,823;    0,864
780,379;23988,410;    0,005;    1,136
780,946;24225,730;    1,005;   -0,773
781,513;24528,322;   -1,450;    0,318
782,080;23917,187;   -0,086;    2,864
782,647;24680,325;   -0,268;    3,045
783,214;24275,918;   -0,177;    3,864
783,781;23845,147;   -0,723;   -0,682
784,348;23753,467;   -0,632;    1,500
784,915;24258,877;   -3,177;    0,318
785,482;23984,833;    1,368;    2,591
786,049;24356,062;    0,186;   -0,591
786,615;24499,564;    0,277;   -0,955
787,182;24287,975;    0,186;   -0,682
787,749;23974,385;   -2,814;    1,409
788,315;23281,341;   -1,632;   -0,409
788,882;23580,389;    1,550;   -1,227
789,448;24237,345;    1,732;   -0,955
790,015;24261,574;    1,095;    3,227
790,581;23831,712;    1,459;    0,227
791,148;23734,759;    0,641;    1,045
791,714;23922,715;   -0,541;    3,136
792,280;23655,035;    0,186;    1,591
792,847;23269,718;    0,550;    2,500
793,413;23856,947;   -0,269;   -0,318
793,979;23308,812;    3,459;   -1,318
794,545;23409,768;    4,459;    2,682
795,111;22817,543;    2,186;    1,318
795,678;22983,499;    0,731;   -1,682
796,244;22633,364;    3,368;    0,136
796,810;23176,411;    1,731;    0,773
797,375;22874,094;    0,549;   -2,136
797,941;22954,323;   -0,541;    0,591
798,507;23109,916;   -0,451;   -0,955
799,073;22654,872;   -0,360;    0,591
799,639;22753,374;   -2,632;    3,136
800,205;22807,057;    0,095;    2,682
800,770;22336,468;    0,640;    1,773
801,336;22401,606;    1,368;   -0,955
801,901;22116,198;    4,549;    3,136
802,467;22693,973;   -0,542;    2,045
803,033;22024,020;   -0,087;    0,864
803,598;22188,249;    1,913;   -1,045
804,163;22259,023;    1,095;   -0,318
804,729;22231,615;   -0,178;    1,136
805,294;22644,572;    0,822;    2,227
805,859;22395,164;    0,731;   -0,409
806,425;21881,393;    1,186;    2,682
806,990;21548,531;    2,186;    4,318
807,555;22021,760;   -1,451;    2,591
808,120;21870,625;    0,822;   -0,409
808,685;21944,945;    0,185;   -2,500
809,250;21456,810;    0,004;   -0,500
809,815;21798,312;    1,913;    0,682
810,380;22295,086;   -0,269;    1,591
810,945;22830,588;   -1,087;    2,045
811,510;22013,816;    2,094;    1,591
812,075;21721,227;   -0,633;   -1,409
812,640;21793,002;    2,003;    1,409
813,204;21818,685;    0,822;   -0,227
813,769;22314,732;    2,094;   -0,045
814,334;21757,688;    0,458;    0,864
814,898;21791,008;    0,367;    0,591
815,463;21628,873;    1,276;   -0,773
816,027;21619,375;   -0,724;   -2,318
816,592;21711,331;    0,640;   -2,045
817,156;21261,196;    2,094;    1,136
817,721;21095,334;    4,276;    2,318
818,285;21051,563;    2,912;    1,500
818,849;21707,246;   -1,451;    1,682
819,414;21588,748;   -0,269;    2,955
819,978;21202,159;   -1,269;    1,773
820,542;21760,115;    2,003;    0,500
821,106;21496,889;   -0,815;    0,682
821,670;21577,300;   -0,815;    2,591
822,234;21318,620;   -0,270;    1,409
822,798;20681,940;    0,003;    0,500
823,362;20639,532;   -0,633;    4,227
823,926;19969,761;    0,094;    1,136
824,490;20191,263;   -0,997;   -0,682
825,054;20636,673;   -0,088;   -1,136
825,618;20275,811;   -1,542;   -1,500
826,181;20209,586;    0,458;   -1,318
826,745;20065,087;    1,367;   -1,045
827,309;20481,680;    1,185;    1,318
827,872;19836,545;    1,367;    0,955
828,436;20838,137;    1,185;   -0,773
828,999;20928,184;   -0,997;    1,227
829,563;19717,141;   -0,179;    1,136
830,126;19523,824;   -0,179;   -0,591
830,690;19543,689;   -1,997;    2,864
831,253;19065,282;   -0,543;    2,227
831,816;19194,693;   -1,906;    0,500
832,380;19148,194;    0,185;    0,864
832,943;19333,150;   -1,361;   -0,500
833,506;18838,561;    2,639;   -1,227
834,069;19642,517;    3,912;   -0,955
834,632;19737,110;    1,730;    1,318
835,195;19623,793;    1,003;    0,955
835,758;18824,295;   -0,997;    1,955
836,321;18678,251;    0,730;   -1,045
836,884;18775,025;   -0,725;   -0,955
837,447;18835,163;   -2,816;    1,773
838,010;19088,392;    0,366;    3,227
838,573;19375,166;   -1,179;    0,773
839,135;19282,850;   -1,361;   -0,955
839,698;18798,442;    1,275;    0,409
840,261;18316,217;    1,003;   -0,227
840,823;18160,082;   -0,543;    0,864
841,386;18490,765;   -0,452;   -2,409
841,948;18334,085;   -1,361;    1,773
842,511;18058,950;    0,912;    1,682
843,073;18195,543;    1,912;    0,227
843,636;18034,135;   -0,361;   -0,227
844,198;17944,273;    0,911;    0,591
844,760;18049,866;    1,093;    1,955
845,322;17724,640;    0,548;    1,136
845,885;18133,596;    0,730;    0,591
846,447;18601,280;   -1,998;    0,227
847,009;18151,327;    1,911;   -0,682
847,571;18464,010;    0,820;   -2,045
848,133;18613,148;   -1,089;   -1,864
848,695;18430,832;   -0,543;    1,409
849,257;17959,788;   -1,089;   -1,682
849,819;18133,562;   -0,998;   -0,409
850,381;18128,064;   -0,725;   -0,864
850,942;18503,384;    1,093;   -0,591
851,504;18482,794;    1,184;    0,227
852,066;18532,478;    1,275;   -1,591
852,628;18065,070;   -0,180;    1,955
853,189;17667,754;    1,638;    2,682
853,751;17771,164;   -0,907;    1,409
854,312;17554,757;   -0,453;   -1,682
854,874;18038,258;   -2,089;   -0,773
855,435;18579,669;   -0,907;   -1,682
855,997;18702,625;   -1,816;   -0,136
856,558;18002,854;    0,366;    1,773
857,119;18114,265;    0,820;    2,864
857,681;17858,221;    0,002;    0,318
858,242;17879,359;    1,911;   -2,136
858,803;18321,042;    0,456;   -0,773
859,364;18883,999;    0,184;   -4,773
859,925;18185,500;   -2,453;   -0,955
860,486;18118,729;   -0,453;   -0,955
861,047;17840,412;   -0,544;   -1,227
861,608;17608,823;   -1,089;   -0,773
862,169;17747,961;    0,638;   -0,045
862,730;17557,099;    0,456;    1,409
863,291;17785,783;   -0,635;   -0,500
863,852;18149,830;   -0,635;    1,955
864,412;17657,058;   -0,271;   -0,864
864,973;16222,560;   -0,089;    0,500
865,534;16070,971;   -1,726;    0,227
866,094;17609,018;    1,820;    0,227
866,655;17280,883;    1,274;    3,318
867,215;17531,567;    0,274;    0,136
867,776;17366,432;    0,547;   -0,136
868,336;17446,661;   -1,453;    0,136
868,897;16949,980;    2,638;    1,682
869,457;16685,391;    1,365;    0,318
870,017;16961,529;    0,547;   -1,227
870,578;17437,122;   -0,817;    0,773
871,138;17114,169;   -2,089;   -0,955
871,698;16643,670;   -0,817;   -1,318
872,258;16536,172;   -0,453;   -2,864
872,818;16900,946;    2,729;    0,045
873,378;16867,357;    0,638;    1,045
873,938;16436,404;    0,547;    0,500
874,498;16782,542;    0,274;   -1,955
875,058;16672,953;    2,183;    1,773
875,618;16521,818;    1,910;   -2,682
876,177;16467,410;    1,274;    0,136
876,737;16037,912;   -0,090;    1,955
877,297;16085,686;    0,183;    1,955
877,856;16068,733;   -0,362;    0,318
878,416;16022,690;    1,183;   -0,136
878,976;16222,918;   -1,817;    0,409
879,535;16395,056;    0,092;    3,136
880,095;16152,831;   -0,544;    0,045
880,654;16219,332;   -1,090;    1,318
881,213;16325,834;    2,456;    1,500
881,773;15984,245;    2,637;    2,682
882,332;16312,837;    3,365;    5,136
882,891;16157,157;    3,092;    2,136
883,451;16665,295;   -1,272;    1,682
884,010;16064,615;   -2,908;   -0,409
884,569;16142,662;   -0,999;   -0,045
885,128;16315,254;    2,819;   -1,864
885,687;16381,210;    4,455;    0,682
886,246;16112,348;    1,455;    2,136
886,805;15864,759;    2,455;    2,045
887,364;16141,261;   -0,999;   -0,500
887,922;16514,762;   -1,181;    0,045
888,481;16023,537;   -1,545;    0,591
889,040;16334,493;    1,183;    2,136
889,599;16972,540;    2,455;    1,409
890,157;17030,405;    1,455;    2,409
890,716;16754,634;   -0,090;    0,227
891,274;16566,863;    0,092;   -1,136
891,833;16967,819;    1,546;    0,864
892,391;16843,321;   -0,454;    0,500
892,950;16904,004;    1,819;   -0,773
893,508;17292,051;    0,455;   -0,409
894,067;16661,007;    0,637;    0,136
894,625;16545,418;   -0,636;   -1,500
895,183;16799,192;   -0,363;   -0,682
895,741;16698,603;    1,728;   -1,773
896,299;16518,014;   -0,545;   -2,409
896,858;16720,061;    0,819;   -1,591
897,416;16858,381;    2,728;   -1,318
897,974;16612,519;    1,819;    0,318
898,532;16722,020;    6,091;    2,682
899,089;16626,340;    2,091;   -0,682
899,647;16691,660;   -1,454;    1,318
900,205;16395,343;    1,182;    1,045
900,763;16576,663;   -0,454;    0,227
901,321;16646,801;    2,364;   -1,409
901,878;16098,666;   -1,000;   -0,773
902,436;15963,259;   -1,363;    1,318
902,994;16318,851;    4,728;    3,682
903,551;15762,171;    0,728;    0,409
904,109;16164,309;    0,182;   -1,409
904,666;15804,992;    2,455;    1,045
905,224;15607,221;    0,182;   -0,409
905,781;15320,177;    0,727;   -0,318
906,338;15415,952;   -1,363;    1,045
906,895;15375,635;    0,637;    2,045
907,453;15278,500;    1,727;    1,136
908,010;15320,275;   -0,909;    0,409
908,567;14989,322;    1,273;    0,591
909,124;14480,914;    0,364;   -1,500
909,681;14583,598;   -2,909;    0,682
910,238;14668,190;    0,636;   -1,318
910,795;15022,601;   -0,273;   -1,136
911,352;14698,146;   -2,909;   -2,682
911,909;14082,874;   -1,364;   -0,864
912,466;14587,965;   -3,182;    1,500
913,022;14135,237;   -1,636;    0,500
913,579;14449,419;   -0,909;    2,045
914,136;14211,419;    1,636;    0,955
914,692;14517,692;    0,091;   -1,227
915,249;14135,601;    1,455;    0,409
915,806;14331,146;    0,182;    1,955
916,362;14095,601;    1,909;    1,864
916,918;13694,692;    2,000;    1,045
917,475;13659,146;   -1,182;    0,955
918,031;13733,510;    3,364;   -0,045
918,587;13183,510;   -0,909;   -0,318
919,144;13417,874;   -2,273;    0,227
919,700;13729,146;    1,727;    0,773
920,256;13290,510;    0,727;    0,045
920,812;12909,510;   -0,727;   -1,045
921,368;12934,237;   -1,727;   -1,045
921,924;12591,874;    0,182;   -0,136
922,480;12136,783;   -0,545;    1,227
923,036;12757,328;    1,273;    1,955
923,592;12711,419;    0,455;    0,318
924,148;12613,328;    0,455;   -0,955
924,704;11938,965;   -1,364;   -0,409
925,259;12218,692;   -0,273;    0,591
925,815;11989,965;    1,455;    0,500
926,371;11533,146;    2,909;    1,409
926,926;11400,146;    2,091;    0,591
927,482;11063,874;   -1,364;    0,773
928,037;10920,237;    0,909;    2,045
928,593;11193,237;    1,636;    1,045
929,148;11046,601;   -1,818;   -1,500
929,704;10573,965;   -1,455;   -0,500
930,259;10775,056;    0,091;   -0,136
930,814; 9856,328;   -0,818;    1,955
931,369; 9542,692;    1,091;   -0,773
931,925; 9420,965;   -0,091;    0,136
932,480; 9321,237;   -2,818;   -2,591
933,035; 9207,237;    0,545;   -0,318
933,590; 9011,874;    0,364;   -1,773
934,145; 8640,965;   -1,364;   -0,318
934,700; 9007,056;    0,455;   -0,591
935,255; 8789,146;   -0,091;    0,045
935,809; 8080,146;    3,182;    0,864
936,364; 7259,328;   -0,455;   -0,136
936,919; 7208,874;    0,455;   -1,773
937,474; 7115,601;    1,455;    0,136
938,028; 6874,056;   -1,636;    1,136
938,583; 6381,056;    1,818;    4,682
939,138; 6653,328;    2,091;    2,136
939,692; 6086,692;    1,636;   -1,136
940,247; 5813,601;   -0,727;   -1,045
940,801; 5380,328;   -0,636;    0,227
941,355; 5271,601;   -0,364;    2,591
941,910; 4940,056;   -0,273;   -2,136
942,464; 5022,874;   -0,818;   -0,318
943,018; 4840,874;    1,000;   -0,227
943,572; 4780,237;    2,545;   -0,682
944,126; 4201,692;    0,091;   -0,409
944,681; 4096,874;    3,091;    0,227
945,235; 4080,328;    1,000;   -0,591
945,789; 4019,601;    0,364;   -1,864
946,342; 4108,056;    0,455;   -0,591
946,896; 3926,419;   -2,273;    0,955
947,450; 3718,056;    1,545;   -0,227
948,004; 3891,601;    1,727;   -0,045
948,558; 3903,692;    0,273;   -0,864
949,111; 3824,601;   -0,273;   -0,318
949,665; 3836,328;    1,636;   -0,682
950,219; 3723,419;   -0,091;   -1,045
950,772; 3797,419;   -1,909;    1,864
951,326; 3696,783;    0,545;   -0,955
951,879; 3802,419;    0,727;   -2,318
952,433; 3822,783;    0,000;    2,227
952,986; 3672,692;    2,909;    0,682
953,539; 3617,419;   -0,273;    0,591
954,093; 3566,692;    0,545;   -1,318
954,646; 3699,874;    0,909;    1,318
955,199; 3514,146;    0,000;   -0,500
955,752; 3394,510;   -0,455;    1,773
956,305; 3358,783;   -0,091;    2,955
956,858; 3511,146;    0,818;   -0,318
957,411; 3684,328;   -0,545;    2,136
957,964; 3530,146;    1,364;    2,136
958,517; 3502,056;   -1,545;    3,136
959,070; 3334,783;   -0,455;    1,955
959,623; 3423,328;    1,091;    1,500
960,176; 3192,510;    1,727;    2,045
960,728; 3169,237;   -2,727;    0,773
961,281; 3209,510;    0,545;    0,500
961,834; 3282,328;   -0,909;    0,864
962,386; 3193,056;    1,727;    1,045
962,939; 3119,510;    0,364;   -0,318
963,491; 3270,965;    0,455;    1,136
964,043; 3144,056;    1,182;    2,409
964,596; 3269,328;   -1,000;    2,227
965,148; 3100,146;   -1,000;    1,773
965,700; 3039,510;    1,091;   -0,227
966,253; 3184,783;   -0,636;    0,318
966,805; 3013,056;   -2,273;    0,773
967,357; 3074,328;    1,091;   -1,500
967,909; 3017,146;    0,455;   -1,227
968,461; 3119,965;    0,545;    3,136
969,013; 3066,601;   -0,182;   -0,864
969,565; 3138,328;   -0,455;   -1,136
970,117; 3212,056;   -0,364;    1,045
970,669; 3040,146;    0,182;   -0,136
971,220; 2921,056;   -0,455;   -1,500
971,772; 2831,783;   -0,636;   -0,318
972,324; 2955,237;    0,091;   -0,500
972,876; 2888,965;    0,818;   -0,045
973,427; 3036,146;    1,909;   -1,045
973,979; 3001,874;   -0,727;   -2,500
974,530; 3034,965;    1,818;    1,318
975,082; 3044,056;   -0,545;    1,682
975,633; 2944,237;    1,091;    1,682
976,184; 3092,056;    0,909;    0,773
976,736; 2876,328;    0,091;    0,227
977,287; 2698,783;   -0,909;   -0,500
977,838; 2875,328;    0,909;   -0,318
978,389; 2924,965;   -1,000;   -0,500
978,940; 2805,056;    0,545;   -0,409
979,491; 2820,783;    0,091;   -0,500
980,042; 2780,783;    0,182;    3,045
980,593; 2837,510;   -2,545;    0,227
981,144; 2881,874;    2,545;   -0,500
981,695; 2853,237;    1,455;    1,500
982,246; 2824,874;   -0,273;    1,045
982,797; 2976,419;   -1,727;    0,682
983,347; 3071,692;    0,364;    0,591
983,898; 3246,419;    3,091;    0,409
984,449; 3062,783;    2,182;    0,773
984,999; 2981,874;    1,455;   -1,136
985,550; 2755,146;    0,182;   -0,318
986,100; 2787,419;   -0,455;   -0,318
986,651; 2834,601;   -0,818;    0,045
987,201; 2812,419;   -1,000;   -0,591
987,751; 2890,783;    0,818;    2,864
988,302; 2880,783;    2,636;    1,500
988,852; 2897,692;    0,455;   -1,136
989,402; 2943,419;    0,091;    0,682
989,952; 2851,510;   -2,182;    0,864
990,502; 2952,601;   -0,091;    0,682
991,052; 2916,237;   -0,727;    0,045
991,602; 2784,419;   -2,909;    1,318
992,152; 2797,237;    0,455;    0,682
992,702; 2777,783;    1,364;   -0,045
993,252; 2700,237;   -3,000;   -0,500
993,802; 2796,056;   -0,273;    1,318
994,352; 3024,874;   -1,545;    1,136
994,901; 3115,237;   -0,182;    3,227
995,451; 3023,237;   -0,182;    0,318
996,000; 3098,146;    1,636;    0,318
996,550; 2832,146;    2,273;    0,227
997,100; 2831,692;    1,273;   -0,045
997,649; 3107,056;    2,182;    0,955
998,198; 2745,328;    1,727;   -1,500
998,748; 2927,965;    1,091;   -2,318
999,297; 2847,510;   -0,818;   -0,409
999,846; 2928,056;    1,000;   -0,773
1000,395; 2973,056;   -0,818;    0,500
1000,945; 2920,692;    1,818;   -0,773
1001,494; 3005,783;    2,364;    0,682
1002,043; 2990,419;    4,636;    0,864
1002,592; 2829,692;   -1,091;    1,955
1003,141; 2978,601;   -0,455;   -0,682
1003,690; 2847,783;    1,727;    0,500
1004,238; 2918,237;    1,455;   -0,045
1004,787; 2581,601;    1,364;    1,227
1005,336; 2800,146;    0,364;    0,682
1005,885; 2935,601;    1,364;   -2,773
1006,433; 3099,328;    0,545;    0,955
1006,982; 3142,328;    0,455;    1,682
1007,531; 3045,419;   -1,818;   -0,227
1008,079; 3003,510;   -2,273;    0,500
1008,627; 3146,146;   -1,455;    0,409
1009,176; 2877,601;    0,000;   -1,955
1009,724; 2923,783;    1,091;    0,864
1010,273; 2986,510;    1,273;    0,500
1010,821; 3088,056;    0,091;    1,409
1011,369; 2825,510;   -1,364;    1,318
1011,917; 2804,965;   -1,364;   -0,591
1012,465; 3085,965;    1,273;   -1,591
1013,013; 3192,419;    2,091;   -1,682
1013,561; 3068,692;    0,455;   -0,773
1014,109; 3112,510;   -1,909;    1,682
1014,657; 3007,328;    0,364;    0,591
1015,205; 3128,510;    1,636;   -0,955
1015,753; 3161,874;   -0,545;   -1,409
1016,301; 3191,146;   -2,636;    3,045
1016,848; 3200,692;   -1,273;    0,409
1017,396; 3236,510;    2,545;    0,045
1017,944; 3365,146;    1,182;    1,864
1018,491; 3129,874;    0,273;    1,409
1019,039; 3276,874;    0,455;    0,591
1019,586; 3198,965;   -1,364;    1,682
1020,134; 3289,419;    0,455;    1,500
1020,681; 3303,965;    0,182;   -1,136
1021,228; 3333,056;    2,909;   -2,227
1021,776; 3171,692;    1,182;   -1,136
1022,323; 3379,146;    0,455;    0,773
1022,870; 3314,328;   -1,000;   -0,045
1023,417; 3215,146;    2,636;    1,864
1023,964; 3356,692;    2,636;    1,227
1024,511; 3196,419;    1,000;    0,773
1025,058; 2996,692;    3,182;   -0,045
1025,605; 3062,237;   -2,273;    3,136
1026,152; 3271,601;    1,727;   -0,591
1026,699; 3019,874;    1,818;    1,318
1027,245; 3169,419;   -0,091;    0,318
1027,792; 3381,237;   -1,000;    1,409
1028,339; 3264,692;    2,364;   -0,045
1028,885; 3119,874;    1,000;   -0,227
1029,432; 3065,237;   -0,091;    0,227
1029,978; 3112,237;   -1,000;   -1,591
1030,525; 3025,419;    1,000;    0,409
1031,071; 3274,783;   -1,364;    1,136
1031,618; 3363,783;    0,364;    1,682
1032,164; 3148,237;   -0,091;    3,045
1032,710; 3199,510;    1,636;   -1,500
1033,256; 3131,783;   -0,636;   -0,136
1033,803; 3102,056;   -0,545;    1,500
1034,349; 2823,510;   -1,364;    0,136
1034,895; 3005,874;    0,000;   -0,318
1035,441; 2970,692;   -0,818;    0,318
1035,987; 2971,783;   -2,364;   -0,682
1036,533; 2986,237;   -1,455;   -0,955
1037,078; 3161,056;    1,455;    1,682
1037,624; 2978,328;    2,455;   -0,955
1038,170; 2995,601;    0,455;   -0,318
1038,716; 2918,510;    1,636;   -0,409
1039,261; 2830,237;   -2,273;   -0,773
1039,807; 2771,965;   -0,091;    3,409
1040,352; 2850,056;   -1,909;   -0,318
1040,898; 2891,692;   -1,545;   -0,682
1041,443; 2814,146;   -1,455;   -2,591
1041,989; 2808,692;    1,091;    1,591
1042,534; 2700,692;   -0,364;    2,591
1043,079; 2825,601;    2,909;    0,955
1043,625; 2613,510;    1,818;    0,500
1044,170; 2657,146;   -1,364;    1,045
1044,715; 2905,146;    2,455;    0,955
1045,260; 2721,965;    2,182;   -0,955
1045,805; 2769,510;    1,182;   -0,591
1046,350; 2720,419;    1,364;   -0,409
1046,895; 2664,237;    2,909;    1,591
1047,440; 2614,965;    5,364;    0,409
1047,985; 2526,692;    2,818;   -0,955
1048,530; 2446,692;    1,545;    1,227
1049,074; 2517,237;    0,000;    0,318
1049,619; 2480,237;   -1,364;    1,955
1050,164; 2290,419;    0,455;    0,227
1050,708; 2332,237;   -0,455;    0,045
1051,253; 2688,328;    1,273;   -2,227
1051,797; 2414,419;    0,818;   -1,318
1052,342; 2426,783;   -1,182;    1,045
1052,886; 2424,874;    0,364;   -1,409
1053,430; 2320,510;   -1,364;    0,136
1053,975; 2318,783;   -0,818;   -0,318
1054,519; 2288,328;   -0,727;    3,227
1055,063; 2310,601;    0,909;    1,318
1055,607; 2186,874;   -0,182;    0,227
1056,151; 2230,146;    2,909;    1,682
1056,695; 2134,510;    2,273;   -1,136
1057,239; 2216,146;   -1,727;   -0,682
1057,783; 2227,146;    0,818;   -1,500
1058,327; 2157,237;    0,000;    1,409
1058,871; 2386,146;   -0,545;    1,318
1059,415; 2092,601;   -0,818;   -0,045
1059,958; 2352,601;    1,455;    2,591
1060,502; 2069,419;   -1,000;   -0,773
1061,046; 1974,874;    0,364;   -0,955
1061,589; 1963,965;   -3,000;   -1,136
1062,133; 1851,874;   -1,273;    1,864
1062,676; 1785,510;    1,182;    0,864
1063,220; 1796,056;    1,091;    0,500
1063,763; 1830,692;    0,909;    1,136
1064,306; 1895,056;   -0,909;    1,864
1064,849; 1775,965;   -0,909;    0,591
1065,393; 1793,237;    2,000;   -1,500
1065,936; 1898,874;    0,182;   -0,409
1066,479; 1779,692;   -1,455;    1,318
1067,022; 1806,328;   -0,273;   -0,227
1067,565; 1711,237;   -0,091;   -1,318
1068,108; 1735,237;    0,727;   -0,591
1068,651; 1708,146;   -0,636;    1,409
1069,194; 1646,056;   -0,455;   -1,682
1069,736; 1643,419;   -1,273;    0,955
1070,279; 1616,056;   -1,364;   -0,500
1070,822; 1656,783;   -2,000;   -0,318
1071,364; 1737,783;   -0,364;    1,318
1071,907; 1571,510;   -0,727;    3,227
1072,450; 1463,874;    0,000;   -0,045
1072,992; 1470,692;   -0,273;    3,136
1073,535; 1619,965;    2,091;    2,136
1074,077; 1410,510;   -0,727;    2,045
1074,619; 1374,056;   -1,364;    0,591
1075,161; 1411,237;   -1,091;    1,500
1075,704; 1576,328;    1,545;    1,227
1076,246; 1379,601;   -0,182;    0,682
1076,788; 1319,056;   -0,364;    1,773
1077,330; 1386,419;    1,273;    2,136
1077,872; 1361,328;    0,909;    0,955
1078,414; 1571,328;    2,727;    0,773
1078,956; 1313,146;    1,273;   -0,227
1079,498; 1576,510;    1,636;    0,318
1080,040; 1280,874;    1,909;   -1,318
1080,581; 1223,783;    1,636;   -0,318
1081,123; 1158,146;    0,091;   -0,773
1081,665; 1206,328;   -1,182;   -0,955
1082,206; 1479,692;    1,364;   -0,500
1082,748; 1339,692;    0,727;    2,045
1083,289; 1233,056;   -2,000;    1,318
1083,831; 1138,056;   -0,545;    0,227
1084,372; 1177,510;    0,000;    0,591
1084,913; 1169,874;    1,091;    0,864
1085,455; 1140,874;   -1,909;   -2,045
1085,996; 1117,601;   -2,273;    0,136
1086,537; 1129,874;   -0,091;    0,864
1087,078; 1162,510;   -0,909;   -2,136
1087,619; 1200,965;   -1,273;    0,227
1088,160; 1118,419;    0,000;    1,318
1088,701; 1110,328;   -1,091;    0,682
1089,242; 1052,783;    1,364;   -2,227
1089,783; 1141,510;   -0,273;    1,409
1090,324; 1112,419;    0,455;    0,682
1090,865;  981,419;    2,727;   -0,409
1091,405;  955,783;    0,727;    2,227
1091,946;  992,328;    0,182;   -0,955
1092,487;  924,783;    0,818;   -1,409
1093,027; 1087,146;   -1,364;   -1,500
1093,568;  929,783;   -0,364;    1,227
1094,108; 1018,237;    0,273;    1,773
1094,649;  969,237;   -1,182;    0,136
1095,189;  896,056;   -0,636;   -0,682
1095,729;  861,328;   -0,091;    0,955
1096,269;  865,237;    0,727;   -0,955
1096,810; 1177,510;   -1,364;    0,500
1097,350;  998,601;    1,364;   -0,773
1097,890;  912,146;    0,364;    1,227
1098,430; 1158,510;    2,364;    2,864
1098,970; 1033,419;    2,182;    1,682
1099,510;  899,237;    0,545;   -2,318
1100,050;  823,692;    1,000;   -1,591
1100,589;  794,783;   -0,727;   -0,318
1101,129;  903,510;    0,818;   -0,955
1101,669; 1049,874;    1,727;    2,136
1102,209;  880,874;   -0,091;    2,227
1102,748;  841,965;    0,000;    0,955
1103,288;  822,783;    1,273;   -1,227
1103,827;  843,419;    3,091;   -2,227
1104,367;  732,874;   -0,091;   -2,409
1104,906;  702,874;    1,364;   -1,136
1105,445;  783,601;    0,636;   -1,136
1105,985;  721,419;   -0,727;    1,500
1106,524;  754,601;   -1,727;   -0,682
1107,063;  733,874;   -2,727;    1,409
1107,602;  707,419;   -1,909;   -1,500
1108,141;  638,692;   -1,909;    1,500
1108,680;  727,874;   -3,455;   -0,591
1109,219;  667,783;   -0,909;   -0,500
1109,758;  680,328;    0,455;    0,682
1110,297;  656,056;    1,000;   -0,682
1110,836;  589,419;   -0,727;    0,955
1111,375;  755,510;   -2,545;    0,409
1111,913;  776,146;   -1,000;    0,773
1112,452;  702,510;   -0,273;    0,136
1112,991;  585,056;    1,091;    1,955
1113,529;  554,419;   -0,818;   -0,045
1114,068;  617,874;   -0,273;    2,955
1114,606;  522,328;   -0,364;   -0,955
1115,144;  682,874;   -1,273;    1,045
1115,683;  615,510;   -0,727;    0,318
1116,221;  662,965;   -0,455;   -0,864
1116,759;  572,601;    0,636;   -0,864
1117,297;  770,419;    0,000;    1,864
1117,836;  569,965;   -2,182;   -1,227
1118,374;  578,146;    0,182;   -0,682
1118,912;  527,601;    0,909;    2,682
1119,450;  511,601;    1,000;    0,864
1119,988;  550,965;    1,545;    2,136
1120,525; 1013,056;    5,091;    3,318
1121,063;  710,328;    1,182;    1,864
1121,601;  520,965;   -0,909;   -1,227
1122,139;  476,419;   -0,727;   -2,045
1122,676;  674,056;   -0,727;    2,773
1123,214;  611,874;   -1,182;    4,409
1123,751;  426,874;    1,727;    2,227
1124,289;  546,510;   -0,091;   -0,409
1124,826;  420,601;    1,727;    0,227
1125,364;  352,510;    1,727;   -0,955
1125,901;  540,237;    1,182;    1,227
1126,438;  643,874;    0,818;    0,955
1126,975;  370,510;   -0,727;   -0,773
1127,513;  428,510;    0,273;    2,136
1128,050;  348,874;    1,636;   -0,682
1128,587;  449,601;    2,000;   -0,227
1129,124;  484,237;    0,091;    1,318
1129,661;  353,328;    0,273;    0,227
1130,198;  518,965;    1,636;    0,773
1130,734;  467,601;    0,182;    1,409
1131,271;  320,783;   -0,909;    0,864
1131,808;  504,783;    2,909;    3,045
1132,345;  368,056;    1,545;    0,318
1132,881;  244,419;   -1,545;   -1,864
1133,418;  389,783;    0,727;   -1,136
1133,954;  320,419;    2,455;   -2,682
1134,491;  387,783;    1,364;   -0,773
1135,027;  291,419;    2,364;    0,864
1135,564;  383,965;    0,273;    2,955
1136,100;  366,419;    0,364;    2,136
1136,636;  265,419;   -1,273;   -1,045
1137,172;  349,692;    0,000;   -1,045
1137,708;  276,056;   -1,364;   -1,045
1138,245;  279,601;    1,273;   -1,227
1138,781;  240,419;    1,091;   -3,318
1139,317;  307,601;    1,273;   -1,409
1139,852;  284,965;    3,091;    0,136
1140,388;  411,783;   -1,182;   -0,409
1140,924;  279,692;   -1,091;   -2,227
1141,460;  223,510;   -1,636;    0,136
1141,996;  160,056;   -1,364;    2,682
1142,531;  201,874;    1,364;    3,318
1143,067;  408,692;    1,182;    1,045
1143,602;  468,965;   -0,091;   -0,318
1144,138;  322,692;   -2,636;    1,045
1144,673;  191,965;   -1,455;    1,409
1145,209;  253,874;   -1,909;   -0,318
1145,744;  183,874;   -0,727;    0,864
1146,279;  308,965;    1,818;   -0,136
1146,815;  227,783;    1,545;   -2,682
1147,350;  267,056;   -1,364;    0,045
1147,885;  187,419;   -0,818;   -1,318
1148,420;  185,692;   -2,273;    0,773
1148,955;  164,419;   -1,727;    1,864
1149,490;  192,328;   -0,909;   -1,591
1150,025;  169,692;    0,455;   -1,773
1150,560;  286,692;    1,091;   -0,955
1151,094;  256,237;    1,455;   -0,591
1151,629;  258,692;    1,636;    0,864
1152,164;  187,419;    1,364;    1,318
1152,698;  143,237;   -0,182;   -0,136
1153,233;  102,237;    0,091;   -0,682
1153,767;  147,601;   -3,000;   -2,318
1154,302;  194,237;   -1,455;    1,773
1154,836;  190,692;   -0,455;   -2,136
1155,371;  245,056;   -1,364;    3,682
1155,905;  197,692;   -0,636;    1,682
1156,439;  164,146;   -0,636;   -0,500
1156,973;  206,237;    0,364;    0,318
1157,507;  143,692;   -0,364;    0,682
1158,042;  165,783;   -0,727;    1,045
1158,576;  214,146;    0,182;    1,773
1159,110;  200,692;   -0,818;    2,409
1159,643;  172,328;    0,636;   -0,045
1160,177;  115,692;   -1,545;    1,500

