
Integration time [ms]:   0,040
Averaging Nr. [scans]: 11
Smoothing Nr. [pixels]: 0
Data measured with spectrometer [name]: 7318044SP
Wave   ;Sample   ;Dark     ;Reference
[nm]   ;[counts] ;[counts] ;[counts] 

186,757;   25,785;   31,551;    1,318
187,357;   54,976;   22,551;    0,955
187,958;   35,949;   15,460;   -1,591
188,558;   76,329;    8,915;   -1,227
189,159;   42,615;    6,733;   -4,500
189,759;   14,765;    7,278;   -3,591
190,360;   14,247;    2,824;   -2,136
190,960;   46,030;    2,915;   -4,136
191,560;   59,802;    3,189;   -6,591
192,161;  291,400;    4,372;   -3,500
192,761;  146,431;    4,010;   -3,227
193,361;   96,265;    1,556;   -3,773
193,962;  146,109;    2,010;   -2,682
194,562;   61,885;    1,189;   -3,955
195,162;   98,985;   -2,448;   -2,227
195,762;  252,607;   -3,176;   -0,045
196,362;  206,344;    1,370;   -2,500
196,963;   79,569;    2,006;   -0,864
197,563;  151,148;    1,551;   -0,955
198,163;   96,569;    0,096;   -0,682
198,763;  120,678;    1,733;   -0,500
199,363;  209,013;    3,096;   -0,500
199,963;  172,584;    0,369;    0,409
200,563;  149,806;    2,823;   -1,409
201,163;  130,304;    3,277;   -0,227
201,763;  221,391;    3,732;    0,318
202,363;  155,913;    1,459;    1,500
202,963;  268,895;    1,459;    1,045
203,563;  374,190;    0,277;    0,500
204,162;  222,920;    2,096;   -1,864
204,762;  208,954;    0,550;    0,591
205,362;  181,728;    3,004;    1,955
205,962;  282,757;    3,096;    1,955
206,562;  280,116;    1,823;    2,318
207,161;  249,296;   -0,087;    0,318
207,761;  397,237;    1,277;    2,409
208,361;  283,104;   -0,268;    1,409
208,960;  382,991;    0,459;    1,500
209,560;  455,502;    1,277;    1,591
210,160;  439,127;    0,550;    1,864
210,759;  399,968;    4,186;    1,227
211,359;  405,696;    1,459;    1,045
211,958;  671,675;    1,277;    2,045
212,558;  745,489;    1,732;    1,864
213,157;  582,862;    1,822;    1,500
213,757; 1019,609;    3,822;   -0,227
214,356;  719,900;    1,277;   -0,409
214,956; 1066,029;    3,095;    0,409
215,555;  692,431;    2,095;    2,136
216,154;  636,826;   -2,723;   -0,591
216,754;  638,824;    0,277;    0,773
217,353;  764,777;   -0,268;   -1,045
217,952;  635,235;   -0,178;    0,318
218,552;  869,145;    1,368;   -0,773
219,151;  760,367;    0,277;    0,955
219,750;  766,170;    0,004;   -0,227
220,349;  881,937;   -0,451;    1,045
220,948;  936,402;   -1,360;    1,136
221,548;  956,868;    0,913;    1,227
222,147; 1077,895;   -0,087;   -0,409
222,746; 1357,855;   -0,451;   -0,955
223,345; 1232,404;    0,731;    0,500
223,944; 1227,904;   -0,451;    0,773
224,543; 1397,985;    1,004;   -1,409
225,142; 1506,389;    0,094;    0,136
225,741; 1416,970;   -0,814;    1,045
226,340; 1440,277;   -0,451;   -0,955
226,939; 1862,984;   -0,996;   -0,136
227,538; 1813,089;   -0,360;   -0,773
228,137; 1970,583;   -0,814;    0,864
228,735; 2091,037;   -0,541;    1,227
229,334; 1850,127;   -0,905;   -0,227
229,933; 2221,917;    0,459;    0,591
230,532; 2319,998;    1,186;   -0,409
231,131; 2366,568;    1,732;    0,318
231,729; 2481,913;   -2,450;   -2,318
232,328; 2587,334;   -0,723;   -1,500
232,927; 2647,714;    1,004;   -0,500
233,525; 2775,778;    3,640;    0,045
234,124; 2955,149;    2,368;   -1,591
234,723; 2972,974;    0,913;   -1,045
235,321; 3127,592;    2,277;    0,136
235,920; 3341,368;    1,186;   -1,227
236,518; 3578,259;    3,459;    0,318
237,117; 3750,202;    0,004;   -0,227
237,715; 3903,279;    0,640;   -0,500
238,314; 3935,000;   -0,087;   -2,318
238,912; 4035,576;   -0,723;   -1,409
239,510; 4085,573;    0,459;   -1,227
240,109; 4256,466;    0,004;    3,773
240,707; 4324,712;   -0,996;    1,227
241,305; 4639,112;    0,550;    0,136
241,904; 4840,021;   -0,178;   -2,045
242,502; 4798,387;   -0,632;   -0,227
243,100; 4772,186;   -0,087;   -0,955
243,698; 4993,717;    0,732;    1,682
244,297; 5194,218;   -0,632;    0,682
244,895; 5054,591;   -0,269;   -2,318
245,493; 5365,931;    2,186;   -0,591
246,091; 5395,261;    1,368;   -1,318
246,689; 5388,715;    1,004;    0,591
247,287; 5550,775;    0,822;   -1,136
247,885; 5853,336;   -1,451;    1,227
248,483; 5957,380;    1,822;   -0,500
249,081; 6057,684;    0,185;    1,591
249,679; 6199,257;   -0,178;    1,682
250,277; 6487,058;   -1,723;    0,864
250,875; 6470,096;   -1,087;   -1,045
251,473; 6490,324;   -1,178;    0,500
252,071; 6681,107;    1,459;    1,045
252,669; 6840,268;   -1,814;    0,318
253,267; 7113,931;   -0,087;    0,773
253,864; 7038,957;   -0,360;    0,682
254,462; 6937,152;    1,640;    1,591
255,060; 6919,693;   -0,269;    1,318
255,658; 7237,177;    0,822;   -0,136
256,255; 7630,501;    0,186;   -2,045
256,853; 7490,063;   -0,269;    1,409
257,451; 7471,293;    0,822;    1,864
258,048; 7749,290;    1,822;    1,864
258,646; 7534,060;    1,731;   -1,045
259,243; 7720,154;   -0,087;    2,227
259,841; 7771,420;   -0,814;    0,318
260,438; 7643,761;   -0,087;    0,864
261,036; 8357,522;   -1,905;    1,409
261,633; 8278,451;   -0,087;    2,227
262,231; 8011,750;    2,731;   -0,045
262,828; 8089,971;   -0,905;    1,136
263,425; 8138,470;    0,913;   -0,591
264,023; 8397,511;    0,186;    0,045
264,620; 7964,058;   -0,360;   -0,318
265,217; 8294,814;   -2,087;    3,136
265,815; 8433,137;   -1,905;    2,136
266,412; 8211,452;    0,731;    0,136
267,009; 8246,565;   -1,451;    0,773
267,606; 8159,969;    0,822;   -0,955
268,203; 8123,192;   -0,269;   -0,591
268,801; 8420,661;    1,731;    0,591
269,398; 8701,732;   -0,360;    2,500
269,995; 8649,244;    0,277;    1,591
270,592; 8458,793;   -0,632;   -0,500
271,189; 8657,217;    0,186;    0,409
271,786; 8763,047;   -0,632;    1,227
272,383; 8613,888;   -1,087;    0,227
272,980; 8788,264;    0,277;    0,318
273,577; 9269,330;    0,004;    1,227
274,174; 8833,818;    0,822;    2,591
274,771; 8811,540;   -0,814;   -0,773
275,367; 8943,965;    2,277;    1,409
275,964; 8882,490;    0,731;   -0,500
276,561; 9004,179;    1,549;   -1,045
277,158; 9205,348;    0,095;   -1,773
277,755; 9328,502;    2,185;    0,409
278,351; 8726,241;   -0,451;   -1,500
278,948; 9056,471;   -0,815;    0,045
279,545; 9096,583;   -1,360;    2,318
280,141; 9685,927;   -1,723;   -2,045
280,738; 9520,084;   -0,451;   -0,136
281,334; 9762,551;   -1,633;    0,591
281,931; 9179,364;   -0,087;   -1,318
282,528; 9315,572;    0,822;   -0,500
283,124;10025,697;   -1,087;   -0,500
283,721; 9892,997;   -0,451;    1,409
284,317; 9727,608;    0,185;    2,500
284,913;10258,423;   -1,360;    0,591
285,510;10426,150;    0,640;   -0,318
286,106;10456,018;   -2,269;   -0,955
286,703;10088,801;   -0,360;    1,955
287,299;10257,692;   -1,451;   -0,591
287,895;10496,998;    0,822;   -1,045
288,491;11073,278;    0,186;    2,136
289,088;10808,345;   -2,360;    2,409
289,684;10865,813;   -1,723;    1,500
290,280;10878,197;    0,368;    0,682
290,876;10941,845;    1,822;    5,500
291,472;10841,378;    1,276;    2,227
292,068;10935,020;    1,367;    0,227
292,665;10662,965;    2,095;    0,773
293,261;10300,764;    0,276;    2,136
293,857;10686,832;    2,913;    2,136
294,453;10667,552;    3,550;    0,955
295,049;10522,116;   -0,268;    1,955
295,644;10564,743;    0,095;    0,136
296,240;10442,881;   -0,905;   -0,136
296,836;10497,046;   -0,995;    0,318
297,432;10753,335;    1,096;   -0,500
298,028;10771,487;    0,732;    0,773
298,624;11212,685;    1,459;    1,864
299,220;11452,192;    2,368;    0,591
299,815;11126,990;    1,005;   -0,409
300,411;10929,116;    0,914;    1,773
301,007;10942,848;    1,368;    0,227
301,602;10983,290;   -0,541;   -2,318
302,198;11154,659;    0,732;   -0,773
302,794;11478,887;    1,187;   -0,500
303,389;11617,526;   -1,177;    1,045
303,985;11690,588;    0,550;    1,409
304,580;11634,795;    1,459;    1,591
305,176;11630,085;   -3,086;    0,136
305,771;11553,668;   -1,268;   -1,227
306,367;11375,734;    4,095;    0,136
306,962;11732,017;    0,641;    1,500
307,558;11431,410;   -0,450;    0,136
308,153;11363,722;    1,095;   -1,136
308,748;11599,232;   -0,814;    1,682
309,344;11570,128;   -0,632;   -1,318
309,939;11628,333;   -1,905;   -1,318
310,534;11919,640;   -0,086;   -1,682
311,130;11892,931;    0,459;   -2,500
311,725;11614,028;    1,004;   -0,500
312,320;11918,715;    2,459;    0,045
312,915;11753,459;    1,459;   -1,045
313,510;11826,605;    1,550;   -0,500
314,105;12337,670;    1,096;    1,409
314,700;11770,858;   -3,086;   -1,045
315,295;11392,886;   -0,904;    0,045
315,890;10956,743;    1,277;    0,864
316,485;11323,848;   -0,359;   -0,318
317,080;11461,655;   -3,086;    1,591
317,675;11964,170;    2,005;   -0,682
318,270;11357,754;    5,550;    3,318
318,865;11413,389;    3,278;    3,045
319,460;11251,623;   -0,904;    0,591
320,055;11484,806;   -0,541;   -1,227
320,650;11145,681;   -1,995;   -0,591
321,244;11225,719;   -0,177;   -1,409
321,839;12159,951;   -1,541;   -0,227
322,434;12006,533;   -1,086;   -1,591
323,029;11644,788;    1,732;    1,591
323,623;11445,960;    1,550;    0,773
324,218;11219,419;    2,368;    1,409
324,812;11116,978;    1,096;    1,591
325,407;10940,441;   -0,814;    2,045
326,002;10827,139;    0,277;   -0,409
326,596;11137,037;    0,914;    1,318
327,191;11344,499;    0,823;   -1,045
327,785;10893,674;   -0,813;   -0,227
328,379;11134,984;    1,368;    0,136
328,974;10940,560;    0,914;   -3,955
329,568;11156,646;    0,186;   -2,409
330,163;10986,366;    2,096;    1,045
330,757;11345,728;    2,459;    1,591
331,351;10670,387;    0,459;    0,682
331,945;11012,068;    0,914;    1,409
332,540;10625,842;   -1,723;   -0,591
333,134;10764,972;   -1,086;    0,773
333,728;10961,539;    0,005;    0,318
334,322;11321,558;   -1,177;   -0,864
334,916;10604,678;    0,277;    0,955
335,510;10948,779;   -0,450;   -0,136
336,105;11189,226;   -1,086;    1,591
336,699;10906,026;   -1,086;    0,591
337,293;10821,373;   -1,723;    0,318
337,887;10991,382;   -2,723;    1,955
338,481;11098,145;    0,459;    0,591
339,074;11230,131;   -0,359;    2,682
339,668;11094,460;   -1,632;    1,227
340,262;11330,822;    1,732;    3,227
340,856;10867,200;    1,822;   -0,682
341,450;10226,722;    1,004;    1,864
342,044;11096,645;    1,459;    0,136
342,637;10863,011;    0,913;   -2,136
343,231;10779,536;   -2,360;    0,682
343,825;10711,935;   -1,086;   -0,591
344,419;10677,800;   -1,995;    0,500
345,012;10462,278;    2,459;    4,045
345,606;10459,879;    4,641;    1,591
346,199;10330,536;   -1,813;   -0,227
346,793; 9846,774;    1,914;    2,045
347,386;10041,947;   -0,813;   -1,136
347,980;10071,704;   -0,268;   -0,045
348,573; 9890,752;    2,278;    0,409
349,167; 9541,344;    5,278;    4,773
349,760; 9882,194;    2,914;    2,682
350,354; 9858,279;   -0,813;    1,136
350,947; 9619,871;    1,096;    1,682
351,540; 9325,355;   -0,358;   -1,409
352,134; 9265,588;    1,096;    1,136
352,727; 9350,518;   -0,086;    1,136
353,320; 9130,714;    0,005;    0,591
353,913; 8995,113;   -1,995;    1,864
354,507; 9189,753;    0,823;   -1,227
355,100; 9175,294;    0,460;    0,864
355,693; 8421,537;    2,005;    2,409
356,286; 8469,042;    0,823;    2,773
356,879; 8840,559;   -0,722;    1,227
357,472; 8445,410;   -0,904;    1,500
358,065; 8643,822;   -0,722;    2,500
358,658; 8551,104;   -0,540;    2,318
359,251; 8219,742;   -1,631;   -0,591
359,844; 7715,638;   -1,904;   -1,136
360,437; 7859,083;   -2,995;    0,045
361,030; 8149,257;    1,369;   -0,682
361,623; 7750,448;    2,824;    0,318
362,215; 7794,759;   -0,086;    2,045
362,808; 7621,855;   -2,358;   -1,682
363,401; 7840,684;   -2,449;    0,136
363,994; 7590,283;   -0,631;   -1,500
364,586; 7495,563;    0,824;   -1,500
365,179; 7675,125;   -0,449;   -1,136
365,772; 7199,511;   -1,995;    2,045
366,364; 7498,527;    1,915;   -3,227
366,957; 7699,582;    2,279;   -0,045
367,549; 7686,876;    2,188;   -0,864
368,142; 7363,584;    1,825;   -1,500
368,734; 7551,848;    0,734;   -2,136
369,327; 7499,651;    1,643;   -0,500
369,919; 7427,867;   -1,538;    0,409
370,512; 7241,860;   -1,083;   -0,500
371,104; 7015,035;   -0,901;    1,591
371,696; 7156,895;    1,191;   -0,955
372,289; 7217,088;    0,373;    1,136
372,881; 7375,878;   -2,080;    1,318
373,473; 7301,987;   -2,170;    1,136
374,066; 7114,850;   -0,169;    0,500
374,658; 6953,036;    0,378;    1,136
375,250; 7313,411;    0,653;   -1,409
375,842; 7172,037;    0,473;   -0,045
376,434; 7056,672;   -0,435;   -0,409
377,026; 7614,282;    0,204;   -2,500
377,618; 7479,204;   -0,158;   -0,682
378,210; 7370,512;   -0,338;   -1,955
378,802; 7224,084;    0,754;   -0,591
379,394; 7159,376;    1,846;    0,682
379,986; 7743,359;    1,393;   -0,955
380,578; 7849,580;   -0,153;    0,773
381,170; 7181,504;   -0,972;    0,045
381,762; 7138,333;    0,755;    1,409
382,354; 7333,384;   -0,065;   -1,318
382,945; 7427,832;   -2,976;    0,318
383,537; 7572,266;   -2,705;   -1,955
384,129; 7609,483;   -2,160;   -1,136
384,721; 7782,861;   -0,252;    0,955
385,312; 7708,559;   -0,161;   -0,955
385,904; 7809,141;   -2,706;    1,591
386,496; 7212,933;   -0,979;    1,045
387,087; 7341,976;    1,022;    2,500
387,679; 7385,771;   -1,160;    0,045
388,270; 7494,844;    2,840;    2,045
388,862; 7610,796;    1,295;   -0,318
389,453; 7479,243;   -0,887;    1,045
390,045; 7766,576;   -0,705;   -2,682
390,636; 7699,433;    0,204;   -0,591
391,227; 7572,824;   -0,523;   -0,045
391,819; 7665,746;    0,204;    0,773
392,410; 7719,643;    1,022;    0,045
393,001; 7648,548;   -0,979;   -1,591
393,593; 7916,954;    1,930;   -0,045
394,184; 7753,458;    1,385;   -0,409
394,775; 7691,853;    1,839;    2,136
395,366; 7933,522;    1,385;    0,773
395,957; 7893,039;    0,113;    0,136
396,548; 8197,878;   -0,342;    2,682
397,139; 8497,846;   -2,433;    0,591
397,730; 8220,672;   -1,888;    0,955
398,321; 8294,690;   -1,252;    0,955
398,912; 8323,909;   -0,615;    0,136
399,503; 8383,393;   -3,524;   -1,409
400,094; 7857,072;    0,294;    1,682
400,685; 7715,172;   -0,433;    0,045
401,276; 7791,348;    0,930;   -0,955
401,867; 8084,726;   -0,888;    0,773
402,458; 8166,225;   -2,251;   -2,318
403,048; 8197,550;    1,112;    0,591
403,639; 7796,071;    0,840;    0,864
404,230; 8028,946;    2,476;    0,318
404,821; 7976,665;   -0,615;    0,045
405,411; 8103,528;    1,203;   -2,591
406,002; 7698,219;   -1,252;   -1,136
406,592; 7543,147;    2,294;    0,045
407,183; 7843,022;    0,566;   -1,500
407,774; 7772,617;    3,475;   -0,136
408,364; 8080,853;    0,930;    0,409
408,954; 7696,285;    0,384;    1,227
409,545; 7745,465;    1,021;    1,045
410,135; 7278,941;    1,293;    0,500
410,726; 7462,647;    1,838;    0,318
411,316; 7856,861;    0,111;    0,773
411,906; 7505,454;   -0,253;   -0,409
412,497; 6994,547;   -1,070;   -0,045
413,087; 7608,519;   -1,980;   -0,227
413,677; 8003,587;   -0,707;    3,864
414,267; 7794,735;    0,656;    1,409
414,857; 7812,467;   -2,980;    4,227
415,448; 8092,099;    0,839;    0,500
416,038; 7793,497;    0,020;   -0,591
416,628; 7777,221;   -0,889;    0,409
417,218; 7246,838;    0,565;    3,318
417,808; 7500,297;    0,202;   -0,409
418,398; 7952,510;    0,020;    2,682
418,988; 7953,665;    2,020;    0,591
419,578; 8199,561;   -0,707;    1,409
420,168; 8525,729;   -1,343;   -0,955
420,757; 8078,220;   -1,343;   -1,500
421,347; 7768,319;    0,111;   -0,227
421,937; 7928,347;    2,292;    1,409
422,527; 7890,266;    0,838;   -0,773
423,116; 7710,358;   -0,253;   -0,045
423,706; 8066,429;   -1,889;    0,318
424,296; 8015,518;    1,384;    0,682
424,885; 8402,791;   -0,071;   -3,045
425,475; 8661,530;    1,474;   -2,864
426,065; 8584,195;   -0,980;   -0,318
426,654; 8198,106;   -0,435;   -0,318
427,244; 8323,291;    0,020;    1,409
427,833; 7801,376;    1,383;   -0,500
428,423; 8297,704;   -0,526;    1,136
429,012; 9003,816;   -0,344;   -1,136
429,601; 8489,766;   -1,344;    0,136
430,191; 8748,686;    1,292;    4,318
430,780; 8385,129;   -0,344;   -0,409
431,369; 8296,585;    0,746;   -0,045
431,959; 8937,802;   -1,254;    0,500
432,548; 8706,107;   -1,163;   -0,045
433,137; 8820,389;   -1,254;   -1,318
433,726; 9340,655;    0,292;    0,500
434,315; 8737,541;   -0,526;    2,409
434,905; 8800,875;   -1,254;    1,409
435,494; 8696,345;    0,746;    0,955
436,083; 9174,537;   -0,981;   -0,955
436,672; 9039,183;    0,110;    0,500
437,261; 8617,897;    0,292;   -1,955
437,850; 8688,495;    1,383;    0,682
438,439; 8678,039;    3,291;    1,955
439,027; 8504,591;    3,655;    1,773
439,616; 8831,546;    2,927;    1,227
440,205; 8692,410;    0,200;   -2,136
440,794; 8756,550;    2,109;   -0,045
441,383; 8991,812;   -1,346;   -0,591
441,971; 8878,445;   -2,436;    0,591
442,560; 8715,222;    0,563;   -1,773
443,149; 8457,382;    0,379;   -1,318
443,737; 8611,766;   -0,074;   -2,318
444,326; 8836,042;    0,018;    0,318
444,915; 8879,705;   -1,982;    0,864
445,503; 9265,333;   -2,891;   -0,318
446,092; 8585,885;    0,382;    2,136
446,680; 9082,805;    0,382;    0,318
447,269; 9219,873;   -0,346;   -0,318
447,857; 8982,798;    0,018;   -1,773
448,445; 9119,379;    0,563;    1,318
449,034; 9322,496;   -1,528;   -1,136
449,622; 9447,406;   -1,073;    3,500
450,210; 8719,348;    2,017;    2,227
450,799; 9206,808;    0,290;   -0,591
451,387; 9170,482;    1,381;   -0,591
451,975; 8814,837;    2,654;    0,864
452,563; 8903,065;    3,472;    2,318
453,151; 8927,178;   -0,528;   -1,227
453,739; 8834,544;   -1,347;    0,136
454,328; 8689,048;    2,381;   -2,136
454,916; 8439,091;    2,562;   -0,136
455,504; 8608,747;    1,017;    1,227
456,092; 8772,767;    0,017;   -1,591
456,679; 8776,102;    1,472;    0,682
457,267; 8684,663;    4,017;    1,045
457,855; 8845,915;    1,017;    1,409
458,443; 8610,752;   -0,165;    1,682
459,031; 8730,195;    0,108;    2,409
459,619; 9148,881;   -1,801;    2,864
460,206; 9271,101;    0,835;    2,045
460,794; 9382,597;   -2,983;   -0,227
461,382; 9592,015;   -0,529;   -0,864
461,970; 9171,408;    1,198;    1,864
462,557; 9211,437;   -0,711;   -0,682
463,145; 9371,489;   -3,165;   -1,682
463,732; 9511,696;    2,016;   -1,045
464,320; 9434,745;   -0,075;   -3,045
464,907; 9104,616;    2,743;   -0,773
465,495; 8995,896;    0,743;   -1,227
466,082; 9120,955;   -1,984;   -0,045
466,670; 9079,594;   -2,529;    1,227
467,257; 9470,057;   -1,711;    2,045
467,844; 9631,004;   -0,075;    0,045
468,432; 9638,037;    0,834;    3,500
469,019; 9169,847;    0,925;   -1,773
469,606; 9596,349;    0,470;    3,682
470,193; 9415,256;   -1,439;    0,227
470,780; 8995,930;   -2,075;    0,864
471,368; 9365,793;   -1,257;   -0,773
471,955; 9149,786;    1,379;   -0,682
472,542; 8777,564;    0,652;   -1,136
473,129; 8989,032;   -0,166;    0,136
473,716; 8761,451;    1,470;    0,591
474,303; 8946,634;    0,652;   -0,864
474,890; 9219,338;   -1,439;   -0,500
475,477; 9215,227;   -1,621;    0,409
476,064; 9134,613;    1,106;   -1,591
476,650; 9040,229;    0,288;    0,318
477,237; 8871,775;   -0,258;    0,955
477,824; 9017,992;   -1,076;    0,864
478,411; 9039,534;   -1,894;   -0,318
478,997; 9213,097;    0,560;   -0,773
479,584; 9240,272;    1,196;   -0,409
480,171; 9894,899;   -0,440;   -0,773
480,757; 9567,951;    2,651;    0,773
481,344; 9849,325;    0,469;    0,409
481,931; 9349,085;    1,105;    1,045
482,517;10228,422;   -1,258;    0,318
483,104;10706,060;    1,106;    2,864
483,690;10958,335;   -1,804;    0,045
484,276;11295,837;   -0,895;    0,227
484,863;11088,191;    2,469;    1,136
485,449;11641,033;   -0,077;    0,318
486,035;11598,249;   -1,986;   -0,136
486,622;12001,505;   -0,895;    0,045
487,208;11966,940;    1,378;    1,500
487,794;11843,622;    0,741;    0,318
488,380;11939,537;    0,105;   -1,409
488,967;11994,931;   -1,168;   -0,409
489,553;12042,040;   -1,895;   -1,409
490,139;12284,829;    1,559;    0,773
490,725;11776,197;    0,741;   -0,227
491,311;11381,799;    3,287;    3,045
491,897;10796,710;   -0,986;    1,500
492,483;10641,474;    0,105;    1,227
493,069;10452,956;    3,923;    0,864
493,655;10445,092;    1,650;    0,682
494,241;10360,330;    1,377;   -0,955
494,826;10747,403;    0,287;   -1,045
495,412;10248,434;    2,559;   -0,682
495,998;10441,292;   -0,805;   -0,318
496,584;10586,130;    0,377;    1,045
497,169;10592,108;    1,014;   -0,682
497,755;10601,106;    0,650;    1,227
498,341;11165,835;    0,559;    0,318
498,926;10752,999;    1,832;    1,955
499,512;10996,455;    1,286;    2,955
500,097;11136,155;    0,195;   -0,318
500,683;11126,601;   -0,350;    2,136
501,268;11502,087;   -0,169;   -0,955
501,854;11262,611;   -0,169;    1,227
502,439;11230,815;   -0,624;   -1,773
503,024;11430,769;    0,195;    0,500
503,610;11558,615;   -0,078;   -0,682
504,195;11571,927;    0,558;    1,955
504,780;11730,727;    2,922;    1,227
505,366;11568,813;    3,013;    2,864
505,951;11344,622;    0,740;    1,045
506,536;11389,830;   -3,260;   -3,682
507,121;11410,033;    0,285;   -0,318
507,706;11939,490;    2,376;    1,045
508,291;12353,714;    2,649;    1,136
508,876;11835,879;   -0,988;    2,591
509,461;11336,771;   -0,169;   -0,773
510,046;11781,435;    0,194;    0,318
510,631;12025,058;   -0,351;   -0,773
511,216;11694,675;    2,467;   -0,500
511,801;12082,529;   -0,442;    2,591
512,386;12398,216;    0,740;    0,500
512,971;12376,601;   -2,988;    0,955
513,555;11938,374;   -0,897;   -1,500
514,140;12735,501;   -0,442;   -3,136
514,725;12756,314;   -0,715;   -1,136
515,309;12887,854;   -0,533;    0,318
515,894;12347,459;   -0,624;   -2,227
516,479;12796,467;   -0,624;   -0,955
517,063;12664,097;    0,376;    1,227
517,648;12821,100;    1,012;   -1,136
518,232;12452,441;   -0,261;   -1,409
518,817;12792,685;   -0,079;    1,682
519,401;13014,104;    2,194;    0,591
519,985;12553,644;    1,103;    1,136
520,570;12439,688;    0,830;   -1,955
521,154;12730,123;    2,102;    0,591
521,738;12890,327;   -2,352;    2,409
522,323;13459,028;   -0,170;    1,682
522,907;13189,385;    0,466;   -0,136
523,491;12930,296;    0,557;    0,955
524,075;12931,267;    2,284;    0,591
524,659;13018,375;    1,466;    0,591
525,243;12492,682;    1,739;    0,409
525,827;12759,601;    0,648;   -0,045
526,411;13581,830;   -1,989;   -0,136
526,995;13778,807;   -0,352;    1,409
527,579;13371,200;   -0,443;   -1,045
528,163;13692,152;    0,375;   -1,500
528,747;13615,785;    2,466;   -0,773
529,331;13897,266;   -0,080;   -1,409
529,915;14105,548;    1,738;    0,955
530,499;14065,245;   -0,807;    1,227
531,082;13766,744;   -0,534;    1,591
531,666;13246,203;    1,374;    0,773
532,250;13911,483;    1,284;    2,682
532,833;14225,896;    0,920;    2,773
533,417;14117,019;   -1,807;    0,864
534,001;14050,337;    1,647;   -0,318
534,584;14725,748;    0,374;    0,500
535,168;14597,019;    0,465;    1,409
535,751;14641,871;    0,647;    0,045
536,334;14092,696;   -0,898;   -0,409
536,918;14704,270;    0,011;    1,591
537,501;14820,735;   -0,899;    1,318
538,085;14807,741;   -0,444;    1,045
538,668;14974,803;    0,829;    2,409
539,251;15248,592;    1,829;    3,773
539,834;15292,498;    0,101;    0,773
540,418;15220,732;   -1,990;    4,318
541,001;15358,332;   -0,990;    1,773
541,584;15303,156;    2,101;    2,227
542,167;14982,675;    1,374;    2,955
542,750;15160,258;    1,919;   -0,773
543,333;14736,526;    0,555;    2,136
543,916;15520,357;    0,192;    2,500
544,499;16120,335;   -1,354;    0,227
545,082;16096,306;    1,374;    3,591
545,665;16248,785;    1,919;    1,500
546,248;16583,799;    1,010;   -0,318
546,830;16235,310;   -0,445;    1,955
547,413;16673,024;    1,010;   -0,773
547,996;17181,731;    0,555;    0,500
548,579;16981,805;    0,919;    0,955
549,161;16759,868;    1,828;    2,682
549,744;16584,032;   -0,809;    0,409
550,326;17049,215;   -0,809;   -1,136
550,909;16829,014;    2,737;    0,591
551,492;17270,211;   -0,263;    0,227
552,074;17036,051;   -0,173;   -1,318
552,657;17591,839;    2,373;    0,045
553,239;17338,207;   -0,173;   -0,773
553,821;17251,464;   -1,082;    1,045
554,404;16765,081;    1,282;    1,136
554,986;17096,999;    0,464;    1,045
555,568;17744,912;    1,191;   -0,955
556,151;16956,338;    1,191;   -0,227
556,733;17123,995;   -0,264;   -0,864
557,315;17619,475;    0,100;    0,500
557,897;17420,078;    0,554;   -0,500
558,479;17541,473;   -1,991;    1,318
559,061;17651,679;   -0,719;   -0,864
559,643;17994,092;   -0,264;    0,045
560,225;18357,702;    1,645;    2,864
560,807;18377,819;    0,918;    0,318
561,389;17868,157;    0,554;    2,318
561,971;18618,277;    0,463;    2,136
562,553;18412,074;   -1,628;    1,591
563,135;18560,102;   -0,537;    1,136
563,717;18149,343;    3,372;    1,136
564,298;18820,109;    3,645;   -0,045
564,880;18572,294;    0,645;   -1,409
565,462;18737,839;    0,645;    1,318
566,043;19870,389;   -0,446;    2,318
566,625;19374,843;    1,918;    1,227
567,207;19234,403;    1,099;    1,682
567,788;20291,134;   -1,264;    1,500
568,370;21128,396;    1,917;   -0,500
568,951;20915,836;    0,190;    0,227
569,533;21808,225;   -0,628;   -0,500
570,114;22248,427;   -0,446;    0,682
570,695;22710,458;   -0,174;   -1,318
571,277;23185,467;   -0,265;   -1,682
571,858;23840,853;    2,008;   -1,136
572,439;24796,631;    1,554;   -1,045
573,021;24896,521;    2,099;   -2,773
573,602;25359,784;   -1,265;    0,318
574,183;26244,036;   -2,083;    2,227
574,764;26349,094;   -1,629;    0,409
575,345;26912,557;    0,917;   -0,136
575,926;27501,719;   -0,356;    0,136
576,507;27464,874;    1,099;   -0,227
577,088;28580,389;    3,099;    1,682
577,669;28512,282;    0,735;    1,955
578,250;29214,945;    0,644;   -1,045
578,831;29853,214;   -1,356;   -2,227
579,412;30079,071;   -0,810;    0,955
579,993;31042,679;    1,008;    0,227
580,573;31345,529;   -0,629;   -0,955
581,154;30324,404;    0,735;   -0,591
581,735;31212,705;    0,644;    0,773
582,315;30664,614;   -0,629;    2,136
582,896;30994,276;   -0,174;    1,227
583,477;30529,295;    0,189;    1,227
584,057;30699,376;    0,553;    0,955
584,638;30938,861;    2,553;    2,318
585,218;30968,829;   -0,538;    2,682
585,799;31134,944;    0,281;   -0,227
586,379;31110,934;    0,372;    1,591
586,959;29933,188;    0,735;    0,318
587,540;29350,029;   -0,629;    2,227
588,120;28920,172;    1,007;   -0,045
588,700;27895,548;    2,553;    2,136
589,281;28174,559;    0,462;   -0,955
589,861;28135,867;    0,099;   -1,682
590,441;27947,197;    2,371;   -2,682
591,021;26966,860;   -0,265;   -2,591
591,601;27173,505;   -0,537;    0,500
592,181;27196,987;   -0,719;   -0,773
592,761;26535,554;    0,007;    1,409
593,341;26457,157;   -0,901;    0,045
593,921;26461,722;   -0,265;    1,591
594,501;26344,673;   -0,538;    1,318
595,081;26236,478;    0,917;   -0,318
595,661;26518,820;   -1,447;    0,955
596,240;27034,262;   -0,537;    0,136
596,820;26651,369;    0,372;    1,955
597,400;26793,393;    2,008;    0,773
597,980;27029,105;    2,008;    1,045
598,559;27096,936;    2,735;   -0,227
599,139;26809,396;   -0,174;   -1,227
599,718;26709,214;   -0,174;   -0,409
600,298;26966,331;    0,735;    0,682
600,877;27185,289;    2,917;    1,409
601,457;27489,941;    2,281;    1,136
602,036;27342,504;    0,190;    2,045
602,616;27590,650;    0,644;    1,682
603,195;27908,122;   -0,355;    3,500
603,774;27414,551;   -0,901;    2,045
604,354;27332,613;    0,826;   -0,500
604,933;26843,411;    0,463;    1,864
605,512;26947,948;    3,554;    0,591
606,091;27055,086;   -0,537;    3,773
606,671;27828,002;    0,281;    0,773
607,250;26912,004;    1,644;    3,136
607,829;27180,259;    2,372;    3,227
608,408;27042,781;    1,190;    2,591
608,987;26083,030;    1,281;    3,409
609,566;26338,820;   -1,265;   -2,500
610,145;26467,911;   -1,082;    0,682
610,723;26888,581;    4,372;    6,864
611,302;26200,023;   -0,446;    1,682
611,881;25696,302;    5,008;   11,227
612,460;26536,273;    1,645;    3,955
613,039;26970,288;   -0,082;    2,045
613,617;25725,474;    1,736;    4,773
614,196;25956,213;    1,099;    1,227
614,775;26202,893;    1,009;    2,409
615,353;26161,853;    0,736;    0,864
615,932;25903,007;    0,100;    2,409
616,510;26459,983;    0,554;    0,591
617,089;26009,433;    7,100;   17,591
617,667;25776,826;    2,372;    6,136
618,246;25657,483;   -1,537;    1,318
618,824;25827,001;   -3,355;   -0,955
619,402;25412,820;   -2,900;   -1,773
619,981;25883,719;   -0,173;   -1,045
620,559;25718,045;    0,009;    1,682
621,137;25266,656;   -0,718;    1,864
621,715;25291,053;   -1,173;   -0,682
622,293;25207,534;   -0,537;   -0,773
622,871;25663,748;   -0,718;    0,500
623,450;25282,820;    0,373;   -0,864
624,028;25131,893;    0,191;   -0,955
624,606;24738,643;   -1,718;    1,682
625,183;25217,601;   -1,536;   -1,136
625,761;24802,146;    1,009;    1,136
626,339;25141,798;    1,373;    2,591
626,917;25470,766;   -0,172;   -0,045
627,495;25549,799;   -0,354;    1,318
628,073;25053,454;   -0,263;    2,864
628,650;24704,897;    0,100;    2,136
629,228;25089,484;    0,373;    4,409
629,806;24531,444;    2,282;    1,136
630,383;24804,400;    1,464;   -0,318
630,961;24592,292;    2,555;   -0,955
631,539;24342,095;    2,464;    0,227
632,116;23621,201;   11,373;   15,409
632,694;24229,947;    2,555;    6,500
633,271;24543,225;    0,828;    2,682
633,848;24464,963;    1,828;    2,045
634,426;24529,732;   -1,081;    1,773
635,003;23661,491;    1,101;   -0,409
635,580;23939,306;    1,192;    3,682
636,158;24521,298;    3,737;    1,227
636,735;24571,710;    0,555;   -0,500
637,312;24656,846;   -0,809;   -0,682
637,889;24701,152;   -4,354;   -0,682
638,466;24199,574;   -3,990;   -0,409
639,043;24215,946;    2,101;   -1,136
639,620;24530,278;   -2,262;   -0,955
640,197;24842,419;    1,100;    1,682
640,774;24990,648;   -0,172;    1,136
641,351;25400,513;    0,737;    1,136
641,928;24819,469;   -0,627;    1,409
642,505;24472,971;    0,828;   -0,500
643,082;24626,291;   -1,718;    1,227
643,658;23670,247;   -0,718;    1,500
644,235;24416,749;    1,191;    2,500
644,812;24675,705;    1,918;    0,773
645,388;24394,298;   -0,991;    1,409
645,965;24498,436;   -0,809;    1,682
646,542;24570,392;   -1,445;   -0,227
647,118;24487,712;    1,009;   -0,955
647,695;24828,577;   -0,263;    1,136
648,271;24729,897;   -0,536;    0,500
648,848;25090,672;    0,736;    2,227
649,424;24919,628;    0,827;    1,318
650,000;24679,675;   -0,354;   -1,045
650,577;24457,722;   -0,627;   -0,955
651,153;24929,315;   -1,809;    0,955
651,729;25916,362;    1,191;    0,864
652,305;26004,591;    0,645;    2,773
652,881;29989,638;   -0,082;    1,136
653,458;36534,867;    1,100;    0,227
654,034;40351,824;    0,282;    1,591
654,610;41873,235;    0,554;    0,773
655,186;43224,009;    0,645;    3,045
655,762;42893,511;   -0,991;    0,409
656,338;42892,285;    0,100;    0,136
656,913;43849,787;   -0,082;    0,409
657,489;43159,380;    0,827;   -0,318
658,065;43174,063;   -0,173;   -1,591
658,641;43837,838;   -0,900;   -0,864
659,217;43186,157;   -0,991;    0,409
659,792;42543,386;    0,645;   -0,409
660,368;42811,797;   -2,173;   -0,682
660,944;42534,026;   -2,082;    1,227
661,519;38428,892;   -0,628;    0,409
662,095;32868,302;   -1,719;    0,591
662,670;28147,804;    1,281;   -0,136
663,246;26961,942;    1,009;   -0,409
663,821;26196,989;    0,281;    1,682
664,396;25652,491;    0,009;    1,864
664,972;25958,447;    0,009;   -0,500
665,547;26241,313;    1,372;    0,136
666,122;26281,724;   -1,082;    0,318
666,698;26551,498;   -0,173;    0,318
667,273;25919,818;   -0,173;    0,136
667,848;26725,774;    2,372;    1,500
668,423;26457,731;    2,190;    2,318
668,998;27081,778;    2,827;   -0,682
669,573;27553,734;   -3,264;   -1,500
670,148;27386,327;   -1,446;   -0,682
670,723;27195,192;   -1,810;    0,318
671,298;27613,512;    2,372;    1,045
671,873;27750,377;   -0,082;   -0,136
672,448;27701,334;    0,645;    0,136
673,023;28020,653;   -1,992;   -0,227
673,597;28321,428;    0,827;    2,318
674,172;28135,748;   -0,355;    0,318
674,747;27653,340;    0,372;   -1,045
675,321;27509,479;   -0,628;    3,318
675,896;27059,344;    0,645;    1,045
676,471;28035,300;    2,645;    1,591
677,045;27809,984;   -1,264;    0,682
677,620;27865,395;    0,190;    1,136
678,194;28240,078;   -2,628;    1,136
678,769;27725,762;   -1,083;   -0,318
679,343;27906,718;   -0,628;    1,773
679,917;27798,947;   -1,446;    1,955
680,492;27943,358;    0,826;    3,227
681,066;28058,587;    3,372;    0,409
681,640;28082,452;    1,463;   -0,318
682,214;28852,045;    0,735;    0,500
682,788;28381,274;   -1,356;   -0,773
683,363;28392,139;   -1,810;    1,682
683,937;28104,095;   -1,719;   -0,318
684,511;28858,233;    0,463;   -0,591
685,085;28523,190;   -1,356;    0,318
685,659;28285,782;   -2,538;    0,864
686,232;28517,739;   -0,356;   -0,318
686,806;28268,695;   -0,901;    0,409
687,380;28907,197;   -0,174;    0,591
687,954;29130,880;   -1,174;    1,136
688,528;28871,109;   -0,719;    1,955
689,101;29589,793;   -3,992;    1,045
689,675;29227,113;   -0,356;   -0,136
690,249;28583,978;   -0,719;    0,409
690,822;28846,207;    0,280;    0,318
691,396;29017,072;   -0,265;    1,227
691,969;28396,210;    1,280;    0,136
692,543;28876,985;   -0,447;   -1,955
693,116;28565,396;   -0,265;   -1,409
693,690;28462,443;    0,099;    0,500
694,263;28950,217;   -1,083;    2,955
694,836;29017,174;    1,371;    3,591
695,410;27682,584;   -0,265;    1,773
695,983;28158,086;    0,189;    0,591
696,556;28100,315;   -0,447;   -1,045
697,129;28554,090;   -0,356;    1,409
697,703;28121,864;   -1,629;    1,955
698,276;28135,820;    1,462;   -0,773
698,849;27953,686;    1,280;    1,409
699,422;28294,642;   -1,083;    0,591
699,995;28032,598;    0,007;    0,136
700,568;28500,373;   -0,629;    3,045
701,140;28493,784;   -2,811;    1,682
701,713;28259,467;   -0,174;    2,409
702,286;28029,151;   -0,538;    0,864
702,859;27891,925;   -0,902;   -0,591
703,432;27041,336;    0,825;    0,682
704,004;27614,110;    0,462;    0,318
704,577;27471,703;   -0,629;    0,136
705,150;28017,477;    0,189;    2,500
705,722;27796,797;   -0,356;   -3,227
706,295;27563,663;   -0,175;   -0,591
706,867;27385,437;   -0,175;    1,955
707,440;27633,303;   -1,720;   -0,409
708,012;27925,622;    0,462;    0,591
708,584;27770,397;    2,462;    0,227
709,157;28104,353;    1,825;   -0,591
709,729;27766,946;    2,280;    2,045
710,301;28684,448;    0,734;    0,045
710,874;28590,131;   -1,447;   -0,227
711,446;27553,815;    0,371;    0,864
712,018;27424,589;    0,098;    0,500
712,590;27134,091;   -1,993;    1,682
713,162;27645,683;    0,825;    1,318
713,734;27845,276;    1,825;   -2,045
714,306;27817,323;   -1,902;   -0,409
714,878;26537,916;    0,825;    0,864
715,450;27302,599;    0,643;    0,864
716,022;27585,465;    1,552;    1,318
716,593;27764,876;    0,189;    0,591
717,165;27702,559;   -3,175;   -1,227
717,737;27411,243;    0,280;    0,409
718,309;27053,472;    0,280;   -0,045
718,880;27006,882;   -0,539;   -1,409
719,452;27238,657;   -0,175;   -1,591
720,024;26818,886;    0,734;   -0,591
720,595;27333,569;   -2,902;    0,955
721,167;26911,435;    0,370;   -2,045
721,738;26469,573;   -0,812;   -1,045
722,309;26383,711;   -0,993;   -1,227
722,881;26159,576;   -1,357;    0,773
723,452;26828,715;   -2,630;    2,864
724,023;27059,398;   -0,721;    2,682
724,595;26811,263;    0,007;    0,682
725,166;26526,492;    0,007;   -0,409
725,737;26197,630;    1,734;    0,227
726,308;26267,314;   -0,266;    0,318
726,879;26669,725;   -1,630;    1,227
727,450;26558,499;    0,552;   -0,045
728,021;26527,001;    3,097;    0,682
728,592;26360,048;    0,734;    0,500
729,163;26665,823;    0,643;   -0,136
729,734;26692,688;    0,188;   -0,227
730,305;27019,462;    1,734;    0,136
730,876;27336,146;    0,188;    2,955
731,447;27011,102;    2,188;    2,682
732,017;27111,059;    1,097;    1,864
732,588;26652,742;    0,734;    1,227
733,159;26852,607;    0,643;   -1,045
733,729;26671,382;    0,006;    0,409
734,300;25939,975;    0,915;    0,864
734,870;26357,204;    3,461;    0,591
735,441;26951,614;    0,370;   -0,591
736,011;26713,116;    0,643;   -1,591
736,582;26649,345;   -0,812;    0,045
737,152;26133,210;   -1,721;   -2,045
737,722;26517,894;   -0,267;   -0,682
738,293;26300,850;   -1,358;    1,318
738,863;26140,079;    2,461;    2,318
739,433;25954,490;    5,279;    0,318
740,003;26623,992;   -0,994;   -0,682
740,573;25985,766;    2,097;   -1,591
741,143;25996,813;   -1,085;    0,318
741,713;26700,133;    1,188;   -0,500
742,283;26443,817;    0,915;    1,591
742,853;26237,955;    1,915;    1,591
743,423;25716,366;    1,733;    0,045
743,993;25839,049;   -0,358;    1,500
744,563;25221,006;    0,097;   -0,864
745,133;25173,962;   -0,812;   -0,864
745,702;25852,918;   -0,267;    1,773
746,272;25028,784;   -0,176;    0,591
746,842;24861,831;   -1,358;   -0,591
747,411;25342,969;   -0,267;   -0,318
747,981;25522,925;    0,097;    0,500
748,551;25579,063;    2,278;   -1,045
749,120;25342,383;    0,642;   -0,227
749,690;25659,976;   -0,631;    2,409
750,259;26037,659;    1,369;    2,955
750,828;25943,616;    1,551;   -1,955
751,398;26257,208;    1,278;   -0,045
751,967;25765,710;    2,187;    0,409
752,536;25987,666;   -0,813;   -0,227
753,105;26423,259;    0,096;    0,227
753,675;26209,033;    0,096;    1,773
754,244;26138,626;   -0,904;    3,591
754,813;26143,673;    0,551;    1,227
755,382;25738,357;    0,460;    0,955
755,951;26289,040;    1,551;    3,682
756,520;25792,815;   -0,085;    1,864
757,089;26369,044;    0,278;    0,500
757,658;26488,545;    1,733;    1,227
758,227;26510,138;    1,096;    0,318
758,795;26824,367;    1,187;    1,136
759,364;27032,960;   -0,086;   -0,591
759,933;26054,189;   -1,176;   -0,045
760,501;25562,872;    0,733;   -1,318
761,070;26049,647;   -2,813;   -1,409
761,639;26765,239;   -1,904;    1,318
762,207;26085,196;    1,551;   -0,955
762,776;26002,788;    0,369;    0,864
763,344;25986,563;   -0,995;    0,591
763,913;25104,155;   -0,722;    1,409
764,481;25824,657;    1,005;   -0,136
765,049;25640,522;   -1,358;    1,409
765,618;25517,660;   -0,086;    0,318
766,186;25670,253;    0,278;    0,136
766,754;25848,028;    0,005;    1,864
767,322;24785,257;   -1,995;    0,409
767,890;24873,031;   -0,722;   -1,773
768,459;25248,533;   -2,177;   -0,318
769,027;25387,944;    1,641;    3,409
769,595;24399,354;    3,278;    2,591
770,163;24854,583;    3,823;    2,955
770,730;24605,085;    0,732;   -0,136
771,298;24480,496;    0,187;   -1,409
771,866;24603,998;   -1,541;    4,955
772,434;24936,681;   -0,631;   -1,864
773,002;25069,092;    0,005;    0,682
773,569;24711,503;    0,914;    1,682
774,137;24518,459;   -0,268;   -0,045
774,705;25302,597;    0,278;   -0,136
775,272;24809,644;    0,641;    0,682
775,840;24583,873;   -0,177;    2,682
776,407;24146,557;    0,277;    1,955
776,975;23772,240;   -0,632;    0,318
777,542;24762,924;   -1,086;   -0,045
778,110;24583,244;   -1,268;   -0,045
778,677;24241,200;   -2,359;   -0,864
779,244;23996,247;    2,186;    1,045
779,812;24088,476;    1,823;    0,864
780,379;23966,978;    0,005;    1,136
780,946;24247,843;    1,005;   -0,773
781,513;24561,891;   -1,450;    0,318
782,080;23899,301;   -0,086;    2,864
782,647;24665,530;   -0,268;    3,045
783,214;24243,487;   -0,177;    3,864
783,781;23896,807;   -0,723;   -0,682
784,348;23781,217;   -0,632;    1,500
784,915;24246,446;   -3,177;    0,318
785,482;23993,494;    1,368;    2,591
786,049;24412,268;    0,186;   -0,591
786,615;24531,224;    0,277;   -0,955
787,182;24292,726;    0,186;   -0,682
787,749;24028,228;   -2,814;    1,409
788,315;23332,730;   -1,632;   -0,409
788,882;23595,504;    1,550;   -1,227
789,448;24224,824;    1,732;   -0,955
790,015;24290,780;    1,095;    3,227
790,581;23866,646;    1,459;    0,227
791,148;23814,420;    0,641;    1,045
791,714;23987,104;   -0,541;    3,136
792,280;23673,696;    0,186;    1,591
792,847;23251,107;    0,550;    2,500
793,413;23808,791;   -0,269;   -0,318
793,979;23336,110;    3,459;   -1,318
794,545;23433,339;    4,459;    2,682
795,111;22814,568;    2,186;    1,318
795,678;23013,161;    0,731;   -1,682
796,244;22603,299;    3,368;    0,136
796,810;23207,346;    1,731;    0,773
797,375;22909,666;    0,549;   -2,136
797,941;22927,532;   -0,541;    0,591
798,507;23120,761;   -0,451;   -0,955
799,073;22675,808;   -0,360;    0,591
799,639;22737,946;   -2,632;    3,136
800,205;22794,811;    0,095;    2,682
800,770;22351,858;    0,640;    1,773
801,336;22429,360;    1,368;   -0,955
801,901;22095,135;    4,549;    3,136
802,467;22655,455;   -0,542;    2,045
803,033;22029,956;   -0,087;    0,864
803,598;22246,185;    1,913;   -1,045
804,163;22246,778;    1,095;   -0,318
804,729;22235,280;   -0,178;    1,136
805,294;22623,145;    0,822;    2,227
805,859;22411,283;    0,731;   -0,409
806,425;21877,876;    1,186;    2,682
806,990;21555,014;    2,186;    4,318
807,555;22022,243;   -1,451;    2,591
808,120;21904,108;    0,822;   -0,409
808,685;21955,155;    0,185;   -2,500
809,250;21464,293;    0,004;   -0,500
809,815;21851,250;    1,913;    0,682
810,380;22318,115;   -0,269;    1,591
810,945;22859,708;   -1,087;    2,045
811,510;22021,391;    2,094;    1,591
812,075;21755,529;   -0,633;   -1,409
812,640;21767,213;    2,003;    1,409
813,204;21804,896;    0,822;   -0,227
813,769;22305,489;    2,094;   -0,045
814,334;21743,445;    0,458;    0,864
814,898;21819,493;    0,367;    0,591
815,463;21647,903;    1,276;   -0,773
816,027;21639,041;   -0,724;   -2,318
816,592;21750,452;    0,640;   -2,045
817,156;21268,227;    2,094;    1,136
817,721;21076,819;    4,276;    2,318
818,285;21069,230;    2,912;    1,500
818,849;21736,732;   -1,451;    1,682
819,414;21647,870;   -0,269;    2,955
819,978;21256,554;   -1,269;    1,773
820,542;21782,419;    2,003;    0,500
821,106;21509,648;   -0,815;    0,682
821,670;21604,150;   -0,815;    2,591
822,234;21335,651;   -0,270;    1,409
822,798;20666,153;    0,003;    0,500
823,362;20685,291;   -0,633;    4,227
823,926;20002,247;    0,094;    1,136
824,490;20222,658;   -0,997;   -0,682
825,054;20671,705;   -0,088;   -1,136
825,618;20283,207;   -1,542;   -1,500
826,181;20234,618;    0,458;   -1,318
826,745;20137,120;    1,367;   -1,045
827,309;20456,894;    1,185;    1,318
827,872;19856,032;    1,367;    0,955
828,436;20895,898;    1,185;   -0,773
828,999;20898,581;   -0,997;    1,227
829,563;19708,537;   -0,179;    1,136
830,126;19531,494;   -0,179;   -0,591
830,690;19561,905;   -1,997;    2,864
831,253;19094,679;   -0,543;    2,227
831,816;19235,726;   -1,906;    0,500
832,380;19155,955;    0,185;    0,864
832,943;19375,093;   -1,361;   -0,500
833,506;18883,868;    2,639;   -1,227
834,069;19651,460;    3,912;   -0,955
834,632;19713,780;    1,730;    1,318
835,195;19607,282;    1,003;    0,955
835,758;18832,056;   -0,997;    1,955
836,321;18677,649;    0,730;   -1,045
836,884;18732,878;   -0,725;   -0,955
837,447;18803,107;   -2,816;    1,773
838,010;19083,063;    0,366;    3,227
838,573;19345,838;   -1,179;    0,773
839,135;19313,521;   -1,361;   -0,955
839,698;18803,205;    1,275;    0,409
840,261;18324,707;    1,003;   -0,227
840,823;18214,845;   -0,543;    0,864
841,386;18476,165;   -0,452;   -2,409
841,948;18323,030;   -1,361;    1,773
842,511;18105,259;    0,912;    1,682
843,073;18193,397;    1,912;    0,227
843,636;18010,626;   -0,361;   -0,227
844,198;17917,946;    0,911;    0,591
844,760;18038,448;    1,093;    1,955
845,322;17741,949;    0,548;    1,136
845,885;18157,906;    0,730;    0,591
846,447;18584,317;   -1,998;    0,227
847,009;18142,818;    1,911;   -0,682
847,571;18475,865;    0,820;   -2,045
848,133;18560,367;   -1,089;   -1,864
848,695;18417,051;   -0,543;    1,409
849,257;17957,462;   -1,089;   -1,682
849,819;18120,691;   -0,998;   -0,409
850,381;18195,829;   -0,725;   -0,864
850,942;18573,694;    1,093;   -0,591
851,504;18498,650;    1,184;    0,227
852,066;18516,152;    1,275;   -1,591
852,628;18066,381;   -0,180;    1,955
853,189;17637,792;    1,638;    2,682
853,751;17747,112;   -0,907;    1,409
854,312;17542,432;   -0,453;   -1,682
854,874;18094,570;   -2,089;   -0,773
855,435;18578,435;   -0,907;   -1,682
855,997;18723,482;   -1,816;   -0,136
856,558;18052,166;    0,366;    1,773
857,119;18119,395;    0,820;    2,864
857,681;17840,624;    0,002;    0,318
858,242;17856,671;    1,911;   -2,136
858,803;18320,264;    0,456;   -0,773
859,364;18857,493;    0,184;   -4,773
859,925;18225,176;   -2,453;   -0,955
860,486;18112,405;   -0,453;   -0,955
861,047;17819,816;   -0,544;   -1,227
861,608;17677,863;   -1,089;   -0,773
862,169;17798,456;    0,638;   -0,045
862,730;17552,321;    0,456;    1,409
863,291;17759,368;   -0,635;   -0,500
863,852;18178,234;   -0,635;    1,955
864,412;17651,917;   -0,271;   -0,864
864,973;16241,055;   -0,089;    0,500
865,534;16095,466;   -1,726;    0,227
866,094;17592,332;    1,820;    0,227
866,655;17240,197;    1,274;    3,318
867,215;17522,426;    0,274;    0,136
867,776;17388,382;    0,547;   -0,136
868,336;17474,066;   -1,453;    0,136
868,897;16962,113;    2,638;    1,682
869,457;16705,524;    1,365;    0,318
870,017;16902,298;    0,547;   -1,227
870,578;17422,709;   -0,817;    0,773
871,138;17100,120;   -2,089;   -0,955
871,698;16657,622;   -0,817;   -1,318
872,258;16561,941;   -0,453;   -2,864
872,818;16922,170;    2,729;    0,045
873,378;16856,218;    0,638;    1,045
873,938;16450,628;    0,547;    0,500
874,498;16814,767;    0,274;   -1,955
875,058;16670,177;    2,183;    1,773
875,618;16514,861;    1,910;   -2,682
876,177;16456,726;    1,274;    0,136
876,737;16027,410;   -0,090;    1,955
877,297;16065,639;    0,183;    1,955
877,856;16082,231;   -0,362;    0,318
878,416;16076,642;    1,183;   -0,136
878,976;16278,235;   -1,817;    0,409
879,535;16441,737;    0,092;    3,136
880,095;16152,329;   -0,544;    0,045
880,654;16252,104;   -1,090;    1,318
881,213;16352,151;    2,456;    1,500
881,773;16014,198;    2,637;    2,682
882,332;16361,973;    3,365;    5,136
882,891;16218,838;    3,092;    2,136
883,451;16652,158;   -1,272;    1,682
884,010;16152,660;   -2,908;   -0,409
884,569;16186,979;   -0,999;   -0,045
885,128;16342,118;    2,819;   -1,864
885,687;16404,256;    4,455;    0,682
886,246;16097,757;    1,455;    2,136
886,805;15835,623;    2,455;    2,045
887,364;16190,397;   -0,999;   -0,500
887,922;16581,717;   -1,181;    0,045
888,481;16054,492;   -1,545;    0,591
889,040;16333,630;    1,183;    2,136
889,599;17031,131;    2,455;    1,409
890,157;17137,179;    1,455;    2,409
890,716;16799,498;   -0,090;    0,227
891,274;16565,455;    0,092;   -1,136
891,833;16974,866;    1,546;    0,864
892,391;16881,095;   -0,454;    0,500
892,950;16957,233;    1,819;   -0,773
893,508;17324,007;    0,455;   -0,409
894,067;16698,509;    0,637;    0,136
894,625;16554,374;   -0,636;   -1,500
895,183;16813,058;   -0,363;   -0,682
895,741;16693,923;    1,728;   -1,773
896,299;16508,425;   -0,545;   -2,409
896,858;16750,836;    0,819;   -1,591
897,416;16856,701;    2,728;   -1,318
897,974;16596,385;    1,819;    0,318
898,532;16709,704;    6,091;    2,682
899,089;16622,933;    2,091;   -0,682
899,647;16701,890;   -1,454;    1,318
900,205;16360,573;    1,182;    1,045
900,763;16610,893;   -0,454;    0,227
901,321;16640,031;    2,364;   -1,409
901,878;16076,806;   -1,000;   -0,773
902,436;15953,035;   -1,363;    1,318
902,994;16317,173;    4,728;    3,682
903,551;15781,856;    0,728;    0,409
904,109;16161,540;    0,182;   -1,409
904,666;15756,860;    2,455;    1,045
905,224;15596,907;    0,182;   -0,409
905,781;15361,227;    0,727;   -0,318
906,338;15428,092;   -1,363;    1,045
906,895;15378,685;    0,637;    2,045
907,453;15269,459;    1,727;    1,136
908,010;15318,688;   -0,909;    0,409
908,567;14974,554;    1,273;    0,591
909,124;14498,692;    0,364;   -1,500
909,681;14571,466;   -2,909;    0,682
910,238;14745,241;    0,636;   -1,318
910,795;15043,288;   -0,273;   -1,136
911,352;14667,015;   -2,909;   -2,682
911,909;14098,652;   -1,364;   -0,864
912,466;14597,106;   -3,182;    1,500
913,022;14202,197;   -1,636;    0,500
913,579;14492,652;   -0,909;    2,045
914,136;14230,106;    1,636;    0,955
914,692;14569,561;    0,091;   -1,227
915,249;14137,924;    1,455;    0,409
915,806;14376,288;    0,182;    1,955
916,362;14108,742;    1,909;    1,864
916,918;13696,106;    2,000;    1,045
917,475;13616,924;   -1,182;    0,955
918,031;13700,833;    3,364;   -0,045
918,587;13149,833;   -0,909;   -0,318
919,144;13421,652;   -2,273;    0,227
919,700;13726,833;    1,727;    0,773
920,256;13317,288;    0,727;    0,045
920,812;12921,833;   -0,727;   -1,045
921,368;12926,561;   -1,727;   -1,045
921,924;12586,833;    0,182;   -0,136
922,480;12178,379;   -0,545;    1,227
923,036;12785,015;    1,273;    1,955
923,592;12735,652;    0,455;    0,318
924,148;12662,561;    0,455;   -0,955
924,704;11941,833;   -1,364;   -0,409
925,259;12251,652;   -0,273;    0,591
925,815;11970,106;    1,455;    0,500
926,371;11529,015;    2,909;    1,409
926,926;11420,561;    2,091;    0,591
927,482;11039,379;   -1,364;    0,773
928,037;10917,106;    0,909;    2,045
928,593;11214,470;    1,636;    1,045
929,148;11025,742;   -1,818;   -1,500
929,704;10551,924;   -1,455;   -0,500
930,259;10771,561;    0,091;   -0,136
930,814; 9856,833;   -0,818;    1,955
931,369; 9529,561;    1,091;   -0,773
931,925; 9440,652;   -0,091;    0,136
932,480; 9332,379;   -2,818;   -2,591
933,035; 9215,470;    0,545;   -0,318
933,590; 8969,561;    0,364;   -1,773
934,145; 8680,652;   -1,364;   -0,318
934,700; 9031,288;    0,455;   -0,591
935,255; 8804,924;   -0,091;    0,045
935,809; 8080,833;    3,182;    0,864
936,364; 7250,652;   -0,455;   -0,136
936,919; 7239,561;    0,455;   -1,773
937,474; 7118,561;    1,455;    0,136
938,028; 6898,652;   -1,636;    1,136
938,583; 6347,015;    1,818;    4,682
939,138; 6641,106;    2,091;    2,136
939,692; 6067,015;    1,636;   -1,136
940,247; 5803,833;   -0,727;   -1,045
940,801; 5381,288;   -0,636;    0,227
941,355; 5272,015;   -0,364;    2,591
941,910; 4935,470;   -0,273;   -2,136
942,464; 5041,288;   -0,818;   -0,318
943,018; 4824,470;    1,000;   -0,227
943,572; 4776,833;    2,545;   -0,682
944,126; 4199,742;    0,091;   -0,409
944,681; 4108,197;    3,091;    0,227
945,235; 4087,015;    1,000;   -0,591
945,789; 4046,288;    0,364;   -1,864
946,342; 4143,197;    0,455;   -0,591
946,896; 3924,652;   -2,273;    0,955
947,450; 3687,561;    1,545;   -0,227
948,004; 3888,288;    1,727;   -0,045
948,558; 3896,833;    0,273;   -0,864
949,111; 3823,288;   -0,273;   -0,318
949,665; 3871,742;    1,636;   -0,682
950,219; 3745,561;   -0,091;   -1,045
950,772; 3809,106;   -1,909;    1,864
951,326; 3719,106;    0,545;   -0,955
951,879; 3809,106;    0,727;   -2,318
952,433; 3838,561;    0,000;    2,227
952,986; 3686,288;    2,909;    0,682
953,539; 3627,742;   -0,273;    0,591
954,093; 3567,106;    0,545;   -1,318
954,646; 3696,015;    0,909;    1,318
955,199; 3535,106;    0,000;   -0,500
955,752; 3424,197;   -0,455;    1,773
956,305; 3367,833;   -0,091;    2,955
956,858; 3526,924;    0,818;   -0,318
957,411; 3697,015;   -0,545;    2,136
957,964; 3522,288;    1,364;    2,136
958,517; 3514,106;   -1,545;    3,136
959,070; 3349,288;   -0,455;    1,955
959,623; 3424,379;    1,091;    1,500
960,176; 3215,106;    1,727;    2,045
960,728; 3170,379;   -2,727;    0,773
961,281; 3238,197;    0,545;    0,500
961,834; 3288,379;   -0,909;    0,864
962,386; 3206,742;    1,727;    1,045
962,939; 3126,197;    0,364;   -0,318
963,491; 3270,015;    0,455;    1,136
964,043; 3145,924;    1,182;    2,409
964,596; 3259,015;   -1,000;    2,227
965,148; 3113,197;   -1,000;    1,773
965,700; 3026,015;    1,091;   -0,227
966,253; 3182,833;   -0,636;    0,318
966,805; 3024,379;   -2,273;    0,773
967,357; 3056,652;    1,091;   -1,500
967,909; 3044,288;    0,455;   -1,227
968,461; 3158,015;    0,545;    3,136
969,013; 3076,379;   -0,182;   -0,864
969,565; 3150,652;   -0,455;   -1,136
970,117; 3216,561;   -0,364;    1,045
970,669; 3052,652;    0,182;   -0,136
971,220; 2908,288;   -0,455;   -1,500
971,772; 2842,288;   -0,636;   -0,318
972,324; 2960,833;    0,091;   -0,500
972,876; 2915,015;    0,818;   -0,045
973,427; 3029,470;    1,909;   -1,045
973,979; 2996,015;   -0,727;   -2,500
974,530; 3043,470;    1,818;    1,318
975,082; 3039,833;   -0,545;    1,682
975,633; 2948,470;    1,091;    1,682
976,184; 3090,561;    0,909;    0,773
976,736; 2881,197;    0,091;    0,227
977,287; 2688,379;   -0,909;   -0,500
977,838; 2858,833;    0,909;   -0,318
978,389; 2923,924;   -1,000;   -0,500
978,940; 2796,379;    0,545;   -0,409
979,491; 2831,015;    0,091;   -0,500
980,042; 2781,561;    0,182;    3,045
980,593; 2850,652;   -2,545;    0,227
981,144; 2887,561;    2,545;   -0,500
981,695; 2843,561;    1,455;    1,500
982,246; 2805,742;   -0,273;    1,045
982,797; 2954,197;   -1,727;    0,682
983,347; 3074,288;    0,364;    0,591
983,898; 3243,288;    3,091;    0,409
984,449; 3056,470;    2,182;    0,773
984,999; 2969,561;    1,455;   -1,136
985,550; 2783,924;    0,182;   -0,318
986,100; 2822,015;   -0,455;   -0,318
986,651; 2857,379;   -0,818;    0,045
987,201; 2829,015;   -1,000;   -0,591
987,751; 2895,197;    0,818;    2,864
988,302; 2874,106;    2,636;    1,500
988,852; 2917,197;    0,455;   -1,136
989,402; 2949,197;    0,091;    0,682
989,952; 2863,106;   -2,182;    0,864
990,502; 2960,015;   -0,091;    0,682
991,052; 2923,652;   -0,727;    0,045
991,602; 2786,561;   -2,909;    1,318
992,152; 2788,197;    0,455;    0,682
992,702; 2787,106;    1,364;   -0,045
993,252; 2713,742;   -3,000;   -0,500
993,802; 2777,379;   -0,273;    1,318
994,352; 3032,106;   -1,545;    1,136
994,901; 3114,924;   -0,182;    3,227
995,451; 3024,470;   -0,182;    0,318
996,000; 3104,015;    1,636;    0,318
996,550; 2827,379;    2,273;    0,227
997,100; 2821,379;    1,273;   -0,045
997,649; 3106,652;    2,182;    0,955
998,198; 2758,106;    1,727;   -1,500
998,748; 2936,288;    1,091;   -2,318
999,297; 2871,561;   -0,818;   -0,409
999,846; 2917,106;    1,000;   -0,773
1000,395; 2950,197;   -0,818;    0,500
1000,945; 2908,288;    1,818;   -0,773
1001,494; 2994,197;    2,364;    0,682
1002,043; 2978,197;    4,636;    0,864
1002,592; 2851,833;   -1,091;    1,955
1003,141; 2996,379;   -0,455;   -0,682
1003,690; 2850,288;    1,727;    0,500
1004,238; 2910,379;    1,455;   -0,045
1004,787; 2573,652;    1,364;    1,227
1005,336; 2805,470;    0,364;    0,682
1005,885; 2945,197;    1,364;   -2,773
1006,433; 3041,288;    0,545;    0,955
1006,982; 3125,833;    0,455;    1,682
1007,531; 3048,833;   -1,818;   -0,227
1008,079; 3004,742;   -2,273;    0,500
1008,627; 3136,833;   -1,455;    0,409
1009,176; 2871,470;    0,000;   -1,955
1009,724; 2926,106;    1,091;    0,864
1010,273; 2987,924;    1,273;    0,500
1010,821; 3088,197;    0,091;    1,409
1011,369; 2839,015;   -1,364;    1,318
1011,917; 2806,470;   -1,364;   -0,591
1012,465; 3085,652;    1,273;   -1,591
1013,013; 3194,379;    2,091;   -1,682
1013,561; 3075,470;    0,455;   -0,773
1014,109; 3113,015;   -1,909;    1,682
1014,657; 2990,470;    0,364;    0,591
1015,205; 3134,742;    1,636;   -0,955
1015,753; 3184,833;   -0,545;   -1,409
1016,301; 3198,561;   -2,636;    3,045
1016,848; 3204,379;   -1,273;    0,409
1017,396; 3238,379;    2,545;    0,045
1017,944; 3378,197;    1,182;    1,864
1018,491; 3145,197;    0,273;    1,409
1019,039; 3277,379;    0,455;    0,591
1019,586; 3211,379;   -1,364;    1,682
1020,134; 3291,561;    0,455;    1,500
1020,681; 3300,106;    0,182;   -1,136
1021,228; 3317,106;    2,909;   -2,227
1021,776; 3157,197;    1,182;   -1,136
1022,323; 3381,106;    0,455;    0,773
1022,870; 3302,015;   -1,000;   -0,045
1023,417; 3222,742;    2,636;    1,864
1023,964; 3357,652;    2,636;    1,227
1024,511; 3190,379;    1,000;    0,773
1025,058; 3002,652;    3,182;   -0,045
1025,605; 3053,470;   -2,273;    3,136
1026,152; 3257,379;    1,727;   -0,591
1026,699; 2980,561;    1,818;    1,318
1027,245; 3161,561;   -0,091;    0,318
1027,792; 3382,833;   -1,000;    1,409
1028,339; 3249,742;    2,364;   -0,045
1028,885; 3110,470;    1,000;   -0,227
1029,432; 3055,652;   -0,091;    0,227
1029,978; 3105,015;   -1,000;   -1,591
1030,525; 3025,106;    1,000;    0,409
1031,071; 3261,379;   -1,364;    1,136
1031,618; 3360,379;    0,364;    1,682
1032,164; 3153,288;   -0,091;    3,045
1032,710; 3185,742;    1,636;   -1,500
1033,256; 3126,288;   -0,636;   -0,136
1033,803; 3120,561;   -0,545;    1,500
1034,349; 2840,470;   -1,364;    0,136
1034,895; 2978,288;    0,000;   -0,318
1035,441; 2961,288;   -0,818;    0,318
1035,987; 2965,561;   -2,364;   -0,682
1036,533; 2955,833;   -1,455;   -0,955
1037,078; 3158,379;    1,455;    1,682
1037,624; 2992,652;    2,455;   -0,955
1038,170; 3023,015;    0,455;   -0,318
1038,716; 2912,742;    1,636;   -0,409
1039,261; 2833,924;   -2,273;   -0,773
1039,807; 2779,379;   -0,091;    3,409
1040,352; 2841,197;   -1,909;   -0,318
1040,898; 2883,288;   -1,545;   -0,682
1041,443; 2784,106;   -1,455;   -2,591
1041,989; 2812,106;    1,091;    1,591
1042,534; 2723,015;   -0,364;    2,591
1043,079; 2832,288;    2,909;    0,955
1043,625; 2621,288;    1,818;    0,500
1044,170; 2655,742;   -1,364;    1,045
1044,715; 2903,470;    2,455;    0,955
1045,260; 2713,197;    2,182;   -0,955
1045,805; 2779,106;    1,182;   -0,591
1046,350; 2714,288;    1,364;   -0,409
1046,895; 2675,197;    2,909;    1,591
1047,440; 2611,652;    5,364;    0,409
1047,985; 2525,288;    2,818;   -0,955
1048,530; 2451,379;    1,545;    1,227
1049,074; 2525,742;    0,000;    0,318
1049,619; 2489,106;   -1,364;    1,955
1050,164; 2291,015;    0,455;    0,227
1050,708; 2339,197;   -0,455;    0,045
1051,253; 2709,197;    1,273;   -2,227
1051,797; 2415,379;    0,818;   -1,318
1052,342; 2440,742;   -1,182;    1,045
1052,886; 2418,924;    0,364;   -1,409
1053,430; 2303,015;   -1,364;    0,136
1053,975; 2324,288;   -0,818;   -0,318
1054,519; 2297,652;   -0,727;    3,227
1055,063; 2300,197;    0,909;    1,318
1055,607; 2200,288;   -0,182;    0,227
1056,151; 2228,652;    2,909;    1,682
1056,695; 2149,379;    2,273;   -1,136
1057,239; 2202,652;   -1,727;   -0,682
1057,783; 2212,561;    0,818;   -1,500
1058,327; 2163,288;    0,000;    1,409
1058,871; 2396,833;   -0,545;    1,318
1059,415; 2106,106;   -0,818;   -0,045
1059,958; 2357,197;    1,455;    2,591
1060,502; 2063,833;   -1,000;   -0,773
1061,046; 1988,197;    0,364;   -0,955
1061,589; 1969,742;   -3,000;   -1,136
1062,133; 1851,197;   -1,273;    1,864
1062,676; 1787,652;    1,182;    0,864
1063,220; 1801,015;    1,091;    0,500
1063,763; 1809,015;    0,909;    1,136
1064,306; 1875,197;   -0,909;    1,864
1064,849; 1783,742;   -0,909;    0,591
1065,393; 1790,924;    2,000;   -1,500
1065,936; 1903,833;    0,182;   -0,409
1066,479; 1798,015;   -1,455;    1,318
1067,022; 1812,561;   -0,273;   -0,227
1067,565; 1708,924;   -0,091;   -1,318
1068,108; 1734,015;    0,727;   -0,591
1068,651; 1712,379;   -0,636;    1,409
1069,194; 1638,379;   -0,455;   -1,682
1069,736; 1633,833;   -1,273;    0,955
1070,279; 1602,742;   -1,364;   -0,500
1070,822; 1676,742;   -2,000;   -0,318
1071,364; 1761,288;   -0,364;    1,318
1071,907; 1582,197;   -0,727;    3,227
1072,450; 1492,652;    0,000;   -0,045
1072,992; 1474,288;   -0,273;    3,136
1073,535; 1605,833;    2,091;    2,136
1074,077; 1406,197;   -0,727;    2,045
1074,619; 1377,742;   -1,364;    0,591
1075,161; 1417,106;   -1,091;    1,500
1075,704; 1586,470;    1,545;    1,227
1076,246; 1392,470;   -0,182;    0,682
1076,788; 1317,924;   -0,364;    1,773
1077,330; 1400,197;    1,273;    2,136
1077,872; 1359,652;    0,909;    0,955
1078,414; 1576,742;    2,727;    0,773
1078,956; 1313,379;    1,273;   -0,227
1079,498; 1565,106;    1,636;    0,318
1080,040; 1276,015;    1,909;   -1,318
1080,581; 1203,470;    1,636;   -0,318
1081,123; 1137,652;    0,091;   -0,773
1081,665; 1198,015;   -1,182;   -0,955
1082,206; 1486,652;    1,364;   -0,500
1082,748; 1337,561;    0,727;    2,045
1083,289; 1221,561;   -2,000;    1,318
1083,831; 1140,288;   -0,545;    0,227
1084,372; 1169,015;    0,000;    0,591
1084,913; 1176,379;    1,091;    0,864
1085,455; 1137,379;   -1,909;   -2,045
1085,996; 1121,924;   -2,273;    0,136
1086,537; 1146,015;   -0,091;    0,864
1087,078; 1163,379;   -0,909;   -2,136
1087,619; 1201,288;   -1,273;    0,227
1088,160; 1124,924;    0,000;    1,318
1088,701; 1116,106;   -1,091;    0,682
1089,242; 1048,288;    1,364;   -2,227
1089,783; 1145,015;   -0,273;    1,409
1090,324; 1105,197;    0,455;    0,682
1090,865;  993,561;    2,727;   -0,409
1091,405;  959,197;    0,727;    2,227
1091,946;  990,833;    0,182;   -0,955
1092,487;  916,379;    0,818;   -1,409
1093,027; 1081,652;   -1,364;   -1,500
1093,568;  936,106;   -0,364;    1,227
1094,108; 1024,924;    0,273;    1,773
1094,649;  982,288;   -1,182;    0,136
1095,189;  912,833;   -0,636;   -0,682
1095,729;  863,742;   -0,091;    0,955
1096,269;  867,470;    0,727;   -0,955
1096,810; 1171,106;   -1,364;    0,500
1097,350;  991,924;    1,364;   -0,773
1097,890;  905,015;    0,364;    1,227
1098,430; 1157,742;    2,364;    2,864
1098,970; 1027,833;    2,182;    1,682
1099,510;  892,833;    0,545;   -2,318
1100,050;  826,015;    1,000;   -1,591
1100,589;  799,652;   -0,727;   -0,318
1101,129;  908,288;    0,818;   -0,955
1101,669; 1062,924;    1,727;    2,136
1102,209;  891,106;   -0,091;    2,227
1102,748;  839,106;    0,000;    0,955
1103,288;  822,742;    1,273;   -1,227
1103,827;  860,197;    3,091;   -2,227
1104,367;  735,015;   -0,091;   -2,409
1104,906;  698,833;    1,364;   -1,136
1105,445;  767,197;    0,636;   -1,136
1105,985;  715,288;   -0,727;    1,500
1106,524;  766,924;   -1,727;   -0,682
1107,063;  735,561;   -2,727;    1,409
1107,602;  711,924;   -1,909;   -1,500
1108,141;  635,106;   -1,909;    1,500
1108,680;  732,379;   -3,455;   -0,591
1109,219;  667,106;   -0,909;   -0,500
1109,758;  676,379;    0,455;    0,682
1110,297;  645,833;    1,000;   -0,682
1110,836;  596,470;   -0,727;    0,955
1111,375;  763,561;   -2,545;    0,409
1111,913;  770,742;   -1,000;    0,773
1112,452;  696,106;   -0,273;    0,136
1112,991;  593,470;    1,091;    1,955
1113,529;  555,197;   -0,818;   -0,045
1114,068;  615,470;   -0,273;    2,955
1114,606;  513,561;   -0,364;   -0,955
1115,144;  664,015;   -1,273;    1,045
1115,683;  613,015;   -0,727;    0,318
1116,221;  663,561;   -0,455;   -0,864
1116,759;  575,833;    0,636;   -0,864
1117,297;  774,833;    0,000;    1,864
1117,836;  563,470;   -2,182;   -1,227
1118,374;  574,288;    0,182;   -0,682
1118,912;  519,924;    0,909;    2,682
1119,450;  517,197;    1,000;    0,864
1119,988;  571,379;    1,545;    2,136
1120,525; 1027,197;    5,091;    3,318
1121,063;  713,924;    1,182;    1,864
1121,601;  527,015;   -0,909;   -1,227
1122,139;  480,561;   -0,727;   -2,045
1122,676;  680,197;   -0,727;    2,773
1123,214;  605,015;   -1,182;    4,409
1123,751;  424,288;    1,727;    2,227
1124,289;  553,833;   -0,091;   -0,409
1124,826;  422,197;    1,727;    0,227
1125,364;  353,197;    1,727;   -0,955
1125,901;  526,288;    1,182;    1,227
1126,438;  642,924;    0,818;    0,955
1126,975;  376,833;   -0,727;   -0,773
1127,513;  438,470;    0,273;    2,136
1128,050;  345,197;    1,636;   -0,682
1128,587;  444,470;    2,000;   -0,227
1129,124;  484,561;    0,091;    1,318
1129,661;  361,197;    0,273;    0,227
1130,198;  523,652;    1,636;    0,773
1130,734;  473,379;    0,182;    1,409
1131,271;  337,015;   -0,909;    0,864
1131,808;  506,288;    2,909;    3,045
1132,345;  383,015;    1,545;    0,318
1132,881;  249,288;   -1,545;   -1,864
1133,418;  384,288;    0,727;   -1,136
1133,954;  319,742;    2,455;   -2,682
1134,491;  390,288;    1,364;   -0,773
1135,027;  286,197;    2,364;    0,864
1135,564;  376,833;    0,273;    2,955
1136,100;  364,288;    0,364;    2,136
1136,636;  261,106;   -1,273;   -1,045
1137,172;  358,833;    0,000;   -1,045
1137,708;  282,652;   -1,364;   -1,045
1138,245;  283,288;    1,273;   -1,227
1138,781;  234,561;    1,091;   -3,318
1139,317;  297,106;    1,273;   -1,409
1139,852;  285,652;    3,091;    0,136
1140,388;  401,015;   -1,182;   -0,409
1140,924;  287,106;   -1,091;   -2,227
1141,460;  224,561;   -1,636;    0,136
1141,996;  158,197;   -1,364;    2,682
1142,531;  209,015;    1,364;    3,318
1143,067;  421,924;    1,182;    1,045
1143,602;  478,742;   -0,091;   -0,318
1144,138;  328,652;   -2,636;    1,045
1144,673;  197,470;   -1,455;    1,409
1145,209;  259,833;   -1,909;   -0,318
1145,744;  173,470;   -0,727;    0,864
1146,279;  312,288;    1,818;   -0,136
1146,815;  228,561;    1,545;   -2,682
1147,350;  276,288;   -1,364;    0,045
1147,885;  185,470;   -0,818;   -1,318
1148,420;  176,015;   -2,273;    0,773
1148,955;  164,288;   -1,727;    1,864
1149,490;  189,288;   -0,909;   -1,591
1150,025;  177,379;    0,455;   -1,773
1150,560;  288,379;    1,091;   -0,955
1151,094;  255,106;    1,455;   -0,591
1151,629;  261,288;    1,636;    0,864
1152,164;  181,652;    1,364;    1,318
1152,698;  139,561;   -0,182;   -0,136
1153,233;   99,742;    0,091;   -0,682
1153,767;  151,742;   -3,000;   -2,318
1154,302;  203,924;   -1,455;    1,773
1154,836;  201,470;   -0,455;   -2,136
1155,371;  246,288;   -1,364;    3,682
1155,905;  200,379;   -0,636;    1,682
1156,439;  174,742;   -0,636;   -0,500
1156,973;  201,015;    0,364;    0,318
1157,507;  139,561;   -0,364;    0,682
1158,042;  173,379;   -0,727;    1,045
1158,576;  214,742;    0,182;    1,773
1159,110;  197,106;   -0,818;    2,409
1159,643;  178,197;    0,636;   -0,045
1160,177;  116,288;   -1,545;    1,500

