
Integration time [ms]:   0,040
Averaging Nr. [scans]: 11
Smoothing Nr. [pixels]: 0
Data measured with spectrometer [name]: 7318044SP
Wave   ;Sample   ;Dark     ;Reference
[nm]   ;[counts] ;[counts] ;[counts] 

186,757;   29,087;   31,551;    1,318
187,357;   52,554;   22,551;    0,955
187,958;   36,344;   15,460;   -1,591
188,558;   78,268;    8,915;   -1,227
189,159;   42,829;    6,733;   -4,500
189,759;   12,070;    7,278;   -3,591
190,360;   16,646;    2,824;   -2,136
190,960;   49,797;    2,915;   -4,136
191,560;   67,760;    3,189;   -6,591
192,161;  297,833;    4,372;   -3,500
192,761;  141,792;    4,010;   -3,227
193,361;   90,627;    1,556;   -3,773
193,962;  140,461;    2,010;   -2,682
194,562;   67,576;    1,189;   -3,955
195,162;   97,209;   -2,448;   -2,227
195,762;  257,280;   -3,176;   -0,045
196,362;  205,561;    1,370;   -2,500
196,963;   76,058;    2,006;   -0,864
197,563;  151,632;    1,551;   -0,955
198,163;   98,959;    0,096;   -0,682
198,763;  113,796;    1,733;   -0,500
199,363;  217,859;    3,096;   -0,500
199,963;  177,608;    0,369;    0,409
200,563;  146,466;    2,823;   -1,409
201,163;  129,780;    3,277;   -0,227
201,763;  218,777;    3,732;    0,318
202,363;  160,480;    1,459;    1,500
202,963;  270,643;    1,459;    1,045
203,563;  377,665;    0,277;    0,500
204,162;  229,032;    2,096;   -1,864
204,762;  217,243;    0,550;    0,591
205,362;  187,383;    3,004;    1,955
205,962;  281,234;    3,096;    1,955
206,562;  277,953;    1,823;    2,318
207,161;  258,584;   -0,087;    0,318
207,761;  404,983;    1,277;    2,409
208,361;  281,306;   -0,268;    1,409
208,960;  376,828;    0,459;    1,500
209,560;  450,518;    1,277;    1,591
210,160;  424,508;    0,550;    1,864
210,759;  392,896;    4,186;    1,227
211,359;  401,165;    1,459;    1,045
211,958;  662,601;    1,277;    2,045
212,558;  739,415;    1,732;    1,864
213,157;  585,697;    1,822;    1,500
213,757; 1027,805;    3,822;   -0,227
214,356;  728,461;    1,277;   -0,409
214,956; 1057,047;    3,095;    0,409
215,555;  686,445;    2,095;    2,136
216,154;  619,385;   -2,723;   -0,591
216,754;  628,747;    0,277;    0,773
217,353;  766,156;   -0,268;   -1,045
217,952;  630,156;   -0,178;    0,318
218,552;  872,430;    1,368;   -0,773
219,151;  753,287;    0,277;    0,955
219,750;  759,088;    0,004;   -0,227
220,349;  864,948;   -0,451;    1,045
220,948;  955,503;   -1,360;    1,136
221,548;  960,880;    0,913;    1,227
222,147; 1061,543;   -0,087;   -0,409
222,746; 1344,319;   -0,451;   -0,955
223,345; 1221,868;    0,731;    0,500
223,944; 1227,097;   -0,451;    0,773
224,543; 1394,361;    1,004;   -1,409
225,142; 1504,851;    0,094;    0,136
225,741; 1410,708;   -0,814;    1,045
226,340; 1430,287;   -0,451;   -0,955
226,939; 1866,724;   -0,996;   -0,136
227,538; 1803,100;   -0,360;   -0,773
228,137; 1949,688;   -0,814;    0,864
228,735; 2068,051;   -0,541;    1,227
229,334; 1845,413;   -0,905;   -0,227
229,933; 2209,021;    0,459;    0,591
230,532; 2325,013;    1,186;   -0,409
231,131; 2372,583;    1,732;    0,318
231,729; 2470,836;   -2,450;   -2,318
232,328; 2566,712;   -0,723;   -1,500
232,927; 2626,821;    1,004;   -0,500
233,525; 2742,881;    3,640;    0,045
234,124; 2942,891;    2,368;   -1,591
234,723; 2973,170;    0,913;   -1,045
235,321; 3091,877;    2,277;    0,136
235,920; 3321,655;    1,186;   -1,227
236,518; 3562,362;    3,459;    0,318
237,117; 3723,305;    0,004;   -0,227
237,715; 3885,565;    0,640;   -0,500
238,314; 3936,197;   -0,087;   -2,318
238,912; 4038,227;   -0,723;   -1,409
239,510; 4066,406;    0,459;   -1,227
240,109; 4264,210;    0,004;    3,773
240,707; 4279,001;   -0,996;    1,227
241,305; 4604,491;    0,550;    0,136
241,904; 4831,036;   -0,178;   -2,045
242,502; 4803,402;   -0,632;   -0,227
243,100; 4745,473;   -0,087;   -0,955
243,698; 4998,097;    0,732;    1,682
244,297; 5160,050;   -0,632;    0,682
244,895; 5022,694;   -0,269;   -2,318
245,493; 5327,852;    2,186;   -0,591
246,091; 5376,092;    1,368;   -1,318
246,689; 5387,818;    1,004;    0,591
247,287; 5549,333;    0,822;   -1,136
247,885; 5828,619;   -1,451;    1,227
248,483; 5938,301;    1,822;   -0,500
249,081; 6067,511;    0,185;    1,591
249,679; 6185,993;   -0,178;    1,682
250,277; 6448,432;   -1,723;    0,864
250,875; 6445,383;   -1,087;   -1,045
251,473; 6488,518;   -1,178;    0,500
252,071; 6681,301;    1,459;    1,045
252,669; 6828,279;   -1,814;    0,318
253,267; 7107,484;   -0,087;    0,773
253,864; 7029,333;   -0,360;    0,682
254,462; 6923,526;    1,640;    1,591
255,060; 6902,523;   -0,269;    1,318
255,658; 7205,188;    0,822;   -0,136
256,255; 7608,786;    0,186;   -2,045
256,853; 7481,528;   -0,269;    1,409
257,451; 7464,942;    0,822;    1,864
258,048; 7719,757;    1,822;    1,864
258,646; 7501,707;    1,731;   -1,045
259,243; 7671,346;   -0,087;    2,227
259,841; 7737,704;   -0,814;    0,318
260,438; 7659,771;   -0,087;    0,864
261,036; 8370,718;   -1,905;    1,409
261,633; 8239,553;   -0,087;    2,227
262,231; 8012,217;    2,731;   -0,045
262,828; 8113,986;   -0,905;    1,136
263,425; 8162,846;    0,913;   -0,591
264,023; 8414,886;    0,186;    0,045
264,620; 7959,615;   -0,360;   -0,318
265,217; 8308,734;   -2,087;    3,136
265,815; 8440,782;   -1,905;    2,136
266,412; 8247,917;    0,731;    0,136
267,009; 8248,214;   -1,451;    0,773
267,606; 8147,798;    0,822;   -0,955
268,203; 8139,206;   -0,269;   -0,591
268,801; 8385,582;    1,731;    0,591
269,398; 8718,924;   -0,360;    2,500
269,995; 8695,531;    0,277;    1,591
270,592; 8440,262;   -0,632;   -0,500
271,189; 8635,318;    0,186;    0,409
271,786; 8788,241;   -0,632;    1,227
272,383; 8589,083;   -1,087;    0,227
272,980; 8776,821;    0,277;    0,318
273,577; 9271,254;    0,004;    1,227
274,174; 8820,469;    0,822;    2,591
274,771; 8772,370;   -0,814;   -0,773
275,367; 8944,344;    2,277;    1,409
275,964; 8890,049;    0,731;   -0,500
276,561; 8972,917;    1,549;   -1,045
277,158; 9181,629;    0,095;   -1,773
277,755; 9336,692;    2,185;    0,409
278,351; 8765,525;   -0,451;   -1,500
278,948; 9056,934;   -0,815;    0,045
279,545; 9065,320;   -1,360;    2,318
280,141; 9686,121;   -1,723;   -2,045
280,738; 9532,823;   -0,451;   -0,136
281,334; 9816,652;   -1,633;    0,591
281,931; 9179,826;   -0,087;   -1,318
282,528; 9270,853;    0,822;   -0,500
283,124; 9977,890;   -1,087;   -0,500
283,721; 9911,459;   -0,451;    1,409
284,317; 9715,796;    0,185;    2,500
284,913;10250,794;   -1,360;    0,591
285,510;10443,885;    0,640;   -0,318
286,106;10464,118;   -2,269;   -0,955
286,703;10075,629;   -0,360;    1,955
287,299;10287,522;   -1,451;   -0,591
287,895;10460,827;    0,822;   -1,045
288,491;11067,652;    0,186;    2,136
289,088;10772,082;   -2,360;    2,409
289,684;10818,370;   -1,723;    1,500
290,280;10823,573;    0,368;    0,682
290,876;10910,856;    1,822;    5,500
291,472;10814,478;    1,276;    2,227
292,068;10925,483;    1,367;    0,227
292,665;10676,522;    2,095;    0,773
293,261;10288,320;    0,276;    2,136
293,857;10672,117;    2,913;    2,136
294,453;10619,657;    3,550;    0,955
295,049;10497,953;   -0,268;    1,955
295,644;10563,669;    0,095;    0,136
296,240;10456,808;   -0,905;   -0,136
296,836;10482,611;   -0,995;    0,318
297,432;10787,539;    1,096;   -0,500
298,028;10809,781;    0,732;    0,773
298,624;11218,068;    1,459;    1,864
299,220;11470,758;    2,368;    0,591
299,815;11114,010;    1,005;   -0,409
300,411;10904,407;    0,914;    1,773
301,007;10944,143;    1,368;    0,227
301,602;10972,037;   -0,541;   -2,318
302,198;11114,409;    0,732;   -0,773
302,794;11462,180;    1,187;   -0,500
303,389;11608,637;   -1,177;    1,045
303,985;11681,245;    0,550;    1,409
304,580;11632,907;    1,459;    1,591
305,176;11640,377;   -3,086;    0,136
305,771;11538,322;   -1,268;   -1,227
306,367;11384,842;    4,095;    0,136
306,962;11726,673;    0,641;    1,500
307,558;11481,248;   -0,450;    0,136
308,153;11388,832;    1,095;   -1,136
308,748;11615,979;   -0,814;    1,682
309,344;11585,600;   -0,632;   -1,318
309,939;11632,352;   -1,905;   -1,318
310,534;11945,021;   -0,086;   -1,682
311,130;11887,041;    0,459;   -2,500
311,725;11616,046;    1,004;   -0,500
312,320;11911,371;    2,459;    0,045
312,915;11768,840;    1,459;   -1,045
313,510;11831,623;    1,550;   -0,500
314,105;12345,600;    1,096;    1,409
314,700;11718,515;   -3,086;   -1,045
315,295;11370,362;   -0,904;    0,045
315,890;10971,308;    1,277;    0,864
316,485;11296,957;   -0,359;   -0,318
317,080;11409,947;   -3,086;    1,591
317,675;11948,372;    2,005;   -0,682
318,270;11373,594;    5,550;    3,318
318,865;11405,139;    3,278;    3,045
319,460;11239,097;   -0,904;    0,591
320,055;11478,466;   -0,541;   -1,227
320,650;11130,159;   -1,995;   -0,591
321,244;11219,106;   -0,177;   -1,409
321,839;12110,608;   -1,541;   -0,227
322,434;11991,098;   -1,086;   -1,591
323,029;11591,628;    1,732;    1,591
323,623;11435,070;    1,550;    0,773
324,218;11212,260;    2,368;    1,409
324,812;11115,908;    1,096;    1,591
325,407;10905,733;   -0,814;    2,045
326,002;10793,522;    0,277;   -0,409
326,596;11151,331;    0,914;    1,318
327,191;11355,064;    0,823;   -1,045
327,785;10913,331;   -0,813;   -0,227
328,379;11154,640;    1,368;    0,136
328,974;10913,216;    0,914;   -3,955
329,568;11141,940;    0,186;   -2,409
330,163;10964,842;    2,096;    1,045
330,757;11346,928;    2,459;    1,591
331,351;10679,588;    0,459;    0,682
331,945;10986,271;    0,914;    1,409
332,540;10573,861;   -1,723;   -0,591
333,134;10749,717;   -1,086;    0,773
333,728;10960,012;    0,005;    0,318
334,322;11287,851;   -1,177;   -0,864
334,916;10620,603;    0,277;    0,955
335,510;10941,071;   -0,450;   -0,136
336,105;11177,701;   -1,086;    1,591
336,699;10928,227;   -1,086;    0,591
337,293;10845,753;   -1,723;    0,318
337,887;11008,856;   -2,723;    1,955
338,481;11133,891;    0,459;    0,591
339,074;11252,330;   -0,359;    2,682
339,668;11080,751;   -1,632;    1,227
340,262;11324,112;    1,732;    3,227
340,856;10822,853;    1,822;   -0,682
341,450;10197,010;    1,004;    1,864
342,044;11123,844;    1,459;    0,136
342,637;10914,574;    0,913;   -2,136
343,231;10748,730;   -2,360;    0,682
343,825;10727,590;   -1,086;   -0,591
344,419;10681,093;   -1,995;    0,500
345,012;10466,117;    2,459;    4,045
345,606;10485,810;    4,641;    1,591
346,199;10357,377;   -1,813;   -0,227
346,793; 9902,343;    1,914;    2,045
347,386;10105,604;   -0,813;   -1,136
347,980;10094,365;   -0,268;   -0,045
348,573; 9860,869;    2,278;    0,409
349,167; 9540,008;    5,278;    4,773
349,760; 9882,585;    2,914;    2,682
350,354; 9833,584;   -0,813;    1,136
350,947; 9584,265;    1,096;    1,682
351,540; 9304,840;   -0,358;   -1,409
352,134; 9260,525;    1,096;    1,136
352,727; 9307,271;   -0,086;    1,136
353,320; 9119,286;    0,005;    0,591
353,913; 8990,412;   -1,995;    1,864
354,507; 9156,234;    0,823;   -1,227
355,100; 9162,138;    0,460;    0,864
355,693; 8386,840;    2,005;    2,409
356,286; 8449,433;    0,823;    2,773
356,879; 8810,132;   -0,722;    1,227
357,472; 8434,256;   -0,904;    1,500
358,065; 8619,851;   -0,722;    2,500
358,658; 8559,041;   -0,540;    2,318
359,251; 8222,042;   -1,631;   -0,591
359,844; 7682,576;   -1,904;   -1,136
360,437; 7879,473;   -2,995;    0,045
361,030; 8155,557;    1,369;   -0,682
361,623; 7758,933;    2,824;    0,318
362,215; 7792,879;   -0,086;    2,045
362,808; 7648,247;   -2,358;   -1,682
363,401; 7822,260;   -2,449;    0,136
363,994; 7556,223;   -0,631;   -1,500
364,586; 7512,780;    0,824;   -1,500
365,179; 7680,707;   -0,449;   -1,136
365,772; 7180,632;   -1,995;    2,045
366,364; 7442,926;    1,915;   -3,227
366,957; 7677,440;    2,279;   -0,045
367,549; 7697,008;    2,188;   -0,864
368,142; 7370,899;    1,825;   -1,500
368,734; 7539,532;    0,734;   -2,136
369,327; 7520,064;    1,643;   -0,500
369,919; 7434,284;   -1,538;    0,409
370,512; 7235,554;   -1,083;   -0,500
371,104; 7002,192;   -0,901;    1,591
371,696; 7128,970;    1,191;   -0,955
372,289; 7218,624;    0,373;    1,136
372,881; 7370,243;   -2,080;    1,318
373,473; 7295,452;   -2,170;    1,136
374,066; 7079,423;   -0,169;    0,500
374,658; 6931,721;    0,378;    1,136
375,250; 7305,844;    0,653;   -1,409
375,842; 7174,948;    0,473;   -0,045
376,434; 7021,875;   -0,435;   -0,409
377,026; 7587,056;    0,204;   -2,500
377,618; 7495,456;   -0,158;   -0,682
378,210; 7376,150;   -0,338;   -1,955
378,802; 7217,192;    0,754;   -0,591
379,394; 7167,860;    1,846;    0,682
379,986; 7734,853;    1,393;   -0,955
380,578; 7836,076;   -0,153;    0,773
381,170; 7161,082;   -0,972;    0,045
381,762; 7152,625;    0,755;    1,409
382,354; 7353,659;   -0,065;   -1,318
382,945; 7441,999;   -2,976;    0,318
383,537; 7583,594;   -2,705;   -1,955
384,129; 7583,433;   -2,160;   -1,136
384,721; 7780,532;   -0,252;    0,955
385,312; 7713,953;   -0,161;   -0,955
385,904; 7784,720;   -2,706;    1,591
386,496; 7162,424;   -0,979;    1,045
387,087; 7323,292;    1,022;    2,500
387,679; 7365,453;   -1,160;    0,045
388,270; 7483,347;    2,840;    2,045
388,862; 7600,752;    1,295;   -0,318
389,453; 7496,109;   -0,887;    1,045
390,045; 7745,260;   -0,705;   -2,682
390,636; 7687,029;    0,204;   -0,591
391,227; 7517,507;   -0,523;   -0,045
391,819; 7614,791;    0,204;    0,773
392,410; 7688,323;    1,022;    0,045
393,001; 7631,766;   -0,979;   -1,591
393,593; 7916,261;    1,930;   -0,045
394,184; 7764,858;    1,385;   -0,409
394,775; 7686,798;    1,839;    2,136
395,366; 7913,288;    1,385;    0,773
395,957; 7896,446;    0,113;    0,136
396,548; 8206,645;   -0,342;    2,682
397,139; 8500,345;   -2,433;    0,591
397,730; 8245,802;   -1,888;    0,955
398,321; 8257,637;   -1,252;    0,955
398,912; 8292,855;   -0,615;    0,136
399,503; 8373,066;   -3,524;   -1,409
400,094; 7844,289;    0,294;    1,682
400,685; 7720,846;   -0,433;    0,045
401,276; 7811,568;    0,930;   -0,955
401,867; 8110,308;   -0,888;    0,773
402,458; 8184,536;   -2,251;   -2,318
403,048; 8146,859;    1,112;    0,591
403,639; 7785,928;    0,840;    0,864
404,230; 8036,981;    2,476;    0,318
404,821; 7963,156;   -0,615;    0,045
405,411; 8092,836;    1,203;   -2,591
406,002; 7692,981;   -1,252;   -1,136
406,592; 7543,817;    2,294;    0,045
407,183; 7845,506;    0,566;   -1,500
407,774; 7773,740;    3,475;   -0,136
408,364; 8083,430;    0,930;    0,409
408,954; 7716,044;    0,384;    1,227
409,545; 7774,132;    1,021;    1,045
410,135; 7297,334;    1,293;    0,500
410,726; 7423,944;    1,838;    0,318
411,316; 7816,252;    0,111;    0,773
411,906; 7508,843;   -0,253;   -0,409
412,497; 7019,121;   -1,070;   -0,045
413,087; 7598,638;   -1,980;   -0,227
413,677; 7975,974;   -0,707;    3,864
414,267; 7785,396;    0,656;    1,409
414,857; 7832,218;   -2,980;    4,227
415,448; 8112,399;    0,839;    0,500
416,038; 7803,524;    0,020;   -0,591
416,628; 7767,427;   -0,889;    0,409
417,218; 7237,042;    0,565;    3,318
417,808; 7467,592;    0,202;   -0,409
418,398; 7928,714;    0,020;    2,682
418,988; 7946,687;    2,020;    0,591
419,578; 8182,039;   -0,707;    1,409
420,168; 8496,663;   -1,343;   -0,955
420,757; 8095,885;   -1,343;   -1,500
421,347; 7778,884;    0,111;   -0,227
421,937; 7947,458;    2,292;    1,409
422,527; 7884,012;    0,838;   -0,773
423,116; 7682,653;   -0,253;   -0,045
423,706; 8019,268;   -1,889;    0,318
424,296; 8016,903;    1,384;    0,682
424,885; 8417,630;   -0,071;   -3,045
425,475; 8687,640;    1,474;   -2,864
426,065; 8620,579;   -0,980;   -0,318
426,654; 8232,941;   -0,435;   -0,318
427,244; 8319,946;    0,020;    1,409
427,833; 7792,578;    1,383;   -0,500
428,423; 8265,902;   -0,526;    1,136
429,012; 9035,103;   -0,344;   -1,136
429,601; 8511,779;   -1,344;    0,136
430,191; 8725,247;    1,292;    4,318
430,780; 8387,146;   -0,344;   -0,409
431,369; 8310,598;    0,746;   -0,045
431,959; 8918,360;   -1,254;    0,500
432,548; 8700,665;   -1,163;   -0,045
433,137; 8815,764;   -1,254;   -1,318
433,726; 9348,667;    0,292;    0,500
434,315; 8729,188;   -0,526;    2,409
434,905; 8807,610;   -1,254;    1,409
435,494; 8695,445;    0,746;    0,955
436,083; 9135,913;   -0,981;   -0,955
436,672; 9016,739;    0,110;    0,500
437,261; 8616,996;    0,292;   -1,955
437,850; 8721,959;    1,383;    0,682
438,439; 8647,772;    3,291;    1,955
439,027; 8523,687;    3,655;    1,773
439,616; 8872,185;    2,927;    1,227
440,205; 8711,778;    0,200;   -2,136
440,794; 8766,371;    2,109;   -0,045
441,383; 9014,630;   -1,346;   -0,591
441,971; 8877,173;   -2,436;    0,591
442,560; 8704,583;    0,563;   -1,773
443,149; 8437,080;    0,379;   -1,318
443,737; 8617,575;   -0,074;   -2,318
444,326; 8888,495;    0,018;    0,318
444,915; 8896,340;   -1,982;    0,864
445,503; 9248,060;   -2,891;   -0,318
446,092; 8551,701;    0,382;    2,136
446,680; 9074,984;    0,382;    0,318
447,269; 9244,506;   -0,346;   -0,318
447,857; 9034,792;    0,018;   -1,773
448,445; 9113,464;    0,563;    1,318
449,034; 9324,126;   -1,528;   -1,136
449,622; 9443,127;   -1,073;    3,500
450,210; 8705,157;    2,017;    2,227
450,799; 9218,707;    0,290;   -0,591
451,387; 9163,288;    1,381;   -0,591
451,975; 8822,554;    2,654;    0,864
452,563; 8886,420;    3,472;    2,318
453,151; 8945,894;   -0,528;   -1,227
453,739; 8845,710;   -1,347;    0,136
454,328; 8724,216;    2,381;   -2,136
454,916; 8427,621;    2,562;   -0,136
455,504; 8618,551;    1,017;    1,227
456,092; 8795,027;    0,017;   -1,591
456,679; 8768,998;    1,472;    0,682
457,267; 8696,557;    4,017;    1,045
457,855; 8850,353;    1,017;    1,409
458,443; 8614,370;   -0,165;    1,682
459,031; 8726,541;    0,108;    2,409
459,619; 9160,320;   -1,801;    2,864
460,206; 9270,630;    0,835;    2,045
460,794; 9366,488;   -2,983;   -0,227
461,382; 9569,630;   -0,529;   -0,864
461,970; 9168,660;    1,198;    1,864
462,557; 9214,962;   -0,711;   -0,682
463,145; 9367,378;   -3,165;   -1,682
463,732; 9504,582;    2,016;   -1,045
464,320; 9442,720;   -0,075;   -3,045
464,907; 9121,956;    2,743;   -0,773
465,495; 9001,686;    0,743;   -1,227
466,082; 9142,657;   -1,984;   -0,045
466,670; 9071,842;   -2,529;    1,227
467,257; 9486,576;   -1,711;    2,045
467,844; 9623,704;   -0,075;    0,045
468,432; 9644,646;    0,834;    3,500
469,019; 9173,089;    0,925;   -1,773
469,606; 9602,593;    0,470;    3,682
470,193; 9406,497;   -1,439;    0,227
470,780; 8995,992;   -2,075;    0,864
471,368; 9343,853;   -1,257;   -0,773
471,955; 9116,483;    1,379;   -0,682
472,542; 8772,895;    0,652;   -1,136
473,129; 8990,002;   -0,166;    0,136
473,716; 8759,239;    1,470;    0,591
474,303; 8936,786;    0,652;   -0,864
474,890; 9220,122;   -1,439;   -0,500
475,477; 9209,646;   -1,621;    0,409
476,064; 9086,938;    1,106;   -1,591
476,650; 9027,648;    0,288;    0,318
477,237; 8862,648;   -0,258;    0,955
477,824; 8996,773;   -1,076;    0,864
478,411; 8997,861;   -1,894;   -0,318
478,997; 9193,786;    0,560;   -0,773
479,584; 9227,413;    1,196;   -0,409
480,171; 9887,314;   -0,440;   -0,773
480,757; 9555,999;    2,651;    0,773
481,344; 9832,648;    0,469;    0,409
481,931; 9333,491;    1,105;    1,045
482,517;10233,923;   -1,258;    0,318
483,104;10708,109;    1,106;    2,864
483,690;10995,566;   -1,804;    0,045
484,276;11297,339;   -0,895;    0,227
484,863;11049,694;    2,469;    1,136
485,449;11636,351;   -0,077;    0,318
486,035;11630,657;   -1,986;   -0,136
486,622;12043,825;   -0,895;    0,045
487,208;11979,986;    1,378;    1,500
487,794;11831,938;    0,741;    0,318
488,380;11922,126;    0,105;   -1,409
488,967;11993,334;   -1,168;   -0,409
489,553;12045,717;   -1,895;   -1,409
490,139;12241,143;    1,559;    0,773
490,725;11730,055;    0,741;   -0,227
491,311;11360,749;    3,287;    3,045
491,897;10799,114;   -0,986;    1,500
492,483;10634,787;    0,105;    1,227
493,069;10417,814;    3,923;    0,864
493,655;10404,585;    1,650;    0,682
494,241;10352,278;    1,377;   -0,955
494,826;10755,080;    0,287;   -1,045
495,412;10238,838;    2,559;   -0,682
495,998;10427,419;   -0,805;   -0,318
496,584;10572,986;    0,377;    1,045
497,169;10587,508;    1,014;   -0,682
497,755;10548,957;    0,650;    1,227
498,341;11104,962;    0,559;    0,318
498,926;10721,124;    1,832;    1,955
499,512;10924,846;    1,286;    2,955
500,097;11111,277;    0,195;   -0,318
500,683;11090,178;   -0,350;    2,136
501,268;11453,482;   -0,169;   -0,955
501,854;11213,551;   -0,169;    1,227
502,439;11181,843;   -0,624;   -1,773
503,024;11430,344;    0,195;    0,500
503,610;11518,100;   -0,078;   -0,682
504,195;11535,411;    0,558;    1,955
504,780;11673,212;    2,922;    1,227
505,366;11540,117;    3,013;    2,864
505,951;11301,284;    0,740;    1,045
506,536;11372,038;   -3,260;   -3,682
507,121;11417,787;    0,285;   -0,318
507,706;11966,698;    2,376;    1,045
508,291;12343,194;    2,649;    1,136
508,876;11828,717;   -0,988;    2,591
509,461;11302,975;   -0,169;   -0,773
510,046;11763,639;    0,194;    0,318
510,631;12010,264;   -0,351;   -0,773
511,216;11694,879;    2,467;   -0,500
511,801;12110,918;   -0,442;    2,591
512,386;12407,602;    0,740;    0,500
512,971;12344,349;   -2,988;    0,955
513,555;11937,942;   -0,897;   -1,500
514,140;12728,068;   -0,442;   -3,136
514,725;12744,241;   -0,715;   -1,136
515,309;12885,692;   -0,533;    0,318
515,894;12369,115;   -0,624;   -2,227
516,479;12820,486;   -0,624;   -0,955
517,063;12649,025;    0,376;    1,227
517,648;12778,482;    1,012;   -1,136
518,232;12459,365;   -0,261;   -1,409
518,817;12806,335;   -0,079;    1,682
519,401;13005,301;    2,194;    0,591
519,985;12530,022;    1,103;    1,136
520,570;12423,702;    0,830;   -1,955
521,154;12720,408;    2,102;    0,591
521,738;12888,246;   -2,352;    2,409
522,323;13457,768;   -0,170;    1,682
522,907;13217,486;    0,466;   -0,136
523,491;12926,760;    0,557;    0,955
524,075;12909,731;    2,284;    0,591
524,659;13009,296;    1,466;    0,591
525,243;12473,874;    1,739;    0,409
525,827;12744,429;    0,648;   -0,045
526,411;13547,568;   -1,989;   -0,136
526,995;13780,636;   -0,352;    1,409
527,579;13371,297;   -0,443;   -1,045
528,163;13659,157;    0,375;   -1,500
528,747;13582,699;    2,466;   -0,773
529,331;13902,908;   -0,080;   -1,409
529,915;14141,098;    1,738;    0,955
530,499;14081,431;   -0,807;    1,227
531,082;13774,841;   -0,534;    1,591
531,666;13259,296;    1,374;    0,773
532,250;13882,488;    1,284;    2,682
532,833;14207,444;    0,920;    2,773
533,417;14087,022;   -1,807;    0,864
534,001;14093,429;    1,647;   -0,318
534,584;14749,292;    0,374;    0,500
535,168;14585,836;    0,465;    1,409
535,751;14624,782;    0,647;    0,045
536,334;14109,152;   -0,898;   -0,409
536,918;14701,180;    0,011;    1,591
537,501;14784,645;   -0,899;    1,318
538,085;14766,195;   -0,444;    1,045
538,668;14929,711;    0,829;    2,409
539,251;15250,046;    1,829;    3,773
539,834;15243,497;    0,101;    0,773
540,418;15174,184;   -1,990;    4,318
541,001;15294,693;   -0,990;    1,773
541,584;15262,513;    2,101;    2,227
542,167;14995,762;    1,374;    2,955
542,750;15141,072;    1,919;   -0,773
543,333;14760,518;    0,555;    2,136
543,916;15518,534;    0,192;    2,500
544,499;16094,510;   -1,354;    0,227
545,082;16083,936;    1,374;    3,591
545,665;16231,052;    1,919;    1,500
546,248;16581,064;    1,010;   -0,318
546,830;16239,030;   -0,445;    1,955
547,413;16628,470;    1,010;   -0,773
547,996;17161,812;    0,555;    0,500
548,579;16932,702;    0,919;    0,955
549,161;16759,037;    1,828;    2,682
549,744;16520,109;   -0,809;    0,409
550,326;17014,474;   -0,809;   -1,136
550,909;16782,635;    2,737;    0,591
551,492;17228,925;   -0,263;    0,227
552,074;17024,217;   -0,173;   -1,318
552,657;17552,460;    2,373;    0,045
553,239;17330,372;   -0,173;   -0,773
553,821;17264,267;   -1,082;    1,045
554,404;16748,974;    1,282;    1,136
554,986;17137,073;    0,464;    1,045
555,568;17738,440;    1,191;   -0,955
556,151;16972,138;    1,191;   -0,227
556,733;17176,251;   -0,264;   -0,864
557,315;17606,001;    0,100;    0,500
557,897;17411,058;    0,554;   -0,500
558,479;17538,999;   -1,991;    1,318
559,061;17680,565;   -0,719;   -0,864
559,643;17988,889;   -0,264;    0,045
560,225;18331,139;    1,645;    2,864
560,807;18377,889;    0,918;    0,318
561,389;17870,408;    0,554;    2,318
561,971;18586,979;    0,463;    2,136
562,553;18407,506;   -1,628;    1,591
563,135;18505,352;   -0,537;    1,136
563,717;18156,139;    3,372;    1,136
564,298;18829,813;    3,645;   -0,045
564,880;18520,630;    0,645;   -1,409
565,462;18744,630;    0,645;    1,318
566,043;19886,093;   -0,446;    2,318
566,625;19347,637;    1,918;    1,227
567,207;19202,377;    1,099;    1,682
567,788;20313,926;   -1,264;    1,500
568,370;21132,640;    1,917;   -0,500
568,951;20908,355;    0,190;    0,227
569,533;21742,740;   -0,628;   -0,500
570,114;22160,038;   -0,446;    0,682
570,695;22644,156;   -0,174;   -1,318
571,277;23114,892;   -0,265;   -1,682
571,858;23840,461;    2,008;   -1,136
572,439;24734,512;    1,554;   -1,045
573,021;24844,852;    2,099;   -2,773
573,602;25309,388;   -1,265;    0,318
574,183;26194,003;   -2,083;    2,227
574,764;26333,334;   -1,629;    0,409
575,345;26820,342;    0,917;   -0,136
575,926;27468,143;   -0,356;    0,136
576,507;27432,751;    1,099;   -0,227
577,088;28566,539;    3,099;    1,682
577,669;28530,794;    0,735;    1,955
578,250;29203,549;    0,644;   -1,045
578,831;29822,542;   -1,356;   -2,227
579,412;30082,856;   -0,810;    0,955
579,993;31020,464;    1,008;    0,227
580,573;31388,768;   -0,629;   -0,955
581,154;30320,462;    0,735;   -0,591
581,735;31177,945;    0,644;    0,773
582,315;30707,672;   -0,629;    2,136
582,896;30981,062;   -0,174;    1,227
583,477;30500,714;    0,189;    1,227
584,057;30704,888;    0,553;    0,955
584,638;30925,373;    2,553;    2,318
585,218;30854,068;   -0,538;    2,682
585,799;31118,457;    0,281;   -0,227
586,379;31149,812;    0,372;    1,591
586,959;29965,792;    0,735;    0,318
587,540;29288,630;   -0,629;    2,227
588,120;28861,679;    1,007;   -0,045
588,700;27841,149;    2,553;    2,136
589,281;28136,343;    0,462;   -0,955
589,861;28096,651;    0,099;   -1,682
590,441;27912,708;    2,371;   -2,682
591,021;26958,827;   -0,265;   -2,591
591,601;27228,656;   -0,537;    0,500
592,181;27213,774;   -0,719;   -0,773
592,761;26507,790;    0,007;    1,409
593,341;26443,942;   -0,901;    0,045
593,921;26440,963;   -0,265;    1,591
594,501;26320,822;   -0,538;    1,318
595,081;26170,174;    0,917;   -0,318
595,661;26505,969;   -1,447;    0,955
596,240;27025,686;   -0,537;    0,136
596,820;26645,613;    0,372;    1,955
597,400;26768,998;    2,008;    0,773
597,980;27015,711;    2,008;    1,045
598,559;27046,814;    2,735;   -0,227
599,139;26750,545;   -0,174;   -1,227
599,718;26691,091;   -0,174;   -0,409
600,298;26935,390;    0,735;    0,682
600,877;27119,441;    2,917;    1,409
601,457;27458,458;    2,281;    1,136
602,036;27386,473;    0,190;    2,045
602,616;27560,620;    0,644;    1,682
603,195;27864,912;   -0,355;    3,500
603,774;27377,340;   -0,901;    2,045
604,354;27283,311;    0,826;   -0,500
604,933;26844,472;    0,463;    1,864
605,512;26947,010;    3,554;    0,591
606,091;27013,331;   -0,537;    3,773
606,671;27768,519;    0,281;    0,773
607,250;26868,248;    1,644;    3,136
607,829;27167,232;    2,372;    3,227
608,408;27046,208;    1,190;    2,591
608,987;26085,732;    1,281;    3,409
609,566;26381,424;   -1,265;   -2,500
610,145;26432,159;   -1,082;    0,682
610,723;26882,374;    4,372;    6,864
611,302;26119,363;   -0,446;    1,682
611,881;25628,732;    5,008;   11,227
612,460;26503,067;    1,645;    3,955
613,039;26921,902;   -0,082;    2,045
613,617;25655,629;    1,736;    4,773
614,196;25857,279;    1,099;    1,227
614,775;26197,779;    1,009;    2,409
615,353;26171,650;    0,736;    0,864
615,932;25857,440;    0,100;    2,409
616,510;26444,142;    0,554;    0,591
617,089;25952,411;    7,100;   17,591
617,667;25732,350;    2,372;    6,136
618,246;25615,645;   -1,537;    1,318
618,824;25794,344;   -3,355;   -0,955
619,402;25343,890;   -2,900;   -1,773
619,981;25862,154;   -0,173;   -1,045
620,559;25751,754;    0,009;    1,682
621,137;25263,364;   -0,718;    1,864
621,715;25264,124;   -1,173;   -0,682
622,293;25189,514;   -0,537;   -0,773
622,871;25663,728;   -0,718;    0,500
623,450;25278,167;    0,373;   -0,864
624,028;25175,693;    0,191;   -0,955
624,606;24787,079;   -1,718;    1,682
625,183;25182,948;   -1,536;   -1,136
625,761;24784,402;    1,009;    1,136
626,339;25028,143;    1,373;    2,591
626,917;25455,115;   -0,172;   -0,045
627,495;25516,511;   -0,354;    1,318
628,073;24955,804;   -0,263;    2,864
628,650;24653,154;    0,100;    2,136
629,228;25104,285;    0,373;    4,409
629,806;24526,337;    2,282;    1,136
630,383;24786,295;    1,464;   -0,318
630,961;24620,186;    2,555;   -0,955
631,539;24327,081;    2,464;    0,227
632,116;23635,004;   11,373;   15,409
632,694;24181,569;    2,555;    6,500
633,271;24508,395;    0,828;    2,682
633,848;24436,314;    1,828;    2,045
634,426;24546,722;   -1,081;    1,773
635,003;23674,485;    1,101;   -0,409
635,580;23941,664;    1,192;    3,682
636,158;24488,198;    3,737;    1,227
636,735;24491,426;    0,555;   -0,500
637,312;24582,742;   -0,809;   -0,682
637,889;24734,324;   -4,354;   -0,682
638,466;24217,478;   -3,990;   -0,409
639,043;24206,306;    2,101;   -1,136
639,620;24521,184;   -2,262;   -0,955
640,197;24813,588;    1,100;    1,682
640,774;24978,726;   -0,172;    1,136
641,351;25414,864;    0,737;    1,136
641,928;24788,638;   -0,627;    1,409
642,505;24444,867;    0,828;   -0,500
643,082;24600,641;   -1,718;    1,227
643,658;23634,870;   -0,718;    1,500
644,235;24363,644;    1,191;    2,500
644,812;24614,418;    1,918;    0,773
645,388;24382,556;   -0,991;    1,409
645,965;24517,694;   -0,809;    1,682
646,542;24563,196;   -1,445;   -0,227
647,118;24521,970;    1,009;   -0,955
647,695;24844,744;   -0,263;    1,136
648,271;24728,518;   -0,536;    0,500
648,848;25030,474;    0,736;    2,227
649,424;24874,794;    0,827;    1,318
650,000;24616,204;   -0,354;   -1,045
650,577;24424,615;   -0,627;   -0,955
651,153;24933,298;   -1,809;    0,955
651,729;25901,800;    1,191;    0,864
652,305;25999,029;    0,645;    2,773
652,881;29915,530;   -0,082;    1,136
653,458;36458,486;    1,100;    0,227
654,034;40237,806;    0,282;    1,591
654,610;41768,398;    0,554;    0,773
655,186;43109,354;    0,645;    3,045
655,762;42828,128;   -0,991;    0,409
656,338;42876,175;    0,100;    0,136
656,913;43811,404;   -0,082;    0,409
657,489;43128,542;    0,827;   -0,318
658,065;43105,134;   -0,173;   -1,591
658,641;43806,909;   -0,900;   -0,864
659,217;43171,137;   -0,991;    0,409
659,792;42530,002;    0,645;   -0,409
660,368;42780,595;   -2,173;   -0,682
660,944;42562,278;   -2,082;    1,227
661,519;38440,598;   -0,628;    0,409
662,095;32775,281;   -1,719;    0,591
662,670;28152,601;    1,281;   -0,136
663,246;26906,466;    1,009;   -0,409
663,821;26174,422;    0,281;    1,682
664,396;25642,014;    0,009;    1,864
664,972;25940,516;    0,009;   -0,500
665,547;26269,108;    1,372;    0,136
666,122;26231,064;   -1,082;    0,318
666,698;26455,384;   -0,173;    0,318
667,273;25883,613;   -0,173;    0,136
667,848;26694,205;    2,372;    1,500
668,423;26474,434;    2,190;    2,318
668,998;27038,481;    2,827;   -0,682
669,573;27571,982;   -3,264;   -1,500
670,148;27379,120;   -1,446;   -0,682
670,723;27164,803;   -1,810;    0,318
671,298;27566,760;    2,372;    1,045
671,873;27692,443;   -0,082;   -0,136
672,448;27633,490;    0,645;    0,136
673,023;28004,446;   -1,992;   -0,227
673,597;28299,129;    0,827;    2,318
674,172;28089,540;   -0,355;    0,318
674,747;27590,223;    0,372;   -1,045
675,321;27417,270;   -0,628;    3,318
675,896;27035,681;    0,645;    1,045
676,471;27983,727;    2,645;    1,591
677,045;27752,502;   -1,264;    0,682
677,620;27852,003;    0,190;    1,136
678,194;28148,232;   -2,628;    1,136
678,769;27687,552;   -1,083;   -0,318
679,343;27966,871;   -0,628;    1,773
679,917;27831,282;   -1,446;    1,955
680,492;27865,147;    0,826;    3,227
681,066;28043,103;    3,372;    0,409
681,640;28114,604;    1,463;   -0,318
682,214;28918,833;    0,735;    0,500
682,788;28429,789;   -1,356;   -0,773
683,363;28323,836;   -1,810;    1,682
683,937;28036,701;   -1,719;   -0,318
684,511;28798,839;    0,463;   -0,591
685,085;28526,704;   -1,356;    0,318
685,659;28280,842;   -2,538;    0,864
686,232;28520,616;   -0,356;   -0,318
686,806;28272,300;   -0,901;    0,409
687,380;28946,619;   -0,174;    0,591
687,954;29110,848;   -1,174;    1,136
688,528;28801,622;   -0,719;    1,955
689,101;29581,851;   -3,992;    1,045
689,675;29153,080;   -0,356;   -0,136
690,249;28492,400;   -0,719;    0,409
690,822;28799,719;    0,280;    0,318
691,396;28992,675;   -0,265;    1,227
691,969;28469,086;    1,280;    0,136
692,543;28866,678;   -0,447;   -1,955
693,116;28535,816;   -0,265;   -1,409
693,690;28402,772;    0,099;    0,500
694,263;28953,546;   -1,083;    2,955
694,836;28974,775;    1,371;    3,591
695,410;27623,367;   -0,265;    1,773
695,983;28082,596;    0,189;    0,591
696,556;28058,370;   -0,447;   -1,045
697,129;28453,599;   -0,356;    1,409
697,703;28077,646;   -1,629;    1,955
698,276;28131,602;    1,462;   -0,773
698,849;27907,558;    1,280;    1,409
699,422;28294,787;   -1,083;    0,591
699,995;28030,198;    0,007;    0,136
700,568;28474,790;   -0,629;    3,045
701,140;28482,473;   -2,811;    1,682
701,713;28243,884;   -0,174;    2,409
702,286;27989,567;   -0,538;    0,864
702,859;27882,978;   -0,902;   -0,591
703,432;27002,843;    0,825;    0,682
704,004;27502,799;    0,462;    0,318
704,577;27397,937;   -0,629;    0,136
705,150;27996,075;    0,189;    2,500
705,722;27756,667;   -0,356;   -3,227
706,295;27505,168;   -0,175;   -0,591
706,867;27386,943;   -0,175;    1,955
707,440;27567,808;   -1,720;   -0,409
708,012;27819,218;    0,462;    0,591
708,584;27775,629;    2,462;    0,227
709,157;28116,676;    1,825;   -0,591
709,729;27719,541;    2,280;    2,045
710,301;28569,588;    0,734;    0,045
710,874;28570,999;   -1,447;   -0,227
711,446;27475,864;    0,371;    0,864
712,018;27338,092;    0,098;    0,500
712,590;27108,321;   -1,993;    1,682
713,162;27646,732;    0,825;    1,318
713,734;27894,597;    1,825;   -2,045
714,306;27782,553;   -1,902;   -0,409
714,878;26510,509;    0,825;    0,864
715,450;27331,920;    0,643;    0,864
716,022;27616,512;    1,552;    1,318
716,593;27752,377;    0,189;    0,591
717,165;27630,969;   -3,175;   -1,227
717,737;27316,380;    0,280;    0,409
718,309;27011,791;    0,280;   -0,045
718,880;26989,383;   -0,539;   -1,409
719,452;27168,521;   -0,175;   -1,591
720,024;26754,295;    0,734;   -0,591
720,595;27325,887;   -2,902;    0,955
721,167;26922,116;    0,370;   -2,045
721,738;26436,981;   -0,812;   -1,045
722,309;26406,756;   -0,993;   -1,227
722,881;26144,530;   -1,357;    0,773
723,452;26764,122;   -2,630;    2,864
724,023;26943,624;   -0,721;    2,682
724,595;26781,216;    0,007;    0,682
725,166;26519,899;    0,007;   -0,409
725,737;26137,401;    1,734;    0,227
726,308;26257,175;   -0,266;    0,318
726,879;26694,858;   -1,630;    1,227
727,450;26514,724;    0,552;   -0,045
728,021;26540,225;    3,097;    0,682
728,592;26345,817;    0,734;    0,500
729,163;26633,319;    0,643;   -0,136
729,734;26620,275;    0,188;   -0,227
730,305;26984,595;    1,734;    0,136
730,876;27272,823;    0,188;    2,955
731,447;26991,598;    2,188;    2,682
732,017;27117,008;    1,097;    1,864
732,588;26624,601;    0,734;    1,227
733,159;26798,738;    0,643;   -1,045
733,729;26666,876;    0,006;    0,409
734,300;25901,014;    0,915;    0,864
734,870;26355,334;    3,461;    0,591
735,441;26917,744;    0,370;   -0,591
736,011;26635,609;    0,643;   -1,591
736,582;26623,747;   -0,812;    0,045
737,152;26060,431;   -1,721;   -2,045
737,722;26576,659;   -0,267;   -0,682
738,293;26254,070;   -1,358;    1,318
738,863;26146,571;    2,461;    2,318
739,433;25976,709;    5,279;    0,318
740,003;26603,574;   -0,994;   -0,682
740,573;25966,803;    2,097;   -1,591
741,143;25943,850;   -1,085;    0,318
741,713;26695,897;    1,188;   -0,500
742,283;26375,308;    0,915;    1,591
742,853;26212,991;    1,915;    1,591
743,423;25684,492;    1,733;    0,045
743,993;25823,085;   -0,358;    1,500
744,563;25167,586;    0,097;   -0,864
745,133;25162,815;   -0,812;   -0,864
745,702;25905,680;   -0,267;    1,773
746,272;25071,364;   -0,176;    0,591
746,842;24834,229;   -1,358;   -0,591
747,411;25273,276;   -0,267;   -0,318
747,981;25486,868;    0,097;    0,500
748,551;25468,188;    2,278;   -1,045
749,120;25346,144;    0,642;   -0,227
749,690;25732,918;   -0,631;    2,409
750,259;26044,510;    1,369;    2,955
750,828;25934,103;    1,551;   -1,955
751,398;26234,968;    1,278;   -0,045
751,967;25715,197;    2,187;    0,409
752,536;25947,516;   -0,813;   -0,227
753,105;26355,109;    0,096;    0,227
753,675;26115,156;    0,096;    1,773
754,244;26116,748;   -0,904;    3,591
754,813;26095,249;    0,551;    1,227
755,382;25711,115;    0,460;    0,955
755,951;26236,980;    1,551;    3,682
756,520;25740,390;   -0,085;    1,864
757,089;26306,437;    0,278;    0,500
757,658;26453,030;    1,733;    1,227
758,227;26482,167;    1,096;    0,318
758,795;26798,033;    1,187;    1,136
759,364;27019,170;   -0,086;   -0,591
759,933;26005,581;   -1,176;   -0,045
760,501;25555,446;    0,733;   -1,318
761,070;26052,129;   -2,813;   -1,409
761,639;26734,904;   -1,904;    1,318
762,207;26047,860;    1,551;   -0,955
762,776;25971,998;    0,369;    0,864
763,344;25970,226;   -0,995;    0,591
763,913;25140,728;   -0,722;    1,409
764,481;25852,320;    1,005;   -0,136
765,049;25621,004;   -1,358;    1,409
765,618;25523,050;   -0,086;    0,318
766,186;25593,552;    0,278;    0,136
766,754;25773,781;    0,005;    1,864
767,322;24795,373;   -1,995;    0,409
767,890;24815,875;   -0,722;   -1,773
768,459;25237,103;   -2,177;   -0,318
769,027;25366,696;    1,641;    3,409
769,595;24386,470;    3,278;    2,591
770,163;24842,153;    3,823;    2,955
770,730;24602,018;    0,732;   -0,136
771,298;24451,520;    0,187;   -1,409
771,866;24630,567;   -1,541;    4,955
772,434;24888,705;   -0,631;   -1,864
773,002;25015,479;    0,005;    0,682
773,569;24696,162;    0,914;    1,682
774,137;24506,482;   -0,268;   -0,045
774,705;25270,983;    0,278;   -0,136
775,272;24819,303;    0,641;    0,682
775,840;24595,168;   -0,177;    2,682
776,407;24104,306;    0,277;    1,955
776,975;23714,535;   -0,632;    0,318
777,542;24718,764;   -1,086;   -0,045
778,110;24549,356;   -1,268;   -0,045
778,677;24232,767;   -2,359;   -0,864
779,244;24026,359;    2,186;    1,045
779,812;24135,224;    1,823;    0,864
780,379;23964,907;    0,005;    1,136
780,946;24235,227;    1,005;   -0,773
781,513;24615,728;   -1,450;    0,318
782,080;23908,775;   -0,086;    2,864
782,647;24639,731;   -0,268;    3,045
783,214;24234,324;   -0,177;    3,864
783,781;23860,644;   -0,723;   -0,682
784,348;23741,418;   -0,632;    1,500
784,915;24213,010;   -3,177;    0,318
785,482;23958,966;    1,368;    2,591
786,049;24411,013;    0,186;   -0,591
786,615;24496,060;    0,277;   -0,955
787,182;24273,289;    0,186;   -0,682
787,749;23955,881;   -2,814;    1,409
788,315;23290,746;   -1,632;   -0,409
788,882;23580,521;    1,550;   -1,227
789,448;24237,931;    1,732;   -0,955
790,015;24244,433;    1,095;    3,227
790,581;23844,298;    1,459;    0,227
791,148;23762,527;    0,641;    1,045
791,714;23996,483;   -0,541;    3,136
792,280;23671,711;    0,186;    1,591
792,847;23227,031;    0,550;    2,500
793,413;23764,714;   -0,269;   -0,318
793,979;23318,579;    3,459;   -1,318
794,545;23417,081;    4,459;    2,682
795,111;22806,491;    2,186;    1,318
795,678;22999,175;    0,731;   -1,682
796,244;22636,676;    3,368;    0,136
796,810;23218,996;    1,731;    0,773
797,375;22928,497;    0,549;   -2,136
797,941;22938,272;   -0,541;    0,591
798,507;23092,319;   -0,451;   -0,955
799,073;22623,275;   -0,360;    0,591
799,639;22758,685;   -2,632;    3,136
800,205;22757,459;    0,095;    2,682
800,770;22267,143;    0,640;    1,773
801,336;22362,644;    1,368;   -0,955
801,901;22049,328;    4,549;    3,136
802,467;22655,011;   -0,542;    2,045
803,033;21981,876;   -0,087;    0,864
803,598;22229,287;    1,913;   -1,045
804,163;22254,515;    1,095;   -0,318
804,729;22191,108;   -0,178;    1,136
805,294;22571,791;    0,822;    2,227
805,859;22378,202;    0,731;   -0,409
806,425;21859,158;    1,186;    2,682
806,990;21489,114;    2,186;    4,318
807,555;21984,251;   -1,451;    2,591
808,120;21851,935;    0,822;   -0,409
808,685;21967,345;    0,185;   -2,500
809,250;21487,574;    0,004;   -0,500
809,815;21787,167;    1,913;    0,682
810,380;22295,577;   -0,269;    1,591
810,945;22832,988;   -1,087;    2,045
811,510;21997,398;    2,094;    1,591
812,075;21755,627;   -0,633;   -1,409
812,640;21753,129;    2,003;    1,409
813,204;21831,903;    0,822;   -0,227
813,769;22314,131;    2,094;   -0,045
814,334;21702,269;    0,458;    0,864
814,898;21782,316;    0,367;    0,591
815,463;21597,090;    1,276;   -0,773
816,027;21588,592;   -0,724;   -2,318
816,592;21736,639;    0,640;   -2,045
817,156;21272,686;    2,094;    1,136
817,721;21108,551;    4,276;    2,318
818,285;21065,325;    2,912;    1,500
818,849;21699,463;   -1,451;    1,682
819,414;21546,783;   -0,269;    2,955
819,978;21191,557;   -1,269;    1,773
820,542;21751,058;    2,003;    0,500
821,106;21441,287;   -0,815;    0,682
821,670;21530,334;   -0,815;    2,591
822,234;21290,472;   -0,270;    1,409
822,798;20657,610;    0,003;    0,500
823,362;20575,111;   -0,633;    4,227
823,926;19960,431;    0,094;    1,136
824,490;20165,478;   -0,997;   -0,682
825,054;20653,070;   -0,088;   -1,136
825,618;20263,117;   -1,542;   -1,500
826,181;20183,801;    0,458;   -1,318
826,745;20107,484;    1,367;   -1,045
827,309;20444,713;    1,185;    1,318
827,872;19822,669;    1,367;    0,955
828,436;20811,352;    1,185;   -0,773
828,999;20868,581;   -0,997;    1,227
829,563;19717,446;   -0,179;    1,136
830,126;19544,766;   -0,179;   -0,591
830,690;19570,903;   -1,997;    2,864
831,253;19102,678;   -0,543;    2,227
831,816;19220,725;   -1,906;    0,500
832,380;19140,681;    0,185;    0,864
832,943;19371,182;   -1,361;   -0,500
833,506;18827,138;    2,639;   -1,227
834,069;19674,458;    3,912;   -0,955
834,632;19718,959;    1,730;    1,318
835,195;19610,370;    1,003;    0,955
835,758;18798,780;   -0,997;    1,955
836,321;18672,555;    0,730;   -1,045
836,884;18770,965;   -0,725;   -0,955
837,447;18815,739;   -2,816;    1,773
838,010;19059,514;    0,366;    3,227
838,573;19350,651;   -1,179;    0,773
839,135;19343,880;   -1,361;   -0,955
839,698;18802,836;    1,275;    0,409
840,261;18297,429;    1,003;   -0,227
840,823;18138,294;   -0,543;    0,864
841,386;18439,523;   -0,452;   -2,409
841,948;18307,660;   -1,361;    1,773
842,511;18095,707;    0,912;    1,682
843,073;18212,936;    1,912;    0,227
843,636;18019,165;   -0,361;   -0,227
844,198;17942,212;    0,911;    0,591
844,760;18062,532;    1,093;    1,955
845,322;17726,397;    0,548;    1,136
845,885;18127,262;    0,730;    0,591
846,447;18590,127;   -1,998;    0,227
847,009;18156,810;    1,911;   -0,682
847,571;18472,221;    0,820;   -2,045
848,133;18540,086;   -1,089;   -1,864
848,695;18384,315;   -0,543;    1,409
849,257;17950,998;   -1,089;   -1,682
849,819;18116,863;   -0,998;   -0,409
850,381;18171,910;   -0,725;   -0,864
850,942;18528,957;    1,093;   -0,591
851,504;18451,277;    1,184;    0,227
852,066;18496,505;    1,275;   -1,591
852,628;18046,916;   -0,180;    1,955
853,189;17628,145;    1,638;    2,682
853,751;17762,919;   -0,907;    1,409
854,312;17557,330;   -0,453;   -1,682
854,874;18037,558;   -2,089;   -0,773
855,435;18518,696;   -0,907;   -1,682
855,997;18734,016;   -1,816;   -0,136
856,558;18005,245;    0,366;    1,773
857,119;18130,655;    0,820;    2,864
857,681;17832,157;    0,002;    0,318
858,242;17866,022;    1,911;   -2,136
858,803;18280,887;    0,456;   -0,773
859,364;18891,570;    0,184;   -4,773
859,925;18223,617;   -2,453;   -0,955
860,486;18123,573;   -0,453;   -0,955
861,047;17813,529;   -0,544;   -1,227
861,608;17609,213;   -1,089;   -0,773
862,169;17760,623;    0,638;   -0,045
862,730;17548,034;    0,456;    1,409
863,291;17776,172;   -0,635;   -0,500
863,852;18121,400;   -0,635;    1,955
864,412;17621,174;   -0,271;   -0,864
864,973;16220,403;   -0,089;    0,500
865,534;16078,905;   -1,726;    0,227
866,094;17585,679;    1,820;    0,227
866,655;17215,908;    1,274;    3,318
867,215;17530,682;    0,274;    0,136
867,776;17384,183;    0,547;   -0,136
868,336;17450,867;   -1,453;    0,136
868,897;16903,732;    2,638;    1,682
869,457;16659,779;    1,365;    0,318
870,017;16943,917;    0,547;   -1,227
870,578;17433,691;   -0,817;    0,773
871,138;17092,465;   -2,089;   -0,955
871,698;16655,421;   -0,817;   -1,318
872,258;16570,832;   -0,453;   -2,864
872,818;16939,424;    2,729;    0,045
873,378;16859,380;    0,638;    1,045
873,938;16383,700;    0,547;    0,500
874,498;16739,201;    0,274;   -1,955
875,058;16660,430;    2,183;    1,773
875,618;16538,659;    1,910;   -2,682
876,177;16436,615;    1,274;    0,136
876,737;16032,298;   -0,090;    1,955
877,297;16017,527;    0,183;    1,955
877,856;16058,028;   -0,362;    0,318
878,416;15998,439;    1,183;   -0,136
878,976;16223,486;   -1,817;    0,409
879,535;16407,442;    0,092;    3,136
880,095;16131,943;   -0,544;    0,045
880,654;16241,354;   -1,090;    1,318
881,213;16305,765;    2,456;    1,500
881,773;15971,630;    2,637;    2,682
882,332;16346,495;    3,365;    5,136
882,891;16137,360;    3,092;    2,136
883,451;16627,134;   -1,272;    1,682
884,010;16136,908;   -2,908;   -0,409
884,569;16201,228;   -0,999;   -0,045
885,128;16315,093;    2,819;   -1,864
885,687;16385,140;    4,455;    0,682
886,246;16089,187;    1,455;    2,136
886,805;15854,779;    2,455;    2,045
887,364;16192,281;   -0,999;   -0,500
887,922;16516,055;   -1,181;    0,045
888,481;16022,648;   -1,545;    0,591
889,040;16326,604;    1,183;    2,136
889,599;17012,287;    2,455;    1,409
890,157;17103,607;    1,455;    2,409
890,716;16709,835;   -0,090;    0,227
891,274;16526,791;    0,092;   -1,136
891,833;16975,202;    1,546;    0,864
892,391;16841,613;   -0,454;    0,500
892,950;16921,205;    1,819;   -0,773
893,508;17281,434;    0,455;   -0,409
894,067;16695,844;    0,637;    0,136
894,625;16554,255;   -0,636;   -1,500
895,183;16779,029;   -0,363;   -0,682
895,741;16640,712;    1,728;   -1,773
896,299;16535,577;   -0,545;   -2,409
896,858;16733,624;    0,819;   -1,591
897,416;16842,035;    2,728;   -1,318
897,974;16540,355;    1,819;    0,318
898,532;16664,674;    6,091;    2,682
899,089;16596,630;    2,091;   -0,682
899,647;16690,223;   -1,454;    1,318
900,205;16375,270;    1,182;    1,045
900,763;16568,862;   -0,454;    0,227
901,321;16620,636;    2,364;   -1,409
901,878;16088,774;   -1,000;   -0,773
902,436;15934,276;   -1,363;    1,318
902,994;16352,686;    4,728;    3,682
903,551;15786,824;    0,728;    0,409
904,109;16145,507;    0,182;   -1,409
904,666;15738,009;    2,455;    1,045
905,224;15586,783;    0,182;   -0,409
905,781;15305,739;    0,727;   -0,318
906,338;15408,695;   -1,363;    1,045
906,895;15340,015;    0,637;    2,045
907,453;15305,698;    1,727;    1,136
908,010;15338,381;   -0,909;    0,409
908,567;14950,065;    1,273;    0,591
909,124;14469,475;    0,364;   -1,500
909,681;14558,431;   -2,909;    0,682
910,238;14710,115;    0,636;   -1,318
910,795;15036,071;   -0,273;   -1,136
911,352;14664,707;   -2,909;   -2,682
911,909;14082,343;   -1,364;   -0,864
912,466;14570,889;   -3,182;    1,500
913,022;14101,253;   -1,636;    0,500
913,579;14462,616;   -0,909;    2,045
914,136;14184,707;    1,636;    0,955
914,692;14522,889;    0,091;   -1,227
915,249;14120,071;    1,455;    0,409
915,806;14317,253;    0,182;    1,955
916,362;14130,343;    1,909;    1,864
916,918;13646,071;    2,000;    1,045
917,475;13626,343;   -1,182;    0,955
918,031;13709,616;    3,364;   -0,045
918,587;13186,343;   -0,909;   -0,318
919,144;13404,253;   -2,273;    0,227
919,700;13709,980;    1,727;    0,773
920,256;13306,434;    0,727;    0,045
920,812;12923,980;   -0,727;   -1,045
921,368;12927,253;   -1,727;   -1,045
921,924;12578,253;    0,182;   -0,136
922,480;12181,071;   -0,545;    1,227
923,036;12740,707;    1,273;    1,955
923,592;12680,889;    0,455;    0,318
924,148;12605,434;    0,455;   -0,955
924,704;11942,707;   -1,364;   -0,409
925,259;12233,071;   -0,273;    0,591
925,815;11975,616;    1,455;    0,500
926,371;11503,616;    2,909;    1,409
926,926;11382,071;    2,091;    0,591
927,482;11046,162;   -1,364;    0,773
928,037;10898,525;    0,909;    2,045
928,593;11162,980;    1,636;    1,045
929,148;11034,980;   -1,818;   -1,500
929,704;10545,253;   -1,455;   -0,500
930,259;10735,980;    0,091;   -0,136
930,814; 9826,798;   -0,818;    1,955
931,369; 9537,253;    1,091;   -0,773
931,925; 9436,707;   -0,091;    0,136
932,480; 9334,707;   -2,818;   -2,591
933,035; 9211,253;    0,545;   -0,318
933,590; 8994,616;    0,364;   -1,773
934,145; 8664,889;   -1,364;   -0,318
934,700; 8985,889;    0,455;   -0,591
935,255; 8799,162;   -0,091;    0,045
935,809; 8091,980;    3,182;    0,864
936,364; 7249,798;   -0,455;   -0,136
936,919; 7206,071;    0,455;   -1,773
937,474; 7133,707;    1,455;    0,136
938,028; 6876,253;   -1,636;    1,136
938,583; 6361,253;    1,818;    4,682
939,138; 6628,798;    2,091;    2,136
939,692; 6083,525;    1,636;   -1,136
940,247; 5772,616;   -0,727;   -1,045
940,801; 5344,798;   -0,636;    0,227
941,355; 5304,889;   -0,364;    2,591
941,910; 4942,071;   -0,273;   -2,136
942,464; 5022,616;   -0,818;   -0,318
943,018; 4826,889;    1,000;   -0,227
943,572; 4782,162;    2,545;   -0,682
944,126; 4216,525;    0,091;   -0,409
944,681; 4105,980;    3,091;    0,227
945,235; 4076,889;    1,000;   -0,591
945,789; 4034,253;    0,364;   -1,864
946,342; 4124,071;    0,455;   -0,591
946,896; 3930,889;   -2,273;    0,955
947,450; 3704,889;    1,545;   -0,227
948,004; 3888,253;    1,727;   -0,045
948,558; 3886,707;    0,273;   -0,864
949,111; 3824,525;   -0,273;   -0,318
949,665; 3848,980;    1,636;   -0,682
950,219; 3725,434;   -0,091;   -1,045
950,772; 3805,889;   -1,909;    1,864
951,326; 3708,707;    0,545;   -0,955
951,879; 3796,071;    0,727;   -2,318
952,433; 3812,253;    0,000;    2,227
952,986; 3667,071;    2,909;    0,682
953,539; 3624,798;   -0,273;    0,591
954,093; 3567,434;    0,545;   -1,318
954,646; 3690,707;    0,909;    1,318
955,199; 3507,162;    0,000;   -0,500
955,752; 3395,707;   -0,455;    1,773
956,305; 3363,707;   -0,091;    2,955
956,858; 3501,707;    0,818;   -0,318
957,411; 3689,071;   -0,545;    2,136
957,964; 3522,162;    1,364;    2,136
958,517; 3522,253;   -1,545;    3,136
959,070; 3351,798;   -0,455;    1,955
959,623; 3424,071;    1,091;    1,500
960,176; 3210,343;    1,727;    2,045
960,728; 3167,616;   -2,727;    0,773
961,281; 3232,798;    0,545;    0,500
961,834; 3281,525;   -0,909;    0,864
962,386; 3196,889;    1,727;    1,045
962,939; 3119,798;    0,364;   -0,318
963,491; 3258,071;    0,455;    1,136
964,043; 3131,434;    1,182;    2,409
964,596; 3246,525;   -1,000;    2,227
965,148; 3094,616;   -1,000;    1,773
965,700; 3013,707;    1,091;   -0,227
966,253; 3161,343;   -0,636;    0,318
966,805; 3019,343;   -2,273;    0,773
967,357; 3062,162;    1,091;   -1,500
967,909; 3028,798;    0,455;   -1,227
968,461; 3141,616;    0,545;    3,136
969,013; 3064,162;   -0,182;   -0,864
969,565; 3123,798;   -0,455;   -1,136
970,117; 3215,343;   -0,364;    1,045
970,669; 3039,525;    0,182;   -0,136
971,220; 2911,162;   -0,455;   -1,500
971,772; 2834,798;   -0,636;   -0,318
972,324; 2952,343;    0,091;   -0,500
972,876; 2909,434;    0,818;   -0,045
973,427; 3032,071;    1,909;   -1,045
973,979; 3007,798;   -0,727;   -2,500
974,530; 3034,162;    1,818;    1,318
975,082; 3035,434;   -0,545;    1,682
975,633; 2947,162;    1,091;    1,682
976,184; 3072,253;    0,909;    0,773
976,736; 2885,707;    0,091;    0,227
977,287; 2699,162;   -0,909;   -0,500
977,838; 2873,889;    0,909;   -0,318
978,389; 2917,889;   -1,000;   -0,500
978,940; 2813,616;    0,545;   -0,409
979,491; 2829,525;    0,091;   -0,500
980,042; 2782,343;    0,182;    3,045
980,593; 2856,162;   -2,545;    0,227
981,144; 2897,253;    2,545;   -0,500
981,695; 2867,071;    1,455;    1,500
982,246; 2817,253;   -0,273;    1,045
982,797; 2957,798;   -1,727;    0,682
983,347; 3059,980;    0,364;    0,591
983,898; 3238,071;    3,091;    0,409
984,449; 3064,434;    2,182;    0,773
984,999; 2962,707;    1,455;   -1,136
985,550; 2759,525;    0,182;   -0,318
986,100; 2814,707;   -0,455;   -0,318
986,651; 2841,889;   -0,818;    0,045
987,201; 2817,343;   -1,000;   -0,591
987,751; 2888,162;    0,818;    2,864
988,302; 2865,798;    2,636;    1,500
988,852; 2882,980;    0,455;   -1,136
989,402; 2926,071;    0,091;    0,682
989,952; 2862,071;   -2,182;    0,864
990,502; 2959,707;   -0,091;    0,682
991,052; 2931,889;   -0,727;    0,045
991,602; 2783,707;   -2,909;    1,318
992,152; 2792,253;    0,455;    0,682
992,702; 2772,343;    1,364;   -0,045
993,252; 2699,707;   -3,000;   -0,500
993,802; 2799,707;   -0,273;    1,318
994,352; 3010,980;   -1,545;    1,136
994,901; 3103,980;   -0,182;    3,227
995,451; 3000,434;   -0,182;    0,318
996,000; 3104,071;    1,636;    0,318
996,550; 2837,980;    2,273;    0,227
997,100; 2827,616;    1,273;   -0,045
997,649; 3113,616;    2,182;    0,955
998,198; 2761,980;    1,727;   -1,500
998,748; 2939,525;    1,091;   -2,318
999,297; 2868,889;   -0,818;   -0,409
999,846; 2919,798;    1,000;   -0,773
1000,395; 2959,343;   -0,818;    0,500
1000,945; 2912,616;    1,818;   -0,773
1001,494; 2994,434;    2,364;    0,682
1002,043; 2991,343;    4,636;    0,864
1002,592; 2828,525;   -1,091;    1,955
1003,141; 2964,071;   -0,455;   -0,682
1003,690; 2835,798;    1,727;    0,500
1004,238; 2917,071;    1,455;   -0,045
1004,787; 2577,980;    1,364;    1,227
1005,336; 2802,343;    0,364;    0,682
1005,885; 2941,798;    1,364;   -2,773
1006,433; 3083,707;    0,545;    0,955
1006,982; 3129,889;    0,455;    1,682
1007,531; 3023,798;   -1,818;   -0,227
1008,079; 2992,343;   -2,273;    0,500
1008,627; 3124,889;   -1,455;    0,409
1009,176; 2874,253;    0,000;   -1,955
1009,724; 2946,434;    1,091;    0,864
1010,273; 2971,525;    1,273;    0,500
1010,821; 3071,707;    0,091;    1,409
1011,369; 2824,253;   -1,364;    1,318
1011,917; 2810,707;   -1,364;   -0,591
1012,465; 3100,889;    1,273;   -1,591
1013,013; 3200,707;    2,091;   -1,682
1013,561; 3076,889;    0,455;   -0,773
1014,109; 3118,525;   -1,909;    1,682
1014,657; 3024,616;    0,364;    0,591
1015,205; 3129,616;    1,636;   -0,955
1015,753; 3174,162;   -0,545;   -1,409
1016,301; 3202,434;   -2,636;    3,045
1016,848; 3200,798;   -1,273;    0,409
1017,396; 3234,798;    2,545;    0,045
1017,944; 3353,343;    1,182;    1,864
1018,491; 3127,798;    0,273;    1,409
1019,039; 3266,525;    0,455;    0,591
1019,586; 3210,162;   -1,364;    1,682
1020,134; 3303,798;    0,455;    1,500
1020,681; 3319,980;    0,182;   -1,136
1021,228; 3316,525;    2,909;   -2,227
1021,776; 3171,980;    1,182;   -1,136
1022,323; 3372,434;    0,455;    0,773
1022,870; 3318,798;   -1,000;   -0,045
1023,417; 3216,253;    2,636;    1,864
1023,964; 3355,162;    2,636;    1,227
1024,511; 3203,343;    1,000;    0,773
1025,058; 3008,980;    3,182;   -0,045
1025,605; 3066,525;   -2,273;    3,136
1026,152; 3259,616;    1,727;   -0,591
1026,699; 2994,071;    1,818;    1,318
1027,245; 3157,253;   -0,091;    0,318
1027,792; 3379,889;   -1,000;    1,409
1028,339; 3240,253;    2,364;   -0,045
1028,885; 3113,434;    1,000;   -0,227
1029,432; 3067,525;   -0,091;    0,227
1029,978; 3118,889;   -1,000;   -1,591
1030,525; 3017,525;    1,000;    0,409
1031,071; 3259,616;   -1,364;    1,136
1031,618; 3346,798;    0,364;    1,682
1032,164; 3156,434;   -0,091;    3,045
1032,710; 3210,162;    1,636;   -1,500
1033,256; 3108,162;   -0,636;   -0,136
1033,803; 3106,889;   -0,545;    1,500
1034,349; 2847,434;   -1,364;    0,136
1034,895; 2996,889;    0,000;   -0,318
1035,441; 2967,434;   -0,818;    0,318
1035,987; 2963,980;   -2,364;   -0,682
1036,533; 2959,162;   -1,455;   -0,955
1037,078; 3156,525;    1,455;    1,682
1037,624; 2988,980;    2,455;   -0,955
1038,170; 3015,071;    0,455;   -0,318
1038,716; 2905,616;    1,636;   -0,409
1039,261; 2825,253;   -2,273;   -0,773
1039,807; 2786,980;   -0,091;    3,409
1040,352; 2864,707;   -1,909;   -0,318
1040,898; 2891,525;   -1,545;   -0,682
1041,443; 2805,889;   -1,455;   -2,591
1041,989; 2818,162;    1,091;    1,591
1042,534; 2712,798;   -0,364;    2,591
1043,079; 2824,707;    2,909;    0,955
1043,625; 2605,980;    1,818;    0,500
1044,170; 2662,253;   -1,364;    1,045
1044,715; 2902,071;    2,455;    0,955
1045,260; 2722,162;    2,182;   -0,955
1045,805; 2781,434;    1,182;   -0,591
1046,350; 2710,071;    1,364;   -0,409
1046,895; 2658,525;    2,909;    1,591
1047,440; 2615,980;    5,364;    0,409
1047,985; 2525,980;    2,818;   -0,955
1048,530; 2438,071;    1,545;    1,227
1049,074; 2503,980;    0,000;    0,318
1049,619; 2495,343;   -1,364;    1,955
1050,164; 2304,525;    0,455;    0,227
1050,708; 2344,343;   -0,455;    0,045
1051,253; 2701,525;    1,273;   -2,227
1051,797; 2405,162;    0,818;   -1,318
1052,342; 2421,162;   -1,182;    1,045
1052,886; 2419,798;    0,364;   -1,409
1053,430; 2291,253;   -1,364;    0,136
1053,975; 2314,616;   -0,818;   -0,318
1054,519; 2292,434;   -0,727;    3,227
1055,063; 2299,071;    0,909;    1,318
1055,607; 2190,980;   -0,182;    0,227
1056,151; 2216,162;    2,909;    1,682
1056,695; 2140,162;    2,273;   -1,136
1057,239; 2199,525;   -1,727;   -0,682
1057,783; 2208,798;    0,818;   -1,500
1058,327; 2165,798;    0,000;    1,409
1058,871; 2389,525;   -0,545;    1,318
1059,415; 2095,889;   -0,818;   -0,045
1059,958; 2360,616;    1,455;    2,591
1060,502; 2078,253;   -1,000;   -0,773
1061,046; 1981,343;    0,364;   -0,955
1061,589; 1978,253;   -3,000;   -1,136
1062,133; 1858,525;   -1,273;    1,864
1062,676; 1782,707;    1,182;    0,864
1063,220; 1796,798;    1,091;    0,500
1063,763; 1818,253;    0,909;    1,136
1064,306; 1900,980;   -0,909;    1,864
1064,849; 1789,980;   -0,909;    0,591
1065,393; 1782,071;    2,000;   -1,500
1065,936; 1894,253;    0,182;   -0,409
1066,479; 1789,162;   -1,455;    1,318
1067,022; 1803,434;   -0,273;   -0,227
1067,565; 1706,434;   -0,091;   -1,318
1068,108; 1744,707;    0,727;   -0,591
1068,651; 1720,707;   -0,636;    1,409
1069,194; 1634,434;   -0,455;   -1,682
1069,736; 1639,616;   -1,273;    0,955
1070,279; 1619,798;   -1,364;   -0,500
1070,822; 1662,889;   -2,000;   -0,318
1071,364; 1751,343;   -0,364;    1,318
1071,907; 1578,616;   -0,727;    3,227
1072,450; 1485,889;    0,000;   -0,045
1072,992; 1473,071;   -0,273;    3,136
1073,535; 1618,889;    2,091;    2,136
1074,077; 1405,980;   -0,727;    2,045
1074,619; 1375,253;   -1,364;    0,591
1075,161; 1407,707;   -1,091;    1,500
1075,704; 1583,525;    1,545;    1,227
1076,246; 1403,434;   -0,182;    0,682
1076,788; 1331,889;   -0,364;    1,773
1077,330; 1404,525;    1,273;    2,136
1077,872; 1360,343;    0,909;    0,955
1078,414; 1580,798;    2,727;    0,773
1078,956; 1320,707;    1,273;   -0,227
1079,498; 1576,343;    1,636;    0,318
1080,040; 1277,162;    1,909;   -1,318
1080,581; 1221,343;    1,636;   -0,318
1081,123; 1150,707;    0,091;   -0,773
1081,665; 1194,798;   -1,182;   -0,955
1082,206; 1497,434;    1,364;   -0,500
1082,748; 1341,253;    0,727;    2,045
1083,289; 1234,162;   -2,000;    1,318
1083,831; 1134,434;   -0,545;    0,227
1084,372; 1171,707;    0,000;    0,591
1084,913; 1182,343;    1,091;    0,864
1085,455; 1150,071;   -1,909;   -2,045
1085,996; 1110,434;   -2,273;    0,136
1086,537; 1129,253;   -0,091;    0,864
1087,078; 1166,980;   -0,909;   -2,136
1087,619; 1198,525;   -1,273;    0,227
1088,160; 1118,253;    0,000;    1,318
1088,701; 1107,343;   -1,091;    0,682
1089,242; 1052,343;    1,364;   -2,227
1089,783; 1141,343;   -0,273;    1,409
1090,324; 1112,071;    0,455;    0,682
1090,865;  996,707;    2,727;   -0,409
1091,405;  963,071;    0,727;    2,227
1091,946;  985,707;    0,182;   -0,955
1092,487;  913,980;    0,818;   -1,409
1093,027; 1075,162;   -1,364;   -1,500
1093,568;  934,343;   -0,364;    1,227
1094,108; 1029,253;    0,273;    1,773
1094,649;  975,980;   -1,182;    0,136
1095,189;  909,162;   -0,636;   -0,682
1095,729;  853,889;   -0,091;    0,955
1096,269;  860,343;    0,727;   -0,955
1096,810; 1180,525;   -1,364;    0,500
1097,350; 1012,434;    1,364;   -0,773
1097,890;  917,980;    0,364;    1,227
1098,430; 1147,162;    2,364;    2,864
1098,970; 1024,889;    2,182;    1,682
1099,510;  896,980;    0,545;   -2,318
1100,050;  823,162;    1,000;   -1,591
1100,589;  780,798;   -0,727;   -0,318
1101,129;  901,343;    0,818;   -0,955
1101,669; 1056,162;    1,727;    2,136
1102,209;  886,980;   -0,091;    2,227
1102,748;  843,707;    0,000;    0,955
1103,288;  817,616;    1,273;   -1,227
1103,827;  851,434;    3,091;   -2,227
1104,367;  727,253;   -0,091;   -2,409
1104,906;  705,253;    1,364;   -1,136
1105,445;  772,707;    0,636;   -1,136
1105,985;  717,798;   -0,727;    1,500
1106,524;  757,525;   -1,727;   -0,682
1107,063;  738,980;   -2,727;    1,409
1107,602;  710,798;   -1,909;   -1,500
1108,141;  632,980;   -1,909;    1,500
1108,680;  730,343;   -3,455;   -0,591
1109,219;  669,707;   -0,909;   -0,500
1109,758;  673,253;    0,455;    0,682
1110,297;  646,253;    1,000;   -0,682
1110,836;  588,798;   -0,727;    0,955
1111,375;  746,162;   -2,545;    0,409
1111,913;  772,707;   -1,000;    0,773
1112,452;  704,434;   -0,273;    0,136
1112,991;  586,798;    1,091;    1,955
1113,529;  544,343;   -0,818;   -0,045
1114,068;  608,616;   -0,273;    2,955
1114,606;  520,798;   -0,364;   -0,955
1115,144;  673,889;   -1,273;    1,045
1115,683;  615,707;   -0,727;    0,318
1116,221;  662,616;   -0,455;   -0,864
1116,759;  574,343;    0,636;   -0,864
1117,297;  761,889;    0,000;    1,864
1117,836;  574,616;   -2,182;   -1,227
1118,374;  585,525;    0,182;   -0,682
1118,912;  527,798;    0,909;    2,682
1119,450;  516,071;    1,000;    0,864
1119,988;  576,525;    1,545;    2,136
1120,525; 1017,434;    5,091;    3,318
1121,063;  728,162;    1,182;    1,864
1121,601;  526,162;   -0,909;   -1,227
1122,139;  480,525;   -0,727;   -2,045
1122,676;  677,707;   -0,727;    2,773
1123,214;  611,889;   -1,182;    4,409
1123,751;  421,889;    1,727;    2,227
1124,289;  554,434;   -0,091;   -0,409
1124,826;  421,253;    1,727;    0,227
1125,364;  341,616;    1,727;   -0,955
1125,901;  529,434;    1,182;    1,227
1126,438;  641,343;    0,818;    0,955
1126,975;  373,889;   -0,727;   -0,773
1127,513;  443,707;    0,273;    2,136
1128,050;  347,253;    1,636;   -0,682
1128,587;  450,798;    2,000;   -0,227
1129,124;  485,889;    0,091;    1,318
1129,661;  359,980;    0,273;    0,227
1130,198;  526,071;    1,636;    0,773
1130,734;  470,889;    0,182;    1,409
1131,271;  333,071;   -0,909;    0,864
1131,808;  500,343;    2,909;    3,045
1132,345;  372,707;    1,545;    0,318
1132,881;  245,889;   -1,545;   -1,864
1133,418;  383,434;    0,727;   -1,136
1133,954;  321,980;    2,455;   -2,682
1134,491;  388,616;    1,364;   -0,773
1135,027;  295,616;    2,364;    0,864
1135,564;  376,434;    0,273;    2,955
1136,100;  363,889;    0,364;    2,136
1136,636;  261,525;   -1,273;   -1,045
1137,172;  355,889;    0,000;   -1,045
1137,708;  277,889;   -1,364;   -1,045
1138,245;  281,798;    1,273;   -1,227
1138,781;  234,253;    1,091;   -3,318
1139,317;  304,253;    1,273;   -1,409
1139,852;  285,980;    3,091;    0,136
1140,388;  400,980;   -1,182;   -0,409
1140,924;  281,616;   -1,091;   -2,227
1141,460;  222,253;   -1,636;    0,136
1141,996;  172,071;   -1,364;    2,682
1142,531;  204,253;    1,364;    3,318
1143,067;  417,343;    1,182;    1,045
1143,602;  474,162;   -0,091;   -0,318
1144,138;  320,707;   -2,636;    1,045
1144,673;  198,616;   -1,455;    1,409
1145,209;  252,707;   -1,909;   -0,318
1145,744;  176,071;   -0,727;    0,864
1146,279;  313,616;    1,818;   -0,136
1146,815;  226,798;    1,545;   -2,682
1147,350;  273,889;   -1,364;    0,045
1147,885;  188,343;   -0,818;   -1,318
1148,420;  187,162;   -2,273;    0,773
1148,955;  164,434;   -1,727;    1,864
1149,490;  191,434;   -0,909;   -1,591
1150,025;  183,980;    0,455;   -1,773
1150,560;  281,525;    1,091;   -0,955
1151,094;  251,343;    1,455;   -0,591
1151,629;  253,253;    1,636;    0,864
1152,164;  178,162;    1,364;    1,318
1152,698;  137,980;   -0,182;   -0,136
1153,233;  105,071;    0,091;   -0,682
1153,767;  149,980;   -3,000;   -2,318
1154,302;  192,889;   -1,455;    1,773
1154,836;  199,616;   -0,455;   -2,136
1155,371;  247,707;   -1,364;    3,682
1155,905;  198,253;   -0,636;    1,682
1156,439;  170,071;   -0,636;   -0,500
1156,973;  201,434;    0,364;    0,318
1157,507;  145,434;   -0,364;    0,682
1158,042;  167,071;   -0,727;    1,045
1158,576;  206,707;    0,182;    1,773
1159,110;  203,343;   -0,818;    2,409
1159,643;  178,253;    0,636;   -0,045
1160,177;  108,707;   -1,545;    1,500

