
Integration time [ms]:   0,040
Averaging Nr. [scans]: 11
Smoothing Nr. [pixels]: 0
Data measured with spectrometer [name]: 7318044SP
Wave   ;Sample   ;Dark     ;Reference
[nm]   ;[counts] ;[counts] ;[counts] 

186,757;   15,921;   31,551;    1,318
187,357;   48,752;   22,551;    0,955
187,958;   24,633;   15,460;   -1,591
188,558;   73,102;    8,915;   -1,227
189,159;   46,390;    6,733;   -4,500
189,759;    9,541;    7,278;   -3,591
190,360;    8,936;    2,824;   -2,136
190,960;   48,360;    2,915;   -4,136
191,560;   62,962;    3,189;   -6,591
192,161;  290,491;    4,372;   -3,500
192,761;  139,363;    4,010;   -3,227
193,361;  103,562;    1,556;   -3,773
193,962;  151,121;    2,010;   -2,682
194,562;   73,505;    1,189;   -3,955
195,162;  101,227;   -2,448;   -2,227
195,762;  254,024;   -3,176;   -0,045
196,362;  206,941;    1,370;   -2,500
196,963;   77,529;    2,006;   -0,864
197,563;  140,375;    1,551;   -0,955
198,163;   95,520;    0,096;   -0,682
198,763;  115,085;    1,733;   -0,500
199,363;  214,602;    3,096;   -0,500
199,963;  170,623;    0,369;    0,409
200,563;  145,390;    2,823;   -1,409
201,163;  130,158;    3,277;   -0,227
201,763;  218,337;    3,732;    0,318
202,363;  168,585;    1,459;    1,500
202,963;  269,111;    1,459;    1,045
203,563;  360,225;    0,277;    0,500
204,162;  216,592;    2,096;   -1,864
204,762;  212,348;    0,550;    0,591
205,362;  186,124;    3,004;    1,955
205,962;  280,885;    3,096;    1,955
206,562;  279,421;    1,823;    2,318
207,161;  248,507;   -0,087;    0,318
207,761;  402,906;    1,277;    2,409
208,361;  281,138;   -0,268;    1,409
208,960;  376,115;    0,459;    1,500
209,560;  441,350;    1,277;    1,591
210,160;  423,431;    0,550;    1,864
210,759;  392,182;    4,186;    1,227
211,359;  393,724;    1,459;    1,045
211,958;  650,433;    1,277;    2,045
212,558;  736,793;    1,732;    1,864
213,157;  587,347;    1,822;    1,500
213,757; 1031,364;    3,822;   -0,227
214,356;  731,111;    1,277;   -0,409
214,956; 1043,879;    3,095;    0,409
215,555;  683,095;    2,095;    2,136
216,154;  628,216;   -2,723;   -0,591
216,754;  630,760;    0,277;    0,773
217,353;  755,806;   -0,268;   -1,045
217,952;  624,169;   -0,178;    0,318
218,552;  854,988;    1,368;   -0,773
219,151;  756,663;    0,277;    0,955
219,750;  754,009;    0,004;   -0,227
220,349;  869,961;   -0,451;    1,045
220,948;  936,334;   -1,360;    1,136
221,548;  948,620;    0,913;    1,227
222,147; 1060,647;   -0,087;   -0,409
222,746; 1331,150;   -0,451;   -0,955
223,345; 1220,608;    0,731;    0,500
223,944; 1227,837;   -0,451;    0,773
224,543; 1380,465;    1,004;   -1,409
225,142; 1486,773;    0,094;    0,136
225,741; 1404,630;   -0,814;    1,045
226,340; 1414,573;   -0,451;   -0,955
226,939; 1843,373;   -0,996;   -0,136
227,538; 1765,931;   -0,360;   -0,773
228,137; 1926,065;   -0,814;    0,864
228,735; 2049,337;   -0,541;    1,227
229,334; 1806,517;   -0,905;   -0,227
229,933; 2180,398;    0,459;    0,591
230,532; 2277,572;    1,186;   -0,409
231,131; 2326,960;    1,732;    0,318
231,729; 2432,122;   -2,450;   -2,318
232,328; 2524,907;   -0,723;   -1,500
232,927; 2579,471;    1,004;   -0,500
233,525; 2694,075;    3,640;    0,045
234,124; 2907,632;    2,368;   -1,591
234,723; 2921,819;    0,913;   -1,045
235,321; 3050,527;    2,277;    0,136
235,920; 3258,941;    1,186;   -1,227
236,518; 3503,921;    3,459;    0,318
237,117; 3649,136;    0,004;   -0,227
237,715; 3803,669;    0,640;   -0,500
238,314; 3841,210;   -0,087;   -2,318
238,912; 3940,968;   -0,723;   -1,409
239,510; 3992,692;    0,459;   -1,227
240,109; 4161,587;    0,004;    3,773
240,707; 4188,015;   -0,996;    1,227
241,305; 4535,232;    0,550;    0,136
241,904; 4752,414;   -0,178;   -2,045
242,502; 4741,961;   -0,632;   -0,227
243,100; 4686,577;   -0,087;   -0,955
243,698; 4928,747;    0,732;    1,682
244,297; 5104,518;   -0,632;    0,682
244,895; 4971,253;   -0,269;   -2,318
245,493; 5273,774;    2,186;   -0,591
246,091; 5333,741;    1,368;   -1,318
246,689; 5308,104;    1,004;    0,591
247,287; 5469,891;    0,822;   -1,136
247,885; 5772,995;   -1,451;    1,227
248,483; 5863,860;    1,822;   -0,500
249,081; 5958,796;    0,185;    1,591
249,679; 6106,187;   -0,178;    1,682
250,277; 6384,809;   -1,723;    0,864
250,875; 6360,487;   -1,087;   -1,045
251,473; 6401,713;   -1,178;    0,500
252,071; 6598,587;    1,459;    1,045
252,669; 6750,474;   -1,814;    0,318
253,267; 7021,496;   -0,087;    0,773
253,864; 6969,436;   -0,360;    0,682
254,462; 6824,902;    1,640;    1,591
255,060; 6794,263;   -0,269;    1,318
255,658; 7119,019;    0,822;   -0,136
256,255; 7493,345;    0,186;   -2,045
256,853; 7370,450;   -0,269;    1,409
257,451; 7404,773;    0,822;    1,864
258,048; 7662,679;    1,822;    1,864
258,646; 7423,538;    1,731;   -1,045
259,243; 7593,450;   -0,087;    2,227
259,841; 7675,444;   -0,814;    0,318
260,438; 7563,420;   -0,087;    0,864
261,036; 8288,185;   -1,905;    1,409
261,633; 8186,930;   -0,087;    2,227
262,231; 7951,957;    2,731;   -0,045
262,828; 8004,635;   -0,905;    1,136
263,425; 8061,041;    0,913;   -0,591
264,023; 8316,535;    0,186;    0,045
264,620; 7877,719;   -0,360;   -0,318
265,217; 8228,202;   -2,087;    3,136
265,815; 8331,340;   -1,905;    2,136
266,412; 8106,294;    0,731;    0,136
267,009; 8154,863;   -1,451;    0,773
267,606; 8064,265;    0,822;   -0,955
268,203; 8054,582;   -0,269;   -0,591
268,801; 8331,413;    1,731;    0,591
269,398; 8641,937;   -0,360;    2,500
269,995; 8594,181;    0,277;    1,591
270,592; 8348,639;   -0,632;   -0,500
271,189; 8542,058;    0,186;    0,409
271,786; 8676,345;   -0,632;    1,227
272,383; 8534,732;   -1,087;    0,227
272,980; 8728,834;    0,277;    0,318
273,577; 9208,540;    0,004;    1,227
274,174; 8761,209;    0,822;    2,591
274,771; 8709,837;   -0,814;   -0,773
275,367; 8862,812;    2,277;    1,409
275,964; 8812,426;    0,731;   -0,500
276,561; 8899,748;    1,549;   -1,045
277,158; 9135,551;    0,095;   -1,773
277,755; 9251,341;    2,185;    0,409
278,351; 8680,446;   -0,451;   -1,500
278,948; 8951,037;   -0,815;    0,045
279,545; 8958,696;   -1,360;    2,318
280,141; 9578,407;   -1,723;   -2,045
280,738; 9463,109;   -0,451;   -0,136
281,334; 9659,301;   -1,633;    0,591
281,931; 9091,201;   -0,087;   -1,318
282,528; 9193,774;    0,822;   -0,500
283,124; 9918,630;   -1,087;   -0,500
283,721; 9821,653;   -0,451;    1,409
284,317; 9631,899;    0,185;    2,500
284,913;10195,079;   -1,360;    0,591
285,510;10361,806;    0,640;   -0,318
286,106;10379,221;   -2,269;   -0,955
286,703; 9997,368;   -0,360;    1,955
287,299;10210,807;   -1,451;   -0,591
287,895;10429,476;    0,822;   -1,045
288,491;10997,573;    0,186;    2,136
289,088;10736,640;   -2,360;    2,409
289,684;10767,474;   -1,723;    1,500
290,280;10758,677;    0,368;    0,682
290,876;10878,506;    1,822;    5,500
291,472;10801,945;    1,276;    2,227
292,068;10881,313;    1,367;    0,227
292,665;10637,626;    2,095;    0,773
293,261;10242,332;    0,276;    2,136
293,857;10643,040;    2,913;    2,136
294,453;10580,124;    3,550;    0,955
295,049;10464,149;   -0,268;    1,955
295,644;10490,864;    0,095;    0,136
296,240;10409,368;   -0,905;   -0,136
296,836;10449,716;   -0,995;    0,318
297,432;10704,735;    1,096;   -0,500
298,028;10729,705;    0,732;    0,773
298,624;11131,628;    1,459;    1,864
299,220;11359,227;    2,368;    0,591
299,815;11084,660;    1,005;   -0,409
300,411;10870,149;    0,914;    1,773
301,007;10883,703;    1,368;    0,227
301,602;10949,051;   -0,541;   -2,318
302,198;11099,787;    0,732;   -0,773
302,794;11448,195;    1,187;   -0,500
303,389;11538,106;   -1,177;    1,045
303,985;11636,714;    0,550;    1,409
304,580;11577,194;    1,459;    1,591
305,176;11559,482;   -3,086;    0,136
305,771;11492,246;   -1,268;   -1,227
306,367;11318,583;    4,095;    0,136
306,962;11656,233;    0,641;    1,500
307,558;11407,081;   -0,450;    0,136
308,153;11327,119;    1,095;   -1,136
308,748;11578,539;   -0,814;    1,682
309,344;11517,159;   -0,632;   -1,318
309,939;11629,638;   -1,905;   -1,318
310,534;11890,308;   -0,086;   -1,682
311,130;11833,600;    0,459;   -2,500
311,725;11569,697;    1,004;   -0,500
312,320;11866,567;    2,459;    0,045
312,915;11699,581;    1,459;   -1,045
313,510;11738,182;    1,550;   -0,500
314,105;12260,069;    1,096;    1,409
314,700;11717,166;   -3,086;   -1,045
315,295;11328,194;   -0,904;    0,045
315,890;10895,686;    1,277;    0,864
316,485;11258,425;   -0,359;   -0,318
317,080;11415,689;   -3,086;    1,591
317,675;11952,022;    2,005;   -0,682
318,270;11350,427;    5,550;    3,318
318,865;11339,426;    3,278;    3,045
319,460;11187,202;   -0,904;    0,591
320,055;11421,844;   -0,541;   -1,227
320,650;11088,174;   -1,995;   -0,591
321,244;11137,757;   -0,177;   -1,409
321,839;12093,077;   -1,541;   -0,227
322,434;11975,385;   -1,086;   -1,591
323,029;11583,188;    1,732;    1,591
323,623;11398,357;    1,550;    0,773
324,218;11208,911;    2,368;    1,409
324,812;11045,286;    1,096;    1,591
325,407;10866,748;   -0,814;    2,045
326,002;10756,900;    0,277;   -0,409
326,596;11096,345;    0,914;    1,318
327,191;11290,170;    0,823;   -1,045
327,785;10887,709;   -0,813;   -0,227
328,379;11085,109;    1,368;    0,136
328,974;10876,776;    0,914;   -3,955
329,568;11127,590;    0,186;   -2,409
330,163;10932,856;    2,096;    1,045
330,757;11308,760;    2,459;    1,591
331,351;10608,329;    0,459;    0,682
331,945;10924,740;    0,914;    1,409
332,540;10546,875;   -1,723;   -0,591
333,134;10706,640;   -1,086;    0,773
333,728;10928,754;    0,005;    0,318
334,322;11275,048;   -1,177;   -0,864
334,916;10578,708;    0,277;    0,955
335,510;10864,085;   -0,450;   -0,136
336,105;11125,261;   -1,086;    1,591
336,699;10866,968;   -1,086;    0,591
337,293;10800,767;   -1,723;    0,318
337,887;10965,780;   -2,723;    1,955
338,481;11063,450;    0,459;    0,591
339,074;11223,435;   -0,359;    2,682
339,668;11006,764;   -1,632;    1,227
340,262;11260,308;    1,732;    3,227
340,856;10794,412;    1,822;   -0,682
341,450;10205,387;    1,004;    1,864
342,044;11118,858;    1,459;    0,136
342,637;10858,678;    0,913;   -2,136
343,231;10691,107;   -2,360;    0,682
343,825;10667,422;   -1,086;   -0,591
344,419;10655,198;   -1,995;    0,500
345,012;10465,768;    2,459;    4,045
345,606;10441,552;    4,641;    1,591
346,199;10308,574;   -1,813;   -0,227
346,793; 9843,994;    1,914;    2,045
347,386;10057,346;   -0,813;   -1,136
347,980;10065,289;   -0,268;   -0,045
348,573; 9849,794;    2,278;    0,409
349,167; 9540,569;    5,278;    4,773
349,760; 9847,692;    2,914;    2,682
350,354; 9839,418;   -0,813;    1,136
350,947; 9584,190;    1,096;    1,682
351,540; 9268,492;   -0,358;   -1,409
352,134; 9222,541;    1,096;    1,136
352,727; 9306,013;   -0,086;    1,136
353,320; 9107,847;    0,005;    0,591
353,913; 8967,518;   -1,995;    1,864
354,507; 9128,158;    0,823;   -1,227
355,100; 9138,518;    0,460;    0,864
355,693; 8381,856;    2,005;    2,409
356,286; 8416,995;    0,823;    2,773
356,879; 8787,966;   -0,722;    1,227
357,472; 8387,817;   -0,904;    1,500
358,065; 8574,775;   -0,722;    2,500
358,658; 8563,511;   -0,540;    2,318
359,251; 8220,239;   -1,631;   -0,591
359,844; 7654,410;   -1,904;   -1,136
360,437; 7820,034;   -2,995;    0,045
361,030; 8110,845;    1,369;   -0,682
361,623; 7721,221;    2,824;    0,318
362,215; 7745,349;   -0,086;    2,045
362,808; 7598,808;   -2,358;   -1,682
363,401; 7789,094;   -2,449;    0,136
363,994; 7524,422;   -0,631;   -1,500
364,586; 7493,251;    0,824;   -1,500
365,179; 7663,815;   -0,449;   -1,136
365,772; 7166,648;   -1,995;    2,045
366,364; 7453,943;    1,915;   -3,227
366,957; 7649,185;    2,279;   -0,045
367,549; 7675,844;    2,188;   -0,864
368,142; 7328,918;    1,825;   -1,500
368,734; 7503,278;    0,734;   -2,136
369,327; 7475,175;    1,643;   -0,500
369,919; 7413,031;   -1,538;    0,409
370,512; 7194,029;   -1,083;   -0,500
371,104; 6934,214;   -0,901;    1,591
371,696; 7114,812;    1,191;   -0,955
372,289; 7213,648;    0,373;    1,136
372,881; 7355,542;   -2,080;    1,318
373,473; 7284,934;   -2,170;    1,136
374,066; 7080,817;   -0,169;    0,500
374,658; 6947,391;    0,378;    1,136
375,250; 7273,428;    0,653;   -1,409
375,842; 7132,808;    0,473;   -0,045
376,434; 7006,556;   -0,435;   -0,409
377,026; 7594,559;    0,204;   -2,500
377,618; 7471,691;   -0,158;   -0,682
378,210; 7291,934;   -0,338;   -1,955
378,802; 7169,615;    0,754;   -0,591
379,394; 7122,194;    1,846;    0,682
379,986; 7692,370;    1,393;   -0,955
380,578; 7805,048;   -0,153;    0,773
381,170; 7145,325;   -0,972;    0,045
381,762; 7119,139;    0,755;    1,409
382,354; 7306,262;   -0,065;   -1,318
382,945; 7402,871;   -2,976;    0,318
383,537; 7549,008;   -2,705;   -1,955
384,129; 7573,935;   -2,160;   -1,136
384,721; 7758,852;   -0,252;    0,955
385,312; 7709,091;   -0,161;   -0,955
385,904; 7761,040;   -2,706;    1,591
386,496; 7153,745;   -0,979;    1,045
387,087; 7303,067;    1,022;    2,500
387,679; 7334,230;   -1,160;    0,045
388,270; 7474,578;    2,840;    2,045
388,862; 7587,983;    1,295;   -0,318
389,453; 7467,521;   -0,887;    1,045
390,045; 7740,036;   -0,705;   -2,682
390,636; 7663,170;    0,204;   -0,591
391,227; 7541,738;   -0,523;   -0,045
391,819; 7637,840;    0,204;    0,773
392,410; 7684,826;    1,022;    0,045
393,001; 7608,813;   -0,979;   -1,591
393,593; 7885,944;    1,930;   -0,045
394,184; 7764,814;    1,385;   -0,409
394,775; 7672,755;    1,839;    2,136
395,366; 7862,609;    1,385;    0,773
395,957; 7861,403;    0,113;    0,136
396,548; 8158,602;   -0,342;    2,682
397,139; 8443,757;   -2,433;    0,591
397,730; 8187,213;   -1,888;    0,955
398,321; 8262,411;   -1,252;    0,955
398,912; 8288,720;   -0,615;    0,136
399,503; 8357,749;   -3,524;   -1,409
400,094; 7822,336;    0,294;    1,682
400,685; 7701,076;   -0,433;    0,045
401,276; 7789,434;    0,930;   -0,955
401,867; 8072,447;   -0,888;    0,773
402,458; 8169,947;   -2,251;   -2,318
403,048; 8162,997;    1,112;    0,591
403,639; 7768,431;    0,840;    0,864
404,230; 8015,029;    2,476;    0,318
404,821; 7925,931;   -0,615;    0,045
405,411; 8031,155;    1,203;   -2,591
406,002; 7650,301;   -1,252;   -1,136
406,592; 7492,318;    2,294;    0,045
407,183; 7798,553;    0,566;   -1,500
407,774; 7733,059;    3,475;   -0,136
408,364; 8054,659;    0,930;    0,409
408,954; 7696,999;    0,384;    1,227
409,545; 7747,543;    1,021;    1,045
410,135; 7246,652;    1,293;    0,500
410,726; 7402,080;    1,838;    0,318
411,316; 7789,389;    0,111;    0,773
411,906; 7497,343;   -0,253;   -0,409
412,497; 7002,258;   -1,070;   -0,045
413,087; 7581,139;   -1,980;   -0,227
413,677; 7931,565;   -0,707;    3,864
414,267; 7767,441;    0,656;    1,409
414,857; 7773,081;   -2,980;    4,227
415,448; 8064,082;    0,839;    0,500
416,038; 7773,207;    0,020;   -0,591
416,628; 7725,745;   -0,889;    0,409
417,218; 7188,633;    0,565;    3,318
417,808; 7452,546;    0,202;   -0,409
418,398; 7895,214;    0,020;    2,682
418,988; 7907,277;    2,020;    0,591
419,578; 8141,630;   -0,707;    1,409
420,168; 8462,345;   -1,343;   -0,955
420,757; 8040,567;   -1,343;   -1,500
421,347; 7736,928;    0,111;   -0,227
421,937; 7901,139;    2,292;    1,409
422,527; 7845,693;    0,838;   -0,773
423,116; 7641,607;   -0,253;   -0,045
423,706; 7969,494;   -1,889;    0,318
424,296; 7944,129;    1,384;    0,682
424,885; 8346,493;   -0,071;   -3,045
425,475; 8632,958;    1,474;   -2,864
426,065; 8545,350;   -0,980;   -0,318
426,654; 8191,803;   -0,435;   -0,318
427,244; 8289,991;    0,020;    1,409
427,833; 7760,895;    1,383;   -0,500
428,423; 8208,947;   -0,526;    1,136
429,012; 8933,237;   -0,344;   -1,136
429,601; 8451,368;   -1,344;    0,136
430,191; 8697,018;    1,292;    4,318
430,780; 8308,099;   -0,344;   -0,409
431,369; 8232,824;    0,746;   -0,045
431,959; 8834,130;   -1,254;    0,500
432,548; 8624,344;   -1,163;   -0,045
433,137; 8752,534;   -1,254;   -1,318
433,726; 9264,346;    0,292;    0,500
434,315; 8590,595;   -0,526;    2,409
434,905; 8701,470;   -1,254;    1,409
435,494; 8619,397;    0,746;    0,955
436,083; 9055,228;   -0,981;   -0,955
436,672; 8921,327;    0,110;    0,500
437,261; 8509,675;    0,292;   -1,955
437,850; 8630,456;    1,383;    0,682
438,439; 8563,360;    3,291;    1,955
439,027; 8404,092;    3,655;    1,773
439,616; 8741,863;    2,927;    1,227
440,205; 8571,638;    0,200;   -2,136
440,794; 8618,503;    2,109;   -0,045
441,383; 8885,762;   -1,346;   -0,591
441,971; 8750,487;   -2,436;    0,591
442,560; 8593,533;    0,563;   -1,773
443,149; 8315,753;    0,379;   -1,318
443,737; 8484,706;   -0,074;   -2,318
444,326; 8737,626;    0,018;    0,318
444,915; 8792,926;   -1,982;    0,864
445,503; 9108,828;   -2,891;   -0,318
446,092; 8437,742;    0,382;    2,136
446,680; 8960,662;    0,382;    0,318
447,269; 9093,546;   -0,346;   -0,318
447,857; 8842,378;    0,018;   -1,773
448,445; 8994,504;    0,563;    1,318
449,034; 9185,530;   -1,528;   -1,136
449,622; 9297,622;   -1,073;    3,500
450,210; 8560,560;    2,017;    2,227
450,799; 9051,383;    0,290;   -0,591
451,387; 8999,328;    1,381;   -0,591
451,975; 8672,411;    2,654;    0,864
452,563; 8763,914;    3,472;    2,318
453,151; 8805,206;   -0,528;   -1,227
453,739; 8712,022;   -1,347;    0,136
454,328; 8544,528;    2,381;   -2,136
454,916; 8258,751;    2,562;   -0,136
455,504; 8452,226;    1,017;    1,227
456,092; 8639,702;    0,017;   -1,591
456,679; 8597,219;    1,472;    0,682
457,267; 8536,778;    4,017;    1,045
457,855; 8666,301;    1,017;    1,409
458,443; 8452,863;   -0,165;    1,682
459,031; 8566,489;    0,108;    2,409
459,619; 9027,904;   -1,801;    2,864
460,206; 9108,213;    0,835;    2,045
460,794; 9173,799;   -2,983;   -0,227
461,382; 9359,577;   -0,529;   -0,864
461,970; 8981,152;    1,198;    1,864
462,557; 9026,999;   -0,711;   -0,682
463,145; 9210,052;   -3,165;   -1,682
463,732; 9341,347;    2,016;   -1,045
464,320; 9259,393;   -0,075;   -3,045
464,907; 8926,266;    2,743;   -0,773
465,495; 8838,995;    0,743;   -1,227
466,082; 8960,967;   -1,984;   -0,045
466,670; 8902,515;   -2,529;    1,227
467,257; 9291,795;   -1,711;    2,045
467,844; 9425,195;   -0,075;    0,045
468,432; 9432,865;    0,834;    3,500
469,019; 8947,944;    0,925;   -1,773
469,606; 9406,812;    0,470;    3,682
470,193; 9240,351;   -1,439;    0,227
470,780; 8810,028;   -2,075;    0,864
471,368; 9158,252;   -1,257;   -0,773
471,955; 8949,610;    1,379;   -0,682
472,542; 8591,840;    0,652;   -1,136
473,129; 8817,129;   -0,166;    0,136
473,716; 8558,094;    1,470;    0,591
474,303; 8721,368;    0,652;   -0,864
474,890; 8988,339;   -1,439;   -0,500
475,477; 9001,317;   -1,621;    0,409
476,064; 8897,246;    1,106;   -1,591
476,650; 8779,774;    0,288;    0,318
477,237; 8622,228;   -0,258;    0,955
477,824; 8781,263;   -1,076;    0,864
478,411; 8816,078;   -1,894;   -0,318
478,997; 8981,730;    0,560;   -0,773
479,584; 9017,174;    1,196;   -0,409
480,171; 9631,075;   -0,440;   -0,773
480,757; 9275,579;    2,651;    0,773
481,344; 9583,319;    0,469;    0,409
481,931; 9076,797;    1,105;    1,045
482,517;10006,775;   -1,258;    0,318
483,104;10448,962;    1,106;    2,864
483,690;10661,873;   -1,804;    0,045
484,276;11004,828;   -0,895;    0,227
484,863;10747,001;    2,469;    1,136
485,449;11317,749;   -0,077;    0,318
486,035;11301,236;   -1,986;   -0,136
486,622;11680,586;   -0,895;    0,045
487,208;11634,201;    1,378;    1,500
487,794;11565,245;    0,741;    0,318
488,380;11634,068;    0,105;   -1,409
488,967;11685,640;   -1,168;   -0,409
489,553;11736,023;   -1,895;   -1,409
490,139;11923,994;    1,559;    0,773
490,725;11440,997;    0,741;   -0,227
491,311;11076,054;    3,287;    3,045
491,897;10496,875;   -0,986;    1,500
492,483;10365,092;    0,105;    1,227
493,069;10169,847;    3,923;    0,864
493,655;10142,526;    1,650;    0,682
494,241;10101,583;    1,377;   -0,955
494,826;10502,568;    0,287;   -1,045
495,412; 9992,235;    2,559;   -0,682
495,998;10170,542;   -0,805;   -0,318
496,584;10323,200;    0,377;    1,045
497,169;10340,813;    1,014;   -0,682
497,755;10317,534;    0,650;    1,227
498,341;10877,267;    0,559;    0,318
498,926;10503,429;    1,832;    1,955
499,512;10711,058;    1,286;    2,955
500,097;10861,399;    0,195;   -0,318
500,683;10906,936;   -0,350;    2,136
501,268;11280,332;   -0,169;   -0,955
501,854;11054,400;   -0,169;    1,227
502,439;11028,783;   -0,624;   -1,773
503,024;11218,648;    0,195;    0,500
503,610;11365,858;   -0,078;   -0,682
504,195;11399,532;    0,558;    1,955
504,780;11574,334;    2,922;    1,227
505,366;11416,694;    3,013;    2,864
505,951;11201,769;    0,740;    1,045
506,536;11234,977;   -3,260;   -3,682
507,121;11269,454;    0,285;   -0,318
507,706;11811,638;    2,376;    1,045
508,291;12226,133;    2,649;    1,136
508,876;11744,746;   -0,988;    2,591
509,461;11246,096;   -0,169;   -0,773
510,046;11656,669;    0,194;    0,318
510,631;11926,567;   -0,351;   -0,773
511,216;11626,727;    2,467;   -0,500
511,801;12010,767;   -0,442;    2,591
512,386;12353,723;    0,740;    0,500
512,971;12318,833;   -2,988;    0,955
513,555;11891,790;   -0,897;   -1,500
514,140;12652,825;   -0,442;   -3,136
514,725;12680,907;   -0,715;   -1,136
515,309;12833,176;   -0,533;    0,318
515,894;12310,690;   -0,624;   -2,227
516,479;12786,787;   -0,624;   -0,955
517,063;12615,600;    0,376;    1,227
517,648;12799,784;    1,012;   -1,136
518,232;12431,757;   -0,261;   -1,409
518,817;12750,909;   -0,079;    1,682
519,401;12966,511;    2,194;    0,591
519,985;12483,687;    1,103;    1,136
520,570;12412,185;    0,830;   -1,955
521,154;12736,618;    2,102;    0,591
521,738;12902,091;   -2,352;    2,409
522,323;13439,796;   -0,170;    1,682
522,907;13170,059;    0,466;   -0,136
523,491;12910,061;    0,557;    0,955
524,075;12905,395;    2,284;    0,591
524,659;12994,324;    1,466;    0,591
525,243;12461,357;    1,739;    0,409
525,827;12711,638;    0,648;   -0,045
526,411;13545,142;   -1,989;   -0,136
526,995;13756,663;   -0,352;    1,409
527,579;13355,143;   -0,443;   -1,045
528,163;13667,366;    0,375;   -1,500
528,747;13580,544;    2,466;   -0,773
529,331;13888,390;   -0,080;   -1,409
529,915;14093,489;    1,738;    0,955
530,499;14054,731;   -0,807;    1,227
531,082;13792,414;   -0,534;    1,591
531,666;13238,959;    1,374;    0,773
532,250;13893,606;    1,284;    2,682
532,833;14203,016;    0,920;    2,773
533,417;14071,866;   -1,807;    0,864
534,001;14046,910;    1,647;   -0,318
534,584;14737,954;    0,374;    0,500
535,168;14604,498;    0,465;    1,409
535,751;14612,718;    0,647;    0,045
536,334;14073,178;   -0,898;   -0,409
536,918;14643,661;    0,011;    1,591
537,501;14764,216;   -0,899;    1,318
538,085;14774,766;   -0,444;    1,045
538,668;14903,101;    0,829;    2,409
539,251;15250,890;    1,829;    3,773
539,834;15254,705;    0,101;    0,773
540,418;15138,300;   -1,990;    4,318
541,001;15274,719;   -0,990;    1,773
541,584;15265,993;    2,101;    2,227
542,167;14963,152;    1,374;    2,955
542,750;15112,915;    1,919;   -0,773
543,333;14737,452;    0,555;    2,136
543,916;15492,832;    0,192;    2,500
544,499;16066,263;   -1,354;    0,227
545,082;16099,870;    1,374;    3,591
545,665;16239,805;    1,919;    1,500
546,248;16572,452;    1,010;   -0,318
546,830;16236,509;   -0,445;    1,955
547,413;16626,222;    1,010;   -0,773
547,996;17186,564;    0,555;    0,500
548,579;16943,544;    0,919;    0,955
549,161;16758,516;    1,828;    2,682
549,744;16561,315;   -0,809;    0,409
550,326;17049,225;   -0,809;   -1,136
550,909;16825,568;    2,737;    0,591
551,492;17207,312;   -0,263;    0,227
552,074;17003,422;   -0,173;   -1,318
552,657;17553,574;    2,373;    0,045
553,239;17316,123;   -0,173;   -0,773
553,821;17228,928;   -1,082;    1,045
554,404;16720,452;    1,282;    1,136
554,986;17120,369;    0,464;    1,045
555,568;17723,736;    1,191;   -0,955
556,151;16940,889;    1,191;   -0,227
556,733;17146,911;   -0,264;   -0,864
557,315;17630,205;    0,100;    0,500
557,897;17426,445;    0,554;   -0,500
558,479;17522,749;   -1,991;    1,318
559,061;17617,588;   -0,719;   -0,864
559,643;17968,457;   -0,264;    0,045
560,225;18339,617;    1,645;    2,864
560,807;18360,184;    0,918;    0,318
561,389;17855,158;    0,554;    2,318
561,971;18618,638;    0,463;    2,136
562,553;18371,528;   -1,628;    1,591
563,135;18496,920;   -0,537;    1,136
563,717;18127,071;    3,372;    1,136
564,298;18816,563;    3,645;   -0,045
564,880;18517,834;    0,645;   -1,409
565,462;18728,470;    0,645;    1,318
566,043;19853,387;   -0,446;    2,318
566,625;19367,296;    1,918;    1,227
567,207;19226,399;    1,099;    1,682
567,788;20296,402;   -1,264;    1,500
568,370;21102,752;    1,917;   -0,500
568,951;20885,922;    0,190;    0,227
569,533;21726,671;   -0,628;   -0,500
570,114;22153,515;   -0,446;    0,682
570,695;22647,723;   -0,174;   -1,318
571,277;23122,004;   -0,265;   -1,682
571,858;23809,028;    2,008;   -1,136
572,439;24709,352;    1,554;   -1,045
573,021;24871,600;    2,099;   -2,773
573,602;25370,864;   -1,265;    0,318
574,183;26223,297;   -2,083;    2,227
574,764;26304,900;   -1,629;    0,409
575,345;26809,090;    0,917;   -0,136
575,926;27438,800;   -0,356;    0,136
576,507;27453,863;    1,099;   -0,227
577,088;28525,833;    3,099;    1,682
577,669;28536,269;    0,735;    1,955
578,250;29220,569;    0,644;   -1,045
578,831;29849,016;   -1,356;   -2,227
579,412;30045,331;   -0,810;    0,955
579,993;30985,575;    1,008;    0,227
580,573;31378,697;   -0,629;   -0,955
581,154;30337,119;    0,735;   -0,591
581,735;31168,056;    0,644;    0,773
582,315;30673,966;   -0,629;    2,136
582,896;31001,537;   -0,174;    1,227
583,477;30484,007;    0,189;    1,227
584,057;30688,636;    0,553;    0,955
584,638;30994,484;    2,553;    2,318
585,218;30957,180;   -0,538;    2,682
585,799;31122,023;    0,281;   -0,227
586,379;31067,833;    0,372;    1,591
586,959;29927,630;    0,735;    0,318
587,540;29300,650;   -0,629;    2,227
588,120;28909,063;    1,007;   -0,045
588,700;27891,623;    2,553;    2,136
589,281;28162,182;    0,462;   -0,955
589,861;28085,307;    0,099;   -1,682
590,441;27917,729;    2,371;   -2,682
591,021;26901,120;   -0,265;   -2,591
591,601;27151,495;   -0,537;    0,500
592,181;27172,068;   -0,719;   -0,773
592,761;26517,355;    0,007;    1,409
593,341;26465,872;   -0,901;    0,045
593,921;26399,166;   -0,265;    1,591
594,501;26294,025;   -0,538;    1,318
595,081;26122,286;    0,917;   -0,318
595,661;26507,263;   -1,447;    0,955
596,240;26945,525;   -0,537;    0,136
596,820;26591,998;    0,372;    1,955
597,400;26819,837;    2,008;    0,773
597,980;27057,732;    2,008;    1,045
598,559;27075,653;    2,735;   -0,227
599,139;26774,657;   -0,174;   -1,227
599,718;26720,202;   -0,174;   -0,409
600,298;26936,047;    0,735;    0,682
600,877;27121,280;    2,917;    1,409
601,457;27444,207;    2,281;    1,136
602,036;27359,131;    0,190;    2,045
602,616;27555,095;    0,644;    1,682
603,195;27866,661;   -0,355;    3,500
603,774;27405,089;   -0,901;    2,045
604,354;27289,787;    0,826;   -0,500
604,933;26795,675;    0,463;    1,864
605,512;26909,122;    3,554;    0,591
606,091;26969,716;   -0,537;    3,773
606,671;27786,631;    0,281;    0,773
607,250;26916,178;    1,644;    3,136
607,829;27163,526;    2,372;    3,227
608,408;27029,139;    1,190;    2,591
608,987;26073,573;    1,281;    3,409
609,566;26418,900;   -1,265;   -2,500
610,145;26479,999;   -1,082;    0,682
610,723;26858,578;    4,372;    6,864
611,302;26136,839;   -0,446;    1,682
611,881;25625,572;    5,008;   11,227
612,460;26516,725;    1,645;    3,955
613,039;26905,651;   -0,082;    2,045
613,617;25606,378;    1,736;    4,773
614,196;25833,119;    1,099;    1,227
614,775;26172,165;    1,009;    2,409
615,353;26134,582;    0,736;    0,864
615,932;25896,826;    0,100;    2,409
616,510;26491,528;    0,554;    0,591
617,089;25991,979;    7,100;   17,591
617,667;25761,281;    2,372;    6,136
618,246;25630,122;   -1,537;    1,318
618,824;25761,821;   -3,355;   -0,955
619,402;25364,004;   -2,900;   -1,773
619,981;25836,268;   -0,173;   -1,045
620,559;25683,686;    0,009;    1,682
621,137;25253,841;   -0,718;    1,864
621,715;25305,511;   -1,173;   -0,682
622,293;25210,264;   -0,537;   -0,773
622,871;25656,842;   -0,718;    0,500
623,450;25252,553;    0,373;   -0,864
624,028;25168,806;    0,191;   -0,955
624,606;24777,011;   -1,718;    1,682
625,183;25168,426;   -1,536;   -1,136
625,761;24789,425;    1,009;    1,136
626,339;25074,530;    1,373;    2,591
626,917;25502,502;   -0,172;   -0,045
627,495;25548,262;   -0,354;    1,318
628,073;24943,192;   -0,263;    2,864
628,650;24659,541;    0,100;    2,136
629,228;25100,309;    0,373;    4,409
629,806;24502,815;    2,282;    1,136
630,383;24733,682;    1,464;   -0,318
630,961;24570,300;    2,555;   -0,955
631,539;24297,286;    2,464;    0,227
632,116;23658,482;   11,373;   15,409
632,694;24247,229;    2,555;    6,500
633,271;24524,874;    0,828;    2,682
633,848;24449,702;    1,828;    2,045
634,426;24524,564;   -1,081;    1,773
635,003;23660,146;    1,101;   -0,409
635,580;23945,689;    1,192;    3,682
636,158;24548,677;    3,737;    1,227
636,735;24482,905;    0,555;   -0,500
637,312;24597,402;   -0,809;   -0,682
637,889;24744,258;   -4,354;   -0,682
638,466;24178,503;   -3,990;   -0,409
639,043;24195,968;    2,101;   -1,136
639,620;24543,301;   -2,262;   -0,955
640,197;24865,067;    1,100;    1,682
640,774;25006,114;   -0,172;    1,136
641,351;25372,252;    0,737;    1,136
641,928;24754,935;   -0,627;    1,409
642,505;24417,618;    0,828;   -0,500
643,082;24581,483;   -1,718;    1,227
643,658;23642,439;   -0,718;    1,500
644,235;24368,032;    1,191;    2,500
644,812;24656,806;    1,918;    0,773
645,388;24395,580;   -0,991;    1,409
645,965;24461,354;   -0,809;    1,682
646,542;24556,674;   -1,445;   -0,227
647,118;24524,721;    1,009;   -0,955
647,695;24820,404;   -0,263;    1,136
648,271;24736,178;   -0,536;    0,500
648,848;25079,589;    0,736;    2,227
649,424;24879,454;    0,827;    1,318
650,000;24635,410;   -0,354;   -1,045
650,577;24471,820;   -0,627;   -0,955
651,153;24950,049;   -1,809;    0,955
651,729;25886,914;    1,191;    0,864
652,305;26000,234;    0,645;    2,773
652,881;29990,099;   -0,082;    1,136
653,458;36492,327;    1,100;    0,227
654,034;40271,283;    0,282;    1,591
654,610;41783,421;    0,554;    0,773
655,186;43126,377;    0,645;    3,045
655,762;42864,697;   -0,991;    0,409
656,338;42862,198;    0,100;    0,136
656,913;43787,972;   -0,082;    0,409
657,489;43101,928;    0,827;   -0,318
658,065;43110,248;   -0,173;   -1,591
658,641;43831,022;   -0,900;   -0,864
659,217;43171,978;   -0,991;    0,409
659,792;42531,298;    0,645;   -0,409
660,368;42737,708;   -2,173;   -0,682
660,944;42497,119;   -2,082;    1,227
661,519;38407,530;   -0,628;    0,409
662,095;32743,486;   -1,719;    0,591
662,670;28147,623;    1,281;   -0,136
663,246;26946,943;    1,009;   -0,409
663,821;26237,263;    0,281;    1,682
664,396;25670,491;    0,009;    1,864
664,972;25893,175;    0,009;   -0,500
665,547;26217,494;    1,372;    0,136
666,122;26269,087;   -1,082;    0,318
666,698;26523,133;   -0,173;    0,318
667,273;25863,180;   -0,173;    0,136
667,848;26716,318;    2,372;    1,500
668,423;26458,547;    2,190;    2,318
668,998;26987,776;    2,827;   -0,682
669,573;27556,004;   -3,264;   -1,500
670,148;27357,324;   -1,446;   -0,682
670,723;27144,553;   -1,810;    0,318
671,298;27574,691;    2,372;    1,045
671,873;27735,737;   -0,082;   -0,136
672,448;27683,057;    0,645;    0,136
673,023;27988,104;   -1,992;   -0,227
673,597;28291,787;    0,827;    2,318
674,172;28128,561;   -0,355;    0,318
674,747;27597,517;    0,372;   -1,045
675,321;27427,201;   -0,628;    3,318
675,896;26963,702;    0,645;    1,045
676,471;28002,567;    2,645;    1,591
677,045;27778,887;   -1,264;    0,682
677,620;27838,388;    0,190;    1,136
678,194;28158,799;   -2,628;    1,136
678,769;27694,118;   -1,083;   -0,318
679,343;27944,438;   -0,628;    1,773
679,917;27829,030;   -1,446;    1,955
680,492;27907,623;    0,826;    3,227
681,066;28080,488;    3,372;    0,409
681,640;28093,535;    1,463;   -0,318
682,214;28867,763;    0,735;    0,500
682,788;28366,447;   -1,356;   -0,773
683,363;28341,585;   -1,810;    1,682
683,937;28072,722;   -1,719;   -0,318
684,511;28804,587;    0,463;   -0,591
685,085;28516,725;   -1,356;    0,318
685,659;28298,045;   -2,538;    0,864
686,232;28488,274;   -0,356;   -0,318
686,806;28233,866;   -0,901;    0,409
687,380;28930,186;   -0,174;    0,591
687,954;29135,505;   -1,174;    1,136
688,528;28807,279;   -0,719;    1,955
689,101;29591,781;   -3,992;    1,045
689,675;29127,191;   -0,356;   -0,136
690,249;28508,147;   -0,719;    0,409
690,822;28851,831;    0,280;    0,318
691,396;29013,696;   -0,265;    1,227
691,969;28432,924;    1,280;    0,136
692,543;28888,971;   -0,447;   -1,955
693,116;28546,746;   -0,265;   -1,409
693,690;28427,883;    0,099;    0,500
694,263;28966,203;   -1,083;    2,955
694,836;28981,523;    1,371;    3,591
695,410;27699,660;   -0,265;    1,773
695,983;28098,344;    0,189;    0,591
696,556;28075,300;   -0,447;   -1,045
697,129;28459,165;   -0,356;    1,409
697,703;28117,303;   -1,629;    1,955
698,276;28157,986;    1,462;   -0,773
698,849;27954,942;    1,280;    1,409
699,422;28285,989;   -1,083;    0,591
699,995;27996,490;    0,007;    0,136
700,568;28434,537;   -0,629;    3,045
701,140;28491,220;   -2,811;    1,682
701,713;28196,995;   -0,174;    2,409
702,286;28013,860;   -0,538;    0,864
702,859;27892,543;   -0,902;   -0,591
703,432;27062,135;    0,825;    0,682
704,004;27512,909;    0,462;    0,318
704,577;27368,774;   -0,629;    0,136
705,150;27984,458;    0,189;    2,500
705,722;27732,323;   -0,356;   -3,227
706,295;27520,552;   -0,175;   -0,591
706,867;27344,962;   -0,175;    1,955
707,440;27597,736;   -1,720;   -0,409
708,012;27820,147;    0,462;    0,591
708,584;27755,739;    2,462;    0,227
709,157;28062,422;    1,825;   -0,591
709,729;27740,469;    2,280;    2,045
710,301;28587,698;    0,734;    0,045
710,874;28539,018;   -1,447;   -0,227
711,446;27434,065;    0,371;    0,864
712,018;27331,566;    0,098;    0,500
712,590;27084,795;   -1,993;    1,682
713,162;27622,205;    0,825;    1,318
713,734;27868,979;    1,825;   -2,045
714,306;27773,572;   -1,902;   -0,409
714,878;26508,073;    0,825;    0,864
715,450;27305,484;    0,643;    0,864
716,022;27491,076;    1,552;    1,318
716,593;27680,214;    0,189;    0,591
717,165;27620,625;   -3,175;   -1,227
717,737;27310,853;    0,280;    0,409
718,309;26982,900;    0,280;   -0,045
718,880;26988,674;   -0,539;   -1,409
719,452;27281,085;   -0,175;   -1,591
720,024;26772,859;    0,734;   -0,591
720,595;27346,724;   -2,902;    0,955
721,167;26875,316;    0,370;   -2,045
721,738;26411,727;   -0,812;   -1,045
722,309;26382,138;   -0,993;   -1,227
722,881;26154,457;   -1,357;    0,773
723,452;26838,231;   -2,630;    2,864
724,023;27001,915;   -0,721;    2,682
724,595;26745,507;    0,007;    0,682
725,166;26526,736;    0,007;   -0,409
725,737;26167,510;    1,734;    0,227
726,308;26211,193;   -0,266;    0,318
726,879;26699,967;   -1,630;    1,227
727,450;26472,469;    0,552;   -0,045
728,021;26483,243;    3,097;    0,682
728,592;26304,381;    0,734;    0,500
729,163;26624,246;    0,643;   -0,136
729,734;26617,020;    0,188;   -0,227
730,305;26961,976;    1,734;    0,136
730,876;27308,114;    0,188;    2,955
731,447;27020,161;    2,188;    2,682
732,017;27092,662;    1,097;    1,864
732,588;26576,982;    0,734;    1,227
733,159;26770,301;    0,643;   -1,045
733,729;26648,439;    0,006;    0,409
734,300;25896,577;    0,915;    0,864
734,870;26369,169;    3,461;    0,591
735,441;26892,853;    0,370;   -0,591
736,011;26671,536;    0,643;   -1,591
736,582;26601,765;   -0,812;    0,045
737,152;26068,812;   -1,721;   -2,045
737,722;26512,495;   -0,267;   -0,682
738,293;26270,087;   -1,358;    1,318
738,863;26135,043;    2,461;    2,318
739,433;25908,090;    5,279;    0,318
740,003;26577,046;   -0,994;   -0,682
740,573;25974,366;    2,097;   -1,591
741,143;25935,685;   -1,085;    0,318
741,713;26719,460;    1,188;   -0,500
742,283;26361,688;    0,915;    1,591
742,853;26202,462;    1,915;    1,591
743,423;25684,328;    1,733;    0,045
743,993;25798,829;   -0,358;    1,500
744,563;25181,967;    0,097;   -0,864
745,133;25135,195;   -0,812;   -0,864
745,702;25812,788;   -0,267;    1,773
746,272;25045,562;   -0,176;    0,591
746,842;24830,063;   -1,358;   -0,591
747,411;25280,019;   -0,267;   -0,318
747,981;25434,794;    0,097;    0,500
748,551;25513,386;    2,278;   -1,045
749,120;25306,251;    0,642;   -0,227
749,690;25676,389;   -0,631;    2,409
750,259;26046,618;    1,369;    2,955
750,828;25969,301;    1,551;   -1,955
751,398;26208,257;    1,278;   -0,045
751,967;25697,031;    2,187;    0,409
752,536;25973,260;   -0,813;   -0,227
753,105;26342,398;    0,096;    0,227
753,675;26172,626;    0,096;    1,773
754,244;26149,764;   -0,904;    3,591
754,813;26185,084;    0,551;    1,227
755,382;25760,585;    0,460;    0,955
755,951;26264,359;    1,551;    3,682
756,520;25774,497;   -0,085;    1,864
757,089;26363,271;    0,278;    0,500
757,658;26477,046;    1,733;    1,227
758,227;26466,183;    1,096;    0,318
758,795;26793,867;    1,187;    1,136
759,364;27049,004;   -0,086;   -0,591
759,933;26026,960;   -1,176;   -0,045
760,501;25590,098;    0,733;   -1,318
761,070;26051,327;   -2,813;   -1,409
761,639;26742,828;   -1,904;    1,318
762,207;26044,421;    1,551;   -0,955
762,776;25985,468;    0,369;    0,864
763,344;25960,878;   -0,995;    0,591
763,913;25130,107;   -0,722;    1,409
764,481;25862,972;    1,005;   -0,136
765,049;25626,837;   -1,358;    1,409
765,618;25485,793;   -0,086;    0,318
766,186;25603,658;    0,278;    0,136
766,754;25792,614;    0,005;    1,864
767,322;24816,207;   -1,995;    0,409
767,890;24829,526;   -0,722;   -1,773
768,459;25192,119;   -2,177;   -0,318
769,027;25388,711;    1,641;    3,409
769,595;24380,485;    3,278;    2,591
770,163;24820,259;    3,823;    2,955
770,730;24626,124;    0,732;   -0,136
771,298;24455,898;    0,187;   -1,409
771,866;24547,764;   -1,541;    4,955
772,434;24859,629;   -0,631;   -1,864
773,002;25018,585;    0,005;    0,682
773,569;24718,995;    0,914;    1,682
774,137;24507,224;   -0,268;   -0,045
774,705;25278,816;    0,278;   -0,136
775,272;24811,500;    0,641;    0,682
775,840;24572,910;   -0,177;    2,682
776,407;24122,230;    0,277;    1,955
776,975;23756,549;   -0,632;    0,318
777,542;24727,869;   -1,086;   -0,045
778,110;24530,916;   -1,268;   -0,045
778,677;24285,599;   -2,359;   -0,864
779,244;24008,373;    2,186;    1,045
779,812;24156,511;    1,823;    0,864
780,379;24020,013;    0,005;    1,136
780,946;24236,332;    1,005;   -0,773
781,513;24544,197;   -1,450;    0,318
782,080;23923,971;   -0,086;    2,864
782,647;24610,746;   -0,268;    3,045
783,214;24172,520;   -0,177;    3,864
783,781;23836,749;   -0,723;   -0,682
784,348;23733,977;   -0,632;    1,500
784,915;24193,297;   -3,177;    0,318
785,482;23961,253;    1,368;    2,591
786,049;24371,300;    0,186;   -0,591
786,615;24521,983;    0,277;   -0,955
787,182;24244,666;    0,186;   -0,682
787,749;23967,168;   -2,814;    1,409
788,315;23271,578;   -1,632;   -0,409
788,882;23555,080;    1,550;   -1,227
789,448;24227,672;    1,732;   -0,955
790,015;24264,992;    1,095;    3,227
790,581;23782,130;    1,459;    0,227
791,148;23688,176;    0,641;    1,045
791,714;23990,496;   -0,541;    3,136
792,280;23647,816;    0,186;    1,591
792,847;23210,408;    0,550;    2,500
793,413;23785,273;   -0,269;   -0,318
793,979;23276,593;    3,459;   -1,318
794,545;23382,821;    4,459;    2,682
795,111;22756,777;    2,186;    1,318
795,678;22985,006;    0,731;   -1,682
796,244;22624,962;    3,368;    0,136
796,810;23174,464;    1,731;    0,773
797,375;22878,783;    0,549;   -2,136
797,941;22953,194;   -0,541;    0,591
798,507;23102,877;   -0,451;   -0,955
799,073;22655,106;   -0,360;    0,591
799,639;22708,971;   -2,632;    3,136
800,205;22766,290;    0,095;    2,682
800,770;22340,065;    0,640;    1,773
801,336;22383,021;    1,368;   -0,955
801,901;22063,522;    4,549;    3,136
802,467;22613,751;   -0,542;    2,045
803,033;21955,980;   -0,087;    0,864
803,598;22202,936;    1,913;   -1,045
804,163;22223,073;    1,095;   -0,318
804,729;22202,393;   -0,178;    1,136
805,294;22575,894;    0,822;    2,227
805,859;22386,214;    0,731;   -0,409
806,425;21839,897;    1,186;    2,682
806,990;21514,035;    2,186;    4,318
807,555;22019,628;   -1,451;    2,591
808,120;21843,038;    0,822;   -0,409
808,685;21984,449;    0,185;   -2,500
809,250;21498,405;    0,004;   -0,500
809,815;21798,088;    1,913;    0,682
810,380;22306,680;   -0,269;    1,591
810,945;22823,636;   -1,087;    2,045
811,510;22003,683;    2,094;    1,591
812,075;21698,094;   -0,633;   -1,409
812,640;21742,959;    2,003;    1,409
813,204;21818,369;    0,822;   -0,227
813,769;22295,143;    2,094;   -0,045
814,334;21711,554;    0,458;    0,864
814,898;21787,146;    0,367;    0,591
815,463;21669,648;    1,276;   -0,773
816,027;21620,967;   -0,724;   -2,318
816,592;21718,469;    0,640;   -2,045
817,156;21219,152;    2,094;    1,136
817,721;21047,835;    4,276;    2,318
818,285;21065,700;    2,912;    1,500
818,849;21713,020;   -1,451;    1,682
819,414;21584,976;   -0,269;    2,955
819,978;21198,659;   -1,269;    1,773
820,542;21758,161;    2,003;    0,500
821,106;21480,390;   -0,815;    0,682
821,670;21575,527;   -0,815;    2,591
822,234;21317,574;   -0,270;    1,409
822,798;20717,894;    0,003;    0,500
823,362;20627,214;   -0,633;    4,227
823,926;19955,897;    0,094;    1,136
824,490;20184,035;   -0,997;   -0,682
825,054;20597,991;   -0,088;   -1,136
825,618;20250,856;   -1,542;   -1,500
826,181;20235,084;    0,458;   -1,318
826,745;20134,859;    1,367;   -1,045
827,309;20461,724;    1,185;    1,318
827,872;19859,680;    1,367;    0,955
828,436;20838,636;    1,185;   -0,773
828,999;20885,592;   -0,997;    1,227
829,563;19721,093;   -0,179;    1,136
830,126;19557,504;   -0,179;   -0,591
830,690;19551,460;   -1,997;    2,864
831,253;19075,234;   -0,543;    2,227
831,816;19178,008;   -1,906;    0,500
832,380;19102,418;    0,185;    0,864
832,943;19307,556;   -1,361;   -0,500
833,506;18824,240;    2,639;   -1,227
834,069;19602,196;    3,912;   -0,955
834,632;19688,515;    1,730;    1,318
835,195;19646,471;    1,003;    0,955
835,758;18827,427;   -0,997;    1,955
836,321;18692,110;    0,730;   -1,045
836,884;18782,794;   -0,725;   -0,955
837,447;18814,204;   -2,816;    1,773
838,010;19091,797;    0,366;    3,227
838,573;19340,662;   -1,179;    0,773
839,135;19290,618;   -1,361;   -0,955
839,698;18754,937;    1,275;    0,409
840,261;18306,893;    1,003;   -0,227
840,823;18164,758;   -0,543;    0,864
841,386;18485,714;   -0,452;   -2,409
841,948;18305,852;   -1,361;    1,773
842,511;18051,808;    0,912;    1,682
843,073;18210,855;    1,912;    0,227
843,636;18009,629;   -0,361;   -0,227
844,198;17923,949;    0,911;    0,591
844,760;18030,814;    1,093;    1,955
845,322;17736,315;    0,548;    1,136
845,885;18165,999;    0,730;    0,591
846,447;18556,955;   -1,998;    0,227
847,009;18138,638;    1,911;   -0,682
847,571;18444,685;    0,820;   -2,045
848,133;18570,277;   -1,089;   -1,864
848,695;18394,870;   -0,543;    1,409
849,257;17963,189;   -1,089;   -1,682
849,819;18117,872;   -0,998;   -0,409
850,381;18158,374;   -0,725;   -0,864
850,942;18539,966;    1,093;   -0,591
851,504;18487,286;    1,184;    0,227
852,066;18499,424;    1,275;   -1,591
852,628;18039,107;   -0,180;    1,955
853,189;17580,336;    1,638;    2,682
853,751;17720,837;   -0,907;    1,409
854,312;17542,884;   -0,453;   -1,682
854,874;18054,386;   -2,089;   -0,773
855,435;18547,341;   -0,907;   -1,682
855,997;18765,025;   -1,816;   -0,136
856,558;18062,344;    0,366;    1,773
857,119;18168,573;    0,820;    2,864
857,681;17820,256;    0,002;    0,318
858,242;17858,303;    1,911;   -2,136
858,803;18273,896;    0,456;   -0,773
859,364;18869,215;    0,184;   -4,773
859,925;18218,808;   -2,453;   -0,955
860,486;18073,491;   -0,453;   -0,955
861,047;17821,811;   -0,544;   -1,227
861,608;17663,221;   -1,089;   -0,773
862,169;17772,723;    0,638;   -0,045
862,730;17562,497;    0,456;    1,409
863,291;17770,271;   -0,635;   -0,500
863,852;18139,954;   -0,635;    1,955
864,412;17630,546;   -0,271;   -0,864
864,973;16215,139;   -0,089;    0,500
865,534;16060,095;   -1,726;    0,227
866,094;17557,778;    1,820;    0,227
866,655;17214,370;    1,274;    3,318
867,215;17504,145;    0,274;    0,136
867,776;17369,282;    0,547;   -0,136
868,336;17442,875;   -1,453;    0,136
868,897;16916,558;    2,638;    1,682
869,457;16644,060;    1,365;    0,318
870,017;16912,834;    0,547;   -1,227
870,578;17430,972;   -0,817;    0,773
871,138;17079,473;   -2,089;   -0,955
871,698;16654,883;   -0,817;   -1,318
872,258;16527,021;   -0,453;   -2,864
872,818;16914,432;    2,729;    0,045
873,378;16894,024;    0,638;    1,045
873,938;16430,980;    0,547;    0,500
874,498;16757,209;    0,274;   -1,955
875,058;16657,074;    2,183;    1,773
875,618;16493,121;    1,910;   -2,682
876,177;16431,077;    1,274;    0,136
876,737;16031,487;   -0,090;    1,955
877,297;16040,171;    0,183;    1,955
877,856;16036,218;   -0,362;    0,318
878,416;16005,446;    1,183;   -0,136
878,976;16216,857;   -1,817;    0,409
879,535;16404,358;    0,092;    3,136
880,095;16086,860;   -0,544;    0,045
880,654;16225,179;   -1,090;    1,318
881,213;16290,226;    2,456;    1,500
881,773;15964,091;    2,637;    2,682
882,332;16286,320;    3,365;    5,136
882,891;16140,640;    3,092;    2,136
883,451;16638,687;   -1,272;    1,682
884,010;16110,734;   -2,908;   -0,409
884,569;16210,690;   -0,999;   -0,045
885,128;16321,646;    2,819;   -1,864
885,687;16398,965;    4,455;    0,682
886,246;16070,739;    1,455;    2,136
886,805;15832,241;    2,455;    2,045
887,364;16091,288;   -0,999;   -0,500
887,922;16501,971;   -1,181;    0,045
888,481;16032,654;   -1,545;    0,591
889,040;16317,156;    1,183;    2,136
889,599;17030,930;    2,455;    1,409
890,157;17075,795;    1,455;    2,409
890,716;16708,751;   -0,090;    0,227
891,274;16534,616;    0,092;   -1,136
891,833;16995,208;    1,546;    0,864
892,391;16859,619;   -0,454;    0,500
892,950;16902,484;    1,819;   -0,773
893,508;17257,622;    0,455;   -0,409
894,067;16667,487;    0,637;    0,136
894,625;16531,897;   -0,636;   -1,500
895,183;16772,672;   -0,363;   -0,682
895,741;16661,082;    1,728;   -1,773
896,299;16521,402;   -0,545;   -2,409
896,858;16691,085;    0,819;   -1,591
897,416;16795,132;    2,728;   -1,318
897,974;16560,724;    1,819;    0,318
898,532;16675,317;    6,091;    2,682
899,089;16582,364;    2,091;   -0,682
899,647;16628,138;   -1,454;    1,318
900,205;16391,094;    1,182;    1,045
900,763;16601,868;   -0,454;    0,227
901,321;16589,733;    2,364;   -1,409
901,878;16076,416;   -1,000;   -0,773
902,436;15946,827;   -1,363;    1,318
902,994;16308,237;    4,728;    3,682
903,551;15761,921;    0,728;    0,409
904,109;16149,786;    0,182;   -1,409
904,666;15740,105;    2,455;    1,045
905,224;15568,516;    0,182;   -0,409
905,781;15304,381;    0,727;   -0,318
906,338;15438,337;   -1,363;    1,045
906,895;15359,838;    0,637;    2,045
907,453;15247,067;    1,727;    1,136
908,010;15266,478;   -0,909;    0,409
908,567;14956,706;    1,273;    0,591
909,124;14492,844;    0,364;   -1,500
909,681;14565,164;   -2,909;    0,682
910,238;14677,029;    0,636;   -1,318
910,795;15022,894;   -0,273;   -1,136
911,352;14668,258;   -2,909;   -2,682
911,909;14108,985;   -1,364;   -0,864
912,466;14540,167;   -3,182;    1,500
913,022;14108,348;   -1,636;    0,500
913,579;14484,985;   -0,909;    2,045
914,136;14217,530;    1,636;    0,955
914,692;14553,439;    0,091;   -1,227
915,249;14145,712;    1,455;    0,409
915,806;14346,894;    0,182;    1,955
916,362;14062,258;    1,909;    1,864
916,918;13643,076;    2,000;    1,045
917,475;13587,348;   -1,182;    0,955
918,031;13672,621;    3,364;   -0,045
918,587;13191,348;   -0,909;   -0,318
919,144;13404,348;   -2,273;    0,227
919,700;13695,439;    1,727;    0,773
920,256;13296,167;    0,727;    0,045
920,812;12911,803;   -0,727;   -1,045
921,368;12897,712;   -1,727;   -1,045
921,924;12541,530;    0,182;   -0,136
922,480;12123,894;   -0,545;    1,227
923,036;12740,894;    1,273;    1,955
923,592;12695,621;    0,455;    0,318
924,148;12616,985;    0,455;   -0,955
924,704;11923,985;   -1,364;   -0,409
925,259;12178,985;   -0,273;    0,591
925,815;11964,258;    1,455;    0,500
926,371;11523,076;    2,909;    1,409
926,926;11379,348;    2,091;    0,591
927,482;11015,076;   -1,364;    0,773
928,037;10902,348;    0,909;    2,045
928,593;11185,258;    1,636;    1,045
929,148;11007,076;   -1,818;   -1,500
929,704;10545,076;   -1,455;   -0,500
930,259;10766,439;    0,091;   -0,136
930,814; 9841,621;   -0,818;    1,955
931,369; 9532,167;    1,091;   -0,773
931,925; 9414,258;   -0,091;    0,136
932,480; 9343,076;   -2,818;   -2,591
933,035; 9212,258;    0,545;   -0,318
933,590; 8978,894;    0,364;   -1,773
934,145; 8659,258;   -1,364;   -0,318
934,700; 9013,439;    0,455;   -0,591
935,255; 8796,985;   -0,091;    0,045
935,809; 8073,258;    3,182;    0,864
936,364; 7242,712;   -0,455;   -0,136
936,919; 7216,894;    0,455;   -1,773
937,474; 7122,894;    1,455;    0,136
938,028; 6890,712;   -1,636;    1,136
938,583; 6357,985;    1,818;    4,682
939,138; 6662,803;    2,091;    2,136
939,692; 6109,076;    1,636;   -1,136
940,247; 5802,712;   -0,727;   -1,045
940,801; 5365,621;   -0,636;    0,227
941,355; 5263,803;   -0,364;    2,591
941,910; 4940,530;   -0,273;   -2,136
942,464; 5027,894;   -0,818;   -0,318
943,018; 4827,621;    1,000;   -0,227
943,572; 4762,076;    2,545;   -0,682
944,126; 4211,167;    0,091;   -0,409
944,681; 4095,803;    3,091;    0,227
945,235; 4074,621;    1,000;   -0,591
945,789; 4026,894;    0,364;   -1,864
946,342; 4129,258;    0,455;   -0,591
946,896; 3931,621;   -2,273;    0,955
947,450; 3699,076;    1,545;   -0,227
948,004; 3894,621;    1,727;   -0,045
948,558; 3883,985;    0,273;   -0,864
949,111; 3805,348;   -0,273;   -0,318
949,665; 3856,258;    1,636;   -0,682
950,219; 3740,712;   -0,091;   -1,045
950,772; 3801,167;   -1,909;    1,864
951,326; 3702,258;    0,545;   -0,955
951,879; 3804,076;    0,727;   -2,318
952,433; 3823,530;    0,000;    2,227
952,986; 3675,621;    2,909;    0,682
953,539; 3635,894;   -0,273;    0,591
954,093; 3593,258;    0,545;   -1,318
954,646; 3703,894;    0,909;    1,318
955,199; 3525,985;    0,000;   -0,500
955,752; 3399,348;   -0,455;    1,773
956,305; 3358,258;   -0,091;    2,955
956,858; 3502,348;    0,818;   -0,318
957,411; 3667,076;   -0,545;    2,136
957,964; 3510,985;    1,364;    2,136
958,517; 3502,348;   -1,545;    3,136
959,070; 3336,348;   -0,455;    1,955
959,623; 3410,530;    1,091;    1,500
960,176; 3196,621;    1,727;    2,045
960,728; 3173,985;   -2,727;    0,773
961,281; 3234,894;    0,545;    0,500
961,834; 3282,439;   -0,909;    0,864
962,386; 3201,803;    1,727;    1,045
962,939; 3133,439;    0,364;   -0,318
963,491; 3260,985;    0,455;    1,136
964,043; 3141,167;    1,182;    2,409
964,596; 3261,712;   -1,000;    2,227
965,148; 3112,530;   -1,000;    1,773
965,700; 3016,712;    1,091;   -0,227
966,253; 3183,894;   -0,636;    0,318
966,805; 3020,076;   -2,273;    0,773
967,357; 3057,803;    1,091;   -1,500
967,909; 3020,530;    0,455;   -1,227
968,461; 3110,803;    0,545;    3,136
969,013; 3056,621;   -0,182;   -0,864
969,565; 3130,621;   -0,455;   -1,136
970,117; 3200,712;   -0,364;    1,045
970,669; 3046,530;    0,182;   -0,136
971,220; 2909,530;   -0,455;   -1,500
971,772; 2839,076;   -0,636;   -0,318
972,324; 2954,439;    0,091;   -0,500
972,876; 2890,076;    0,818;   -0,045
973,427; 3027,621;    1,909;   -1,045
973,979; 2997,530;   -0,727;   -2,500
974,530; 3031,076;    1,818;    1,318
975,082; 3037,258;   -0,545;    1,682
975,633; 2955,076;    1,091;    1,682
976,184; 3076,530;    0,909;    0,773
976,736; 2876,258;    0,091;    0,227
977,287; 2691,439;   -0,909;   -0,500
977,838; 2862,621;    0,909;   -0,318
978,389; 2918,439;   -1,000;   -0,500
978,940; 2791,803;    0,545;   -0,409
979,491; 2826,258;    0,091;   -0,500
980,042; 2785,803;    0,182;    3,045
980,593; 2837,894;   -2,545;    0,227
981,144; 2899,894;    2,545;   -0,500
981,695; 2864,621;    1,455;    1,500
982,246; 2828,258;   -0,273;    1,045
982,797; 2969,712;   -1,727;    0,682
983,347; 3073,258;    0,364;    0,591
983,898; 3232,348;    3,091;    0,409
984,449; 3068,076;    2,182;    0,773
984,999; 2976,167;    1,455;   -1,136
985,550; 2779,894;    0,182;   -0,318
986,100; 2786,803;   -0,455;   -0,318
986,651; 2820,621;   -0,818;    0,045
987,201; 2815,348;   -1,000;   -0,591
987,751; 2888,894;    0,818;    2,864
988,302; 2854,348;    2,636;    1,500
988,852; 2908,530;    0,455;   -1,136
989,402; 2941,894;    0,091;    0,682
989,952; 2872,621;   -2,182;    0,864
990,502; 2963,348;   -0,091;    0,682
991,052; 2918,985;   -0,727;    0,045
991,602; 2795,530;   -2,909;    1,318
992,152; 2797,985;    0,455;    0,682
992,702; 2773,076;    1,364;   -0,045
993,252; 2699,348;   -3,000;   -0,500
993,802; 2792,803;   -0,273;    1,318
994,352; 3019,712;   -1,545;    1,136
994,901; 3110,076;   -0,182;    3,227
995,451; 3012,621;   -0,182;    0,318
996,000; 3097,894;    1,636;    0,318
996,550; 2831,803;    2,273;    0,227
997,100; 2835,348;    1,273;   -0,045
997,649; 3100,712;    2,182;    0,955
998,198; 2763,348;    1,727;   -1,500
998,748; 2943,621;    1,091;   -2,318
999,297; 2857,803;   -0,818;   -0,409
999,846; 2927,348;    1,000;   -0,773
1000,395; 2948,712;   -0,818;    0,500
1000,945; 2906,076;    1,818;   -0,773
1001,494; 3001,167;    2,364;    0,682
1002,043; 2987,621;    4,636;    0,864
1002,592; 2839,348;   -1,091;    1,955
1003,141; 2987,348;   -0,455;   -0,682
1003,690; 2821,167;    1,727;    0,500
1004,238; 2903,894;    1,455;   -0,045
1004,787; 2563,076;    1,364;    1,227
1005,336; 2793,076;    0,364;    0,682
1005,885; 2937,803;    1,364;   -2,773
1006,433; 3044,985;    0,545;    0,955
1006,982; 3114,167;    0,455;    1,682
1007,531; 3039,985;   -1,818;   -0,227
1008,079; 3005,894;   -2,273;    0,500
1008,627; 3139,985;   -1,455;    0,409
1009,176; 2887,803;    0,000;   -1,955
1009,724; 2920,894;    1,091;    0,864
1010,273; 2959,894;    1,273;    0,500
1010,821; 3078,439;    0,091;    1,409
1011,369; 2834,985;   -1,364;    1,318
1011,917; 2803,803;   -1,364;   -0,591
1012,465; 3095,803;    1,273;   -1,591
1013,013; 3193,985;    2,091;   -1,682
1013,561; 3077,894;    0,455;   -0,773
1014,109; 3144,985;   -1,909;    1,682
1014,657; 3021,621;    0,364;    0,591
1015,205; 3147,258;    1,636;   -0,955
1015,753; 3158,621;   -0,545;   -1,409
1016,301; 3196,894;   -2,636;    3,045
1016,848; 3200,621;   -1,273;    0,409
1017,396; 3234,348;    2,545;    0,045
1017,944; 3366,076;    1,182;    1,864
1018,491; 3144,803;    0,273;    1,409
1019,039; 3275,621;    0,455;    0,591
1019,586; 3205,803;   -1,364;    1,682
1020,134; 3307,076;    0,455;    1,500
1020,681; 3305,530;    0,182;   -1,136
1021,228; 3323,803;    2,909;   -2,227
1021,776; 3158,439;    1,182;   -1,136
1022,323; 3369,530;    0,455;    0,773
1022,870; 3304,621;   -1,000;   -0,045
1023,417; 3221,439;    2,636;    1,864
1023,964; 3347,258;    2,636;    1,227
1024,511; 3212,439;    1,000;    0,773
1025,058; 3000,985;    3,182;   -0,045
1025,605; 3053,076;   -2,273;    3,136
1026,152; 3253,530;    1,727;   -0,591
1026,699; 2991,712;    1,818;    1,318
1027,245; 3157,803;   -0,091;    0,318
1027,792; 3362,803;   -1,000;    1,409
1028,339; 3253,258;    2,364;   -0,045
1028,885; 3101,530;    1,000;   -0,227
1029,432; 3056,439;   -0,091;    0,227
1029,978; 3114,803;   -1,000;   -1,591
1030,525; 3018,803;    1,000;    0,409
1031,071; 3272,167;   -1,364;    1,136
1031,618; 3366,712;    0,364;    1,682
1032,164; 3147,803;   -0,091;    3,045
1032,710; 3205,894;    1,636;   -1,500
1033,256; 3130,348;   -0,636;   -0,136
1033,803; 3116,348;   -0,545;    1,500
1034,349; 2847,076;   -1,364;    0,136
1034,895; 3001,258;    0,000;   -0,318
1035,441; 2979,258;   -0,818;    0,318
1035,987; 2962,712;   -2,364;   -0,682
1036,533; 2960,712;   -1,455;   -0,955
1037,078; 3141,621;    1,455;    1,682
1037,624; 2979,621;    2,455;   -0,955
1038,170; 3009,348;    0,455;   -0,318
1038,716; 2917,530;    1,636;   -0,409
1039,261; 2846,348;   -2,273;   -0,773
1039,807; 2777,076;   -0,091;    3,409
1040,352; 2828,803;   -1,909;   -0,318
1040,898; 2902,167;   -1,545;   -0,682
1041,443; 2793,530;   -1,455;   -2,591
1041,989; 2808,894;    1,091;    1,591
1042,534; 2705,348;   -0,364;    2,591
1043,079; 2807,076;    2,909;    0,955
1043,625; 2624,712;    1,818;    0,500
1044,170; 2665,258;   -1,364;    1,045
1044,715; 2894,803;    2,455;    0,955
1045,260; 2720,530;    2,182;   -0,955
1045,805; 2781,167;    1,182;   -0,591
1046,350; 2715,167;    1,364;   -0,409
1046,895; 2670,621;    2,909;    1,591
1047,440; 2638,803;    5,364;    0,409
1047,985; 2527,894;    2,818;   -0,955
1048,530; 2428,348;    1,545;    1,227
1049,074; 2493,167;    0,000;    0,318
1049,619; 2481,621;   -1,364;    1,955
1050,164; 2297,803;    0,455;    0,227
1050,708; 2344,076;   -0,455;    0,045
1051,253; 2714,258;    1,273;   -2,227
1051,797; 2428,621;    0,818;   -1,318
1052,342; 2426,621;   -1,182;    1,045
1052,886; 2417,348;    0,364;   -1,409
1053,430; 2318,803;   -1,364;    0,136
1053,975; 2319,803;   -0,818;   -0,318
1054,519; 2302,439;   -0,727;    3,227
1055,063; 2308,258;    0,909;    1,318
1055,607; 2190,530;   -0,182;    0,227
1056,151; 2224,803;    2,909;    1,682
1056,695; 2136,621;    2,273;   -1,136
1057,239; 2211,803;   -1,727;   -0,682
1057,783; 2220,167;    0,818;   -1,500
1058,327; 2153,985;    0,000;    1,409
1058,871; 2387,894;   -0,545;    1,318
1059,415; 2100,712;   -0,818;   -0,045
1059,958; 2347,076;    1,455;    2,591
1060,502; 2071,803;   -1,000;   -0,773
1061,046; 1992,439;    0,364;   -0,955
1061,589; 1980,894;   -3,000;   -1,136
1062,133; 1840,258;   -1,273;    1,864
1062,676; 1791,803;    1,182;    0,864
1063,220; 1792,803;    1,091;    0,500
1063,763; 1819,803;    0,909;    1,136
1064,306; 1894,348;   -0,909;    1,864
1064,849; 1777,439;   -0,909;    0,591
1065,393; 1779,803;    2,000;   -1,500
1065,936; 1902,076;    0,182;   -0,409
1066,479; 1796,258;   -1,455;    1,318
1067,022; 1805,985;   -0,273;   -0,227
1067,565; 1702,621;   -0,091;   -1,318
1068,108; 1730,530;    0,727;   -0,591
1068,651; 1711,076;   -0,636;    1,409
1069,194; 1638,985;   -0,455;   -1,682
1069,736; 1641,167;   -1,273;    0,955
1070,279; 1616,530;   -1,364;   -0,500
1070,822; 1654,803;   -2,000;   -0,318
1071,364; 1736,530;   -0,364;    1,318
1071,907; 1579,167;   -0,727;    3,227
1072,450; 1477,348;    0,000;   -0,045
1072,992; 1476,348;   -0,273;    3,136
1073,535; 1608,348;    2,091;    2,136
1074,077; 1413,348;   -0,727;    2,045
1074,619; 1375,985;   -1,364;    0,591
1075,161; 1416,076;   -1,091;    1,500
1075,704; 1589,985;    1,545;    1,227
1076,246; 1391,894;   -0,182;    0,682
1076,788; 1308,439;   -0,364;    1,773
1077,330; 1399,530;    1,273;    2,136
1077,872; 1365,076;    0,909;    0,955
1078,414; 1574,985;    2,727;    0,773
1078,956; 1299,530;    1,273;   -0,227
1079,498; 1558,985;    1,636;    0,318
1080,040; 1274,803;    1,909;   -1,318
1080,581; 1220,258;    1,636;   -0,318
1081,123; 1152,712;    0,091;   -0,773
1081,665; 1199,348;   -1,182;   -0,955
1082,206; 1488,167;    1,364;   -0,500
1082,748; 1341,894;    0,727;    2,045
1083,289; 1222,439;   -2,000;    1,318
1083,831; 1120,530;   -0,545;    0,227
1084,372; 1161,530;    0,000;    0,591
1084,913; 1171,076;    1,091;    0,864
1085,455; 1140,985;   -1,909;   -2,045
1085,996; 1125,258;   -2,273;    0,136
1086,537; 1135,258;   -0,091;    0,864
1087,078; 1169,985;   -0,909;   -2,136
1087,619; 1200,803;   -1,273;    0,227
1088,160; 1115,712;    0,000;    1,318
1088,701; 1116,712;   -1,091;    0,682
1089,242; 1048,439;    1,364;   -2,227
1089,783; 1141,167;   -0,273;    1,409
1090,324; 1111,803;    0,455;    0,682
1090,865;  996,803;    2,727;   -0,409
1091,405;  959,167;    0,727;    2,227
1091,946;  988,894;    0,182;   -0,955
1092,487;  934,439;    0,818;   -1,409
1093,027; 1080,348;   -1,364;   -1,500
1093,568;  930,439;   -0,364;    1,227
1094,108; 1035,530;    0,273;    1,773
1094,649;  966,348;   -1,182;    0,136
1095,189;  909,621;   -0,636;   -0,682
1095,729;  855,439;   -0,091;    0,955
1096,269;  859,985;    0,727;   -0,955
1096,810; 1178,621;   -1,364;    0,500
1097,350;  996,894;    1,364;   -0,773
1097,890;  899,621;    0,364;    1,227
1098,430; 1154,712;    2,364;    2,864
1098,970; 1035,985;    2,182;    1,682
1099,510;  896,439;    0,545;   -2,318
1100,050;  818,076;    1,000;   -1,591
1100,589;  789,076;   -0,727;   -0,318
1101,129;  912,985;    0,818;   -0,955
1101,669; 1046,530;    1,727;    2,136
1102,209;  883,985;   -0,091;    2,227
1102,748;  846,985;    0,000;    0,955
1103,288;  822,712;    1,273;   -1,227
1103,827;  848,167;    3,091;   -2,227
1104,367;  733,258;   -0,091;   -2,409
1104,906;  708,076;    1,364;   -1,136
1105,445;  777,530;    0,636;   -1,136
1105,985;  707,439;   -0,727;    1,500
1106,524;  764,167;   -1,727;   -0,682
1107,063;  732,712;   -2,727;    1,409
1107,602;  708,258;   -1,909;   -1,500
1108,141;  643,621;   -1,909;    1,500
1108,680;  728,894;   -3,455;   -0,591
1109,219;  667,530;   -0,909;   -0,500
1109,758;  677,167;    0,455;    0,682
1110,297;  652,076;    1,000;   -0,682
1110,836;  593,076;   -0,727;    0,955
1111,375;  759,076;   -2,545;    0,409
1111,913;  766,076;   -1,000;    0,773
1112,452;  704,348;   -0,273;    0,136
1112,991;  589,348;    1,091;    1,955
1113,529;  546,985;   -0,818;   -0,045
1114,068;  617,348;   -0,273;    2,955
1114,606;  526,439;   -0,364;   -0,955
1115,144;  681,348;   -1,273;    1,045
1115,683;  606,803;   -0,727;    0,318
1116,221;  655,803;   -0,455;   -0,864
1116,759;  569,439;    0,636;   -0,864
1117,297;  764,985;    0,000;    1,864
1117,836;  578,439;   -2,182;   -1,227
1118,374;  582,803;    0,182;   -0,682
1118,912;  527,530;    0,909;    2,682
1119,450;  515,167;    1,000;    0,864
1119,988;  562,621;    1,545;    2,136
1120,525; 1012,348;    5,091;    3,318
1121,063;  715,348;    1,182;    1,864
1121,601;  524,621;   -0,909;   -1,227
1122,139;  472,621;   -0,727;   -2,045
1122,676;  676,530;   -0,727;    2,773
1123,214;  610,348;   -1,182;    4,409
1123,751;  420,803;    1,727;    2,227
1124,289;  554,258;   -0,091;   -0,409
1124,826;  425,348;    1,727;    0,227
1125,364;  355,712;    1,727;   -0,955
1125,901;  540,348;    1,182;    1,227
1126,438;  644,530;    0,818;    0,955
1126,975;  378,348;   -0,727;   -0,773
1127,513;  441,803;    0,273;    2,136
1128,050;  349,621;    1,636;   -0,682
1128,587;  444,894;    2,000;   -0,227
1129,124;  486,348;    0,091;    1,318
1129,661;  355,894;    0,273;    0,227
1130,198;  524,076;    1,636;    0,773
1130,734;  464,803;    0,182;    1,409
1131,271;  314,439;   -0,909;    0,864
1131,808;  488,348;    2,909;    3,045
1132,345;  365,712;    1,545;    0,318
1132,881;  250,712;   -1,545;   -1,864
1133,418;  387,803;    0,727;   -1,136
1133,954;  324,621;    2,455;   -2,682
1134,491;  405,712;    1,364;   -0,773
1135,027;  303,621;    2,364;    0,864
1135,564;  382,894;    0,273;    2,955
1136,100;  373,348;    0,364;    2,136
1136,636;  264,076;   -1,273;   -1,045
1137,172;  348,530;    0,000;   -1,045
1137,708;  270,985;   -1,364;   -1,045
1138,245;  282,348;    1,273;   -1,227
1138,781;  228,258;    1,091;   -3,318
1139,317;  300,621;    1,273;   -1,409
1139,852;  289,621;    3,091;    0,136
1140,388;  403,530;   -1,182;   -0,409
1140,924;  298,894;   -1,091;   -2,227
1141,460;  230,167;   -1,636;    0,136
1141,996;  161,076;   -1,364;    2,682
1142,531;  206,348;    1,364;    3,318
1143,067;  425,530;    1,182;    1,045
1143,602;  476,985;   -0,091;   -0,318
1144,138;  326,439;   -2,636;    1,045
1144,673;  196,258;   -1,455;    1,409
1145,209;  261,348;   -1,909;   -0,318
1145,744;  178,348;   -0,727;    0,864
1146,279;  314,439;    1,818;   -0,136
1146,815;  227,439;    1,545;   -2,682
1147,350;  268,894;   -1,364;    0,045
1147,885;  186,985;   -0,818;   -1,318
1148,420;  183,076;   -2,273;    0,773
1148,955;  160,985;   -1,727;    1,864
1149,490;  181,439;   -0,909;   -1,591
1150,025;  173,621;    0,455;   -1,773
1150,560;  286,258;    1,091;   -0,955
1151,094;  260,167;    1,455;   -0,591
1151,629;  258,621;    1,636;    0,864
1152,164;  181,167;    1,364;    1,318
1152,698;  144,258;   -0,182;   -0,136
1153,233;   99,803;    0,091;   -0,682
1153,767;  148,894;   -3,000;   -2,318
1154,302;  199,803;   -1,455;    1,773
1154,836;  191,985;   -0,455;   -2,136
1155,371;  250,167;   -1,364;    3,682
1155,905;  205,712;   -0,636;    1,682
1156,439;  165,621;   -0,636;   -0,500
1156,973;  198,258;    0,364;    0,318
1157,507;  134,712;   -0,364;    0,682
1158,042;  160,803;   -0,727;    1,045
1158,576;  211,894;    0,182;    1,773
1159,110;  197,985;   -0,818;    2,409
1159,643;  174,894;    0,636;   -0,045
1160,177;  119,076;   -1,545;    1,500

