
Integration time [ms]:   0,040
Averaging Nr. [scans]: 11
Smoothing Nr. [pixels]: 0
Data measured with spectrometer [name]: 7318044SP
Wave   ;Sample   ;Dark     ;Reference
[nm]   ;[counts] ;[counts] ;[counts] 

186,757;   25,536;   31,551;    1,318
187,357;   64,181;   22,551;    0,955
187,958;   35,063;   15,460;   -1,591
188,558;   72,989;    8,915;   -1,227
189,159;   47,002;    6,733;   -4,500
189,759;   15,607;    7,278;   -3,591
190,360;    8,359;    2,824;   -2,136
190,960;   47,868;    2,915;   -4,136
191,560;   56,819;    3,189;   -6,591
192,161;  291,410;    4,372;   -3,500
192,761;  141,254;    4,010;   -3,227
193,361;  103,087;    1,556;   -3,773
193,962;  147,025;    2,010;   -2,682
194,562;   72,174;    1,189;   -3,955
195,162;   99,004;   -2,448;   -2,227
195,762;  253,901;   -3,176;   -0,045
196,362;  205,366;    1,370;   -2,500
196,963;   85,228;    2,006;   -0,864
197,563;  147,444;    1,551;   -0,955
198,163;   99,412;    0,096;   -0,682
198,763;  116,793;    1,733;   -0,500
199,363;  216,947;    3,096;   -0,500
199,963;  173,427;    0,369;    0,409
200,563;  156,923;    2,823;   -1,409
201,163;  135,421;    3,277;   -0,227
201,763;  228,235;    3,732;    0,318
202,363;  166,576;    1,459;    1,500
202,963;  265,195;    1,459;    1,045
203,563;  367,671;    0,277;    0,500
204,162;  226,947;    2,096;   -1,864
204,762;  218,073;    0,550;    0,591
205,362;  195,847;    3,004;    1,955
205,962;  279,875;    3,096;    1,955
206,562;  280,234;    1,823;    2,318
207,161;  251,234;   -0,087;    0,318
207,761;  401,992;    1,277;    2,409
208,361;  281,585;   -0,268;    1,409
208,960;  382,291;    0,459;    1,500
209,560;  443,258;    1,277;    1,591
210,160;  432,701;    0,550;    1,864
210,759;  398,269;    4,186;    1,227
211,359;  404,543;    1,459;    1,045
211,958;  667,612;    1,277;    2,045
212,558;  738,244;    1,732;    1,864
213,157;  579,618;    1,822;    1,500
213,757; 1021,729;    3,822;   -0,227
214,356;  724,929;    1,277;   -0,409
214,956; 1053,329;    3,095;    0,409
215,555;  696,642;    2,095;    2,136
216,154;  641,764;   -2,723;   -0,591
216,754;  635,490;    0,277;    0,773
217,353;  768,169;   -0,268;   -1,045
217,952;  623,447;   -0,178;    0,318
218,552;  857,175;    1,368;   -0,773
219,151;  756,761;    0,277;    0,955
219,750;  756,110;    0,004;   -0,227
220,349;  883,058;   -0,451;    1,045
220,948;  949,706;   -1,360;    1,136
221,548;  950,261;    0,913;    1,227
222,147; 1065,560;   -0,087;   -0,409
222,746; 1340,339;   -0,451;   -0,955
223,345; 1214,434;    0,731;    0,500
223,944; 1222,752;   -0,451;    0,773
224,543; 1396,196;    1,004;   -1,409
225,142; 1505,420;    0,094;    0,136
225,741; 1412,182;   -0,814;    1,045
226,340; 1429,398;   -0,451;   -0,955
226,939; 1859,286;   -0,996;   -0,136
227,538; 1807,392;   -0,360;   -0,773
228,137; 1961,158;   -0,814;    0,864
228,735; 2095,612;   -0,541;    1,227
229,334; 1842,974;   -0,905;   -0,227
229,933; 2204,673;    0,459;    0,591
230,532; 2319,845;    1,186;   -0,409
231,131; 2367,869;    1,732;    0,318
231,729; 2479,851;   -2,450;   -2,318
232,328; 2590,454;   -0,723;   -1,500
232,927; 2650,652;    1,004;   -0,500
233,525; 2771,717;    3,640;    0,045
234,124; 2972,360;    2,368;   -1,591
234,723; 2986,094;    0,913;   -1,045
235,321; 3100,985;    2,277;    0,136
235,920; 3328,942;    1,186;   -1,227
236,518; 3580,561;    3,459;    0,318
237,117; 3756,050;    0,004;   -0,227
237,715; 3904,217;    0,640;   -0,500
238,314; 3910,211;   -0,087;   -2,318
238,912; 4032,787;   -0,723;   -1,409
239,510; 4057,602;    0,459;   -1,227
240,109; 4231,585;    0,004;    3,773
240,707; 4267,377;   -0,996;    1,227
241,305; 4621,322;    0,550;    0,136
241,904; 4800,958;   -0,178;   -2,045
242,502; 4790,688;   -0,632;   -0,227
243,100; 4758,215;   -0,087;   -0,955
243,698; 5010,928;    0,732;    1,682
244,297; 5170,066;   -0,632;    0,682
244,895; 5029,711;   -0,269;   -2,318
245,493; 5349,598;    2,186;   -0,591
246,091; 5394,109;    1,368;   -1,318
246,689; 5378,017;    1,004;    0,591
247,287; 5545,350;    0,822;   -1,136
247,885; 5841,821;   -1,451;    1,227
248,483; 5971,591;    1,822;   -0,500
249,081; 6059,169;    0,185;    1,591
249,679; 6181,833;   -0,178;    1,682
250,277; 6441,633;   -1,723;    0,864
250,875; 6425,580;   -1,087;   -1,045
251,473; 6471,717;   -1,178;    0,500
252,071; 6642,136;    1,459;    1,045
252,669; 6812,207;   -1,814;    0,318
253,267; 7080,780;   -0,087;    0,773
253,864; 7039,168;   -0,360;    0,682
254,462; 6904,182;    1,640;    1,591
255,060; 6877,723;   -0,269;    1,318
255,658; 7213,388;    0,822;   -0,136
256,255; 7610,076;    0,186;   -2,045
256,853; 7451,639;   -0,269;    1,409
257,451; 7479,323;    0,822;    1,864
258,048; 7727,228;    1,822;    1,864
258,646; 7509,181;    1,731;   -1,045
259,243; 7704,730;   -0,087;    2,227
259,841; 7749,813;   -0,814;    0,318
260,438; 7642,609;   -0,087;    0,864
261,036; 8335,733;   -1,905;    1,409
261,633; 8260,935;   -0,087;    2,227
262,231; 7977,235;    2,731;   -0,045
262,828; 8097,637;   -0,905;    1,136
263,425; 8142,772;    0,913;   -0,591
264,023; 8408,359;    0,186;    0,045
264,620; 7937,997;   -0,360;   -0,318
265,217; 8269,662;   -2,087;    3,136
265,815; 8409,713;   -1,905;    2,136
266,412; 8188,027;    0,731;    0,136
267,009; 8235,959;   -1,451;    0,773
267,606; 8146,454;    0,822;   -0,955
268,203; 8113,040;   -0,269;   -0,591
268,801; 8404,055;    1,731;    0,591
269,398; 8701,490;   -0,360;    2,500
269,995; 8688,273;    0,277;    1,591
270,592; 8470,186;   -0,632;   -0,500
271,189; 8637,339;    0,186;    0,409
271,786; 8775,531;   -0,632;    1,227
272,383; 8599,280;   -1,087;    0,227
272,980; 8778,293;    0,277;    0,318
273,577; 9247,995;    0,004;    1,227
274,174; 8805,210;    0,822;    2,591
274,771; 8767,661;   -0,814;   -0,773
275,367; 8898,994;    2,277;    1,409
275,964; 8858,792;    0,731;   -0,500
276,561; 8975,754;    1,549;   -1,045
277,158; 9165,742;    0,095;   -1,773
277,755; 9309,533;    2,185;    0,409
278,351; 8730,362;   -0,451;   -1,500
278,948; 9039,956;   -0,815;    0,045
279,545; 9075,068;   -1,360;    2,318
280,141; 9690,956;   -1,723;   -2,045
280,738; 9532,114;   -0,451;   -0,136
281,334; 9747,854;   -1,633;    0,591
281,931; 9159,395;   -0,087;   -1,318
282,528; 9273,604;    0,822;   -0,500
283,124; 9992,636;   -1,087;   -0,500
283,721; 9890,847;   -0,451;    1,409
284,317; 9693,003;    0,185;    2,500
284,913;10248,999;   -1,360;    0,591
285,510;10412,818;    0,640;   -0,318
286,106;10468,776;   -2,269;   -0,955
286,703;10099,559;   -0,360;    1,955
287,299;10283,177;   -1,451;   -0,591
287,895;10494,028;    0,822;   -1,045
288,491;11064,763;    0,186;    2,136
289,088;10776,830;   -2,360;    2,409
289,684;10819,934;   -1,723;    1,500
290,280;10830,317;    0,368;    0,682
290,876;10937,148;    1,822;    5,500
291,472;10838,954;    1,276;    2,227
292,068;10952,960;    1,367;    0,227
292,665;10687,268;    2,095;    0,773
293,261;10320,977;    0,276;    2,136
293,857;10675,589;    2,913;    2,136
294,453;10622,127;    3,550;    0,955
295,049;10503,598;   -0,268;    1,955
295,644;10520,863;    0,095;    0,136
296,240;10434,818;   -0,905;   -0,136
296,836;10481,437;   -0,995;    0,318
297,432;10751,089;    1,096;   -0,500
298,028;10802,877;    0,732;    0,773
298,624;11202,621;    1,459;    1,864
299,220;11480,765;    2,368;    0,591
299,815;11135,381;    1,005;   -0,409
300,411;10926,143;    0,914;    1,773
301,007;10954,329;    1,368;    0,227
301,602;11013,680;   -0,541;   -2,318
302,198;11153,139;    0,732;   -0,773
302,794;11490,186;    1,187;   -0,500
303,389;11618,916;   -1,177;    1,045
303,985;11686,251;    0,550;    1,409
304,580;11635,913;    1,459;    1,591
305,176;11662,112;   -3,086;    0,136
305,771;11563,514;   -1,268;   -1,227
306,367;11379,307;    4,095;    0,136
306,962;11737,771;    0,641;    1,500
307,558;11427,346;   -0,450;    0,136
308,153;11358,568;    1,095;   -1,136
308,748;11609,805;   -0,814;    1,682
309,344;11578,429;   -0,632;   -1,318
309,939;11663,907;   -1,905;   -1,318
310,534;11920,486;   -0,086;   -1,682
311,130;11826,594;    0,459;   -2,500
311,725;11609,874;    1,004;   -0,500
312,320;11934,197;    2,459;    0,045
312,915;11743,578;    1,459;   -1,045
313,510;11826,814;    1,550;   -0,500
314,105;12344,060;    1,096;    1,409
314,700;11736,703;   -3,086;   -1,045
315,295;11360,004;   -0,904;    0,045
315,890;10963,042;    1,277;    0,864
316,485;11336,784;   -0,359;   -0,318
317,080;11442,955;   -3,086;    1,591
317,675;11992,198;    2,005;   -0,682
318,270;11361,507;    5,550;    3,318
318,865;11391,597;    3,278;    3,045
319,460;11206,013;   -0,904;    0,591
320,055;11459,014;   -0,541;   -1,227
320,650;11128,797;   -1,995;   -0,591
321,244;11165,654;   -0,177;   -1,409
321,839;12167,251;   -1,541;   -0,227
322,434;12001,288;   -1,086;   -1,591
323,029;11638,633;    1,732;    1,591
323,623;11451,987;    1,550;    0,773
324,218;11212,900;    2,368;    1,409
324,812;11085,460;    1,096;    1,591
325,407;10913,195;   -0,814;    2,045
326,002;10828,984;    0,277;   -0,409
326,596;11141,791;    0,914;    1,318
327,191;11350,071;    0,823;   -1,045
327,785;10912,337;   -0,813;   -0,227
328,379;11144,829;    1,368;    0,136
328,974;10915,769;    0,914;   -3,955
329,568;11129,128;    0,186;   -2,409
330,163;10986,574;    2,096;    1,045
330,757;11347,302;    2,459;    1,591
331,351;10698,141;    0,459;    0,682
331,945;10965,276;    0,914;    1,409
332,540;10581,142;   -1,723;   -0,591
333,134;10740,364;   -1,086;    0,773
333,728;10969,384;    0,005;    0,318
334,322;11328,222;   -1,177;   -0,864
334,916;10621,887;    0,277;    0,955
335,510;10953,443;   -0,450;   -0,136
336,105;11197,980;   -1,086;    1,591
336,699;10922,690;   -1,086;    0,591
337,293;10815,946;   -1,723;    0,318
337,887;10982,682;   -2,723;    1,955
338,481;11063,536;    0,459;    0,591
339,074;11248,523;   -0,359;    2,682
339,668;11090,397;   -1,632;    1,227
340,262;11308,759;    1,732;    3,227
340,856;10804,410;    1,822;   -0,682
341,450;10207,024;    1,004;    1,864
342,044;11159,401;    1,459;    0,136
342,637;10884,767;    0,913;   -2,136
343,231;10757,566;   -2,360;    0,682
343,825;10727,871;   -1,086;   -0,591
344,419;10670,918;   -1,995;    0,500
345,012;10461,577;    2,459;    4,045
345,606;10465,905;    4,641;    1,591
346,199;10344,107;   -1,813;   -0,227
346,793; 9902,073;    1,914;    2,045
347,386;10070,247;   -0,813;   -1,136
347,980;10069,457;   -0,268;   -0,045
348,573; 9895,322;    2,278;    0,409
349,167; 9548,732;    5,278;    4,773
349,760; 9858,764;    2,914;    2,682
350,354; 9846,029;   -0,813;    1,136
350,947; 9613,713;    1,096;    1,682
351,540; 9305,560;   -0,358;   -1,409
352,134; 9258,794;    1,096;    1,136
352,727; 9332,544;   -0,086;    1,136
353,320; 9115,465;    0,005;    0,591
353,913; 8971,046;   -1,995;    1,864
354,507; 9139,232;    0,823;   -1,227
355,100; 9174,409;    0,460;    0,864
355,693; 8401,197;    2,005;    2,409
356,286; 8466,794;    0,823;    2,773
356,879; 8782,220;   -0,722;    1,227
357,472; 8414,526;   -0,904;    1,500
358,065; 8629,846;   -0,722;    2,500
358,658; 8554,583;   -0,540;    2,318
359,251; 8188,403;   -1,631;   -0,591
359,844; 7712,025;   -1,904;   -1,136
360,437; 7880,835;   -2,995;    0,045
361,030; 8149,009;    1,369;   -0,682
361,623; 7735,290;    2,824;    0,318
362,215; 7772,238;   -0,086;    2,045
362,808; 7629,515;   -2,358;   -1,682
363,401; 7828,889;   -2,449;    0,136
363,994; 7553,851;   -0,631;   -1,500
364,586; 7517,585;    0,824;   -1,500
365,179; 7705,692;   -0,449;   -1,136
365,772; 7172,353;   -1,995;    2,045
366,364; 7467,731;    1,915;   -3,227
366,957; 7677,602;    2,279;   -0,045
367,549; 7718,896;    2,188;   -0,864
368,142; 7366,967;    1,825;   -1,500
368,734; 7550,502;    0,734;   -2,136
369,327; 7511,577;    1,643;   -0,500
369,919; 7428,520;   -1,538;    0,409
370,512; 7246,784;   -1,083;   -0,500
371,104; 7007,683;   -0,901;    1,591
371,696; 7159,903;    1,191;   -0,955
372,289; 7245,822;    0,373;    1,136
372,881; 7376,972;   -2,080;    1,318
373,473; 7309,078;   -2,170;    1,136
374,066; 7110,118;   -0,169;    0,500
374,658; 7003,023;    0,378;    1,136
375,250; 7325,482;    0,653;   -1,409
375,842; 7171,918;    0,473;   -0,045
376,434; 7052,093;   -0,435;   -0,409
377,026; 7618,785;    0,204;   -2,500
377,618; 7514,881;   -0,158;   -0,682
378,210; 7339,272;   -0,338;   -1,955
378,802; 7212,385;    0,754;   -0,591
379,394; 7176,036;    1,846;    0,682
379,986; 7751,744;    1,393;   -0,955
380,578; 7829,418;   -0,153;    0,773
381,170; 7159,345;   -0,972;    0,045
381,762; 7135,360;    0,755;    1,409
382,354; 7330,144;   -0,065;   -1,318
382,945; 7443,053;   -2,976;    0,318
383,537; 7576,402;   -2,705;   -1,955
384,129; 7592,443;   -2,160;   -1,136
384,721; 7766,095;   -0,252;    0,955
385,312; 7720,067;   -0,161;   -0,955
385,904; 7803,194;   -2,706;    1,591
386,496; 7191,439;   -0,979;    1,045
387,087; 7308,662;    1,022;    2,500
387,679; 7356,456;   -1,160;    0,045
388,270; 7472,165;    2,840;    2,045
388,862; 7578,663;    1,295;   -0,318
389,453; 7507,655;   -0,887;    1,045
390,045; 7743,170;   -0,705;   -2,682
390,636; 7685,117;    0,204;   -0,591
391,227; 7536,963;   -0,523;   -0,045
391,819; 7678,340;    0,204;    0,773
392,410; 7734,693;    1,022;    0,045
393,001; 7640,054;   -0,979;   -1,591
393,593; 7903,006;    1,930;   -0,045
394,184; 7768,874;    1,385;   -0,409
394,775; 7658,724;    1,839;    2,136
395,366; 7885,664;    1,385;    0,773
395,957; 7884,543;    0,113;    0,136
396,548; 8183,474;   -0,342;    2,682
397,139; 8478,532;   -2,433;    0,591
397,730; 8201,086;   -1,888;    0,955
398,321; 8283,651;   -1,252;    0,955
398,912; 8318,688;   -0,615;    0,136
399,503; 8399,717;   -3,524;   -1,409
400,094; 7841,124;    0,294;    1,682
400,685; 7738,951;   -0,433;    0,045
401,276; 7817,672;    0,930;   -0,955
401,867; 8129,415;   -0,888;    0,773
402,458; 8210,912;   -2,251;   -2,318
403,048; 8163,329;    1,112;    0,591
403,639; 7779,759;    0,840;    0,864
404,230; 8049,089;    2,476;    0,318
404,821; 7962,626;   -0,615;    0,045
405,411; 8076,671;    1,203;   -2,591
406,002; 7689,998;   -1,252;   -1,136
406,592; 7538,564;    2,294;    0,045
407,183; 7855,076;    0,566;   -1,500
407,774; 7770,762;    3,475;   -0,136
408,364; 8084,542;    0,930;    0,409
408,954; 7690,339;    0,384;    1,227
409,545; 7759,518;    1,021;    1,045
410,135; 7306,177;    1,293;    0,500
410,726; 7461,794;    1,838;    0,318
411,316; 7808,552;    0,111;    0,773
411,906; 7511,692;   -0,253;   -0,409
412,497; 7014,783;   -1,070;   -0,045
413,087; 7609,300;   -1,980;   -0,227
413,677; 7988,916;   -0,707;    3,864
414,267; 7811,882;    0,656;    1,409
414,857; 7813,796;   -2,980;    4,227
415,448; 8107,517;    0,839;    0,500
416,038; 7800,552;    0,020;   -0,591
416,628; 7748,731;   -0,889;    0,409
417,218; 7227,076;    0,565;    3,318
417,808; 7490,626;    0,202;   -0,409
418,398; 7938,385;    0,020;    2,682
418,988; 7973,722;    2,020;    0,591
419,578; 8184,435;   -0,707;    1,409
420,168; 8505,784;   -1,343;   -0,955
420,757; 8070,184;   -1,343;   -1,500
421,347; 7811,922;    0,111;   -0,227
421,937; 7934,132;    2,292;    1,409
422,527; 7858,415;    0,838;   -0,773
423,116; 7693,778;   -0,253;   -0,045
423,706; 8055,395;   -1,889;    0,318
424,296; 8047,666;    1,384;    0,682
424,885; 8421,120;   -0,071;   -3,045
425,475; 8677,769;    1,474;   -2,864
426,065; 8603,980;   -0,980;   -0,318
426,654; 8246,892;   -0,435;   -0,318
427,244; 8342,894;    0,020;    1,409
427,833; 7779,342;    1,383;   -0,500
428,423; 8271,671;   -0,526;    1,136
429,012; 9019,420;   -0,344;   -1,136
429,601; 8502,189;   -1,344;    0,136
430,191; 8767,108;    1,292;    4,318
430,780; 8362,642;   -0,344;   -0,409
431,369; 8293,554;    0,746;   -0,045
431,959; 8918,680;   -1,254;    0,500
432,548; 8674,076;   -1,163;   -0,045
433,137; 8818,904;   -1,254;   -1,318
433,726; 9315,442;    0,292;    0,500
434,315; 8681,237;   -0,526;    2,409
434,905; 8778,846;   -1,254;    1,409
435,494; 8674,769;    0,746;    0,955
436,083; 9141,598;   -0,981;   -0,955
436,672; 9007,062;    0,110;    0,500
437,261; 8575,322;    0,292;   -1,955
437,850; 8700,647;    1,383;    0,682
438,439; 8658,737;    3,291;    1,955
439,027; 8515,653;    3,655;    1,773
439,616; 8858,154;    2,927;    1,227
440,205; 8715,381;    0,200;   -2,136
440,794; 8764,158;    2,109;   -0,045
441,383; 9004,512;   -1,346;   -0,591
441,971; 8878,781;   -2,436;    0,591
442,560; 8732,559;    0,563;   -1,773
443,149; 8469,001;    0,379;   -1,318
443,737; 8594,015;   -0,074;   -2,318
444,326; 8835,289;    0,018;    0,318
444,915; 8867,133;   -1,982;    0,864
445,503; 9259,670;   -2,891;   -0,318
446,092; 8554,222;    0,382;    2,136
446,680; 9063,143;    0,382;    0,318
447,269; 9205,302;   -0,346;   -0,318
447,857; 8984,591;    0,018;   -1,773
448,445; 9127,900;    0,563;    1,318
449,034; 9311,107;   -1,528;   -1,136
449,622; 9414,017;   -1,073;    3,500
450,210; 8684,325;    2,017;    2,227
450,799; 9225,876;    0,290;   -0,591
451,387; 9163,458;    1,381;   -0,591
451,975; 8786,540;    2,654;    0,864
452,563; 8873,950;    3,472;    2,318
453,151; 8905,155;   -0,528;   -1,227
453,739; 8821,340;   -1,347;    0,136
454,328; 8688,026;    2,381;   -2,136
454,916; 8383,524;    2,562;   -0,136
455,504; 8591,542;    1,017;    1,227
456,092; 8776,926;    0,017;   -1,591
456,679; 8745,534;    1,472;    0,682
457,267; 8680,732;    4,017;    1,045
457,855; 8844,803;    1,017;    1,409
458,443; 8602,640;   -0,165;    1,682
459,031; 8707,446;    0,108;    2,409
459,619; 9087,951;   -1,801;    2,864
460,206; 9233,170;    0,835;    2,045
460,794; 9316,303;   -2,983;   -0,227
461,382; 9543,722;   -0,529;   -0,864
461,970; 9107,479;    1,198;    1,864
462,557; 9164,417;   -0,711;   -0,682
463,145; 9378,014;   -3,165;   -1,682
463,732; 9482,767;    2,016;   -1,045
464,320; 9422,999;   -0,075;   -3,045
464,907; 9110,052;    2,743;   -0,773
465,495; 9035,697;    0,743;   -1,227
466,082; 9130,482;   -1,984;   -0,045
466,670; 9059,667;   -2,529;    1,227
467,257; 9463,311;   -1,711;    2,045
467,844; 9605,258;   -0,075;    0,045
468,432; 9634,565;    0,834;    3,500
469,019; 9112,557;    0,925;   -1,773
469,606; 9584,968;    0,470;    3,682
470,193; 9431,603;   -1,439;    0,227
470,780; 8968,458;   -2,075;    0,864
471,368; 9345,231;   -1,257;   -0,773
471,955; 9099,951;    1,379;   -0,682
472,542; 8778,911;    0,652;   -1,136
473,129; 8982,470;   -0,166;    0,136
473,716; 8720,979;    1,470;    0,591
474,303; 8937,708;    0,652;   -0,864
474,890; 9197,505;   -1,439;   -0,500
475,477; 9180,575;   -1,621;    0,409
476,064; 9087,508;    1,106;   -1,591
476,650; 9018,669;    0,288;    0,318
477,237; 8857,214;   -0,258;    0,955
477,824; 8984,795;   -1,076;    0,864
478,411; 9000,065;   -1,894;   -0,318
478,997; 9180,083;    0,560;   -0,773
479,584; 9231,077;    1,196;   -0,409
480,171; 9882,522;   -0,440;   -0,773
480,757; 9545,756;    2,651;    0,773
481,344; 9822,493;    0,469;    0,409
481,931; 9355,074;    1,105;    1,045
482,517;10258,410;   -1,258;    0,318
483,104;10733,865;    1,106;    2,864
483,690;10975,049;   -1,804;    0,045
484,276;11294,279;   -0,895;    0,227
484,863;11040,632;    2,469;    1,136
485,449;11622,840;   -0,077;    0,318
486,035;11568,510;   -1,986;   -0,136
486,622;11996,220;   -0,895;    0,045
487,208;11962,110;    1,378;    1,500
487,794;11844,610;    0,741;    0,318
488,380;11940,708;    0,105;   -1,409
488,967;11979,012;   -1,168;   -0,409
489,553;12052,575;   -1,895;   -1,409
490,139;12225,546;    1,559;    0,773
490,725;11717,278;    0,741;   -0,227
491,311;11377,789;    3,287;    3,045
491,897;10753,246;   -0,986;    1,500
492,483;10633,919;    0,105;    1,227
493,069;10438,218;    3,923;    0,864
493,655;10428,264;    1,650;    0,682
494,241;10373,230;    1,377;   -0,955
494,826;10767,484;    0,287;   -1,045
495,412;10252,969;    2,559;   -0,682
495,998;10414,829;   -0,805;   -0,318
496,584;10570,212;    0,377;    1,045
497,169;10577,100;    1,014;   -0,682
497,755;10575,371;    0,650;    1,227
498,341;11121,190;    0,559;    0,318
498,926;10751,536;    1,832;    1,955
499,512;10960,085;    1,286;    2,955
500,097;11073,694;    0,195;   -0,318
500,683;11076,411;   -0,350;    2,136
501,268;11469,898;   -0,169;   -0,955
501,854;11214,514;   -0,169;    1,227
502,439;11182,082;   -0,624;   -1,773
503,024;11418,126;    0,195;    0,500
503,610;11525,972;   -0,078;   -0,682
504,195;11538,285;    0,558;    1,955
504,780;11682,083;    2,922;    1,227
505,366;11570,442;    3,013;    2,864
505,951;11340,072;    0,740;    1,045
506,536;11364,916;   -3,260;   -3,682
507,121;11412,573;    0,285;   -0,318
507,706;11940,303;    2,376;    1,045
508,291;12349,164;    2,649;    1,136
508,876;11867,784;   -0,988;    2,591
509,461;11354,949;   -0,169;   -0,773
510,046;11751,158;    0,194;    0,318
510,631;12041,781;   -0,351;   -0,773
511,216;11689,398;    2,467;   -0,500
511,801;12107,160;   -0,442;    2,591
512,386;12410,848;    0,740;    0,500
512,971;12369,234;   -2,988;    0,955
513,555;11945,279;   -0,897;   -1,500
514,140;12740,770;   -0,442;   -3,136
514,725;12723,129;   -0,715;   -1,136
515,309;12902,670;   -0,533;    0,318
515,894;12378,456;   -0,624;   -2,227
516,479;12833,737;   -0,624;   -0,955
517,063;12694,275;    0,376;    1,227
517,648;12811,279;    1,012;   -1,136
518,232;12488,076;   -0,261;   -1,409
518,817;12840,866;   -0,079;    1,682
519,401;13064,194;    2,194;    0,591
519,985;12582,460;    1,103;    1,136
520,570;12450,778;    0,830;   -1,955
521,154;12766,032;    2,102;    0,591
521,738;12886,600;   -2,352;    2,409
522,323;13473,390;   -0,170;    1,682
522,907;13206,567;    0,466;   -0,136
523,491;12970,751;    0,557;    0,955
524,075;12959,268;    2,284;    0,591
524,659;13045,193;    1,466;    0,591
525,243;12513,045;    1,739;    0,409
525,827;12781,056;    0,648;   -0,045
526,411;13620,648;   -1,989;   -0,136
526,995;13827,262;   -0,352;    1,409
527,579;13385,383;   -0,443;   -1,045
528,163;13714,881;    0,375;   -1,500
528,747;13664,513;    2,466;   -0,773
529,331;13945,903;   -0,080;   -1,409
529,915;14138,731;    1,738;    0,955
530,499;14089,337;   -0,807;    1,227
531,082;13774,654;   -0,534;    1,591
531,666;13246,296;    1,374;    0,773
532,250;13884,848;    1,284;    2,682
532,833;14234,807;    0,920;    2,773
533,417;14126,476;   -1,807;    0,864
534,001;14042,340;    1,647;   -0,318
534,584;14763,751;    0,374;    0,500
535,168;14619,932;    0,465;    1,409
535,751;14643,328;    0,647;    0,045
536,334;14102,426;   -0,898;   -0,409
536,918;14693,091;    0,011;    1,591
537,501;14825,829;   -0,899;    1,318
538,085;14791,653;   -0,444;    1,045
538,668;14956,806;    0,829;    2,409
539,251;15268,050;    1,829;    3,773
539,834;15303,137;    0,101;    0,773
540,418;15189,191;   -1,990;    4,318
541,001;15289,790;   -0,990;    1,773
541,584;15313,798;    2,101;    2,227
542,167;15019,043;    1,374;    2,955
542,750;15187,081;    1,919;   -0,773
543,333;14773,441;    0,555;    2,136
543,916;15501,181;    0,192;    2,500
544,499;16129,249;   -1,354;    0,227
545,082;16130,766;    1,374;    3,591
545,665;16249,063;    1,919;    1,500
546,248;16568,986;    1,010;   -0,318
546,830;16283,770;   -0,445;    1,955
547,413;16681,303;    1,010;   -0,773
547,996;17191,738;    0,555;    0,500
548,579;16985,539;    0,919;    0,955
549,161;16784,875;    1,828;    2,682
549,744;16593,949;   -0,809;    0,409
550,326;17046,678;   -0,809;   -1,136
550,909;16851,295;    2,737;    0,591
551,492;17254,946;   -0,263;    0,227
552,074;17049,969;   -0,173;   -1,318
552,657;17562,575;    2,373;    0,045
553,239;17350,670;   -0,173;   -0,773
553,821;17261,290;   -1,082;    1,045
554,404;16789,180;    1,282;    1,136
554,986;17128,554;    0,464;    1,045
555,568;17729,740;    1,191;   -0,955
556,151;16944,620;    1,191;   -0,227
556,733;17129,095;   -0,264;   -0,864
557,315;17587,303;    0,100;    0,500
557,897;17444,451;    0,554;   -0,500
558,479;17557,574;   -1,991;    1,318
559,061;17669,235;   -0,719;   -0,864
559,643;18003,556;   -0,264;    0,045
560,225;18364,439;    1,645;    2,864
560,807;18401,193;    0,918;    0,318
561,389;17872,713;    0,554;    2,318
561,971;18565,289;    0,463;    2,136
562,553;18394,448;   -1,628;    1,591
563,135;18534,476;   -0,537;    1,136
563,717;18181,172;    3,372;    1,136
564,298;18853,211;    3,645;   -0,045
564,880;18595,124;    0,645;   -1,409
565,462;18768,943;    0,645;    1,318
566,043;19887,764;   -0,446;    2,318
566,625;19394,582;    1,918;    1,227
567,207;19219,960;    1,099;    1,682
567,788;20333,055;   -1,264;    1,500
568,370;21153,409;    1,917;   -0,500
568,951;20972,576;    0,190;    0,227
569,533;21784,784;   -0,628;   -0,500
570,114;22215,893;   -0,446;    0,682
570,695;22672,834;   -0,174;   -1,318
571,277;23132,662;   -0,265;   -1,682
571,858;23804,594;    2,008;   -1,136
572,439;24729,371;    1,554;   -1,045
573,021;24857,626;    2,099;   -2,773
573,602;25390,979;   -1,265;    0,318
574,183;26279,050;   -2,083;    2,227
574,764;26389,017;   -1,629;    0,409
575,345;26897,026;    0,917;   -0,136
575,926;27507,460;   -0,356;    0,136
576,507;27476,978;    1,099;   -0,227
577,088;28579,948;    3,099;    1,682
577,669;28550,478;    0,735;    1,955
578,250;29228,414;    0,644;   -1,045
578,831;29878,411;   -1,356;   -2,227
579,412;30089,722;   -0,810;    0,955
579,993;31054,421;    1,008;    0,227
580,573;31434,543;   -0,629;   -0,955
581,154;30403,419;    0,735;   -0,591
581,735;31191,356;    0,644;    0,773
582,315;30663,629;   -0,629;    2,136
582,896;31042,744;   -0,174;    1,227
583,477;30540,128;    0,189;    1,227
584,057;30747,845;    0,553;    0,955
584,638;31016,785;    2,553;    2,318
585,218;30986,571;   -0,538;    2,682
585,799;31178,140;    0,281;   -0,227
586,379;31180,857;    0,372;    1,591
586,959;29981,475;    0,735;    0,318
587,540;29361,589;   -0,629;    2,227
588,120;28922,007;    1,007;   -0,045
588,700;27910,291;    2,553;    2,136
589,281;28186,846;    0,462;   -0,955
589,861;28138,518;    0,099;   -1,682
590,441;27969,393;    2,371;   -2,682
591,021;27023,329;   -0,265;   -2,591
591,601;27243,609;   -0,537;    0,500
592,181;27202,455;   -0,719;   -0,773
592,761;26508,024;    0,007;    1,409
593,341;26461,534;   -0,901;    0,045
593,921;26464,826;   -0,265;    1,591
594,501;26344,233;   -0,538;    1,318
595,081;26234,310;    0,917;   -0,318
595,661;26544,016;   -1,447;    0,955
596,240;27033,367;   -0,537;    0,136
596,820;26625,564;    0,372;    1,955
597,400;26814,407;    2,008;    0,773
597,980;27106,027;    2,008;    1,045
598,559;27128,678;    2,735;   -0,227
599,139;26851,046;   -0,174;   -1,227
599,718;26719,592;   -0,174;   -0,409
600,298;26994,981;    0,735;    0,682
600,877;27206,121;    2,917;    1,409
601,457;27450,227;    2,281;    1,136
602,036;27389,972;    0,190;    2,045
602,616;27576,481;    0,644;    1,682
603,195;27881,408;   -0,355;    3,500
603,774;27459,837;   -0,901;    2,045
604,354;27340,899;    0,826;   -0,500
604,933;26856,243;    0,463;    1,864
605,512;27001,961;    3,554;    0,591
606,091;27010,099;   -0,537;    3,773
606,671;27806,924;    0,281;    0,773
607,250;26903,199;    1,644;    3,136
607,829;27190,725;    2,372;    3,227
608,408;27116,885;    1,190;    2,591
608,987;26142,223;    1,281;    3,409
609,566;26409,380;   -1,265;   -2,500
610,145;26476,105;   -1,082;    0,682
610,723;26948,957;    4,372;    6,864
611,302;26190,943;   -0,446;    1,682
611,881;25659,313;    5,008;   11,227
612,460;26555,012;    1,645;    3,955
613,039;26961,481;   -0,082;    2,045
613,617;25677,305;    1,736;    4,773
614,196;25885,770;    1,099;    1,227
614,775;26220,176;    1,009;    2,409
615,353;26182,137;    0,736;    0,864
615,932;25942,654;    0,100;    2,409
616,510;26469,812;    0,554;    0,591
617,089;25997,717;    7,100;   17,591
617,667;25768,927;    2,372;    6,136
618,246;25681,221;   -1,537;    1,318
618,824;25836,375;   -3,355;   -0,955
619,402;25436,558;   -2,900;   -1,773
619,981;25906,093;   -0,173;   -1,045
620,559;25790,510;    0,009;    1,682
621,137;25315,029;   -0,718;    1,864
621,715;25300,791;   -1,173;   -0,682
622,293;25230,453;   -0,537;   -0,773
622,871;25734,394;   -0,718;    0,500
623,450;25291,466;    0,373;   -0,864
624,028;25183,176;    0,191;   -0,955
624,606;24876,834;   -1,718;    1,682
625,183;25254,337;   -1,536;   -1,136
625,761;24883,973;    1,009;    1,136
626,339;25170,898;    1,373;    2,591
626,917;25522,047;   -0,172;   -0,045
627,495;25499,807;   -0,354;    1,318
628,073;24975,098;   -0,263;    2,864
628,650;24649,087;    0,100;    2,136
629,228;25130,948;    0,373;    4,409
629,806;24586,634;    2,282;    1,136
630,383;24822,317;    1,464;   -0,318
630,961;24592,665;    2,555;   -0,955
631,539;24356,103;    2,464;    0,227
632,116;23678,937;   11,373;   15,409
632,694;24268,409;    2,555;    6,500
633,271;24577,232;    0,828;    2,682
633,848;24471,607;    1,828;    2,045
634,426;24534,557;   -1,081;    1,773
635,003;23684,224;    1,101;   -0,409
635,580;23954,039;    1,192;    3,682
636,158;24514,213;    3,737;    1,227
636,735;24510,354;    0,555;   -0,500
637,312;24656,490;   -0,809;   -0,682
637,889;24772,250;   -4,354;   -0,682
638,466;24221,489;   -3,990;   -0,409
639,043;24230,223;    2,101;   -1,136
639,620;24542,646;   -2,262;   -0,955
640,197;24857,335;    1,100;    1,682
640,774;25024,564;   -0,172;    1,136
641,351;25434,975;    0,737;    1,136
641,928;24755,841;   -0,627;    1,409
642,505;24394,888;    0,828;   -0,500
643,082;24615,026;   -1,718;    1,227
643,658;23665,528;   -0,718;    1,500
644,235;24403,030;    1,191;    2,500
644,812;24657,895;    1,918;    0,773
645,388;24389,033;   -0,991;    1,409
645,965;24476,899;   -0,809;    1,682
646,542;24594,582;   -1,445;   -0,227
647,118;24545,902;    1,009;   -0,955
647,695;24867,495;   -0,263;    1,136
648,271;24764,906;   -0,536;    0,500
648,848;25078,317;    0,736;    2,227
649,424;24905,000;    0,827;    1,318
650,000;24689,775;   -0,354;   -1,045
650,577;24457,277;   -0,627;   -0,955
651,153;24947,415;   -1,809;    0,955
651,729;25958,917;    1,191;    0,864
652,305;26043,964;    0,645;    2,773
652,881;30005,466;   -0,082;    1,136
653,458;36561,240;    1,100;    0,227
654,034;40317,742;    0,282;    1,591
654,610;41874,153;    0,554;    0,773
655,186;43198,200;    0,645;    3,045
655,762;42911,611;   -0,991;    0,409
656,338;42952,022;    0,100;    0,136
656,913;43881,342;   -0,082;    0,409
657,489;43182,753;    0,827;   -0,318
658,065;43152,164;   -0,173;   -1,591
658,641;43890,575;   -0,900;   -0,864
659,217;43219,531;   -0,991;    0,409
659,792;42511,760;    0,645;   -0,409
660,368;42847,626;   -2,173;   -0,682
660,944;42612,764;   -2,082;    1,227
661,519;38453,447;   -0,628;    0,409
662,095;32796,677;   -1,719;    0,591
662,670;28213,178;    1,281;   -0,136
663,246;26945,953;    1,009;   -0,409
663,821;26162,091;    0,281;    1,682
664,396;25617,229;    0,009;    1,864
664,972;25924,549;    0,009;   -0,500
665,547;26251,415;    1,372;    0,136
666,122;26289,189;   -1,082;    0,318
666,698;26529,691;   -0,173;    0,318
667,273;25891,375;   -0,173;    0,136
667,848;26730,604;    2,372;    1,500
668,423;26520,378;    2,190;    2,318
668,998;27067,425;    2,827;   -0,682
669,573;27592,745;   -3,264;   -1,500
670,148;27372,065;   -1,446;   -0,682
670,723;27177,749;   -1,810;    0,318
671,298;27595,069;    2,372;    1,045
671,873;27746,116;   -0,082;   -0,136
672,448;27691,436;    0,645;    0,136
673,023;28054,029;   -1,992;   -0,227
673,597;28343,076;    0,827;    2,318
674,172;28117,396;   -0,355;    0,318
674,747;27641,171;    0,372;   -1,045
675,321;27485,218;   -0,628;    3,318
675,896;27075,084;    0,645;    1,045
676,471;28059,222;    2,645;    1,591
677,045;27755,269;   -1,264;    0,682
677,620;27907,316;    0,190;    1,136
678,194;28209,363;   -2,628;    1,136
678,769;27738,774;   -1,083;   -0,318
679,343;27932,913;   -0,628;    1,773
679,917;27825,687;   -1,446;    1,955
680,492;27955,825;    0,826;    3,227
681,066;28056,327;    3,372;    0,409
681,640;28116,283;    1,463;   -0,318
682,214;28922,331;    0,735;    0,500
682,788;28435,923;   -1,356;   -0,773
683,363;28372,243;   -1,810;    1,682
683,937;28035,291;   -1,719;   -0,318
684,511;28856,338;    0,463;   -0,591
685,085;28558,567;   -1,356;    0,318
685,659;28349,160;   -2,538;    0,864
686,232;28543,116;   -0,356;   -0,318
686,806;28281,800;   -0,901;    0,409
687,380;28946,392;   -0,174;    0,591
687,954;29123,712;   -1,174;    1,136
688,528;28818,123;   -0,719;    1,955
689,101;29583,352;   -3,992;    1,045
689,675;29216,309;   -0,356;   -0,136
690,249;28563,265;   -0,719;    0,409
690,822;28867,858;    0,280;    0,318
691,396;28997,178;   -0,265;    1,227
691,969;28418,770;    1,280;    0,136
692,543;28928,454;   -0,447;   -1,955
693,116;28585,774;   -0,265;   -1,409
693,690;28440,821;    0,099;    0,500
694,263;28951,960;   -1,083;    2,955
694,836;29031,916;    1,371;    3,591
695,410;27682,963;   -0,265;    1,773
695,983;28149,647;    0,189;    0,591
696,556;28153,694;   -0,447;   -1,045
697,129;28510,287;   -0,356;    1,409
697,703;28137,607;   -1,629;    1,955
698,276;28165,290;    1,462;   -0,773
698,849;27928,610;    1,280;    1,409
699,422;28273,385;   -1,083;    0,591
699,995;27995,978;    0,007;    0,136
700,568;28491,661;   -0,629;    3,045
701,140;28538,345;   -2,811;    1,682
701,713;28249,210;   -0,174;    2,409
702,286;28017,712;   -0,538;    0,864
702,859;27878,850;   -0,902;   -0,591
703,432;27083,988;    0,825;    0,682
704,004;27625,218;    0,462;    0,318
704,577;27465,447;   -0,629;    0,136
705,150;28014,585;    0,189;    2,500
705,722;27767,359;   -0,356;   -3,227
706,295;27551,134;   -0,175;   -0,591
706,867;27456,272;   -0,175;    1,955
707,440;27607,137;   -1,720;   -0,409
708,012;27879,276;    0,462;    0,591
708,584;27818,050;    2,462;    0,227
709,157;28103,097;    1,825;   -0,591
709,729;27749,872;    2,280;    2,045
710,301;28629,101;    0,734;    0,045
710,874;28624,966;   -1,447;   -0,227
711,446;27493,377;    0,371;    0,864
712,018;27411,425;    0,098;    0,500
712,590;27143,108;   -1,993;    1,682
713,162;27653,519;    0,825;    1,318
713,734;27899,112;    1,825;   -2,045
714,306;27816,159;   -1,902;   -0,409
714,878;26529,570;    0,825;    0,864
715,450;27340,254;    0,643;    0,864
716,022;27616,937;    1,552;    1,318
716,593;27760,075;    0,189;    0,591
717,165;27709,032;   -3,175;   -1,227
717,737;27385,806;    0,280;    0,409
718,309;27079,490;    0,280;   -0,045
718,880;27036,446;   -0,539;   -1,409
719,452;27237,039;   -0,175;   -1,591
720,024;26748,359;    0,734;   -0,591
720,595;27361,134;   -2,902;    0,955
721,167;26931,817;    0,370;   -2,045
721,738;26457,774;   -0,812;   -1,045
722,309;26381,912;   -0,993;   -1,227
722,881;26195,504;   -1,357;    0,773
723,452;26826,552;   -2,630;    2,864
724,023;27023,144;   -0,721;    2,682
724,595;26788,919;    0,007;    0,682
725,166;26570,875;    0,007;   -0,409
725,737;26228,559;    1,734;    0,227
726,308;26327,606;   -0,266;    0,318
726,879;26714,017;   -1,630;    1,227
727,450;26583,064;    0,552;   -0,045
728,021;26558,657;    3,097;    0,682
728,592;26353,432;    0,734;    0,500
729,163;26633,388;    0,643;   -0,136
729,734;26604,072;    0,188;   -0,227
730,305;27017,392;    1,734;    0,136
730,876;27387,075;    0,188;    2,955
731,447;27021,213;    2,188;    2,682
732,017;27155,988;    1,097;    1,864
732,588;26666,944;    0,734;    1,227
733,159;26840,719;    0,643;   -1,045
733,729;26681,130;    0,006;    0,409
734,300;25940,541;    0,915;    0,864
734,870;26369,224;    3,461;    0,591
735,441;26951,544;    0,370;   -0,591
736,011;26723,864;    0,643;   -1,591
736,582;26648,366;   -0,812;    0,045
737,152;26119,595;   -1,721;   -2,045
737,722;26606,188;   -0,267;   -0,682
738,293;26314,144;   -1,358;    1,318
738,863;26180,282;    2,461;    2,318
739,433;25992,784;    5,279;    0,318
740,003;26630,922;   -0,994;   -0,682
740,573;25984,333;    2,097;   -1,591
741,143;25959,199;   -1,085;    0,318
741,713;26745,973;    1,188;   -0,500
742,283;26467,384;    0,915;    1,591
742,853;26289,886;    1,915;    1,591
743,423;25757,842;    1,733;    0,045
743,993;25850,071;   -0,358;    1,500
744,563;25221,937;    0,097;   -0,864
745,133;25191,802;   -0,812;   -0,864
745,702;25905,304;   -0,267;    1,773
746,272;25059,169;   -0,176;    0,591
746,842;24861,489;   -1,358;   -0,591
747,411;25278,900;   -0,267;   -0,318
747,981;25516,493;    0,097;    0,500
748,551;25481,449;    2,278;   -1,045
749,120;25385,133;    0,642;   -0,227
749,690;25789,635;   -0,631;    2,409
750,259;26102,137;    1,369;    2,955
750,828;25975,457;    1,551;   -1,955
751,398;26225,595;    1,278;   -0,045
751,967;25758,733;    2,187;    0,409
752,536;25998,144;   -0,813;   -0,227
753,105;26389,827;    0,096;    0,227
753,675;26187,784;    0,096;    1,773
754,244;26102,649;   -0,904;    3,591
754,813;26130,969;    0,551;    1,227
755,382;25750,380;    0,460;    0,955
755,951;26283,791;    1,551;    3,682
756,520;25823,656;   -0,085;    1,864
757,089;26336,522;    0,278;    0,500
757,658;26537,751;    1,733;    1,227
758,227;26500,435;    1,096;    0,318
758,795;26813,118;    1,187;    1,136
759,364;27034,620;   -0,086;   -0,591
759,933;26125,849;   -1,176;   -0,045
760,501;25643,169;    0,733;   -1,318
761,070;26075,307;   -2,813;   -1,409
761,639;26768,627;   -1,904;    1,318
762,207;26121,038;    1,551;   -0,955
762,776;26026,267;    0,369;    0,864
763,344;26026,951;   -0,995;    0,591
763,913;25150,907;   -0,722;    1,409
764,481;25846,591;    1,005;   -0,136
765,049;25644,002;   -1,358;    1,409
765,618;25565,140;   -0,086;    0,318
766,186;25624,187;    0,278;    0,136
766,754;25809,598;    0,005;    1,864
767,322;24849,918;   -1,995;    0,409
767,890;24905,511;   -0,722;   -1,773
768,459;25266,558;   -2,177;   -0,318
769,027;25423,060;    1,641;    3,409
769,595;24408,380;    3,278;    2,591
770,163;24868,791;    3,823;    2,955
770,730;24644,565;    0,732;   -0,136
771,298;24486,249;    0,187;   -1,409
771,866;24583,842;   -1,541;    4,955
772,434;24944,162;   -0,631;   -1,864
773,002;25089,572;    0,005;    0,682
773,569;24754,074;    0,914;    1,682
774,137;24540,485;   -0,268;   -0,045
774,705;25296,532;    0,278;   -0,136
775,272;24838,398;    0,641;    0,682
775,840;24576,172;   -0,177;    2,682
776,407;24073,402;    0,277;    1,955
776,975;23765,631;   -0,632;    0,318
777,542;24744,132;   -1,086;   -0,045
778,110;24545,271;   -1,268;   -0,045
778,677;24261,500;   -2,359;   -0,864
779,244;24020,729;    2,186;    1,045
779,812;24158,049;    1,823;    0,864
780,379;23982,641;    0,005;    1,136
780,946;24245,416;    1,005;   -0,773
781,513;24590,736;   -1,450;    0,318
782,080;23914,147;   -0,086;    2,864
782,647;24715,012;   -0,268;    3,045
783,214;24263,878;   -0,177;    3,864
783,781;23927,016;   -0,723;   -0,682
784,348;23778,881;   -0,632;    1,500
784,915;24260,929;   -3,177;    0,318
785,482;23955,612;    1,368;    2,591
786,049;24414,205;    0,186;   -0,591
786,615;24584,252;    0,277;   -0,955
787,182;24318,027;    0,186;   -0,682
787,749;23980,165;   -2,814;    1,409
788,315;23313,485;   -1,632;   -0,409
788,882;23577,805;    1,550;   -1,227
789,448;24267,125;    1,732;   -0,955
790,015;24311,263;    1,095;    3,227
790,581;23892,038;    1,459;    0,227
791,148;23743,812;    0,641;    1,045
791,714;23998,950;   -0,541;    3,136
792,280;23665,361;    0,186;    1,591
792,847;23263,590;    0,550;    2,500
793,413;23825,547;   -0,269;   -0,318
793,979;23373,139;    3,459;   -1,318
794,545;23419,732;    4,459;    2,682
795,111;22826,779;    2,186;    1,318
795,678;22988,645;    0,731;   -1,682
796,244;22634,237;    3,368;    0,136
796,810;23240,830;    1,731;    0,773
797,375;22952,059;    0,549;   -2,136
797,941;22945,834;   -0,541;    0,591
798,507;23082,245;   -0,451;   -0,955
799,073;22680,292;   -0,360;    0,591
799,639;22734,430;   -2,632;    3,136
800,205;22782,114;    0,095;    2,682
800,770;22397,888;    0,640;    1,773
801,336;22450,390;    1,368;   -0,955
801,901;22081,801;    4,549;    3,136
802,467;22670,666;   -0,542;    2,045
803,033;22063,350;   -0,087;    0,864
803,598;22246,034;    1,913;   -1,045
804,163;22306,445;    1,095;   -0,318
804,729;22233,492;   -0,178;    1,136
805,294;22594,357;    0,822;    2,227
805,859;22426,677;    0,731;   -0,409
806,425;21889,634;    1,186;    2,682
806,990;21535,408;    2,186;    4,318
807,555;22039,546;   -1,451;    2,591
808,120;21912,685;    0,822;   -0,409
808,685;21979,277;    0,185;   -2,500
809,250;21501,052;    0,004;   -0,500
809,815;21775,826;    1,913;    0,682
810,380;22370,510;   -0,269;    1,591
810,945;22912,830;   -1,087;    2,045
811,510;22011,332;    2,094;    1,591
812,075;21794,561;   -0,633;   -1,409
812,640;21799,517;    2,003;    1,409
813,204;21851,383;    0,822;   -0,227
813,769;22357,703;    2,094;   -0,045
814,334;21790,568;    0,458;    0,864
814,898;21889,070;    0,367;    0,591
815,463;21716,753;    1,276;   -0,773
816,027;21647,164;   -0,724;   -2,318
816,592;21761,030;    0,640;   -2,045
817,156;21244,441;    2,094;    1,136
817,721;21088,215;    4,276;    2,318
818,285;21106,081;    2,912;    1,500
818,849;21695,037;   -1,451;    1,682
819,414;21599,721;   -0,269;    2,955
819,978;21210,950;   -1,269;    1,773
820,542;21807,452;    2,003;    0,500
821,106;21505,317;   -0,815;    0,682
821,670;21589,273;   -0,815;    2,591
822,234;21315,866;   -0,270;    1,409
822,798;20713,004;    0,003;    0,500
823,362;20680,597;   -0,633;    4,227
823,926;19991,008;    0,094;    1,136
824,490;20191,419;   -0,997;   -0,682
825,054;20666,739;   -0,088;   -1,136
825,618;20295,241;   -1,542;   -1,500
826,181;20191,015;    0,458;   -1,318
826,745;20123,153;    1,367;   -1,045
827,309;20464,200;    1,185;    1,318
827,872;19871,884;    1,367;    0,955
828,436;20893,477;    1,185;   -0,773
828,999;20923,342;   -0,997;    1,227
829,563;19723,480;   -0,179;    1,136
830,126;19537,437;   -0,179;   -0,591
830,690;19571,484;   -1,997;    2,864
831,253;19100,168;   -0,543;    2,227
831,816;19253,669;   -1,906;    0,500
832,380;19130,080;    0,185;    0,864
832,943;19366,219;   -1,361;   -0,500
833,506;18839,993;    2,639;   -1,227
834,069;19650,495;    3,912;   -0,955
834,632;19758,815;    1,730;    1,318
835,195;19605,953;    1,003;    0,955
835,758;18813,818;   -0,997;    1,955
836,321;18666,048;    0,730;   -1,045
836,884;18776,186;   -0,725;   -0,955
837,447;18857,142;   -2,816;    1,773
838,010;19059,462;    0,366;    3,227
838,573;19362,146;   -1,179;    0,773
839,135;19346,193;   -1,361;   -0,955
839,698;18826,331;    1,275;    0,409
840,261;18312,197;    1,003;   -0,227
840,823;18158,880;   -0,543;    0,864
841,386;18468,200;   -0,452;   -2,409
841,948;18347,429;   -1,361;    1,773
842,511;18094,477;    0,912;    1,682
843,073;18242,069;    1,912;    0,227
843,636;18040,935;   -0,361;   -0,227
844,198;17974,073;    0,911;    0,591
844,760;18096,666;    1,093;    1,955
845,322;17753,986;    0,548;    1,136
845,885;18139,578;    0,730;    0,591
846,447;18583,898;   -1,998;    0,227
847,009;18159,036;    1,911;   -0,682
847,571;18485,720;    0,820;   -2,045
848,133;18593,858;   -1,089;   -1,864
848,695;18439,451;   -0,543;    1,409
849,257;18016,407;   -1,089;   -1,682
849,819;18163,818;   -0,998;   -0,409
850,381;18243,593;   -0,725;   -0,864
850,942;18556,185;    1,093;   -0,591
851,504;18513,415;    1,184;    0,227
852,066;18537,825;    1,275;   -1,591
852,628;18098,145;   -0,180;    1,955
853,189;17622,465;    1,638;    2,682
853,751;17770,967;   -0,907;    1,409
854,312;17571,560;   -0,453;   -1,682
854,874;18118,153;   -2,089;   -0,773
855,435;18618,927;   -0,907;   -1,682
855,997;18736,247;   -1,816;   -0,136
856,558;18011,385;    0,366;    1,773
857,119;18114,887;    0,820;    2,864
857,681;17843,934;    0,002;    0,318
858,242;17863,254;    1,911;   -2,136
858,803;18282,847;    0,456;   -0,773
859,364;18909,076;    0,184;   -4,773
859,925;18224,487;   -2,453;   -0,955
860,486;18119,443;   -0,453;   -0,955
861,047;17848,127;   -0,544;   -1,227
861,608;17648,356;   -1,089;   -0,773
862,169;17782,131;    0,638;   -0,045
862,730;17548,178;    0,456;    1,409
863,291;17753,407;   -0,635;   -0,500
863,852;18166,363;   -0,635;    1,955
864,412;17660,683;   -0,271;   -0,864
864,973;16211,912;   -0,089;    0,500
865,534;16093,142;   -1,726;    0,227
866,094;17617,643;    1,820;    0,227
866,655;17289,963;    1,274;    3,318
867,215;17525,011;    0,274;    0,136
867,776;17366,058;    0,547;   -0,136
868,336;17478,196;   -1,453;    0,136
868,897;16947,425;    2,638;    1,682
869,457;16701,836;    1,365;    0,318
870,017;16956,065;    0,547;   -1,227
870,578;17452,203;   -0,817;    0,773
871,138;17167,160;   -2,089;   -0,955
871,698;16715,298;   -0,817;   -1,318
872,258;16567,800;   -0,453;   -2,864
872,818;16923,574;    2,729;    0,045
873,378;16876,440;    0,638;    1,045
873,938;16454,760;    0,547;    0,500
874,498;16771,898;    0,274;   -1,955
875,058;16681,490;    2,183;    1,773
875,618;16493,992;    1,910;   -2,682
876,177;16426,676;    1,274;    0,136
876,737;16065,087;   -0,090;    1,955
877,297;16029,407;    0,183;    1,955
877,856;16063,454;   -0,362;    0,318
878,416;16064,865;    1,183;   -0,136
878,976;16250,912;   -1,817;    0,409
879,535;16424,232;    0,092;    3,136
880,095;16144,552;   -0,544;    0,045
880,654;16283,145;   -1,090;    1,318
881,213;16321,465;    2,456;    1,500
881,773;15992,148;    2,637;    2,682
882,332;16359,196;    3,365;    5,136
882,891;16204,970;    3,092;    2,136
883,451;16662,745;   -1,272;    1,682
884,010;16140,519;   -2,908;   -0,409
884,569;16195,476;   -0,999;   -0,045
885,128;16366,250;    2,819;   -1,864
885,687;16416,207;    4,455;    0,682
886,246;16087,345;    1,455;    2,136
886,805;15850,210;    2,455;    2,045
887,364;16165,530;   -0,999;   -0,500
887,922;16529,668;   -1,181;    0,045
888,481;16055,897;   -1,545;    0,591
889,040;16349,854;    1,183;    2,136
889,599;17019,083;    2,455;    1,409
890,157;17088,948;    1,455;    2,409
890,716;16716,086;   -0,090;    0,227
891,274;16533,952;    0,092;   -1,136
891,833;16999,181;    1,546;    0,864
892,391;16881,956;   -0,454;    0,500
892,950;16934,912;    1,819;   -0,773
893,508;17315,868;    0,455;   -0,409
894,067;16657,825;    0,637;    0,136
894,625;16563,508;   -0,636;   -1,500
895,183;16816,555;   -0,363;   -0,682
895,741;16691,694;    1,728;   -1,773
896,299;16537,923;   -0,545;   -2,409
896,858;16754,788;    0,819;   -1,591
897,416;16836,745;    2,728;   -1,318
897,974;16591,246;    1,819;    0,318
898,532;16721,566;    6,091;    2,682
899,089;16622,795;    2,091;   -0,682
899,647;16679,297;   -1,454;    1,318
900,205;16371,526;    1,182;    1,045
900,763;16615,119;   -0,454;    0,227
901,321;16646,530;    2,364;   -1,409
901,878;16105,941;   -1,000;   -0,773
902,436;15993,261;   -1,363;    1,318
902,994;16324,217;    4,728;    3,682
903,551;15790,628;    0,728;    0,409
904,109;16154,312;    0,182;   -1,409
904,666;15753,904;    2,455;    1,045
905,224;15581,133;    0,182;   -0,409
905,781;15375,453;    0,727;   -0,318
906,338;15460,046;   -1,363;    1,045
906,895;15364,912;    0,637;    2,045
907,453;15259,686;    1,727;    1,136
908,010;15299,279;   -0,909;    0,409
908,567;14957,781;    1,273;    0,591
909,124;14506,101;    0,364;   -1,500
909,681;14566,148;   -2,909;    0,682
910,238;14748,468;    0,636;   -1,318
910,795;15091,333;   -0,273;   -1,136
911,352;14709,788;   -2,909;   -2,682
911,909;14094,242;   -1,364;   -0,864
912,466;14626,606;   -3,182;    1,500
913,022;14165,333;   -1,636;    0,500
913,579;14530,788;   -0,909;    2,045
914,136;14219,424;    1,636;    0,955
914,692;14518,970;    0,091;   -1,227
915,249;14119,606;    1,455;    0,409
915,806;14388,333;    0,182;    1,955
916,362;14144,333;    1,909;    1,864
916,918;13707,242;    2,000;    1,045
917,475;13659,242;   -1,182;    0,955
918,031;13700,697;    3,364;   -0,045
918,587;13177,242;   -0,909;   -0,318
919,144;13468,879;   -2,273;    0,227
919,700;13767,152;    1,727;    0,773
920,256;13324,242;    0,727;    0,045
920,812;12963,697;   -0,727;   -1,045
921,368;12956,788;   -1,727;   -1,045
921,924;12574,515;    0,182;   -0,136
922,480;12156,879;   -0,545;    1,227
923,036;12771,242;    1,273;    1,955
923,592;12702,061;    0,455;    0,318
924,148;12622,061;    0,455;   -0,955
924,704;11929,970;   -1,364;   -0,409
925,259;12228,606;   -0,273;    0,591
925,815;12028,970;    1,455;    0,500
926,371;11555,242;    2,909;    1,409
926,926;11395,788;    2,091;    0,591
927,482;11052,333;   -1,364;    0,773
928,037;10910,242;    0,909;    2,045
928,593;11193,424;    1,636;    1,045
929,148;11032,515;   -1,818;   -1,500
929,704;10540,697;   -1,455;   -0,500
930,259;10763,242;    0,091;   -0,136
930,814; 9848,333;   -0,818;    1,955
931,369; 9578,333;    1,091;   -0,773
931,925; 9435,242;   -0,091;    0,136
932,480; 9338,333;   -2,818;   -2,591
933,035; 9228,970;    0,545;   -0,318
933,590; 8991,515;    0,364;   -1,773
934,145; 8669,242;   -1,364;   -0,318
934,700; 8971,879;    0,455;   -0,591
935,255; 8797,242;   -0,091;    0,045
935,809; 8070,424;    3,182;    0,864
936,364; 7245,152;   -0,455;   -0,136
936,919; 7219,606;    0,455;   -1,773
937,474; 7116,242;    1,455;    0,136
938,028; 6900,970;   -1,636;    1,136
938,583; 6364,879;    1,818;    4,682
939,138; 6630,788;    2,091;    2,136
939,692; 6099,333;    1,636;   -1,136
940,247; 5798,061;   -0,727;   -1,045
940,801; 5367,606;   -0,636;    0,227
941,355; 5276,606;   -0,364;    2,591
941,910; 4949,333;   -0,273;   -2,136
942,464; 5057,879;   -0,818;   -0,318
943,018; 4839,879;    1,000;   -0,227
943,572; 4788,424;    2,545;   -0,682
944,126; 4230,333;    0,091;   -0,409
944,681; 4119,697;    3,091;    0,227
945,235; 4079,970;    1,000;   -0,591
945,789; 4032,697;    0,364;   -1,864
946,342; 4123,788;    0,455;   -0,591
946,896; 3937,606;   -2,273;    0,955
947,450; 3696,333;    1,545;   -0,227
948,004; 3882,515;    1,727;   -0,045
948,558; 3913,606;    0,273;   -0,864
949,111; 3826,333;   -0,273;   -0,318
949,665; 3852,788;    1,636;   -0,682
950,219; 3716,424;   -0,091;   -1,045
950,772; 3816,333;   -1,909;    1,864
951,326; 3714,970;    0,545;   -0,955
951,879; 3813,333;    0,727;   -2,318
952,433; 3834,788;    0,000;    2,227
952,986; 3688,061;    2,909;    0,682
953,539; 3629,333;   -0,273;    0,591
954,093; 3552,697;    0,545;   -1,318
954,646; 3686,333;    0,909;    1,318
955,199; 3505,061;    0,000;   -0,500
955,752; 3400,061;   -0,455;    1,773
956,305; 3367,606;   -0,091;    2,955
956,858; 3521,697;    0,818;   -0,318
957,411; 3691,333;   -0,545;    2,136
957,964; 3498,970;    1,364;    2,136
958,517; 3509,879;   -1,545;    3,136
959,070; 3346,879;   -0,455;    1,955
959,623; 3421,333;    1,091;    1,500
960,176; 3197,424;    1,727;    2,045
960,728; 3183,879;   -2,727;    0,773
961,281; 3253,242;    0,545;    0,500
961,834; 3274,242;   -0,909;    0,864
962,386; 3223,152;    1,727;    1,045
962,939; 3135,970;    0,364;   -0,318
963,491; 3260,152;    0,455;    1,136
964,043; 3131,606;    1,182;    2,409
964,596; 3255,788;   -1,000;    2,227
965,148; 3112,879;   -1,000;    1,773
965,700; 3036,697;    1,091;   -0,227
966,253; 3198,788;   -0,636;    0,318
966,805; 3030,879;   -2,273;    0,773
967,357; 3081,515;    1,091;   -1,500
967,909; 3024,424;    0,455;   -1,227
968,461; 3134,788;    0,545;    3,136
969,013; 3063,061;   -0,182;   -0,864
969,565; 3137,333;   -0,455;   -1,136
970,117; 3206,697;   -0,364;    1,045
970,669; 3052,788;    0,182;   -0,136
971,220; 2909,515;   -0,455;   -1,500
971,772; 2842,061;   -0,636;   -0,318
972,324; 2957,242;    0,091;   -0,500
972,876; 2916,152;    0,818;   -0,045
973,427; 3040,606;    1,909;   -1,045
973,979; 3002,152;   -0,727;   -2,500
974,530; 3047,152;    1,818;    1,318
975,082; 3051,515;   -0,545;    1,682
975,633; 2948,333;    1,091;    1,682
976,184; 3088,697;    0,909;    0,773
976,736; 2895,788;    0,091;    0,227
977,287; 2691,879;   -0,909;   -0,500
977,838; 2859,697;    0,909;   -0,318
978,389; 2910,788;   -1,000;   -0,500
978,940; 2788,879;    0,545;   -0,409
979,491; 2828,242;    0,091;   -0,500
980,042; 2788,333;    0,182;    3,045
980,593; 2825,879;   -2,545;    0,227
981,144; 2879,061;    2,545;   -0,500
981,695; 2862,970;    1,455;    1,500
982,246; 2814,152;   -0,273;    1,045
982,797; 2988,242;   -1,727;    0,682
983,347; 3082,970;    0,364;    0,591
983,898; 3252,152;    3,091;    0,409
984,449; 3070,697;    2,182;    0,773
984,999; 2967,879;    1,455;   -1,136
985,550; 2766,606;    0,182;   -0,318
986,100; 2815,879;   -0,455;   -0,318
986,651; 2863,061;   -0,818;    0,045
987,201; 2823,970;   -1,000;   -0,591
987,751; 2876,970;    0,818;    2,864
988,302; 2874,879;    2,636;    1,500
988,852; 2910,515;    0,455;   -1,136
989,402; 2950,606;    0,091;    0,682
989,952; 2867,697;   -2,182;    0,864
990,502; 2965,879;   -0,091;    0,682
991,052; 2936,697;   -0,727;    0,045
991,602; 2823,788;   -2,909;    1,318
992,152; 2813,788;    0,455;    0,682
992,702; 2779,242;    1,364;   -0,045
993,252; 2708,424;   -3,000;   -0,500
993,802; 2787,242;   -0,273;    1,318
994,352; 2995,879;   -1,545;    1,136
994,901; 3113,424;   -0,182;    3,227
995,451; 3056,242;   -0,182;    0,318
996,000; 3130,152;    1,636;    0,318
996,550; 2825,788;    2,273;    0,227
997,100; 2824,879;    1,273;   -0,045
997,649; 3112,242;    2,182;    0,955
998,198; 2743,242;    1,727;   -1,500
998,748; 2952,515;    1,091;   -2,318
999,297; 2875,606;   -0,818;   -0,409
999,846; 2937,424;    1,000;   -0,773
1000,395; 2968,788;   -0,818;    0,500
1000,945; 2922,970;    1,818;   -0,773
1001,494; 3006,606;    2,364;    0,682
1002,043; 3010,606;    4,636;    0,864
1002,592; 2838,424;   -1,091;    1,955
1003,141; 2990,242;   -0,455;   -0,682
1003,690; 2837,970;    1,727;    0,500
1004,238; 2911,333;    1,455;   -0,045
1004,787; 2565,242;    1,364;    1,227
1005,336; 2803,970;    0,364;    0,682
1005,885; 2927,606;    1,364;   -2,773
1006,433; 3076,242;    0,545;    0,955
1006,982; 3136,061;    0,455;    1,682
1007,531; 3052,515;   -1,818;   -0,227
1008,079; 2992,606;   -2,273;    0,500
1008,627; 3141,424;   -1,455;    0,409
1009,176; 2886,061;    0,000;   -1,955
1009,724; 2929,606;    1,091;    0,864
1010,273; 2990,061;    1,273;    0,500
1010,821; 3091,788;    0,091;    1,409
1011,369; 2843,242;   -1,364;    1,318
1011,917; 2829,242;   -1,364;   -0,591
1012,465; 3080,061;    1,273;   -1,591
1013,013; 3210,697;    2,091;   -1,682
1013,561; 3092,333;    0,455;   -0,773
1014,109; 3134,970;   -1,909;    1,682
1014,657; 3011,970;    0,364;    0,591
1015,205; 3143,788;    1,636;   -0,955
1015,753; 3184,061;   -0,545;   -1,409
1016,301; 3209,879;   -2,636;    3,045
1016,848; 3195,061;   -1,273;    0,409
1017,396; 3235,697;    2,545;    0,045
1017,944; 3360,242;    1,182;    1,864
1018,491; 3119,879;    0,273;    1,409
1019,039; 3264,697;    0,455;    0,591
1019,586; 3203,606;   -1,364;    1,682
1020,134; 3315,152;    0,455;    1,500
1020,681; 3316,788;    0,182;   -1,136
1021,228; 3322,333;    2,909;   -2,227
1021,776; 3162,788;    1,182;   -1,136
1022,323; 3366,424;    0,455;    0,773
1022,870; 3307,515;   -1,000;   -0,045
1023,417; 3215,879;    2,636;    1,864
1023,964; 3343,970;    2,636;    1,227
1024,511; 3173,333;    1,000;    0,773
1025,058; 2989,788;    3,182;   -0,045
1025,605; 3052,970;   -2,273;    3,136
1026,152; 3277,242;    1,727;   -0,591
1026,699; 3002,061;    1,818;    1,318
1027,245; 3160,879;   -0,091;    0,318
1027,792; 3370,515;   -1,000;    1,409
1028,339; 3246,970;    2,364;   -0,045
1028,885; 3104,606;    1,000;   -0,227
1029,432; 3054,152;   -0,091;    0,227
1029,978; 3117,879;   -1,000;   -1,591
1030,525; 3028,515;    1,000;    0,409
1031,071; 3264,879;   -1,364;    1,136
1031,618; 3365,515;    0,364;    1,682
1032,164; 3165,970;   -0,091;    3,045
1032,710; 3199,788;    1,636;   -1,500
1033,256; 3118,333;   -0,636;   -0,136
1033,803; 3110,515;   -0,545;    1,500
1034,349; 2838,333;   -1,364;    0,136
1034,895; 2981,788;    0,000;   -0,318
1035,441; 2954,333;   -0,818;    0,318
1035,987; 2956,788;   -2,364;   -0,682
1036,533; 2981,788;   -1,455;   -0,955
1037,078; 3169,879;    1,455;    1,682
1037,624; 2984,788;    2,455;   -0,955
1038,170; 3033,606;    0,455;   -0,318
1038,716; 2930,788;    1,636;   -0,409
1039,261; 2856,606;   -2,273;   -0,773
1039,807; 2790,697;   -0,091;    3,409
1040,352; 2839,152;   -1,909;   -0,318
1040,898; 2890,061;   -1,545;   -0,682
1041,443; 2809,970;   -1,455;   -2,591
1041,989; 2821,061;    1,091;    1,591
1042,534; 2699,152;   -0,364;    2,591
1043,079; 2813,061;    2,909;    0,955
1043,625; 2633,061;    1,818;    0,500
1044,170; 2658,061;   -1,364;    1,045
1044,715; 2901,697;    2,455;    0,955
1045,260; 2726,152;    2,182;   -0,955
1045,805; 2796,515;    1,182;   -0,591
1046,350; 2707,515;    1,364;   -0,409
1046,895; 2678,697;    2,909;    1,591
1047,440; 2627,242;    5,364;    0,409
1047,985; 2528,606;    2,818;   -0,955
1048,530; 2447,970;    1,545;    1,227
1049,074; 2498,697;    0,000;    0,318
1049,619; 2486,424;   -1,364;    1,955
1050,164; 2307,061;    0,455;    0,227
1050,708; 2352,697;   -0,455;    0,045
1051,253; 2691,333;    1,273;   -2,227
1051,797; 2414,879;    0,818;   -1,318
1052,342; 2424,879;   -1,182;    1,045
1052,886; 2410,061;    0,364;   -1,409
1053,430; 2297,515;   -1,364;    0,136
1053,975; 2320,606;   -0,818;   -0,318
1054,519; 2289,970;   -0,727;    3,227
1055,063; 2303,879;    0,909;    1,318
1055,607; 2187,242;   -0,182;    0,227
1056,151; 2226,152;    2,909;    1,682
1056,695; 2137,515;    2,273;   -1,136
1057,239; 2213,697;   -1,727;   -0,682
1057,783; 2228,515;    0,818;   -1,500
1058,327; 2152,970;    0,000;    1,409
1058,871; 2388,697;   -0,545;    1,318
1059,415; 2096,333;   -0,818;   -0,045
1059,958; 2353,879;    1,455;    2,591
1060,502; 2090,515;   -1,000;   -0,773
1061,046; 1990,424;    0,364;   -0,955
1061,589; 1969,333;   -3,000;   -1,136
1062,133; 1851,970;   -1,273;    1,864
1062,676; 1799,061;    1,182;    0,864
1063,220; 1805,242;    1,091;    0,500
1063,763; 1835,515;    0,909;    1,136
1064,306; 1899,152;   -0,909;    1,864
1064,849; 1785,879;   -0,909;    0,591
1065,393; 1783,606;    2,000;   -1,500
1065,936; 1899,242;    0,182;   -0,409
1066,479; 1795,879;   -1,455;    1,318
1067,022; 1799,697;   -0,273;   -0,227
1067,565; 1708,333;   -0,091;   -1,318
1068,108; 1751,970;    0,727;   -0,591
1068,651; 1726,242;   -0,636;    1,409
1069,194; 1648,788;   -0,455;   -1,682
1069,736; 1654,970;   -1,273;    0,955
1070,279; 1620,061;   -1,364;   -0,500
1070,822; 1672,879;   -2,000;   -0,318
1071,364; 1739,606;   -0,364;    1,318
1071,907; 1575,697;   -0,727;    3,227
1072,450; 1475,970;    0,000;   -0,045
1072,992; 1469,152;   -0,273;    3,136
1073,535; 1615,788;    2,091;    2,136
1074,077; 1401,242;   -0,727;    2,045
1074,619; 1367,970;   -1,364;    0,591
1075,161; 1413,424;   -1,091;    1,500
1075,704; 1584,424;    1,545;    1,227
1076,246; 1380,333;   -0,182;    0,682
1076,788; 1312,152;   -0,364;    1,773
1077,330; 1391,879;    1,273;    2,136
1077,872; 1357,152;    0,909;    0,955
1078,414; 1576,697;    2,727;    0,773
1078,956; 1319,970;    1,273;   -0,227
1079,498; 1568,606;    1,636;    0,318
1080,040; 1274,879;    1,909;   -1,318
1080,581; 1206,333;    1,636;   -0,318
1081,123; 1154,879;    0,091;   -0,773
1081,665; 1196,515;   -1,182;   -0,955
1082,206; 1478,697;    1,364;   -0,500
1082,748; 1350,697;    0,727;    2,045
1083,289; 1232,697;   -2,000;    1,318
1083,831; 1145,061;   -0,545;    0,227
1084,372; 1175,424;    0,000;    0,591
1084,913; 1176,697;    1,091;    0,864
1085,455; 1158,697;   -1,909;   -2,045
1085,996; 1112,152;   -2,273;    0,136
1086,537; 1137,606;   -0,091;    0,864
1087,078; 1166,606;   -0,909;   -2,136
1087,619; 1195,970;   -1,273;    0,227
1088,160; 1126,788;    0,000;    1,318
1088,701; 1112,606;   -1,091;    0,682
1089,242; 1053,242;    1,364;   -2,227
1089,783; 1153,788;   -0,273;    1,409
1090,324; 1117,606;    0,455;    0,682
1090,865;  980,515;    2,727;   -0,409
1091,405;  962,152;    0,727;    2,227
1091,946;  995,152;    0,182;   -0,955
1092,487;  919,697;    0,818;   -1,409
1093,027; 1079,697;   -1,364;   -1,500
1093,568;  939,606;   -0,364;    1,227
1094,108; 1033,970;    0,273;    1,773
1094,649;  975,697;   -1,182;    0,136
1095,189;  904,788;   -0,636;   -0,682
1095,729;  861,242;   -0,091;    0,955
1096,269;  858,333;    0,727;   -0,955
1096,810; 1170,606;   -1,364;    0,500
1097,350;  996,333;    1,364;   -0,773
1097,890;  902,788;    0,364;    1,227
1098,430; 1152,515;    2,364;    2,864
1098,970; 1039,061;    2,182;    1,682
1099,510;  893,424;    0,545;   -2,318
1100,050;  823,152;    1,000;   -1,591
1100,589;  778,970;   -0,727;   -0,318
1101,129;  908,606;    0,818;   -0,955
1101,669; 1056,970;    1,727;    2,136
1102,209;  880,424;   -0,091;    2,227
1102,748;  836,424;    0,000;    0,955
1103,288;  826,152;    1,273;   -1,227
1103,827;  853,606;    3,091;   -2,227
1104,367;  736,788;   -0,091;   -2,409
1104,906;  699,242;    1,364;   -1,136
1105,445;  772,424;    0,636;   -1,136
1105,985;  710,333;   -0,727;    1,500
1106,524;  754,333;   -1,727;   -0,682
1107,063;  741,424;   -2,727;    1,409
1107,602;  723,606;   -1,909;   -1,500
1108,141;  638,697;   -1,909;    1,500
1108,680;  729,970;   -3,455;   -0,591
1109,219;  668,152;   -0,909;   -0,500
1109,758;  671,515;    0,455;    0,682
1110,297;  636,879;    1,000;   -0,682
1110,836;  587,242;   -0,727;    0,955
1111,375;  746,788;   -2,545;    0,409
1111,913;  764,333;   -1,000;    0,773
1112,452;  708,152;   -0,273;    0,136
1112,991;  599,970;    1,091;    1,955
1113,529;  554,697;   -0,818;   -0,045
1114,068;  619,061;   -0,273;    2,955
1114,606;  517,333;   -0,364;   -0,955
1115,144;  675,424;   -1,273;    1,045
1115,683;  614,061;   -0,727;    0,318
1116,221;  666,242;   -0,455;   -0,864
1116,759;  580,515;    0,636;   -0,864
1117,297;  767,606;    0,000;    1,864
1117,836;  587,788;   -2,182;   -1,227
1118,374;  584,606;    0,182;   -0,682
1118,912;  526,515;    0,909;    2,682
1119,450;  511,333;    1,000;    0,864
1119,988;  558,061;    1,545;    2,136
1120,525; 1015,152;    5,091;    3,318
1121,063;  719,061;    1,182;    1,864
1121,601;  521,061;   -0,909;   -1,227
1122,139;  487,515;   -0,727;   -2,045
1122,676;  677,333;   -0,727;    2,773
1123,214;  616,242;   -1,182;    4,409
1123,751;  421,788;    1,727;    2,227
1124,289;  551,333;   -0,091;   -0,409
1124,826;  439,061;    1,727;    0,227
1125,364;  348,970;    1,727;   -0,955
1125,901;  540,970;    1,182;    1,227
1126,438;  646,606;    0,818;    0,955
1126,975;  383,242;   -0,727;   -0,773
1127,513;  439,970;    0,273;    2,136
1128,050;  361,152;    1,636;   -0,682
1128,587;  452,697;    2,000;   -0,227
1129,124;  497,788;    0,091;    1,318
1129,661;  358,879;    0,273;    0,227
1130,198;  521,152;    1,636;    0,773
1130,734;  469,879;    0,182;    1,409
1131,271;  332,424;   -0,909;    0,864
1131,808;  501,515;    2,909;    3,045
1132,345;  373,970;    1,545;    0,318
1132,881;  244,879;   -1,545;   -1,864
1133,418;  393,424;    0,727;   -1,136
1133,954;  323,515;    2,455;   -2,682
1134,491;  390,152;    1,364;   -0,773
1135,027;  299,061;    2,364;    0,864
1135,564;  384,333;    0,273;    2,955
1136,100;  374,515;    0,364;    2,136
1136,636;  265,515;   -1,273;   -1,045
1137,172;  359,606;    0,000;   -1,045
1137,708;  280,152;   -1,364;   -1,045
1138,245;  281,788;    1,273;   -1,227
1138,781;  238,242;    1,091;   -3,318
1139,317;  298,970;    1,273;   -1,409
1139,852;  290,242;    3,091;    0,136
1140,388;  408,697;   -1,182;   -0,409
1140,924;  290,424;   -1,091;   -2,227
1141,460;  230,424;   -1,636;    0,136
1141,996;  163,788;   -1,364;    2,682
1142,531;  203,061;    1,364;    3,318
1143,067;  417,152;    1,182;    1,045
1143,602;  471,606;   -0,091;   -0,318
1144,138;  316,970;   -2,636;    1,045
1144,673;  184,152;   -1,455;    1,409
1145,209;  264,606;   -1,909;   -0,318
1145,744;  183,333;   -0,727;    0,864
1146,279;  317,606;    1,818;   -0,136
1146,815;  226,242;    1,545;   -2,682
1147,350;  272,606;   -1,364;    0,045
1147,885;  182,424;   -0,818;   -1,318
1148,420;  177,515;   -2,273;    0,773
1148,955;  158,333;   -1,727;    1,864
1149,490;  185,697;   -0,909;   -1,591
1150,025;  170,152;    0,455;   -1,773
1150,560;  285,515;    1,091;   -0,955
1151,094;  255,333;    1,455;   -0,591
1151,629;  252,879;    1,636;    0,864
1152,164;  185,242;    1,364;    1,318
1152,698;  143,424;   -0,182;   -0,136
1153,233;  112,515;    0,091;   -0,682
1153,767;  152,697;   -3,000;   -2,318
1154,302;  199,788;   -1,455;    1,773
1154,836;  206,061;   -0,455;   -2,136
1155,371;  251,697;   -1,364;    3,682
1155,905;  204,152;   -0,636;    1,682
1156,439;  181,879;   -0,636;   -0,500
1156,973;  203,242;    0,364;    0,318
1157,507;  135,424;   -0,364;    0,682
1158,042;  167,515;   -0,727;    1,045
1158,576;  221,424;    0,182;    1,773
1159,110;  211,515;   -0,818;    2,409
1159,643;  175,970;    0,636;   -0,045
1160,177;  115,515;   -1,545;    1,500

