
Integration time [ms]:   0,040
Averaging Nr. [scans]: 11
Smoothing Nr. [pixels]: 0
Data measured with spectrometer [name]: 7318044SP
Wave   ;Sample   ;Dark     ;Reference
[nm]   ;[counts] ;[counts] ;[counts] 

186,757;   30,989;   31,551;    1,318
187,357;   65,545;   22,551;    0,955
187,958;   41,790;   15,460;   -1,591
188,558;   83,079;    8,915;   -1,227
189,159;   47,729;    6,733;   -4,500
189,759;   27,334;    7,278;   -3,591
190,360;   20,272;    2,824;   -2,136
190,960;   54,330;    2,915;   -4,136
191,560;   61,925;    3,189;   -6,591
192,161;  289,351;    4,372;   -3,500
192,761;  143,482;    4,010;   -3,227
193,361;   87,863;    1,556;   -3,773
193,962;  143,065;    2,010;   -2,682
194,562;   70,738;    1,189;   -3,955
195,162;  103,741;   -2,448;   -2,227
195,762;  260,815;   -3,176;   -0,045
196,362;  213,369;    1,370;   -2,500
196,963;   90,776;    2,006;   -0,864
197,563;  157,625;    1,551;   -0,955
198,163;  103,590;    0,096;   -0,682
198,763;  123,426;    1,733;   -0,500
199,363;  219,307;    3,096;   -0,500
199,963;  178,058;    0,369;    0,409
200,563;  152,189;    2,823;   -1,409
201,163;  137,322;    3,277;   -0,227
201,763;  219,137;    3,732;    0,318
202,363;  166,022;    1,459;    1,500
202,963;  268,367;    1,459;    1,045
203,563;  378,754;    0,277;    0,500
204,162;  221,847;    2,096;   -1,864
204,762;  216,061;    0,550;    0,591
205,362;  184,018;    3,004;    1,955
205,962;  277,685;    3,096;    1,955
206,562;  281,678;    1,823;    2,318
207,161;  248,493;   -0,087;    0,318
207,761;  401,254;    1,277;    2,409
208,361;  285,031;   -0,268;    1,409
208,960;  387,463;    0,459;    1,500
209,560;  453,608;    1,277;    1,591
210,160;  427,871;    0,550;    1,864
210,759;  403,712;    4,186;    1,227
211,359;  407,892;    1,459;    1,045
211,958;  666,964;    1,277;    2,045
212,558;  749,687;    1,732;    1,864
213,157;  589,969;    1,822;    1,500
213,757; 1015,078;    3,822;   -0,227
214,356;  731,006;    1,277;   -0,409
214,956; 1057,864;    3,095;    0,409
215,555;  689,719;    2,095;    2,136
216,154;  629,840;   -2,723;   -0,591
216,754;  641,566;    0,277;    0,773
217,353;  767,974;   -0,268;   -1,045
217,952;  630,431;   -0,178;    0,318
218,552;  859,704;    1,368;   -0,773
219,151;  750,380;    0,277;    0,955
219,750;  756,728;    0,004;   -0,227
220,349;  870,314;   -0,451;    1,045
220,948;  946,324;   -1,360;    1,136
221,548;  958,882;    0,913;    1,227
222,147; 1064,181;   -0,087;   -0,409
222,746; 1347,958;   -0,451;   -0,955
223,345; 1219,144;    0,731;    0,500
223,944; 1238,735;   -0,451;    0,773
224,543; 1391,999;    1,004;   -1,409
225,142; 1509,219;    0,094;    0,136
225,741; 1404,528;   -0,814;    1,045
226,340; 1423,835;   -0,451;   -0,955
226,939; 1864,634;   -0,996;   -0,136
227,538; 1801,193;   -0,360;   -0,773
228,137; 1935,234;   -0,814;    0,864
228,735; 2053,506;   -0,541;    1,227
229,334; 1822,414;   -0,905;   -0,227
229,933; 2201,567;    0,459;    0,591
230,532; 2315,922;    1,186;   -0,409
231,131; 2343,947;    1,732;    0,318
231,729; 2460,473;   -2,450;   -2,318
232,328; 2549,167;   -0,723;   -1,500
232,927; 2637,366;    1,004;   -0,500
233,525; 2752,791;    3,640;    0,045
234,124; 2947,619;    2,368;   -1,591
234,723; 2957,079;    0,913;   -1,045
235,321; 3085,060;    2,277;    0,136
235,920; 3284,382;    1,186;   -1,227
236,518; 3512,818;    3,459;    0,318
237,117; 3677,761;    0,004;   -0,227
237,715; 3858,839;    0,640;   -0,500
238,314; 3886,106;   -0,087;   -2,318
238,912; 3987,228;   -0,723;   -1,409
239,510; 4018,952;    0,459;   -1,227
240,109; 4198,300;    0,004;    3,773
240,707; 4233,364;   -0,996;    1,227
241,305; 4599,491;    0,550;    0,136
241,904; 4781,309;   -0,178;   -2,045
242,502; 4760,402;   -0,632;   -0,227
243,100; 4706,019;   -0,087;   -0,955
243,698; 4977,278;    0,732;    1,682
244,297; 5154,415;   -0,632;    0,682
244,895; 4996,877;   -0,269;   -2,318
245,493; 5320,763;    2,186;   -0,591
246,091; 5344,275;    1,368;   -1,318
246,689; 5326,820;    1,004;    0,591
247,287; 5506,152;    0,822;   -1,136
247,885; 5808,076;   -1,451;    1,227
248,483; 5886,394;    1,822;   -0,500
249,081; 6003,787;    0,185;    1,591
249,679; 6146,632;   -0,178;    1,682
250,277; 6420,253;   -1,723;    0,864
250,875; 6410,111;   -1,087;   -1,045
251,473; 6417,428;   -1,178;    0,500
252,071; 6620,575;    1,459;    1,045
252,669; 6773,190;   -1,814;    0,318
253,267; 7036,760;   -0,087;    0,773
253,864; 6994,698;   -0,360;    0,682
254,462; 6881,619;    1,640;    1,591
255,060; 6843,343;   -0,269;    1,318
255,658; 7169,917;    0,822;   -0,136
256,255; 7563,424;    0,186;   -2,045
256,853; 7458,803;   -0,269;    1,409
257,451; 7450,034;    0,822;    1,864
258,048; 7709,031;    1,822;    1,864
258,646; 7470,255;    1,731;   -1,045
259,243; 7627,530;   -0,087;    2,227
259,841; 7705,978;   -0,814;    0,318
260,438; 7626,501;   -0,087;    0,864
261,036; 8305,355;   -1,905;    1,409
261,633; 8230,373;   -0,087;    2,227
262,231; 7975,309;    2,731;   -0,045
262,828; 8059,532;   -0,905;    1,136
263,425; 8098,211;    0,913;   -0,591
264,023; 8350,797;    0,186;    0,045
264,620; 7901,708;   -0,360;   -0,318
265,217; 8252,554;   -2,087;    3,136
265,815; 8363,967;   -1,905;    2,136
266,412; 8150,738;    0,731;    0,136
267,009; 8210,852;   -1,451;    0,773
267,606; 8094,527;    0,822;   -0,955
268,203; 8085,388;   -0,269;   -0,591
268,801; 8382,129;    1,731;    0,591
269,398; 8671,290;   -0,360;    2,500
269,995; 8632,622;    0,277;    1,591
270,592; 8413,444;   -0,632;   -0,500
271,189; 8611,866;    0,186;    0,409
271,786; 8744,515;   -0,632;    1,227
272,383; 8551,175;   -1,087;    0,227
272,980; 8759,732;    0,277;    0,318
273,577; 9202,526;    0,004;    1,227
274,174; 8761,105;    0,822;    2,591
274,771; 8725,463;   -0,814;   -0,773
275,367; 8868,071;    2,277;    1,409
275,964; 8837,141;    0,731;   -0,500
276,561; 8948,101;    1,549;   -1,045
277,158; 9154,541;    0,095;   -1,773
277,755; 9290,514;    2,185;    0,409
278,351; 8706,890;   -0,451;   -1,500
278,948; 9018,755;   -0,815;    0,045
279,545; 9026,777;   -1,360;    2,318
280,141; 9644,122;   -1,723;   -2,045
280,738; 9490,825;   -0,451;   -0,136
281,334; 9725,200;   -1,633;    0,591
281,931; 9143,921;   -0,087;   -1,318
282,528; 9239,038;    0,822;   -0,500
283,124; 9939,801;   -1,087;   -0,500
283,721; 9847,190;   -0,451;    1,409
284,317; 9687,073;    0,185;    2,500
284,913;10219,070;   -1,360;    0,591
285,510;10366,525;    0,640;   -0,318
286,106;10423,394;   -2,269;   -0,955
286,703;10045,632;   -0,360;    1,955
287,299;10246,978;   -1,451;   -0,591
287,895;10455,647;    0,822;   -1,045
288,491;11042,927;    0,186;    2,136
289,088;10765,176;   -2,360;    2,409
289,684;10804,099;   -1,723;    1,500
290,280;10802,756;    0,368;    0,682
290,876;10898,767;    1,822;    5,500
291,472;10833,754;    1,276;    2,227
292,068;10895,123;    1,367;    0,227
292,665;10636,887;    2,095;    0,773
293,261;10251,595;    0,276;    2,136
293,857;10635,119;    2,913;    2,136
294,453;10602,748;    3,550;    0,955
295,049;10476,042;   -0,268;    1,955
295,644;10505,032;    0,095;    0,136
296,240;10421,716;   -0,905;   -0,136
296,836;10478,700;   -0,995;    0,318
297,432;10721,535;    1,096;   -0,500
298,028;10781,324;    0,732;    0,773
298,624;11203,975;    1,459;    1,864
299,220;11431,301;    2,368;    0,591
299,815;11092,280;    1,005;   -0,409
300,411;10883,042;    0,914;    1,773
301,007;10895,049;    1,368;    0,227
301,602;10962,489;   -0,541;   -2,318
302,198;11132,223;    0,732;   -0,773
302,794;11453,814;    1,187;   -0,500
303,389;11580,180;   -1,177;    1,045
303,985;11705,697;    0,550;    1,409
304,580;11629,540;    1,459;    1,591
305,176;11587,557;   -3,086;    0,136
305,771;11526,412;   -1,268;   -1,227
306,367;11373,750;    4,095;    0,136
306,962;11708,580;    0,641;    1,500
307,558;11423,610;   -0,450;    0,136
308,153;11360,739;    1,095;   -1,136
308,748;11593,522;   -0,814;    1,682
309,344;11525,963;   -0,632;   -1,318
309,939;11609,714;   -1,905;   -1,318
310,534;11898,475;   -0,086;   -1,682
311,130;11829,584;    0,459;   -2,500
311,725;11576,136;    1,004;   -0,500
312,320;11901,823;    2,459;    0,045
312,915;11712,839;    1,459;   -1,045
313,510;11811,803;    1,550;   -0,500
314,105;12316,052;    1,096;    1,409
314,700;11717,421;   -3,086;   -1,045
315,295;11350,268;   -0,904;    0,045
315,890;10933,851;    1,277;    0,864
316,485;11303,682;   -0,359;   -0,318
317,080;11398,036;   -3,086;    1,591
317,675;11938,733;    2,005;   -0,682
318,270;11327,772;    5,550;    3,318
318,865;11380,499;    3,278;    3,045
319,460;11226,549;   -0,904;    0,591
320,055;11484,553;   -0,541;   -1,227
320,650;11125,700;   -1,995;   -0,591
321,244;11217,193;   -0,177;   -1,409
321,839;12129,060;   -1,541;   -0,227
322,434;11978,914;   -1,086;   -1,591
323,029;11591,534;    1,732;    1,591
323,623;11439,613;    1,550;    0,773
324,218;11185,438;    2,368;    1,409
324,812;11103,087;    1,096;    1,591
325,407;10874,913;   -0,814;    2,045
326,002;10804,247;    0,277;   -0,409
326,596;11125,874;    0,914;    1,318
327,191;11310,607;    0,823;   -1,045
327,785;10902,692;   -0,813;   -0,227
328,379;11110,456;    1,368;    0,136
328,974;10915,032;    0,914;   -3,955
329,568;11142,119;    0,186;   -2,409
330,163;10950,839;    2,096;    1,045
330,757;11307,654;    2,459;    1,591
331,351;10645,131;    0,459;    0,682
331,945;10938,995;    0,914;    1,409
332,540;10581,041;   -1,723;   -0,591
333,134;10704,171;   -1,086;    0,773
333,728;10926,647;    0,005;    0,318
334,322;11277,031;   -1,177;   -0,864
334,916;10573,057;    0,277;    0,955
335,510;10904,069;   -0,450;   -0,136
336,105;11168,789;   -1,086;    1,591
336,699;10858,134;   -1,086;    0,591
337,293;10793,662;   -1,723;    0,318
337,887;10964,581;   -2,723;    1,955
338,481;11056,889;    0,459;    0,591
339,074;11195,875;   -0,359;    2,682
339,668;11033,295;   -1,632;    1,227
340,262;11281,747;    1,732;    3,227
340,856;10811,216;    1,822;   -0,682
341,450;10187,010;    1,004;    1,864
342,044;11096,662;    1,459;    0,136
342,637;10840,846;    0,913;   -2,136
343,231;10697,550;   -2,360;    0,682
343,825;10682,679;   -1,086;   -0,591
344,419;10683,454;   -1,995;    0,500
345,012;10438,478;    2,459;    4,045
345,606;10442,443;    4,641;    1,591
346,199;10308,918;   -1,813;   -0,227
346,793; 9876,430;    1,914;    2,045
347,386;10083,602;   -0,813;   -1,136
347,980;10073,088;   -0,268;   -0,045
348,573; 9847,500;    2,278;    0,409
349,167; 9518,002;    5,278;    4,773
349,760; 9871,670;    2,914;    2,682
350,354; 9849,212;   -0,813;    1,136
350,947; 9574,076;    1,096;    1,682
351,540; 9279,559;   -0,358;   -1,409
352,134; 9243,792;    1,096;    1,136
352,727; 9296,630;   -0,086;    1,136
353,320; 9120,735;    0,005;    0,591
353,913; 9009,224;   -1,995;    1,864
354,507; 9151,864;    0,823;   -1,227
355,100; 9165,951;    0,460;    0,864
355,693; 8407,196;    2,005;    2,409
356,286; 8440,609;    0,823;    2,773
356,879; 8786,490;   -0,722;    1,227
357,472; 8419,068;   -0,904;    1,500
358,065; 8630,935;   -0,722;    2,500
358,658; 8539,853;   -0,540;    2,318
359,251; 8190,400;   -1,631;   -0,591
359,844; 7694,387;   -1,904;   -1,136
360,437; 7854,831;   -2,995;    0,045
361,030; 8120,278;    1,369;   -0,682
361,623; 7748,380;    2,824;    0,318
362,215; 7781,418;   -0,086;    2,045
362,808; 7609,331;   -2,358;   -1,682
363,401; 7811,161;   -2,449;    0,136
363,994; 7571,852;   -0,631;   -1,500
364,586; 7493,133;    0,824;   -1,500
365,179; 7679,514;   -0,449;   -1,136
365,772; 7188,534;   -1,995;    2,045
366,364; 7494,007;    1,915;   -3,227
366,957; 7656,428;    2,279;   -0,045
367,549; 7671,358;    2,188;   -0,864
368,142; 7346,976;    1,825;   -1,500
368,734; 7535,334;    0,734;   -2,136
369,327; 7503,865;    1,643;   -0,500
369,919; 7420,356;   -1,538;    0,409
370,512; 7217,442;   -1,083;   -0,500
371,104; 6974,348;   -0,901;    1,591
371,696; 7147,849;    1,191;   -0,955
372,289; 7210,318;    0,373;    1,136
372,881; 7380,386;   -2,080;    1,318
373,473; 7293,409;   -2,170;    1,136
374,066; 7092,917;   -0,169;    0,500
374,658; 6954,931;    0,378;    1,136
375,250; 7299,772;    0,653;   -1,409
375,842; 7154,409;    0,473;   -0,045
376,434; 7040,781;   -0,435;   -0,409
377,026; 7581,677;    0,204;   -2,500
377,618; 7480,792;   -0,158;   -0,682
378,210; 7324,475;   -0,338;   -1,955
378,802; 7158,509;    0,754;   -0,591
379,394; 7149,989;    1,846;    0,682
379,986; 7720,250;    1,393;   -0,955
380,578; 7826,381;   -0,153;    0,773
381,170; 7174,119;   -0,972;    0,045
381,762; 7144,850;    0,755;    1,409
382,354; 7310,893;   -0,065;   -1,318
382,945; 7425,514;   -2,976;    0,318
383,537; 7575,028;   -2,705;   -1,955
384,129; 7580,420;   -2,160;   -1,136
384,721; 7752,795;   -0,252;    0,955
385,312; 7696,764;   -0,161;   -0,955
385,904; 7791,256;   -2,706;    1,591
386,496; 7182,595;   -0,979;    1,045
387,087; 7301,459;    1,022;    2,500
387,679; 7361,165;   -1,160;    0,045
388,270; 7463,330;    2,840;    2,045
388,862; 7576,736;    1,295;   -0,318
389,453; 7481,274;   -0,887;    1,045
390,045; 7754,789;   -0,705;   -2,682
390,636; 7676,648;    0,204;   -0,591
391,227; 7531,400;   -0,523;   -0,045
391,819; 7651,322;    0,204;    0,773
392,410; 7688,582;    1,022;    0,045
393,001; 7626,755;   -0,979;   -1,591
393,593; 7926,070;    1,930;   -0,045
394,184; 7775,666;    1,385;   -0,409
394,775; 7699,697;    1,839;    2,136
395,366; 7887,004;    1,385;    0,773
395,957; 7890,250;    0,113;    0,136
396,548; 8198,814;   -0,342;    2,682
397,139; 8473,058;   -2,433;    0,591
397,730; 8218,608;   -1,888;    0,955
398,321; 8249,171;   -1,252;    0,955
398,912; 8313,571;   -0,615;    0,136
399,503; 8412,600;   -3,524;   -1,409
400,094; 7829,643;    0,294;    1,682
400,685; 7686,199;   -0,433;    0,045
401,276; 7790,829;    0,930;   -0,955
401,867; 8088,661;   -0,888;    0,773
402,458; 8167,615;   -2,251;   -2,318
403,048; 8133,666;    1,112;    0,591
403,639; 7794,462;    0,840;    0,864
404,230; 8021,426;    2,476;    0,318
404,821; 7935,509;   -0,615;    0,045
405,411; 8054,190;    1,203;   -2,591
406,002; 7661,244;   -1,252;   -1,136
406,592; 7523,262;    2,294;    0,045
407,183; 7842,044;    0,566;   -1,500
407,774; 7758,186;    3,475;   -0,136
408,364; 8075,967;    0,930;    0,409
408,954; 7677,399;    0,384;    1,227
409,545; 7751,397;    1,021;    1,045
410,135; 7267,690;    1,293;    0,500
410,726; 7429,303;    1,838;    0,318
411,316; 7792,337;    0,111;    0,773
411,906; 7502,020;   -0,253;   -0,409
412,497; 7000,933;   -1,070;   -0,045
413,087; 7573,995;   -1,980;   -0,227
413,677; 7966,243;   -0,707;    3,864
414,267; 7801,755;    0,656;    1,409
414,857; 7815,123;   -2,980;    4,227
415,448; 8077,666;    0,839;    0,500
416,038; 7770,064;    0,020;   -0,591
416,628; 7741,604;   -0,889;    0,409
417,218; 7239,584;    0,565;    3,318
417,808; 7446,134;    0,202;   -0,409
418,398; 7877,438;    0,020;    2,682
418,988; 7896,866;    2,020;    0,591
419,578; 8135,762;   -0,707;    1,409
420,168; 8507,476;   -1,343;   -0,955
420,757; 8075,605;   -1,343;   -1,500
421,347; 7778,882;    0,111;   -0,227
421,937; 7907,092;    2,292;    1,409
422,527; 7819,738;    0,838;   -0,773
423,116; 7656,104;   -0,253;   -0,045
423,706; 7992,356;   -1,889;    0,318
424,296; 7965,536;    1,384;    0,682
424,885; 8393,718;   -0,071;   -3,045
425,475; 8679,729;    1,474;   -2,864
426,065; 8583,576;   -0,980;   -0,318
426,654; 8181,940;   -0,435;   -0,318
427,244; 8296,490;    0,020;    1,409
427,833; 7752,394;    1,383;   -0,500
428,423; 8216,811;   -0,526;    1,136
429,012; 8991,012;   -0,344;   -1,136
429,601; 8485,962;   -1,344;    0,136
430,191; 8701,337;    1,292;    4,318
430,780; 8339,236;   -0,344;   -0,409
431,369; 8239,145;    0,746;   -0,045
431,959; 8861,634;   -1,254;    0,500
432,548; 8643,303;   -1,163;   -0,045
433,137; 8770,675;   -1,254;   -1,318
433,726; 9248,396;    0,292;    0,500
434,315; 8637,735;   -0,526;    2,409
434,905; 8738,068;   -1,254;    1,409
435,494; 8674,720;    0,746;    0,955
436,083; 9114,914;   -0,981;   -0,955
436,672; 8988,650;    0,110;    0,500
437,261; 8546,909;    0,292;   -1,955
437,850; 8652,598;    1,383;    0,682
438,439; 8610,958;    3,291;    1,955
439,027; 8452,783;    3,655;    1,773
439,616; 8781,464;    2,927;    1,227
440,205; 8654,965;    0,200;   -2,136
440,794; 8696,377;    2,109;   -0,045
441,383; 8942,274;   -1,346;   -0,591
441,971; 8807,635;   -2,436;    0,591
442,560; 8653,046;    0,563;   -1,773
443,149; 8394,921;    0,379;   -1,318
443,737; 8533,042;   -0,074;   -2,318
444,326; 8792,958;    0,018;    0,318
444,915; 8819,439;   -1,982;    0,864
445,503; 9218,431;   -2,891;   -0,318
446,092; 8489,619;    0,382;    2,136
446,680; 8995,630;    0,382;    0,318
447,269; 9161,788;   -0,346;   -0,318
447,857; 8937,530;    0,018;   -1,773
448,445; 9077,747;    0,563;    1,318
449,034; 9274,682;   -1,528;   -1,136
449,622; 9392,410;   -1,073;    3,500
450,210; 8598,715;    2,017;    2,227
450,799; 9122,629;    0,290;   -0,591
451,387; 9080,847;    1,381;   -0,591
451,975; 8757,294;    2,654;    0,864
452,563; 8800,068;    3,472;    2,318
453,151; 8851,908;   -0,528;   -1,227
453,739; 8773,816;   -1,347;    0,136
454,328; 8627,049;    2,381;   -2,136
454,916; 8354,818;    2,562;   -0,136
455,504; 8522,292;    1,017;    1,227
456,092; 8717,859;    0,017;   -1,591
456,679; 8672,831;    1,472;    0,682
457,267; 8603,300;    4,017;    1,045
457,855; 8761,551;    1,017;    1,409
458,443; 8515,023;   -0,165;    1,682
459,031; 8626,830;    0,108;    2,409
459,619; 9063,517;   -1,801;    2,864
460,206; 9187,191;    0,835;    2,045
460,794; 9252,777;   -2,983;   -0,227
461,382; 9472,466;   -0,529;   -0,864
461,970; 9057,860;    1,198;    1,864
462,557; 9124,980;   -0,711;   -0,682
463,145; 9284,668;   -3,165;   -1,682
463,732; 9416,055;    2,016;   -1,045
464,320; 9336,831;   -0,075;   -3,045
464,907; 9026,066;    2,743;   -0,773
465,495; 8889,435;    0,743;   -1,227
466,082; 9061,496;   -1,984;   -0,045
466,670; 8961,589;   -2,529;    1,227
467,257; 9383,324;   -1,711;    2,045
467,844; 9507,452;   -0,075;    0,045
468,432; 9519,849;    0,834;    3,500
469,019; 9059,930;    0,925;   -1,773
469,606; 9501,342;    0,470;    3,682
470,193; 9347,884;   -1,439;    0,227
470,780; 8905,559;   -2,075;    0,864
471,368; 9212,239;   -1,257;   -0,773
471,955; 9025,687;    1,379;   -0,682
472,542; 8682,828;    0,652;   -1,136
473,129; 8912,116;   -0,166;    0,136
473,716; 8642,444;    1,470;    0,591
474,303; 8809,718;    0,652;   -0,864
474,890; 9054,238;   -1,439;   -0,500
475,477; 9081,489;   -1,621;    0,409
476,064; 9008,147;    1,106;   -1,591
476,650; 8906,219;    0,288;    0,318
477,237; 8726,764;   -0,258;    0,955
477,824; 8892,435;   -1,076;    0,864
478,411; 8890,614;   -1,894;   -0,318
478,997; 9038,995;    0,560;   -0,773
479,584; 9102,805;    1,196;   -0,409
480,171; 9750,705;   -0,440;   -0,773
480,757; 9414,119;    2,651;    0,773
481,344; 9687,858;    0,469;    0,409
481,931; 9189,887;    1,105;    1,045
482,517;10071,771;   -1,258;    0,318
483,104;10544,592;    1,106;    2,864
483,690;10844,867;   -1,804;    0,045
484,276;11167,732;   -0,895;    0,227
484,863;10899,086;    2,469;    1,136
485,449;11450,109;   -0,077;    0,318
486,035;11476,415;   -1,986;   -0,136
486,622;11826,672;   -0,895;    0,045
487,208;11763,834;    1,378;    1,500
487,794;11647,879;    0,741;    0,318
488,380;11773,794;    0,105;   -1,409
488,967;11841,640;   -1,168;   -0,409
489,553;11861,568;   -1,895;   -1,409
490,139;12051,812;    1,559;    0,773
490,725;11534,906;    0,741;   -0,227
491,311;11212,145;    3,287;    3,045
491,897;10638,511;   -0,986;    1,500
492,483;10499,275;    0,105;    1,227
493,069;10284,210;    3,923;    0,864
493,655;10265,982;    1,650;    0,682
494,241;10215,857;    1,377;   -0,955
494,826;10633,295;    0,287;   -1,045
495,412;10115,962;    2,559;   -0,682
495,998;10317,181;   -0,805;   -0,318
496,584;10466,384;    0,377;    1,045
497,169;10476,180;    1,014;   -0,682
497,755;10434,175;    0,650;    1,227
498,341;11025,906;    0,559;    0,318
498,926;10594,069;    1,832;    1,955
499,512;10823,067;    1,286;    2,955
500,097;11012,587;    0,195;   -0,318
500,683;10998,215;   -0,350;    2,136
501,268;11351,792;   -0,169;   -0,955
501,854;11131,952;   -0,169;    1,227
502,439;11103,155;   -0,624;   -1,773
503,024;11315,473;    0,195;    0,500
503,610;11395,774;   -0,078;   -0,682
504,195;11441,086;    0,558;    1,955
504,780;11618,613;    2,922;    1,227
505,366;11489,427;    3,013;    2,864
505,951;11279,870;    0,740;    1,045
506,536;11329,532;   -3,260;   -3,682
507,121;11335,918;    0,285;   -0,318
507,706;11871,102;    2,376;    1,045
508,291;12260,234;    2,649;    1,136
508,876;11790,669;   -0,988;    2,591
509,461;11286,290;   -0,169;   -0,773
510,046;11728,954;    0,194;    0,318
510,631;11961,941;   -0,351;   -0,773
511,216;11672,739;    2,467;   -0,500
511,801;12051,504;   -0,442;    2,591
512,386;12394,644;    0,740;    0,500
512,971;12332,119;   -2,988;    0,955
513,555;11906,075;   -0,897;   -1,500
514,140;12693,565;   -0,442;   -3,136
514,725;12707,194;   -0,715;   -1,136
515,309;12842,553;   -0,533;    0,318
515,894;12323,158;   -0,624;   -2,227
516,479;12789,166;   -0,624;   -0,955
517,063;12630,886;    0,376;    1,227
517,648;12799,889;    1,012;   -1,136
518,232;12442,138;   -0,261;   -1,409
518,817;12790,018;   -0,079;    1,682
519,401;13012,256;    2,194;    0,591
519,985;12531,613;    1,103;    1,136
520,570;12412,839;    0,830;   -1,955
521,154;12731,819;    2,102;    0,591
521,738;12862,385;   -2,352;    2,409
522,323;13454,269;   -0,170;    1,682
522,907;13207,079;    0,466;   -0,136
523,491;12932,809;    0,557;    0,955
524,075;12927,143;    2,284;    0,591
524,659;13019,616;    1,466;    0,591
525,243;12494,831;    1,739;    0,409
525,827;12729,113;    0,648;   -0,045
526,411;13525,070;   -1,989;   -0,136
526,995;13782,320;   -0,352;    1,409
527,579;13403,529;   -0,443;   -1,045
528,163;13703,389;    0,375;   -1,500
528,747;13617,749;    2,466;   -0,773
529,331;13919,140;   -0,080;   -1,409
529,915;14116,512;    1,738;    0,955
530,499;14053,755;   -0,807;    1,227
531,082;13725,982;   -0,534;    1,591
531,666;13196,712;    1,374;    0,773
532,250;13896,084;    1,284;    2,682
532,833;14251,314;    0,920;    2,773
533,417;14106,164;   -1,807;    0,864
534,001;14102,209;    1,647;   -0,318
534,584;14766,891;    0,374;    0,500
535,168;14640,890;    0,465;    1,409
535,751;14623,834;    0,647;    0,045
536,334;14086,932;   -0,898;   -0,409
536,918;14666,960;    0,011;    1,591
537,501;14790,152;   -0,899;    1,318
538,085;14776,066;   -0,444;    1,045
538,668;14923,128;    0,829;    2,409
539,251;15232,644;    1,829;    3,773
539,834;15255,369;    0,101;    0,773
540,418;15183,693;   -1,990;    4,318
541,001;15275,565;   -0,990;    1,773
541,584;15300,842;    2,101;    2,227
542,167;14959,908;    1,374;    2,955
542,750;15138,763;    1,919;   -0,773
543,333;14770,121;    0,555;    2,136
543,916;15522,953;    0,192;    2,500
544,499;16115,021;   -1,354;    0,227
545,082;16135,811;    1,374;    3,591
545,665;16234,017;    1,919;    1,500
546,248;16582,848;    1,010;   -0,318
546,830;16282,723;   -0,445;    1,955
547,413;16648,073;    1,010;   -0,773
547,996;17160,415;    0,555;    0,500
548,579;16957,034;    0,919;    0,955
549,161;16776,187;    1,828;    2,682
549,744;16556,442;   -0,809;    0,409
550,326;17038,262;   -0,809;   -1,136
550,909;16815,605;    2,737;    0,591
551,492;17237,348;   -0,263;    0,227
552,074;17031,641;   -0,173;   -1,318
552,657;17572,793;    2,373;    0,045
553,239;17340,343;   -0,173;   -0,773
553,821;17268,055;   -1,082;    1,045
554,404;16803,217;    1,282;    1,136
554,986;17150,498;    0,464;    1,045
555,568;17746,047;    1,191;   -0,955
556,151;16967,564;    1,191;   -0,227
556,733;17208,858;   -0,264;   -0,864
557,315;17601,245;    0,100;    0,500
557,897;17407,939;    0,554;   -0,500
558,479;17560,517;   -1,991;    1,318
559,061;17692,357;   -0,719;   -0,864
559,643;17975,225;   -0,264;    0,045
560,225;18329,019;    1,645;    2,864
560,807;18397,952;    0,918;    0,318
561,389;17887,381;    0,554;    2,318
561,971;18640,863;    0,463;    2,136
562,553;18398,297;   -1,628;    1,591
563,135;18504,598;   -0,537;    1,136
563,717;18096,294;    3,372;    1,136
564,298;18835,787;    3,645;   -0,045
564,880;18585,788;    0,645;   -1,409
565,462;18752,333;    0,645;    1,318
566,043;19839,158;   -0,446;    2,318
566,625;19368,157;    1,918;    1,227
567,207;19226,625;    1,099;    1,682
567,788;20316,174;   -1,264;    1,500
568,370;21094,707;    1,917;   -0,500
568,951;20930,876;    0,190;    0,227
569,533;21786,354;   -0,628;   -0,500
570,114;22197,831;   -0,446;    0,682
570,695;22674,678;   -0,174;   -1,318
571,277;23152,505;   -0,265;   -1,682
571,858;23847,346;    2,008;   -1,136
572,439;24738,943;    1,554;   -1,045
573,021;24864,830;    2,099;   -2,773
573,602;25362,003;   -1,265;    0,318
574,183;26256,164;   -2,083;    2,227
574,764;26360,767;   -1,629;    0,409
575,345;26861,775;    0,917;   -0,136
575,926;27518,848;   -0,356;    0,136
576,507;27431,729;    1,099;   -0,227
577,088;28527,153;    3,099;    1,682
577,669;28512,137;    0,735;    1,955
578,250;29188,891;    0,644;   -1,045
578,831;29845,613;   -1,356;   -2,227
579,412;30118,926;   -0,810;    0,955
579,993;31053,716;    1,008;    0,227
580,573;31341,020;   -0,629;   -0,955
581,154;30374,168;    0,735;   -0,591
581,735;31161,014;    0,644;    0,773
582,315;30692,742;   -0,629;    2,136
582,896;30985,040;   -0,174;    1,227
583,477;30528,239;    0,189;    1,227
584,057;30687,412;    0,553;    0,955
584,638;30955,897;    2,553;    2,318
585,218;30929,684;   -0,538;    2,682
585,799;31146,163;    0,281;   -0,227
586,379;31165,608;    0,372;    1,591
586,959;29986,406;    0,735;    0,318
587,540;29327,155;   -0,629;    2,227
588,120;28872,024;    1,007;   -0,045
588,700;27880,129;    2,553;    2,136
589,281;28170,322;    0,462;   -0,955
589,861;28093,721;    0,099;   -1,682
590,441;27959,142;    2,371;   -2,682
591,021;26975,897;   -0,265;   -2,591
591,601;27184,542;   -0,537;    0,500
592,181;27197,206;   -0,719;   -0,773
592,761;26514,407;    0,007;    1,409
593,341;26439,102;   -0,901;    0,045
593,921;26458,214;   -0,265;    1,591
594,501;26334,346;   -0,538;    1,318
595,081;26222,879;    0,917;   -0,318
595,661;26501,766;   -1,447;    0,955
596,240;27087,118;   -0,537;    0,136
596,820;26679,317;    0,372;    1,955
597,400;26778,976;    2,008;    0,773
597,980;27015,052;    2,008;    1,045
598,559;27097,701;    2,735;   -0,227
599,139;26789,160;   -0,174;   -1,227
599,718;26728,796;   -0,174;   -0,409
600,298;26971,822;    0,735;    0,682
600,877;27123,691;    2,917;    1,409
601,457;27407,616;    2,281;    1,136
602,036;27370,542;    0,190;    2,045
602,616;27596,233;    0,644;    1,682
603,195;27888,616;   -0,355;    3,500
603,774;27427,953;   -0,901;    2,045
604,354;27311,106;    0,826;   -0,500
604,933;26814,176;    0,463;    1,864
605,512;26950,896;    3,554;    0,591
606,091;27018,762;   -0,537;    3,773
606,671;27832,677;    0,281;    0,773
607,250;26914,224;    1,644;    3,136
607,829;27156,026;    2,372;    3,227
608,408;27009,548;    1,190;    2,591
608,987;26112,525;    1,281;    3,409
609,566;26362,039;   -1,265;   -2,500
610,145;26447,225;   -1,082;    0,682
610,723;26895,622;    4,372;    6,864
611,302;26170,700;   -0,446;    1,682
611,881;25702,524;    5,008;   11,227
612,460;26526,769;    1,645;    3,955
613,039;26969,057;   -0,082;    2,045
613,617;25687,968;    1,736;    4,773
614,196;25871,163;    1,099;    1,227
614,775;26196,116;    1,009;    2,409
615,353;26124,623;    0,736;    0,864
615,932;25872,140;    0,100;    2,409
616,510;26474,752;    0,554;    0,591
617,089;25951,112;    7,100;   17,591
617,667;25753,323;    2,372;    6,136
618,246;25656,344;   -1,537;    1,318
618,824;25852,771;   -3,355;   -0,955
619,402;25408,045;   -2,900;   -1,773
619,981;25869,944;   -0,173;   -1,045
620,559;25772,634;    0,009;    1,682
621,137;25288,426;   -0,718;    1,864
621,715;25284,914;   -1,173;   -0,682
622,293;25212,577;   -0,537;   -0,773
622,871;25708,700;   -0,718;    0,500
623,450;25274,774;    0,373;   -0,864
624,028;25167,210;    0,191;   -0,955
624,606;24787,050;   -1,718;    1,682
625,183;25156,100;   -1,536;   -1,136
625,761;24819,100;    1,009;    1,136
626,339;25116,387;    1,373;    2,591
626,917;25483,993;   -0,172;   -0,045
627,495;25522,571;   -0,354;    1,318
628,073;24947,409;   -0,263;    2,864
628,650;24675,669;    0,100;    2,136
629,228;25134,529;    0,373;    4,409
629,806;24471,761;    2,282;    1,136
630,383;24781,355;    1,464;   -0,318
630,961;24604,610;    2,555;   -0,955
631,539;24304,050;    2,464;    0,227
632,116;23674,610;   11,373;   15,409
632,694;24258,538;    2,555;    6,500
633,271;24565,363;    0,828;    2,682
633,848;24414,192;    1,828;    2,045
634,426;24508,598;   -1,081;    1,773
635,003;23664,359;    1,101;   -0,409
635,580;23954,720;    1,192;    3,682
636,158;24515,255;    3,737;    1,227
636,735;24486,485;    0,555;   -0,500
637,312;24616,165;   -0,809;   -0,682
637,889;24721,927;   -4,354;   -0,682
638,466;24188,352;   -3,990;   -0,409
639,043;24199,816;    2,101;   -1,136
639,620;24538,330;   -2,262;   -0,955
640,197;24853,284;    1,100;    1,682
640,774;24991,785;   -0,172;    1,136
641,351;25368,196;    0,737;    1,136
641,928;24812,970;   -0,627;    1,409
642,505;24486,472;    0,828;   -0,500
643,082;24610,701;   -1,718;    1,227
643,658;23676,475;   -0,718;    1,500
644,235;24345,704;    1,191;    2,500
644,812;24634,024;    1,918;    0,773
645,388;24413,616;   -0,991;    1,409
645,965;24481,118;   -0,809;    1,682
646,542;24518,983;   -1,445;   -0,227
647,118;24507,212;    1,009;   -0,955
647,695;24820,259;   -0,263;    1,136
648,271;24760,852;   -0,536;    0,500
648,848;25074,444;    0,736;    2,227
649,424;24841,673;    0,827;    1,318
650,000;24664,447;   -0,354;   -1,045
650,577;24459,313;   -0,627;   -0,955
651,153;24892,632;   -1,809;    0,955
651,729;25910,407;    1,191;    0,864
652,305;25991,817;    0,645;    2,773
652,881;29989,774;   -0,082;    1,136
653,458;36519,548;    1,100;    0,227
654,034;40376,413;    0,282;    1,591
654,610;41866,642;    0,554;    0,773
655,186;43168,689;    0,645;    3,045
655,762;42845,191;   -0,991;    0,409
656,338;42855,147;    0,100;    0,136
656,913;43797,285;   -0,082;    0,409
657,489;43097,059;    0,827;   -0,318
658,065;43116,015;   -0,173;   -1,591
658,641;43780,062;   -0,900;   -0,864
659,217;43133,928;   -0,991;    0,409
659,792;42583,157;    0,645;   -0,409
660,368;42836,204;   -2,173;   -0,682
660,944;42564,705;   -2,082;    1,227
661,519;38466,570;   -0,628;    0,409
662,095;32848,436;   -1,719;    0,591
662,670;28169,574;    1,281;   -0,136
663,246;26948,075;    1,009;   -0,409
663,821;26203,850;    0,281;    1,682
664,396;25657,079;    0,009;    1,864
664,972;25913,035;    0,009;   -0,500
665,547;26211,354;    1,372;    0,136
666,122;26284,402;   -1,082;    0,318
666,698;26539,903;   -0,173;    0,318
667,273;25898,859;   -0,173;    0,136
667,848;26681,179;    2,372;    1,500
668,423;26475,135;    2,190;    2,318
668,998;27029,910;    2,827;   -0,682
669,573;27532,866;   -3,264;   -1,500
670,148;27378,004;   -1,446;   -0,682
670,723;27161,687;   -1,810;    0,318
671,298;27608,643;    2,372;    1,045
671,873;27723,418;   -0,082;   -0,136
672,448;27657,919;    0,645;    0,136
673,023;28013,875;   -1,992;   -0,227
673,597;28304,468;    0,827;    2,318
674,172;28082,424;   -0,355;    0,318
674,747;27577,471;    0,372;   -1,045
675,321;27464,973;   -0,628;    3,318
675,896;27047,838;    0,645;    1,045
676,471;28029,249;    2,645;    1,591
677,045;27815,478;   -1,264;    0,682
677,620;27886,706;    0,190;    1,136
678,194;28154,299;   -2,628;    1,136
678,769;27692,982;   -1,083;   -0,318
679,343;27915,848;   -0,628;    1,773
679,917;27824,349;   -1,446;    1,955
680,492;27922,942;    0,826;    3,227
681,066;28109,352;    3,372;    0,409
681,640;28085,854;    1,463;   -0,318
682,214;28868,901;    0,735;    0,500
682,788;28361,130;   -1,356;   -0,773
683,363;28305,359;   -1,810;    1,682
683,937;28046,588;   -1,719;   -0,318
684,511;28794,362;    0,463;   -0,591
685,085;28484,136;   -1,356;    0,318
685,659;28363,638;   -2,538;    0,864
686,232;28596,958;   -0,356;   -0,318
686,806;28276,187;   -0,901;    0,409
687,380;28907,234;   -0,174;    0,591
687,954;29132,644;   -1,174;    1,136
688,528;28787,964;   -0,719;    1,955
689,101;29555,648;   -3,992;    1,045
689,675;29197,786;   -0,356;   -0,136
690,249;28544,560;   -0,719;    0,409
690,822;28881,698;    0,280;    0,318
691,396;28955,654;   -0,265;    1,227
691,969;28410,156;    1,280;    0,136
692,543;28892,566;   -0,447;   -1,955
693,116;28529,886;   -0,265;   -1,409
693,690;28433,842;    0,099;    0,500
694,263;28978,798;   -1,083;    2,955
694,836;29018,755;    1,371;    3,591
695,410;27634,165;   -0,265;    1,773
695,983;28100,303;    0,189;    0,591
696,556;28110,532;   -0,447;   -1,045
697,129;28500,216;   -0,356;    1,409
697,703;28125,899;   -1,629;    1,955
698,276;28122,128;    1,462;   -0,773
698,849;27869,993;    1,280;    1,409
699,422;28320,495;   -1,083;    0,591
699,995;28003,269;    0,007;    0,136
700,568;28500,680;   -0,629;    3,045
701,140;28526,454;   -2,811;    1,682
701,713;28247,501;   -0,174;    2,409
702,286;28051,730;   -0,538;    0,864
702,859;27913,595;   -0,902;   -0,591
703,432;27055,370;    0,825;    0,682
704,004;27533,962;    0,462;    0,318
704,577;27446,646;   -0,629;    0,136
705,150;28013,874;    0,189;    2,500
705,722;27738,103;   -0,356;   -3,227
706,295;27559,150;   -0,175;   -0,591
706,867;27421,652;   -0,175;    1,955
707,440;27627,063;   -1,720;   -0,409
708,012;27839,383;    0,462;    0,591
708,584;27765,157;    2,462;    0,227
709,157;28072,022;    1,825;   -0,591
709,729;27710,433;    2,280;    2,045
710,301;28603,207;    0,734;    0,045
710,874;28625,800;   -1,447;   -0,227
711,446;27510,119;    0,371;    0,864
712,018;27390,348;    0,098;    0,500
712,590;27103,304;   -1,993;    1,682
713,162;27634,170;    0,825;    1,318
713,734;27867,853;    1,825;   -2,045
714,306;27820,991;   -1,902;   -0,409
714,878;26533,402;    0,825;    0,864
715,450;27285,631;    0,643;    0,864
716,022;27554,587;    1,552;    1,318
716,593;27681,725;    0,189;    0,591
717,165;27645,954;   -3,175;   -1,227
717,737;27312,001;    0,280;    0,409
718,309;27020,139;    0,280;   -0,045
718,880;27014,004;   -0,539;   -1,409
719,452;27259,415;   -0,175;   -1,591
720,024;26807,644;    0,734;   -0,591
720,595;27322,509;   -2,902;    0,955
721,167;26920,829;    0,370;   -2,045
721,738;26404,148;   -0,812;   -1,045
722,309;26397,832;   -0,993;   -1,227
722,881;26154,606;   -1,357;    0,773
723,452;26822,835;   -2,630;    2,864
724,023;27038,518;   -0,721;    2,682
724,595;26790,384;    0,007;    0,682
725,166;26567,885;    0,007;   -0,409
725,737;26203,114;    1,734;    0,227
726,308;26237,525;   -0,266;    0,318
726,879;26704,390;   -1,630;    1,227
727,450;26562,074;    0,552;   -0,045
728,021;26526,121;    3,097;    0,682
728,592;26300,622;    0,734;    0,500
729,163;26679,124;    0,643;   -0,136
729,734;26645,080;    0,188;   -0,227
730,305;26982,400;    1,734;    0,136
730,876;27345,265;    0,188;    2,955
731,447;26993,948;    2,188;    2,682
732,017;27107,632;    1,097;    1,864
732,588;26679,497;    0,734;    1,227
733,159;26861,544;    0,643;   -1,045
733,729;26647,864;    0,006;    0,409
734,300;25982,002;    0,915;    0,864
734,870;26386,685;    3,461;    0,591
735,441;26941,187;    0,370;   -0,591
736,011;26711,143;    0,643;   -1,591
736,582;26640,736;   -0,812;    0,045
737,152;26103,328;   -1,721;   -2,045
737,722;26494,557;   -0,267;   -0,682
738,293;26280,604;   -1,358;    1,318
738,863;26142,288;    2,461;    2,318
739,433;25946,425;    5,279;    0,318
740,003;26571,018;   -0,994;   -0,682
740,573;25980,701;    2,097;   -1,591
741,143;25948,839;   -1,085;    0,318
741,713;26720,977;    1,188;   -0,500
742,283;26426,843;    0,915;    1,591
742,853;26208,162;    1,915;    1,591
743,423;25672,119;    1,733;    0,045
743,993;25817,438;   -0,358;    1,500
744,563;25171,940;    0,097;   -0,864
745,133;25178,987;   -0,812;   -0,864
745,702;25885,034;   -0,267;    1,773
746,272;25075,717;   -0,176;    0,591
746,842;24854,492;   -1,358;   -0,591
747,411;25288,812;   -0,267;   -0,318
747,981;25453,859;    0,097;    0,500
748,551;25504,633;    2,278;   -1,045
749,120;25365,771;    0,642;   -0,227
749,690;25724,091;   -0,631;    2,409
750,259;26039,138;    1,369;    2,955
750,828;25953,458;    1,551;   -1,955
751,398;26243,686;    1,278;   -0,045
751,967;25733,370;    2,187;    0,409
752,536;25972,962;   -0,813;   -0,227
753,105;26378,191;    0,096;    0,227
753,675;26172,602;    0,096;    1,773
754,244;26154,285;   -0,904;    3,591
754,813;26186,060;    0,551;    1,227
755,382;25726,016;    0,460;    0,955
755,951;26249,608;    1,551;    3,682
756,520;25844,292;   -0,085;    1,864
757,089;26371,248;    0,278;    0,500
757,658;26529,841;    1,733;    1,227
758,227;26475,342;    1,096;    0,318
758,795;26807,844;    1,187;    1,136
759,364;27025,891;   -0,086;   -0,591
759,933;26040,302;   -1,176;   -0,045
760,501;25581,712;    0,733;   -1,318
761,070;26013,668;   -2,813;   -1,409
761,639;26743,988;   -1,904;    1,318
762,207;26082,126;    1,551;   -0,955
762,776;26018,628;    0,369;    0,864
763,344;25999,675;   -0,995;    0,591
763,913;25119,086;   -0,722;    1,409
764,481;25845,951;    1,005;   -0,136
765,049;25618,907;   -1,358;    1,409
765,618;25484,409;   -0,086;    0,318
766,186;25633,910;    0,278;    0,136
766,754;25835,775;    0,005;    1,864
767,322;24858,641;   -1,995;    0,409
767,890;24827,960;   -0,722;   -1,773
768,459;25232,462;   -2,177;   -0,318
769,027;25388,509;    1,641;    3,409
769,595;24393,465;    3,278;    2,591
770,163;24830,512;    3,823;    2,955
770,730;24608,287;    0,732;   -0,136
771,298;24493,515;    0,187;   -1,409
771,866;24562,744;   -1,541;    4,955
772,434;24903,791;   -0,631;   -1,864
773,002;25068,202;    0,005;    0,682
773,569;24680,886;    0,914;    1,682
774,137;24488,296;   -0,268;   -0,045
774,705;25275,525;    0,278;   -0,136
775,272;24815,390;    0,641;    0,682
775,840;24573,710;   -0,177;    2,682
776,407;24079,939;    0,277;    1,955
776,975;23737,713;   -0,632;    0,318
777,542;24734,579;   -1,086;   -0,045
778,110;24558,262;   -1,268;   -0,045
778,677;24270,218;   -2,359;   -0,864
779,244;24003,811;    2,186;    1,045
779,812;24128,403;    1,823;    0,864
780,379;23960,178;    0,005;    1,136
780,946;24219,679;    1,005;   -0,773
781,513;24577,454;   -1,450;    0,318
782,080;23901,046;   -0,086;    2,864
782,647;24696,275;   -0,268;    3,045
783,214;24245,140;   -0,177;    3,864
783,781;23865,824;   -0,723;   -0,682
784,348;23727,962;   -0,632;    1,500
784,915;24176,736;   -3,177;    0,318
785,482;23964,419;    1,368;    2,591
786,049;24377,375;    0,186;   -0,591
786,615;24545,150;    0,277;   -0,955
787,182;24304,106;    0,186;   -0,682
787,749;23933,335;   -2,814;    1,409
788,315;23271,018;   -1,632;   -0,409
788,882;23594,884;    1,550;   -1,227
789,448;24276,112;    1,732;   -0,955
790,015;24293,432;    1,095;    3,227
790,581;23830,570;    1,459;    0,227
791,148;23720,981;    0,641;    1,045
791,714;23970,846;   -0,541;    3,136
792,280;23654,257;    0,186;    1,591
792,847;23210,486;    0,550;    2,500
793,413;23771,351;   -0,269;   -0,318
793,979;23303,216;    3,459;   -1,318
794,545;23365,263;    4,459;    2,682
795,111;22764,128;    2,186;    1,318
795,678;22991,903;    0,731;   -1,682
796,244;22627,041;    3,368;    0,136
796,810;23139,815;    1,731;    0,773
797,375;22916,771;    0,549;   -2,136
797,941;22954,727;   -0,541;    0,591
798,507;23120,593;   -0,451;   -0,955
799,073;22699,094;   -0,360;    0,591
799,639;22757,050;   -2,632;    3,136
800,205;22827,097;    0,095;    2,682
800,770;22316,781;    0,640;    1,773
801,336;22406,373;    1,368;   -0,955
801,901;22094,148;    4,549;    3,136
802,467;22682,649;   -0,542;    2,045
803,033;22001,424;   -0,087;    0,864
803,598;22193,743;    1,913;   -1,045
804,163;22270,063;    1,095;   -0,318
804,729;22191,019;   -0,178;    1,136
805,294;22597,612;    0,822;    2,227
805,859;22355,659;    0,731;   -0,409
806,425;21846,433;    1,186;    2,682
806,990;21510,389;    2,186;    4,318
807,555;22042,437;   -1,451;    2,591
808,120;21930,211;    0,822;   -0,409
808,685;21963,258;    0,185;   -2,500
809,250;21481,305;    0,004;   -0,500
809,815;21793,261;    1,913;    0,682
810,380;22354,763;   -0,269;    1,591
810,945;22852,355;   -1,087;    2,045
811,510;22015,948;    2,094;    1,591
812,075;21712,177;   -0,633;   -1,409
812,640;21756,042;    2,003;    1,409
813,204;21836,180;    0,822;   -0,227
813,769;22273,772;    2,094;   -0,045
814,334;21755,910;    0,458;    0,864
814,898;21758,776;    0,367;    0,591
815,463;21662,368;    1,276;   -0,773
816,027;21657,961;   -0,724;   -2,318
816,592;21755,190;    0,640;   -2,045
817,156;21248,691;    2,094;    1,136
817,721;21105,284;    4,276;    2,318
818,285;21064,331;    2,912;    1,500
818,849;21672,560;   -1,451;    1,682
819,414;21561,698;   -0,269;    2,955
819,978;21213,836;   -1,269;    1,773
820,542;21728,974;    2,003;    0,500
821,106;21535,111;   -0,815;    0,682
821,670;21605,795;   -0,815;    2,591
822,234;21310,206;   -0,270;    1,409
822,798;20655,798;    0,003;    0,500
823,362;20653,754;   -0,633;    4,227
823,926;19975,892;    0,094;    1,136
824,490;20234,667;   -0,997;   -0,682
825,054;20630,350;   -0,088;   -1,136
825,618;20292,488;   -1,542;   -1,500
826,181;20248,990;    0,458;   -1,318
826,745;20108,037;    1,367;   -1,045
827,309;20463,266;    1,185;    1,318
827,872;19873,131;    1,367;    0,955
828,436;20879,451;    1,185;   -0,773
828,999;20936,589;   -0,997;    1,227
829,563;19762,908;   -0,179;    1,136
830,126;19576,319;   -0,179;   -0,591
830,690;19598,821;   -1,997;    2,864
831,253;19107,050;   -0,543;    2,227
831,816;19212,915;   -1,906;    0,500
832,380;19091,507;    0,185;    0,864
832,943;19358,282;   -1,361;   -0,500
833,506;18900,965;    2,639;   -1,227
834,069;19681,194;    3,912;   -0,955
834,632;19707,605;    1,730;    1,318
835,195;19612,924;    1,003;    0,955
835,758;18800,244;   -0,997;    1,955
836,321;18673,564;    0,730;   -1,045
836,884;18774,884;   -0,725;   -0,955
837,447;18823,022;   -2,816;    1,773
838,010;19067,069;    0,366;    3,227
838,573;19346,934;   -1,179;    0,773
839,135;19318,163;   -1,361;   -0,955
839,698;18765,119;    1,275;    0,409
840,261;18281,984;    1,003;   -0,227
840,823;18174,577;   -0,543;    0,864
841,386;18454,533;   -0,452;   -2,409
841,948;18322,671;   -1,361;    1,773
842,511;18079,627;    0,912;    1,682
843,073;18233,856;    1,912;    0,227
843,636;18021,812;   -0,361;   -0,227
844,198;17957,496;    0,911;    0,591
844,760;18084,724;    1,093;    1,955
845,322;17725,499;    0,548;    1,136
845,885;18147,637;    0,730;    0,591
846,447;18611,593;   -1,998;    0,227
847,009;18168,095;    1,911;   -0,682
847,571;18484,323;    0,820;   -2,045
848,133;18539,098;   -1,089;   -1,864
848,695;18378,327;   -0,543;    1,409
849,257;17972,010;   -1,089;   -1,682
849,819;18120,057;   -0,998;   -0,409
850,381;18184,831;   -0,725;   -0,864
850,942;18546,788;    1,093;   -0,591
851,504;18481,289;    1,184;    0,227
852,066;18506,064;    1,275;   -1,591
852,628;18059,020;   -0,180;    1,955
853,189;17620,430;    1,638;    2,682
853,751;17726,659;   -0,907;    1,409
854,312;17542,525;   -0,453;   -1,682
854,874;18026,935;   -2,089;   -0,773
855,435;18571,710;   -0,907;   -1,682
855,997;18716,029;   -1,816;   -0,136
856,558;17996,804;    0,366;    1,773
857,119;18144,305;    0,820;    2,864
857,681;17860,080;    0,002;    0,318
858,242;17842,127;    1,911;   -2,136
858,803;18273,628;    0,456;   -0,773
859,364;18849,130;    0,184;   -4,773
859,925;18224,904;   -2,453;   -0,955
860,486;18131,679;   -0,453;   -0,955
861,047;17862,817;   -0,544;   -1,227
861,608;17703,318;   -1,089;   -0,773
862,169;17787,820;    0,638;   -0,045
862,730;17566,594;    0,456;    1,409
863,291;17768,278;   -0,635;   -0,500
863,852;18152,961;   -0,635;    1,955
864,412;17625,644;   -0,271;   -0,864
864,973;16214,328;   -0,089;    0,500
865,534;16096,375;   -1,726;    0,227
866,094;17567,604;    1,820;    0,227
866,655;17243,014;    1,274;    3,318
867,215;17550,698;    0,274;    0,136
867,776;17398,927;    0,547;   -0,136
868,336;17476,519;   -1,453;    0,136
868,897;16935,748;    2,638;    1,682
869,457;16660,886;    1,365;    0,318
870,017;16914,660;    0,547;   -1,227
870,578;17428,707;   -0,817;    0,773
871,138;17095,300;   -2,089;   -0,955
871,698;16632,256;   -0,817;   -1,318
872,258;16536,030;   -0,453;   -2,864
872,818;16902,168;    2,729;    0,045
873,378;16880,034;    0,638;    1,045
873,938;16414,808;    0,547;    0,500
874,498;16752,128;    0,274;   -1,955
875,058;16631,175;    2,183;    1,773
875,618;16491,131;    1,910;   -2,682
876,177;16445,087;    1,274;    0,136
876,737;16045,316;   -0,090;    1,955
877,297;16068,909;    0,183;    1,955
877,856;16067,501;   -0,362;    0,318
878,416;16014,457;    1,183;   -0,136
878,976;16234,141;   -1,817;    0,409
879,535;16412,733;    0,092;    3,136
880,095;16141,689;   -0,544;    0,045
880,654;16265,464;   -1,090;    1,318
881,213;16368,238;    2,456;    1,500
881,773;16009,649;    2,637;    2,682
882,332;16299,605;    3,365;    5,136
882,891;16185,470;    3,092;    2,136
883,451;16650,790;   -1,272;    1,682
884,010;16124,110;   -2,908;   -0,409
884,569;16186,975;   -0,999;   -0,045
885,128;16347,204;    2,819;   -1,864
885,687;16399,069;    4,455;    0,682
886,246;16094,025;    1,455;    2,136
886,805;15893,709;    2,455;    2,045
887,364;16165,028;   -0,999;   -0,500
887,922;16534,530;   -1,181;    0,045
888,481;16009,213;   -1,545;    0,591
889,040;16310,079;    1,183;    2,136
889,599;16983,035;    2,455;    1,409
890,157;17037,355;    1,455;    2,409
890,716;16696,674;   -0,090;    0,227
891,274;16507,176;    0,092;   -1,136
891,833;16964,132;    1,546;    0,864
892,391;16857,725;   -0,454;    0,500
892,950;16905,135;    1,819;   -0,773
893,508;17275,637;    0,455;   -0,409
894,067;16670,502;    0,637;    0,136
894,625;16554,186;   -0,636;   -1,500
895,183;16795,324;   -0,363;   -0,682
895,741;16665,189;    1,728;   -1,773
896,299;16539,509;   -0,545;   -2,409
896,858;16687,919;    0,819;   -1,591
897,416;16837,057;    2,728;   -1,318
897,974;16600,014;    1,819;    0,318
898,532;16673,879;    6,091;    2,682
899,089;16611,562;    2,091;   -0,682
899,647;16686,064;   -1,454;    1,318
900,205;16389,202;    1,182;    1,045
900,763;16597,340;   -0,454;    0,227
901,321;16581,841;    2,364;   -1,409
901,878;16045,252;   -1,000;   -0,773
902,436;15949,845;   -1,363;    1,318
902,994;16312,619;    4,728;    3,682
903,551;15773,302;    0,728;    0,409
904,109;16148,622;    0,182;   -1,409
904,666;15736,851;    2,455;    1,045
905,224;15599,898;    0,182;   -0,409
905,781;15340,127;    0,727;   -0,318
906,338;15383,083;   -1,363;    1,045
906,895;15334,039;    0,637;    2,045
907,453;15265,086;    1,727;    1,136
908,010;15323,497;   -0,909;    0,409
908,567;14987,635;    1,273;    0,591
909,124;14490,500;    0,364;   -1,500
909,681;14541,638;   -2,909;    0,682
910,238;14668,685;    0,636;   -1,318
910,795;15018,278;   -0,273;   -1,136
911,352;14652,187;   -2,909;   -2,682
911,909;14048,551;   -1,364;   -0,864
912,466;14570,551;   -3,182;    1,500
913,022;14140,823;   -1,636;    0,500
913,579;14502,369;   -0,909;    2,045
914,136;14204,551;    1,636;    0,955
914,692;14498,096;    0,091;   -1,227
915,249;14094,369;    1,455;    0,409
915,806;14349,369;    0,182;    1,955
916,362;14109,823;    1,909;    1,864
916,918;13669,823;    2,000;    1,045
917,475;13659,278;   -1,182;    0,955
918,031;13697,823;    3,364;   -0,045
918,587;13158,187;   -0,909;   -0,318
919,144;13382,369;   -2,273;    0,227
919,700;13682,914;    1,727;    0,773
920,256;13296,732;    0,727;    0,045
920,812;12936,096;   -0,727;   -1,045
921,368;12905,369;   -1,727;   -1,045
921,924;12540,005;    0,182;   -0,136
922,480;12146,005;   -0,545;    1,227
923,036;12739,187;    1,273;    1,955
923,592;12688,096;    0,455;    0,318
924,148;12611,460;    0,455;   -0,955
924,704;11930,005;   -1,364;   -0,409
925,259;12214,369;   -0,273;    0,591
925,815;11981,914;    1,455;    0,500
926,371;11542,460;    2,909;    1,409
926,926;11413,823;    2,091;    0,591
927,482;11061,187;   -1,364;    0,773
928,037;10939,460;    0,909;    2,045
928,593;11223,005;    1,636;    1,045
929,148;11056,369;   -1,818;   -1,500
929,704;10571,096;   -1,455;   -0,500
930,259;10750,369;    0,091;   -0,136
930,814; 9820,005;   -0,818;    1,955
931,369; 9514,369;    1,091;   -0,773
931,925; 9440,732;   -0,091;    0,136
932,480; 9324,460;   -2,818;   -2,591
933,035; 9200,278;    0,545;   -0,318
933,590; 8971,369;    0,364;   -1,773
934,145; 8643,732;   -1,364;   -0,318
934,700; 8991,460;    0,455;   -0,591
935,255; 8784,187;   -0,091;    0,045
935,809; 8069,369;    3,182;    0,864
936,364; 7263,460;   -0,455;   -0,136
936,919; 7227,096;    0,455;   -1,773
937,474; 7117,005;    1,455;    0,136
938,028; 6886,460;   -1,636;    1,136
938,583; 6340,460;    1,818;    4,682
939,138; 6640,641;    2,091;    2,136
939,692; 6115,823;    1,636;   -1,136
940,247; 5811,914;   -0,727;   -1,045
940,801; 5352,823;   -0,636;    0,227
941,355; 5264,823;   -0,364;    2,591
941,910; 4937,096;   -0,273;   -2,136
942,464; 5031,914;   -0,818;   -0,318
943,018; 4827,369;    1,000;   -0,227
943,572; 4768,641;    2,545;   -0,682
944,126; 4207,641;    0,091;   -0,409
944,681; 4111,460;    3,091;    0,227
945,235; 4091,005;    1,000;   -0,591
945,789; 4034,823;    0,364;   -1,864
946,342; 4108,005;    0,455;   -0,591
946,896; 3936,096;   -2,273;    0,955
947,450; 3698,187;    1,545;   -0,227
948,004; 3891,005;    1,727;   -0,045
948,558; 3898,641;    0,273;   -0,864
949,111; 3827,460;   -0,273;   -0,318
949,665; 3839,732;    1,636;   -0,682
950,219; 3741,096;   -0,091;   -1,045
950,772; 3796,005;   -1,909;    1,864
951,326; 3712,823;    0,545;   -0,955
951,879; 3816,460;    0,727;   -2,318
952,433; 3847,551;    0,000;    2,227
952,986; 3665,914;    2,909;    0,682
953,539; 3631,641;   -0,273;    0,591
954,093; 3561,369;    0,545;   -1,318
954,646; 3688,278;    0,909;    1,318
955,199; 3500,278;    0,000;   -0,500
955,752; 3394,096;   -0,455;    1,773
956,305; 3365,005;   -0,091;    2,955
956,858; 3501,551;    0,818;   -0,318
957,411; 3667,823;   -0,545;    2,136
957,964; 3511,460;    1,364;    2,136
958,517; 3511,732;   -1,545;    3,136
959,070; 3340,278;   -0,455;    1,955
959,623; 3415,641;    1,091;    1,500
960,176; 3187,823;    1,727;    2,045
960,728; 3164,823;   -2,727;    0,773
961,281; 3241,096;    0,545;    0,500
961,834; 3270,914;   -0,909;    0,864
962,386; 3209,005;    1,727;    1,045
962,939; 3131,005;    0,364;   -0,318
963,491; 3268,005;    0,455;    1,136
964,043; 3148,278;    1,182;    2,409
964,596; 3265,278;   -1,000;    2,227
965,148; 3113,369;   -1,000;    1,773
965,700; 3049,641;    1,091;   -0,227
966,253; 3169,369;   -0,636;    0,318
966,805; 3009,641;   -2,273;    0,773
967,357; 3065,096;    1,091;   -1,500
967,909; 3031,823;    0,455;   -1,227
968,461; 3120,005;    0,545;    3,136
969,013; 3065,096;   -0,182;   -0,864
969,565; 3147,641;   -0,455;   -1,136
970,117; 3204,641;   -0,364;    1,045
970,669; 3045,278;    0,182;   -0,136
971,220; 2919,278;   -0,455;   -1,500
971,772; 2851,278;   -0,636;   -0,318
972,324; 2967,005;    0,091;   -0,500
972,876; 2895,278;    0,818;   -0,045
973,427; 3028,641;    1,909;   -1,045
973,979; 3014,460;   -0,727;   -2,500
974,530; 3071,551;    1,818;    1,318
975,082; 3057,551;   -0,545;    1,682
975,633; 2940,914;    1,091;    1,682
976,184; 3085,187;    0,909;    0,773
976,736; 2890,005;    0,091;    0,227
977,287; 2693,914;   -0,909;   -0,500
977,838; 2879,005;    0,909;   -0,318
978,389; 2921,823;   -1,000;   -0,500
978,940; 2807,823;    0,545;   -0,409
979,491; 2825,460;    0,091;   -0,500
980,042; 2808,278;    0,182;    3,045
980,593; 2854,641;   -2,545;    0,227
981,144; 2897,096;    2,545;   -0,500
981,695; 2860,732;    1,455;    1,500
982,246; 2826,005;   -0,273;    1,045
982,797; 2981,641;   -1,727;    0,682
983,347; 3075,187;    0,364;    0,591
983,898; 3232,460;    3,091;    0,409
984,449; 3064,096;    2,182;    0,773
984,999; 2960,278;    1,455;   -1,136
985,550; 2765,187;    0,182;   -0,318
986,100; 2810,823;   -0,455;   -0,318
986,651; 2842,551;   -0,818;    0,045
987,201; 2810,005;   -1,000;   -0,591
987,751; 2900,460;    0,818;    2,864
988,302; 2878,732;    2,636;    1,500
988,852; 2911,823;    0,455;   -1,136
989,402; 2949,187;    0,091;    0,682
989,952; 2870,369;   -2,182;    0,864
990,502; 2980,732;   -0,091;    0,682
991,052; 2942,551;   -0,727;    0,045
991,602; 2822,278;   -2,909;    1,318
992,152; 2808,096;    0,455;    0,682
992,702; 2791,096;    1,364;   -0,045
993,252; 2711,551;   -3,000;   -0,500
993,802; 2797,005;   -0,273;    1,318
994,352; 3009,732;   -1,545;    1,136
994,901; 3094,551;   -0,182;    3,227
995,451; 3026,551;   -0,182;    0,318
996,000; 3097,914;    1,636;    0,318
996,550; 2829,641;    2,273;    0,227
997,100; 2829,914;    1,273;   -0,045
997,649; 3096,369;    2,182;    0,955
998,198; 2759,187;    1,727;   -1,500
998,748; 2935,732;    1,091;   -2,318
999,297; 2869,914;   -0,818;   -0,409
999,846; 2925,914;    1,000;   -0,773
1000,395; 2955,914;   -0,818;    0,500
1000,945; 2917,187;    1,818;   -0,773
1001,494; 3013,096;    2,364;    0,682
1002,043; 3009,278;    4,636;    0,864
1002,592; 2855,551;   -1,091;    1,955
1003,141; 2964,369;   -0,455;   -0,682
1003,690; 2836,278;    1,727;    0,500
1004,238; 2900,278;    1,455;   -0,045
1004,787; 2570,005;    1,364;    1,227
1005,336; 2804,278;    0,364;    0,682
1005,885; 2938,551;    1,364;   -2,773
1006,433; 3074,005;    0,545;    0,955
1006,982; 3128,369;    0,455;    1,682
1007,531; 3032,187;   -1,818;   -0,227
1008,079; 3005,005;   -2,273;    0,500
1008,627; 3148,005;   -1,455;    0,409
1009,176; 2885,460;    0,000;   -1,955
1009,724; 2916,551;    1,091;    0,864
1010,273; 2974,460;    1,273;    0,500
1010,821; 3110,823;    0,091;    1,409
1011,369; 2836,278;   -1,364;    1,318
1011,917; 2826,187;   -1,364;   -0,591
1012,465; 3113,187;    1,273;   -1,591
1013,013; 3207,005;    2,091;   -1,682
1013,561; 3085,641;    0,455;   -0,773
1014,109; 3138,641;   -1,909;    1,682
1014,657; 3006,005;    0,364;    0,591
1015,205; 3131,096;    1,636;   -0,955
1015,753; 3170,460;   -0,545;   -1,409
1016,301; 3199,005;   -2,636;    3,045
1016,848; 3198,096;   -1,273;    0,409
1017,396; 3246,551;    2,545;    0,045
1017,944; 3364,641;    1,182;    1,864
1018,491; 3130,096;    0,273;    1,409
1019,039; 3284,823;    0,455;    0,591
1019,586; 3188,641;   -1,364;    1,682
1020,134; 3290,278;    0,455;    1,500
1020,681; 3322,551;    0,182;   -1,136
1021,228; 3319,641;    2,909;   -2,227
1021,776; 3165,914;    1,182;   -1,136
1022,323; 3381,369;    0,455;    0,773
1022,870; 3317,187;   -1,000;   -0,045
1023,417; 3198,641;    2,636;    1,864
1023,964; 3349,278;    2,636;    1,227
1024,511; 3191,005;    1,000;    0,773
1025,058; 2983,551;    3,182;   -0,045
1025,605; 3058,096;   -2,273;    3,136
1026,152; 3271,641;    1,727;   -0,591
1026,699; 3003,369;    1,818;    1,318
1027,245; 3156,096;   -0,091;    0,318
1027,792; 3356,278;   -1,000;    1,409
1028,339; 3244,005;    2,364;   -0,045
1028,885; 3108,823;    1,000;   -0,227
1029,432; 3047,187;   -0,091;    0,227
1029,978; 3114,641;   -1,000;   -1,591
1030,525; 3034,641;    1,000;    0,409
1031,071; 3278,823;   -1,364;    1,136
1031,618; 3366,551;    0,364;    1,682
1032,164; 3162,187;   -0,091;    3,045
1032,710; 3194,278;    1,636;   -1,500
1033,256; 3123,551;   -0,636;   -0,136
1033,803; 3119,460;   -0,545;    1,500
1034,349; 2842,914;   -1,364;    0,136
1034,895; 2989,641;    0,000;   -0,318
1035,441; 2957,005;   -0,818;    0,318
1035,987; 2952,823;   -2,364;   -0,682
1036,533; 2971,641;   -1,455;   -0,955
1037,078; 3164,823;    1,455;    1,682
1037,624; 2987,823;    2,455;   -0,955
1038,170; 3004,187;    0,455;   -0,318
1038,716; 2908,641;    1,636;   -0,409
1039,261; 2822,005;   -2,273;   -0,773
1039,807; 2773,187;   -0,091;    3,409
1040,352; 2830,732;   -1,909;   -0,318
1040,898; 2867,369;   -1,545;   -0,682
1041,443; 2791,278;   -1,455;   -2,591
1041,989; 2822,732;    1,091;    1,591
1042,534; 2700,823;   -0,364;    2,591
1043,079; 2813,914;    2,909;    0,955
1043,625; 2615,187;    1,818;    0,500
1044,170; 2651,460;   -1,364;    1,045
1044,715; 2897,641;    2,455;    0,955
1045,260; 2727,641;    2,182;   -0,955
1045,805; 2781,732;    1,182;   -0,591
1046,350; 2719,369;    1,364;   -0,409
1046,895; 2669,551;    2,909;    1,591
1047,440; 2605,732;    5,364;    0,409
1047,985; 2520,914;    2,818;   -0,955
1048,530; 2445,460;    1,545;    1,227
1049,074; 2501,096;    0,000;    0,318
1049,619; 2471,732;   -1,364;    1,955
1050,164; 2294,641;    0,455;    0,227
1050,708; 2329,460;   -0,455;    0,045
1051,253; 2703,641;    1,273;   -2,227
1051,797; 2403,460;    0,818;   -1,318
1052,342; 2430,914;   -1,182;    1,045
1052,886; 2420,732;    0,364;   -1,409
1053,430; 2318,369;   -1,364;    0,136
1053,975; 2326,460;   -0,818;   -0,318
1054,519; 2301,096;   -0,727;    3,227
1055,063; 2301,278;    0,909;    1,318
1055,607; 2205,460;   -0,182;    0,227
1056,151; 2223,096;    2,909;    1,682
1056,695; 2143,914;    2,273;   -1,136
1057,239; 2223,278;   -1,727;   -0,682
1057,783; 2209,732;    0,818;   -1,500
1058,327; 2156,823;    0,000;    1,409
1058,871; 2402,460;   -0,545;    1,318
1059,415; 2104,460;   -0,818;   -0,045
1059,958; 2357,005;    1,455;    2,591
1060,502; 2081,641;   -1,000;   -0,773
1061,046; 1993,369;    0,364;   -0,955
1061,589; 1972,914;   -3,000;   -1,136
1062,133; 1865,641;   -1,273;    1,864
1062,676; 1800,096;    1,182;    0,864
1063,220; 1803,005;    1,091;    0,500
1063,763; 1833,005;    0,909;    1,136
1064,306; 1901,096;   -0,909;    1,864
1064,849; 1780,551;   -0,909;    0,591
1065,393; 1782,823;    2,000;   -1,500
1065,936; 1899,914;    0,182;   -0,409
1066,479; 1781,641;   -1,455;    1,318
1067,022; 1793,551;   -0,273;   -0,227
1067,565; 1707,641;   -0,091;   -1,318
1068,108; 1739,460;    0,727;   -0,591
1068,651; 1715,732;   -0,636;    1,409
1069,194; 1649,641;   -0,455;   -1,682
1069,736; 1656,096;   -1,273;    0,955
1070,279; 1624,460;   -1,364;   -0,500
1070,822; 1659,914;   -2,000;   -0,318
1071,364; 1742,551;   -0,364;    1,318
1071,907; 1576,551;   -0,727;    3,227
1072,450; 1483,641;    0,000;   -0,045
1072,992; 1488,732;   -0,273;    3,136
1073,535; 1622,369;    2,091;    2,136
1074,077; 1410,187;   -0,727;    2,045
1074,619; 1372,369;   -1,364;    0,591
1075,161; 1411,641;   -1,091;    1,500
1075,704; 1593,278;    1,545;    1,227
1076,246; 1385,641;   -0,182;    0,682
1076,788; 1308,823;   -0,364;    1,773
1077,330; 1402,187;    1,273;    2,136
1077,872; 1352,460;    0,909;    0,955
1078,414; 1566,187;    2,727;    0,773
1078,956; 1314,369;    1,273;   -0,227
1079,498; 1566,823;    1,636;    0,318
1080,040; 1274,278;    1,909;   -1,318
1080,581; 1223,005;    1,636;   -0,318
1081,123; 1150,641;    0,091;   -0,773
1081,665; 1199,732;   -1,182;   -0,955
1082,206; 1486,823;    1,364;   -0,500
1082,748; 1346,551;    0,727;    2,045
1083,289; 1221,460;   -2,000;    1,318
1083,831; 1134,914;   -0,545;    0,227
1084,372; 1181,551;    0,000;    0,591
1084,913; 1172,096;    1,091;    0,864
1085,455; 1153,460;   -1,909;   -2,045
1085,996; 1119,369;   -2,273;    0,136
1086,537; 1136,278;   -0,091;    0,864
1087,078; 1170,005;   -0,909;   -2,136
1087,619; 1214,369;   -1,273;    0,227
1088,160; 1118,369;    0,000;    1,318
1088,701; 1113,551;   -1,091;    0,682
1089,242; 1058,369;    1,364;   -2,227
1089,783; 1146,096;   -0,273;    1,409
1090,324; 1119,369;    0,455;    0,682
1090,865;  996,460;    2,727;   -0,409
1091,405;  960,641;    0,727;    2,227
1091,946;  994,369;    0,182;   -0,955
1092,487;  919,005;    0,818;   -1,409
1093,027; 1077,551;   -1,364;   -1,500
1093,568;  935,005;   -0,364;    1,227
1094,108; 1018,369;    0,273;    1,773
1094,649;  972,641;   -1,182;    0,136
1095,189;  909,641;   -0,636;   -0,682
1095,729;  862,005;   -0,091;    0,955
1096,269;  865,823;    0,727;   -0,955
1096,810; 1173,732;   -1,364;    0,500
1097,350;  998,551;    1,364;   -0,773
1097,890;  904,823;    0,364;    1,227
1098,430; 1150,914;    2,364;    2,864
1098,970; 1025,187;    2,182;    1,682
1099,510;  902,369;    0,545;   -2,318
1100,050;  824,823;    1,000;   -1,591
1100,589;  791,732;   -0,727;   -0,318
1101,129;  913,551;    0,818;   -0,955
1101,669; 1065,823;    1,727;    2,136
1102,209;  883,460;   -0,091;    2,227
1102,748;  839,551;    0,000;    0,955
1103,288;  834,187;    1,273;   -1,227
1103,827;  847,005;    3,091;   -2,227
1104,367;  737,641;   -0,091;   -2,409
1104,906;  711,914;    1,364;   -1,136
1105,445;  772,914;    0,636;   -1,136
1105,985;  718,005;   -0,727;    1,500
1106,524;  763,096;   -1,727;   -0,682
1107,063;  742,187;   -2,727;    1,409
1107,602;  714,914;   -1,909;   -1,500
1108,141;  636,278;   -1,909;    1,500
1108,680;  739,914;   -3,455;   -0,591
1109,219;  677,914;   -0,909;   -0,500
1109,758;  669,096;    0,455;    0,682
1110,297;  648,096;    1,000;   -0,682
1110,836;  593,732;   -0,727;    0,955
1111,375;  760,369;   -2,545;    0,409
1111,913;  768,187;   -1,000;    0,773
1112,452;  706,278;   -0,273;    0,136
1112,991;  588,096;    1,091;    1,955
1113,529;  547,369;   -0,818;   -0,045
1114,068;  618,551;   -0,273;    2,955
1114,606;  523,732;   -0,364;   -0,955
1115,144;  675,187;   -1,273;    1,045
1115,683;  622,096;   -0,727;    0,318
1116,221;  662,369;   -0,455;   -0,864
1116,759;  571,551;    0,636;   -0,864
1117,297;  768,914;    0,000;    1,864
1117,836;  575,732;   -2,182;   -1,227
1118,374;  584,460;    0,182;   -0,682
1118,912;  529,096;    0,909;    2,682
1119,450;  517,732;    1,000;    0,864
1119,988;  568,005;    1,545;    2,136
1120,525; 1013,005;    5,091;    3,318
1121,063;  712,369;    1,182;    1,864
1121,601;  538,823;   -0,909;   -1,227
1122,139;  492,187;   -0,727;   -2,045
1122,676;  682,369;   -0,727;    2,773
1123,214;  611,551;   -1,182;    4,409
1123,751;  431,732;    1,727;    2,227
1124,289;  563,187;   -0,091;   -0,409
1124,826;  432,732;    1,727;    0,227
1125,364;  352,732;    1,727;   -0,955
1125,901;  533,278;    1,182;    1,227
1126,438;  641,369;    0,818;    0,955
1126,975;  379,914;   -0,727;   -0,773
1127,513;  446,551;    0,273;    2,136
1128,050;  352,823;    1,636;   -0,682
1128,587;  442,823;    2,000;   -0,227
1129,124;  490,551;    0,091;    1,318
1129,661;  360,005;    0,273;    0,227
1130,198;  527,914;    1,636;    0,773
1130,734;  476,641;    0,182;    1,409
1131,271;  333,823;   -0,909;    0,864
1131,808;  504,005;    2,909;    3,045
1132,345;  379,732;    1,545;    0,318
1132,881;  251,369;   -1,545;   -1,864
1133,418;  388,641;    0,727;   -1,136
1133,954;  331,369;    2,455;   -2,682
1134,491;  393,641;    1,364;   -0,773
1135,027;  310,914;    2,364;    0,864
1135,564;  388,369;    0,273;    2,955
1136,100;  356,823;    0,364;    2,136
1136,636;  269,914;   -1,273;   -1,045
1137,172;  352,460;    0,000;   -1,045
1137,708;  284,278;   -1,364;   -1,045
1138,245;  280,914;    1,273;   -1,227
1138,781;  226,369;    1,091;   -3,318
1139,317;  299,551;    1,273;   -1,409
1139,852;  291,551;    3,091;    0,136
1140,388;  403,641;   -1,182;   -0,409
1140,924;  289,460;   -1,091;   -2,227
1141,460;  233,187;   -1,636;    0,136
1141,996;  166,460;   -1,364;    2,682
1142,531;  211,460;    1,364;    3,318
1143,067;  422,641;    1,182;    1,045
1143,602;  486,096;   -0,091;   -0,318
1144,138;  325,641;   -2,636;    1,045
1144,673;  194,096;   -1,455;    1,409
1145,209;  265,096;   -1,909;   -0,318
1145,744;  180,369;   -0,727;    0,864
1146,279;  318,369;    1,818;   -0,136
1146,815;  228,641;    1,545;   -2,682
1147,350;  267,460;   -1,364;    0,045
1147,885;  180,369;   -0,818;   -1,318
1148,420;  182,460;   -2,273;    0,773
1148,955;  168,278;   -1,727;    1,864
1149,490;  189,278;   -0,909;   -1,591
1150,025;  170,096;    0,455;   -1,773
1150,560;  274,732;    1,091;   -0,955
1151,094;  251,551;    1,455;   -0,591
1151,629;  250,187;    1,636;    0,864
1152,164;  183,460;    1,364;    1,318
1152,698;  146,732;   -0,182;   -0,136
1153,233;  104,823;    0,091;   -0,682
1153,767;  156,641;   -3,000;   -2,318
1154,302;  209,187;   -1,455;    1,773
1154,836;  203,914;   -0,455;   -2,136
1155,371;  252,187;   -1,364;    3,682
1155,905;  219,551;   -0,636;    1,682
1156,439;  175,096;   -0,636;   -0,500
1156,973;  201,278;    0,364;    0,318
1157,507;  136,096;   -0,364;    0,682
1158,042;  167,732;   -0,727;    1,045
1158,576;  206,551;    0,182;    1,773
1159,110;  207,369;   -0,818;    2,409
1159,643;  174,914;    0,636;   -0,045
1160,177;  111,551;   -1,545;    1,500

