
Integration time [ms]:   0,040
Averaging Nr. [scans]: 11
Smoothing Nr. [pixels]: 0
Data measured with spectrometer [name]: 7318044SP
Wave   ;Sample   ;Dark     ;Reference
[nm]   ;[counts] ;[counts] ;[counts] 

186,757;   20,812;   31,551;    1,318
187,357;   56,403;   22,551;    0,955
187,958;   41,305;   15,460;   -1,591
188,558;   71,345;    8,915;   -1,227
189,159;   47,331;    6,733;   -4,500
189,759;   17,292;    7,278;   -3,591
190,360;   21,264;    2,824;   -2,136
190,960;   52,619;    2,915;   -4,136
191,560;   69,221;    3,189;   -6,591
192,161;  313,433;    4,372;   -3,500
192,761;  148,597;    4,010;   -3,227
193,361;  108,874;    1,556;   -3,773
193,962;  160,957;    2,010;   -2,682
194,562;   79,862;    1,189;   -3,955
195,162;  118,020;   -2,448;   -2,227
195,762;  269,694;   -3,176;   -0,045
196,362;  220,314;    1,370;   -2,500
196,963;   84,180;    2,006;   -0,864
197,563;  147,988;    1,551;   -0,955
198,163;  108,784;    0,096;   -0,682
198,763;  130,347;    1,733;   -0,500
199,363;  224,152;    3,096;   -0,500
199,963;  184,988;    0,369;    0,409
200,563;  166,192;    2,823;   -1,409
201,163;  150,143;    3,277;   -0,227
201,763;  234,657;    3,732;    0,318
202,363;  168,408;    1,459;    1,500
202,963;  282,391;    1,459;    1,045
203,563;  396,173;    0,277;    0,500
204,162;  237,562;    2,096;   -1,864
204,762;  231,921;    0,550;    0,591
205,362;  203,055;    3,004;    1,955
205,962;  304,682;    3,096;    1,955
206,562;  300,850;    1,823;    2,318
207,161;  269,776;   -0,087;    0,318
207,761;  420,700;    1,277;    2,409
208,361;  302,665;   -0,268;    1,409
208,960;  396,520;    0,459;    1,500
209,560;  473,667;    1,277;    1,591
210,160;  456,853;    0,550;    1,864
210,759;  418,004;    4,186;    1,227
211,359;  429,216;    1,459;    1,045
211,958;  696,144;    1,277;    2,045
212,558;  778,834;    1,732;    1,864
213,157;  623,188;    1,822;    1,500
213,757; 1069,799;    3,822;   -0,227
214,356;  761,277;    1,277;   -0,409
214,956; 1105,972;    3,095;    0,409
215,555;  737,739;    2,095;    2,136
216,154;  672,590;   -2,723;   -0,591
216,754;  684,395;    0,277;    0,773
217,353;  819,868;   -0,268;   -1,045
217,952;  670,838;   -0,178;    0,318
218,552;  918,208;    1,368;   -0,773
219,151;  828,224;    0,277;    0,955
219,750;  822,135;    0,004;   -0,227
220,349;  961,025;   -0,451;    1,045
220,948; 1015,476;   -1,360;    1,136
221,548; 1049,443;    0,913;    1,227
222,147; 1162,808;   -0,087;   -0,409
222,746; 1440,548;   -0,451;   -0,955
223,345; 1324,488;    0,731;    0,500
223,944; 1333,883;   -0,451;    0,773
224,543; 1522,438;    1,004;   -1,409
225,142; 1609,399;    0,094;    0,136
225,741; 1538,803;   -0,814;    1,045
226,340; 1566,958;   -0,451;   -0,955
226,939; 2014,795;   -0,996;   -0,136
227,538; 1993,090;   -0,360;   -0,773
228,137; 2145,349;   -0,814;    0,864
228,735; 2312,252;   -0,541;    1,227
229,334; 2064,603;   -0,905;   -0,227
229,933; 2431,499;    0,459;    0,591
230,532; 2539,878;    1,186;   -0,409
231,131; 2595,042;    1,732;    0,318
231,729; 2754,831;   -2,450;   -2,318
232,328; 2878,053;   -0,723;   -1,500
232,927; 2962,427;    1,004;   -0,500
233,525; 3097,449;    3,640;    0,045
234,124; 3301,209;    2,368;   -1,591
234,723; 3340,805;    0,913;   -1,045
235,321; 3472,691;    2,277;    0,136
235,920; 3709,474;    1,186;   -1,227
236,518; 3982,269;    3,459;    0,318
237,117; 4198,599;    0,004;   -0,227
237,715; 4341,759;    0,640;   -0,500
238,314; 4380,806;   -0,087;   -2,318
238,912; 4469,748;   -0,723;   -1,409
239,510; 4508,086;    0,459;   -1,227
240,109; 4688,319;    0,004;    3,773
240,707; 4760,408;   -0,996;    1,227
241,305; 5162,030;    0,550;    0,136
241,904; 5337,121;   -0,178;   -2,045
242,502; 5278,321;   -0,632;   -0,227
243,100; 5263,201;   -0,087;   -0,955
243,698; 5511,816;    0,732;    1,682
244,297; 5676,791;   -0,632;    0,682
244,895; 5538,769;   -0,269;   -2,318
245,493; 5844,799;    2,186;   -0,591
246,091; 5886,378;    1,368;   -1,318
246,689; 5881,645;    1,004;    0,591
247,287; 6086,515;    0,822;   -1,136
247,885; 6374,731;   -1,451;    1,227
248,483; 6480,840;    1,822;   -0,500
249,081; 6580,181;    0,185;    1,591
249,679; 6752,461;   -0,178;    1,682
250,277; 7021,960;   -1,723;    0,864
250,875; 7037,025;   -1,087;   -1,045
251,473; 7039,274;   -1,178;    0,500
252,071; 7226,022;    1,459;    1,045
252,669; 7402,792;   -1,814;    0,318
253,267; 7683,186;   -0,087;    0,773
253,864; 7653,424;   -0,360;    0,682
254,462; 7475,258;    1,640;    1,591
255,060; 7472,499;   -0,269;    1,318
255,658; 7834,428;    0,822;   -0,136
256,255; 8215,418;    0,186;   -2,045
256,853; 8100,186;   -0,269;    1,409
257,451; 8105,514;    0,822;    1,864
258,048; 8359,574;    1,822;    1,864
258,646; 8157,251;    1,731;   -1,045
259,243; 8339,913;   -0,087;    2,227
259,841; 8363,129;   -0,814;    0,318
260,438; 8289,069;   -0,087;    0,864
261,036; 9014,284;   -1,905;    1,409
261,633; 8914,168;   -0,087;    2,227
262,231; 8678,624;    2,731;   -0,045
262,828; 8752,241;   -0,905;    1,136
263,425; 8805,107;    0,913;   -0,591
264,023; 9075,408;    0,186;    0,045
264,620; 8638,694;   -0,360;   -0,318
265,217; 8967,253;   -2,087;    3,136
265,815; 9090,441;   -1,905;    2,136
266,412; 8860,629;    0,731;    0,136
267,009; 8919,326;   -1,451;    0,773
267,606; 8812,161;    0,822;   -0,955
268,203; 8799,524;   -0,269;   -0,591
268,801; 9118,273;    1,731;    0,591
269,398; 9431,691;   -0,360;    2,500
269,995; 9362,786;    0,277;    1,591
270,592; 9158,908;   -0,632;   -0,500
271,189; 9390,724;    0,186;    0,409
271,786; 9503,963;   -0,632;    1,227
272,383; 9309,751;   -1,087;    0,227
272,980; 9519,397;    0,277;    0,318
273,577; 9973,197;    0,004;    1,227
274,174; 9555,436;    0,822;    2,591
274,771; 9523,883;   -0,814;   -0,773
275,367; 9668,736;    2,277;    1,409
275,964; 9645,967;    0,731;   -0,500
276,561; 9729,538;    1,549;   -1,045
277,158; 9960,279;    0,095;   -1,773
277,755;10049,181;    2,185;    0,409
278,351; 9445,427;   -0,451;   -1,500
278,948; 9760,506;   -0,815;    0,045
279,545; 9785,827;   -1,360;    2,318
280,141;10432,671;   -1,723;   -2,045
280,738;10322,416;   -0,451;   -0,136
281,334;10547,782;   -1,633;    0,591
281,931; 9924,774;   -0,087;   -1,318
282,528;10007,684;    0,822;   -0,500
283,124;10731,530;   -1,087;   -0,500
283,721;10660,295;   -0,451;    1,409
284,317;10503,027;    0,185;    2,500
284,913;11025,547;   -1,360;    0,591
285,510;11152,002;    0,640;   -0,318
286,106;11209,434;   -2,269;   -0,955
286,703;10839,000;   -0,360;    1,955
287,299;11076,493;   -1,451;   -0,591
287,895;11268,726;    0,822;   -1,045
288,491;11827,146;    0,186;    2,136
289,088;11543,715;   -2,360;    2,409
289,684;11582,883;   -1,723;    1,500
290,280;11619,561;    0,368;    0,682
290,876;11724,291;    1,822;    5,500
291,472;11626,130;    1,276;    2,227
292,068;11728,174;    1,367;    0,227
292,665;11438,220;    2,095;    0,773
293,261;11033,736;    0,276;    2,136
293,857;11428,367;    2,913;    2,136
294,453;11392,311;    3,550;    0,955
295,049;11240,577;   -0,268;    1,955
295,644;11248,174;    0,095;    0,136
296,240;11162,763;   -0,905;   -0,136
296,836;11210,807;   -0,995;    0,318
297,432;11497,636;    1,096;   -0,500
298,028;11513,337;    0,732;    0,773
298,624;11940,553;    1,459;    1,864
299,220;12243,646;    2,368;    0,591
299,815;11867,786;    1,005;   -0,409
300,411;11649,395;    0,914;    1,773
301,007;11708,228;    1,368;    0,227
301,602;11766,151;   -0,541;   -2,318
302,198;11925,256;    0,732;   -0,773
302,794;12284,413;    1,187;   -0,500
303,389;12389,796;   -1,177;    1,045
303,985;12482,328;    0,550;    1,409
304,580;12427,407;    1,459;    1,591
305,176;12378,272;   -3,086;    0,136
305,771;12335,179;   -1,268;   -1,227
306,367;12164,008;    4,095;    0,136
306,962;12524,333;    0,641;    1,500
307,558;12249,995;   -0,450;    0,136
308,153;12180,733;    1,095;   -1,136
308,748;12448,117;   -0,814;    1,682
309,344;12390,495;   -0,632;   -1,318
309,939;12466,471;   -1,905;   -1,318
310,534;12733,165;   -0,086;   -1,682
311,130;12713,916;    0,459;   -2,500
311,725;12470,057;    1,004;   -0,500
312,320;12760,767;    2,459;    0,045
312,915;12605,899;    1,459;   -1,045
313,510;12661,277;    1,550;   -0,500
314,105;13202,071;    1,096;    1,409
314,700;12600,121;   -3,086;   -1,045
315,295;12234,225;   -0,904;    0,045
315,890;11797,048;    1,277;    0,864
316,485;12132,251;   -0,359;   -0,318
317,080;12292,163;   -3,086;    1,591
317,675;12864,410;    2,005;   -0,682
318,270;12216,378;    5,550;    3,318
318,865;12246,554;    3,278;    3,045
319,460;12049,573;   -0,904;    0,591
320,055;12312,283;   -0,541;   -1,227
320,650;12006,220;   -1,995;   -0,591
321,244;12051,133;   -0,177;   -1,409
321,839;12992,867;   -1,541;   -0,227
322,434;12880,677;   -1,086;   -1,591
323,029;12490,533;    1,732;    1,591
323,623;12297,572;    1,550;    0,773
324,218;12113,125;    2,368;    1,409
324,812;11969,965;    1,096;    1,591
325,407;11766,209;   -0,814;    2,045
326,002;11671,826;    0,277;   -0,409
326,596;11991,193;    0,914;    1,318
327,191;12200,886;    0,823;   -1,045
327,785;11806,375;   -0,813;   -0,227
328,379;12013,827;    1,368;    0,136
328,974;11797,769;    0,914;   -3,955
329,568;12022,186;    0,186;   -2,409
330,163;11829,669;    2,096;    1,045
330,757;12188,237;    2,459;    1,591
331,351;11511,837;    0,459;    0,682
331,945;11826,771;    0,914;    1,409
332,540;11410,480;   -1,723;   -0,591
333,134;11523,399;   -1,086;    0,773
333,728;11784,357;    0,005;    0,318
334,322;12127,665;   -1,177;   -0,864
334,916;11430,981;    0,277;    0,955
335,510;11755,948;   -0,450;   -0,136
336,105;11967,067;   -1,086;    1,591
336,699;11694,044;   -1,086;    0,591
337,293;11633,663;   -1,723;    0,318
337,887;11808,345;   -2,723;    1,955
338,481;11867,779;    0,459;    0,591
339,074;12043,338;   -0,359;    2,682
339,668;11866,548;   -1,632;    1,227
340,262;12118,983;    1,732;    3,227
340,856;11628,557;    1,822;   -0,682
341,450;10995,308;    1,004;    1,864
342,044;11895,936;    1,459;    0,136
342,637;11682,228;    0,913;   -2,136
343,231;11554,397;   -2,360;    0,682
343,825;11519,492;   -1,086;   -0,591
344,419;11469,536;   -1,995;    0,500
345,012;11234,966;    2,459;    4,045
345,606;11208,351;    4,641;    1,591
346,199;11078,666;   -1,813;   -0,227
346,793;10624,148;    1,914;    2,045
347,386;10810,108;   -0,813;   -1,136
347,980;10803,378;   -0,268;   -0,045
348,573;10586,518;    2,278;    0,409
349,167;10256,919;    5,278;    4,773
349,760;10634,509;    2,914;    2,682
350,354;10603,520;   -0,813;    1,136
350,947;10353,775;    1,096;    1,682
351,540; 9969,704;   -0,358;   -1,409
352,134; 9936,541;    1,096;    1,136
352,727;10011,801;   -0,086;    1,136
353,320; 9843,332;    0,005;    0,591
353,913; 9674,584;   -1,995;    1,864
354,507; 9864,342;    0,823;   -1,227
355,100; 9877,032;    0,460;    0,864
355,693; 9076,256;    2,005;    2,409
356,286; 9100,899;    0,823;    2,773
356,879; 9500,703;   -0,722;    1,227
357,472; 9108,027;   -0,904;    1,500
358,065; 9309,713;   -0,722;    2,500
358,658; 9237,152;   -0,540;    2,318
359,251; 8857,437;   -1,631;   -0,591
359,844; 8332,512;   -1,904;   -1,136
360,437; 8481,831;   -2,995;    0,045
361,030; 8801,041;    1,369;   -0,682
361,623; 8386,450;    2,824;    0,318
362,215; 8406,727;   -0,086;    2,045
362,808; 8238,219;   -2,358;   -1,682
363,401; 8457,731;   -2,449;    0,136
363,994; 8182,370;   -0,631;   -1,500
364,586; 8103,221;    0,824;   -1,500
365,179; 8294,141;   -0,449;   -1,136
365,772; 7776,806;   -1,995;    2,045
366,364; 8108,054;    1,915;   -3,227
366,957; 8309,039;    2,279;   -0,045
367,549; 8310,996;    2,188;   -0,864
368,142; 7974,386;    1,825;   -1,500
368,734; 8159,651;    0,734;   -2,136
369,327; 8126,714;    1,643;   -0,500
369,919; 8054,476;   -1,538;    0,409
370,512; 7820,753;   -1,083;   -0,500
371,104; 7541,729;   -0,901;    1,591
371,696; 7740,397;    1,191;   -0,955
372,289; 7839,425;    0,373;    1,136
372,881; 7986,505;   -2,080;    1,318
373,473; 7892,742;   -2,170;    1,136
374,066; 7701,836;   -0,169;    0,500
374,658; 7550,229;    0,378;    1,136
375,250; 7901,055;    0,653;   -1,409
375,842; 7750,427;    0,473;   -0,045
376,434; 7650,091;   -0,435;   -0,409
377,026; 8242,065;    0,204;   -2,500
377,618; 8112,685;   -0,158;   -0,682
378,210; 7946,305;   -0,338;   -1,955
378,802; 7822,188;    0,754;   -0,591
379,394; 7755,129;    1,846;    0,682
379,986; 8358,666;    1,393;   -0,955
380,578; 8488,368;   -0,153;    0,773
381,170; 7810,916;   -0,972;    0,045
381,762; 7732,358;    0,755;    1,409
382,354; 7965,768;   -0,065;   -1,318
382,945; 8077,503;   -2,976;    0,318
383,537; 8250,693;   -2,705;   -1,955
384,129; 8273,796;   -2,160;   -1,136
384,721; 8446,484;   -0,252;    0,955
385,312; 8362,123;   -0,161;   -0,955
385,904; 8466,994;   -2,706;    1,591
386,496; 7816,327;   -0,979;    1,045
387,087; 7982,946;    1,022;    2,500
387,679; 8029,310;   -1,160;    0,045
388,270; 8156,439;    2,840;    2,045
388,862; 8235,026;    1,295;   -0,318
389,453; 8134,691;   -0,887;    1,045
390,045; 8417,750;   -0,705;   -2,682
390,636; 8380,367;    0,204;   -0,591
391,227; 8241,397;   -0,523;   -0,045
391,819; 8327,594;    0,204;    0,773
392,410; 8369,439;    1,022;    0,045
393,001; 8287,824;   -0,979;   -1,591
393,593; 8605,132;    1,930;   -0,045
394,184; 8447,928;    1,385;   -0,409
394,775; 8380,330;    1,839;    2,136
395,366; 8590,709;    1,385;    0,773
395,957; 8581,484;    0,113;    0,136
396,548; 8891,192;   -0,342;    2,682
397,139; 9183,215;   -2,433;    0,591
397,730; 8929,755;   -1,888;    0,955
398,321; 8984,905;   -1,252;    0,955
398,912; 9039,078;   -0,615;    0,136
399,503; 9131,735;   -3,524;   -1,409
400,094; 8540,958;    0,294;    1,682
400,685; 8422,640;   -0,433;    0,045
401,276; 8507,681;    0,930;   -0,955
401,867; 8815,527;   -0,888;    0,773
402,458; 8921,727;   -2,251;   -2,318
403,048; 8877,752;    1,112;    0,591
403,639; 8483,013;    0,840;    0,864
404,230; 8744,797;    2,476;    0,318
404,821; 8661,826;   -0,615;    0,045
405,411; 8778,152;    1,203;   -2,591
406,002; 8370,797;   -1,252;   -1,136
406,592; 8186,317;    2,294;    0,045
407,183; 8532,738;    0,566;   -1,500
407,774; 8472,260;    3,475;   -0,136
408,364; 8816,444;    0,930;    0,409
408,954; 8402,753;    0,384;    1,227
409,545; 8418,371;    1,021;    1,045
410,135; 7961,092;    1,293;    0,500
410,726; 8125,709;    1,838;    0,318
411,316; 8541,724;    0,111;    0,773
411,906; 8238,076;   -0,253;   -0,409
412,497; 7687,423;   -1,070;   -0,045
413,087; 8313,318;   -1,980;   -0,227
413,677; 8724,923;   -0,707;    3,864
414,267; 8542,411;    0,656;    1,409
414,857; 8551,540;   -2,980;    4,227
415,448; 8837,655;    0,839;    0,500
416,038; 8517,900;    0,020;   -0,591
416,628; 8504,632;   -0,889;    0,409
417,218; 7937,869;    0,565;    3,318
417,808; 8200,270;    0,202;   -0,409
418,398; 8706,490;    0,020;    2,682
418,988; 8728,307;    2,020;    0,591
419,578; 8973,837;   -0,707;    1,409
420,168; 9328,089;   -1,343;   -0,955
420,757; 8875,778;   -1,343;   -1,500
421,347; 8558,809;    0,111;   -0,227
421,937; 8734,277;    2,292;    1,409
422,527; 8680,085;    0,838;   -0,773
423,116; 8510,698;   -0,253;   -0,045
423,706; 8868,838;   -1,889;    0,318
424,296; 8857,553;    1,384;    0,682
424,885; 9268,007;   -0,071;   -3,045
425,475; 9565,737;    1,474;   -2,864
426,065; 9528,303;   -0,980;   -0,318
426,654; 9123,442;   -0,435;   -0,318
427,244; 9218,159;    0,020;    1,409
427,833; 8669,569;    1,383;   -0,500
428,423; 9152,250;   -0,526;    1,136
429,012; 9928,328;   -0,344;   -1,136
429,601; 9411,084;   -1,344;    0,136
430,191; 9666,954;    1,292;    4,318
430,780; 9269,230;   -0,344;   -0,409
431,369; 9165,999;    0,746;   -0,045
431,959; 9849,245;   -1,254;    0,500
432,548; 9636,478;   -1,163;   -0,045
433,137; 9784,462;   -1,254;   -1,318
433,726;10340,497;    0,292;    0,500
434,315; 9689,339;   -0,526;    2,409
434,905; 9769,803;   -1,254;    1,409
435,494; 9626,710;    0,746;    0,955
436,083;10132,768;   -0,981;   -0,955
436,672;10005,480;    0,110;    0,500
437,261; 9551,494;    0,292;   -1,955
437,850; 9651,853;    1,383;    0,682
438,439; 9655,779;    3,291;    1,955
439,027; 9484,011;    3,655;    1,773
439,616; 9863,260;    2,927;    1,227
440,205; 9750,745;    0,200;   -2,136
440,794; 9829,291;    2,109;   -0,045
441,383;10091,960;   -1,346;   -0,591
441,971; 9959,662;   -2,436;    0,591
442,560; 9822,845;    0,563;   -1,773
443,149; 9576,185;    0,379;   -1,318
443,737; 9736,261;   -0,074;   -2,318
444,326; 9995,954;    0,018;    0,318
444,915;10048,047;   -1,982;    0,864
445,503;10442,614;   -2,891;   -0,318
446,092; 9693,664;    0,382;    2,136
446,680;10267,485;    0,382;    0,318
447,269;10458,054;   -0,346;   -0,318
447,857;10228,816;    0,018;   -1,773
448,445;10320,165;    0,563;    1,318
449,034;10577,432;   -1,528;   -1,136
449,622;10718,257;   -1,073;    3,500
450,210; 9856,435;    2,017;    2,227
450,799;10398,206;    0,290;   -0,591
451,387;10395,561;    1,381;   -0,591
451,975;10058,674;    2,654;    0,864
452,563;10158,074;    3,472;    2,318
453,151;10193,528;   -0,528;   -1,227
453,739;10107,570;   -1,347;    0,136
454,328; 9915,093;    2,381;   -2,136
454,916; 9652,407;    2,562;   -0,136
455,504; 9871,528;    1,017;    1,227
456,092;10040,570;    0,017;   -1,591
456,679;10022,374;    1,472;    0,682
457,267; 9895,681;    4,017;    1,045
457,855;10130,178;    1,017;    1,409
458,443; 9902,874;   -0,165;    1,682
459,031;10013,962;    0,108;    2,409
459,619;10489,666;   -1,801;    2,864
460,206;10630,755;    0,835;    2,045
460,794;10677,057;   -2,983;   -0,227
461,382;10919,549;   -0,529;   -0,864
461,970;10545,030;    1,198;    1,864
462,557;10560,323;   -0,711;   -0,682
463,145;10758,040;   -3,165;   -1,682
463,732;10893,694;    2,016;   -1,045
464,320;10842,149;   -0,075;   -3,045
464,907;10513,242;    2,743;   -0,773
465,495;10353,328;    0,743;   -1,227
466,082;10530,072;   -1,984;   -0,045
466,670;10476,642;   -2,529;    1,227
467,257;10918,796;   -1,711;    2,045
467,844;11062,521;   -0,075;    0,045
468,432;11086,851;    0,834;    3,500
469,019;10557,175;    0,925;   -1,773
469,606;11045,316;    0,470;    3,682
470,193;10856,236;   -1,439;    0,227
470,780;10412,022;   -2,075;    0,864
471,368;10750,894;   -1,257;   -0,773
471,955;10553,747;    1,379;   -0,682
472,542;10159,396;    0,652;   -1,136
473,129;10415,116;   -0,166;    0,136
473,716;10144,312;    1,470;    0,591
474,303;10374,325;    0,652;   -0,864
474,890;10690,560;   -1,439;   -0,500
475,477;10654,245;   -1,621;    0,409
476,064;10561,245;    1,106;   -1,591
476,650;10538,900;    0,288;    0,318
477,237;10353,264;   -0,258;    0,955
477,824;10564,697;   -1,076;    0,864
478,411;10604,036;   -1,894;   -0,318
478,997;10776,907;    0,560;   -0,773
479,584;10836,608;    1,196;   -0,409
480,171;11540,624;   -0,440;   -0,773
480,757;11194,552;    2,651;    0,773
481,344;11506,058;    0,469;    0,409
481,931;11029,078;    1,105;    1,045
482,517;12024,592;   -1,258;    0,318
483,104;12605,212;    1,106;    2,864
483,690;12966,140;   -1,804;    0,045
484,276;13373,491;   -0,895;    0,227
484,863;13112,955;    2,469;    1,136
485,449;13759,967;   -0,077;    0,318
486,035;13744,570;   -1,986;   -0,136
486,622;14154,893;   -0,895;    0,045
487,208;14109,949;    1,378;    1,500
487,794;13956,282;    0,741;    0,318
488,380;14106,150;    0,105;   -1,409
488,967;14181,575;   -1,168;   -0,409
489,553;14172,235;   -1,895;   -1,409
490,139;14379,124;    1,559;    0,773
490,725;13845,883;    0,741;   -0,227
491,311;13396,183;    3,287;    3,045
491,897;12712,565;   -0,986;    1,500
492,483;12507,011;    0,105;    1,227
493,069;12237,558;    3,923;    0,864
493,655;12186,891;    1,650;    0,682
494,241;12115,554;    1,377;   -0,955
494,826;12518,138;    0,287;   -1,045
495,412;11988,716;    2,559;   -0,682
495,998;12128,398;   -0,805;   -0,318
496,584;12239,804;    0,377;    1,045
497,169;12259,567;    1,014;   -0,682
497,755;12219,396;    0,650;    1,227
498,341;12790,016;    0,559;    0,318
498,926;12333,174;    1,832;    1,955
499,512;12518,700;    1,286;    2,955
500,097;12680,033;    0,195;   -0,318
500,683;12635,049;   -0,350;    2,136
501,268;12998,276;   -0,169;   -0,955
501,854;12709,409;   -0,169;    1,227
502,439;12638,130;   -0,624;   -1,773
503,024;12822,518;    0,195;    0,500
503,610;12909,531;   -0,078;   -0,682
504,195;12967,814;    0,558;    1,955
504,780;13050,483;    2,922;    1,227
505,366;12848,900;    3,013;    2,864
505,951;12576,435;    0,740;    1,045
506,536;12613,430;   -3,260;   -3,682
507,121;12588,842;    0,285;   -0,318
507,706;13107,952;    2,376;    1,045
508,291;13551,260;    2,649;    1,136
508,876;13000,636;   -0,988;    2,591
509,461;12427,959;   -0,169;   -0,773
510,046;12867,149;    0,194;    0,318
510,631;13093,406;   -0,351;   -0,773
511,216;12755,552;    2,467;   -0,500
511,801;13107,689;   -0,442;    2,591
512,386;13445,242;    0,740;    0,500
512,971;13416,053;   -2,988;    0,955
513,555;12936,175;   -0,897;   -1,500
514,140;13754,069;   -0,442;   -3,136
514,725;13735,418;   -0,715;   -1,136
515,309;13879,108;   -0,533;    0,318
515,894;13301,342;   -0,624;   -2,227
516,479;13767,950;   -0,624;   -0,955
517,063;13590,621;    0,376;    1,227
517,648;13736,828;    1,012;   -1,136
518,232;13408,258;   -0,261;   -1,409
518,817;13730,874;   -0,079;    1,682
519,401;13916,077;    2,194;    0,591
519,985;13434,209;    1,103;    1,136
520,570;13337,354;    0,830;   -1,955
521,154;13607,227;    2,102;    0,591
521,738;13780,038;   -2,352;    2,409
522,323;14355,371;   -0,170;    1,682
522,907;14091,805;    0,466;   -0,136
523,491;13818,369;    0,557;    0,955
524,075;13813,622;    2,284;    0,591
524,659;13929,094;    1,466;    0,591
525,243;13369,060;    1,739;    0,409
525,827;13584,687;    0,648;   -0,045
526,411;14446,003;   -1,989;   -0,136
526,995;14675,033;   -0,352;    1,409
527,579;14261,355;   -0,443;   -1,045
528,163;14587,215;    0,375;   -1,500
528,747;14468,638;    2,466;   -0,773
529,331;14807,276;   -0,080;   -1,409
529,915;15042,442;    1,738;    0,955
530,499;15000,864;   -0,807;    1,227
531,082;14698,979;   -0,534;    1,591
531,666;14095,955;    1,374;    0,773
532,250;14790,255;    1,284;    2,682
532,833;15117,437;    0,920;    2,773
533,417;15029,482;   -1,807;    0,864
534,001;14992,088;    1,647;   -0,318
534,584;15720,342;    0,374;    0,500
535,168;15572,602;    0,465;    1,409
535,751;15574,994;    0,647;    0,045
536,334;15041,777;   -0,898;   -0,409
536,918;15651,336;    0,011;    1,591
537,501;15794,879;   -0,899;    1,318
538,085;15758,195;   -0,444;    1,045
538,668;15908,902;    0,829;    2,409
539,251;16202,155;    1,829;    3,773
539,834;16246,676;    0,101;    0,773
540,418;16181,338;   -1,990;    4,318
541,001;16298,892;   -0,990;    1,773
541,584;16275,062;    2,101;    2,227
542,167;15957,850;    1,374;    2,955
542,750;16129,847;    1,919;   -0,773
543,333;15719,203;    0,555;    2,136
543,916;16524,734;    0,192;    2,500
544,499;17175,310;   -1,354;    0,227
545,082;17126,023;    1,374;    3,591
545,665;17264,006;    1,919;    1,500
546,248;17643,112;    1,010;   -0,318
546,830;17313,503;   -0,445;    1,955
547,413;17721,705;    1,010;   -0,773
547,996;18253,209;    0,555;    0,500
548,579;18028,464;    0,919;    0,955
549,161;17850,723;    1,828;    2,682
549,744;17629,343;   -0,809;    0,409
550,326;18164,355;   -0,809;   -1,136
550,909;17907,228;    2,737;    0,591
551,492;18291,590;   -0,263;    0,227
552,074;18131,493;   -0,173;   -1,318
552,657;18653,103;    2,373;    0,045
553,239;18407,861;   -0,173;   -0,773
553,821;18343,918;   -1,082;    1,045
554,404;17857,246;    1,282;    1,136
554,986;18229,957;    0,464;    1,045
555,568;18840,625;    1,191;   -0,955
556,151;18030,423;    1,191;   -0,227
556,733;18221,199;   -0,264;   -0,864
557,315;18696,581;    0,100;    0,500
557,897;18543,614;    0,554;   -0,500
558,479;18690,750;   -1,991;    1,318
559,061;18757,756;   -0,719;   -0,864
559,643;19131,363;   -0,264;    0,045
560,225;19505,793;    1,645;    2,864
560,807;19551,454;    0,918;    0,318
561,389;19022,732;    0,554;    2,318
561,971;19734,697;    0,463;    2,136
562,553;19549,522;   -1,628;    1,591
563,135;19714,353;   -0,537;    1,136
563,717;19276,951;    3,372;    1,136
564,298;20017,864;    3,645;   -0,045
564,880;19763,101;    0,645;   -1,409
565,462;19917,282;    0,645;    1,318
566,043;21131,018;   -0,446;    2,318
566,625;20669,920;    1,918;    1,227
567,207;20517,306;    1,099;    1,682
567,788;21656,519;   -1,264;    1,500
568,370;22474,552;    1,917;   -0,500
568,951;22320,166;    0,190;    0,227
569,533;23215,185;   -0,628;   -0,500
570,114;23652,561;   -0,446;    0,682
570,695;24223,259;   -0,174;   -1,318
571,277;24750,880;   -0,265;   -1,682
571,858;25490,304;    2,008;   -1,136
572,439;26386,736;    1,554;   -1,045
573,021;26561,281;    2,099;   -2,773
573,602;27096,291;   -1,265;    0,318
574,183;28031,249;   -2,083;    2,227
574,764;28203,289;   -1,629;    0,409
575,345;28756,721;    0,917;   -0,136
575,926;29445,928;   -0,356;    0,136
576,507;29398,466;    1,099;   -0,227
577,088;30545,343;    3,099;    1,682
577,669;30488,520;    0,735;    1,955
578,250;31208,703;    0,644;   -1,045
578,831;31941,520;   -1,356;   -2,227
579,412;32240,955;   -0,810;    0,955
579,993;33202,123;    1,008;    0,227
580,573;33568,707;   -0,629;   -0,955
581,154;32475,559;    0,735;   -0,591
581,735;33354,755;    0,644;    0,773
582,315;32885,027;   -0,629;    2,136
582,896;33199,016;   -0,174;    1,227
583,477;32682,530;    0,189;    1,227
584,057;32891,000;    0,553;    0,955
584,638;33148,851;    2,553;    2,318
585,218;33089,987;   -0,538;    2,682
585,799;33253,879;    0,281;   -0,227
586,379;33261,343;    0,372;    1,591
586,959;32044,132;    0,735;    0,318
587,540;31340,404;   -0,629;    2,227
588,120;30853,520;    1,007;   -0,045
588,700;29816,591;    2,553;    2,136
589,281;30114,006;    0,462;   -0,955
589,861;30017,167;    0,099;   -1,682
590,441;29842,564;    2,371;   -2,682
591,021;28815,208;   -0,265;   -2,591
591,601;29023,968;   -0,537;    0,500
592,181;29064,157;   -0,719;   -0,773
592,761;28319,453;    0,007;    1,409
593,341;28216,911;   -0,901;    0,045
593,921;28191,493;   -0,265;    1,591
594,501;28132,255;   -0,538;    1,318
595,081;28024,240;    0,917;   -0,318
595,661;28300,912;   -1,447;    0,955
596,240;28807,364;   -0,537;    0,136
596,820;28418,278;    0,372;    1,955
597,400;28648,926;    2,008;    0,773
597,980;28890,165;    2,008;    1,045
598,559;28937,726;    2,735;   -0,227
599,139;28663,490;   -0,174;   -1,227
599,718;28513,672;   -0,174;   -0,409
600,298;28807,122;    0,735;    0,682
600,877;28984,729;    2,917;    1,409
601,457;29242,279;    2,281;    1,136
602,036;29149,235;    0,190;    2,045
602,616;29359,704;    0,644;    1,682
603,195;29715,545;   -0,355;    3,500
603,774;29268,369;   -0,901;    2,045
604,354;29167,531;    0,826;   -0,500
604,933;28622,677;    0,463;    1,864
605,512;28739,426;    3,554;    0,591
606,091;28820,378;   -0,537;    3,773
606,671;29605,344;    0,281;    0,773
607,250;28687,811;    1,644;    3,136
607,829;28910,940;    2,372;    3,227
608,408;28828,334;    1,190;    2,591
608,987;27871,594;    1,281;    3,409
609,566;28128,828;   -1,265;   -2,500
610,145;28219,769;   -1,082;    0,682
610,723;28646,463;    4,372;    6,864
611,302;27861,902;   -0,446;    1,682
611,881;27389,134;    5,008;   11,227
612,460;28265,756;    1,645;    3,955
613,039;28637,845;   -0,082;    2,045
613,617;27383,724;    1,736;    4,773
614,196;27580,789;    1,099;    1,227
614,775;27864,801;    1,009;    2,409
615,353;27863,790;    0,736;    0,864
615,932;27541,504;    0,100;    2,409
616,510;28141,249;    0,554;    0,591
617,089;27655,309;    7,100;   17,591
617,667;27436,056;    2,372;    6,136
618,246;27300,468;   -1,537;    1,318
618,824;27434,460;   -3,355;   -0,955
619,402;27003,466;   -2,900;   -1,773
619,981;27463,658;   -0,173;   -1,045
620,559;27345,024;    0,009;    1,682
621,137;26831,847;   -0,718;    1,864
621,715;26907,723;   -1,173;   -0,682
622,293;26806,627;   -0,537;   -0,773
622,871;27249,853;   -0,718;    0,500
623,450;26809,619;    0,373;   -0,864
624,028;26719,868;    0,191;   -0,955
624,606;26339,286;   -1,718;    1,682
625,183;26762,985;   -1,536;   -1,136
625,761;26341,251;    1,009;    1,136
626,339;26615,285;    1,373;    2,591
626,917;27026,756;   -0,172;   -0,045
627,495;27088,171;   -0,354;    1,318
628,073;26511,292;   -0,263;    2,864
628,650;26228,046;    0,100;    2,136
629,228;26646,899;    0,373;    4,409
629,806;26057,058;    2,282;    1,136
630,383;26283,283;    1,464;   -0,318
630,961;26075,818;    2,555;   -0,955
631,539;25815,238;    2,464;    0,227
632,116;25072,363;   11,373;   15,409
632,694;25707,205;    2,555;    6,500
633,271;26015,855;    0,828;    2,682
633,848;25873,034;    1,828;    2,045
634,426;25980,033;   -1,081;    1,773
635,003;25164,503;    1,101;   -0,409
635,580;25439,932;    1,192;    3,682
636,158;25984,711;    3,737;    1,227
636,735;25925,978;    0,555;   -0,500
637,312;26111,487;   -0,809;   -0,682
637,889;26241,878;   -4,354;   -0,682
638,466;25656,440;   -3,990;   -0,409
639,043;25670,655;    2,101;   -1,136
639,620;26023,526;   -2,262;   -0,955
640,197;26351,462;    1,100;    1,682
640,774;26511,796;   -0,172;    1,136
641,351;26906,402;    0,737;    1,136
641,928;26295,281;   -0,627;    1,409
642,505;25930,251;    0,828;   -0,500
643,082;26057,130;   -1,718;    1,227
643,658;25119,009;   -0,718;    1,500
644,235;25873,979;    1,191;    2,500
644,812;26169,403;    1,918;    0,773
645,388;25867,191;   -0,991;    1,409
645,965;26016,252;   -0,809;    1,682
646,542;26099,949;   -1,445;   -0,227
647,118;25996,374;    1,009;   -0,955
647,695;26331,707;   -0,263;    1,136
648,271;26232,768;   -0,536;    0,500
648,848;26576,011;    0,736;    2,227
649,424;26362,072;    0,827;    1,318
650,000;26131,951;   -0,354;   -1,045
650,577;25916,193;   -0,627;   -0,955
651,153;26405,527;   -1,809;    0,955
651,729;27435,679;    1,191;    0,864
652,305;27624,103;    0,645;    2,773
652,881;32035,437;   -0,082;    1,136
653,458;39096,407;    1,100;    0,227
654,034;43218,740;    0,282;    1,591
654,610;44860,074;    0,554;    0,773
655,186;46211,771;    0,645;    3,045
655,762;45996,559;   -0,991;    0,409
656,338;46048,529;    0,100;    0,136
656,913;47019,863;   -0,082;    0,409
657,489;46255,651;    0,827;   -0,318
658,065;46290,802;   -0,173;   -1,591
658,641;46935,045;   -0,900;   -0,864
659,217;46246,379;   -0,991;    0,409
659,792;45616,530;    0,645;   -0,409
660,368;45794,318;   -2,173;   -0,682
660,944;45514,470;   -2,082;    1,227
661,519;40966,440;   -0,628;    0,409
662,095;34815,774;   -1,719;    0,591
662,670;29864,653;    1,281;   -0,136
663,246;28512,623;    1,009;   -0,409
663,821;27743,229;    0,281;    1,682
664,396;27264,199;    0,009;    1,864
664,972;27516,805;    0,009;   -0,500
665,547;27835,139;    1,372;    0,136
666,122;27803,836;   -1,082;    0,318
666,698;28061,079;   -0,173;    0,318
667,273;27452,776;   -0,173;    0,136
667,848;28298,928;    2,372;    1,500
668,423;28072,261;    2,190;    2,318
668,998;28637,413;    2,827;   -0,682
669,573;29200,837;   -3,264;   -1,500
670,148;29015,534;   -1,446;   -0,682
670,723;28787,504;   -1,810;    0,318
671,298;29212,111;    2,372;    1,045
671,873;29406,172;   -0,082;   -0,136
672,448;29305,323;    0,645;    0,136
673,023;29725,566;   -1,992;   -0,227
673,597;30039,354;    0,827;    2,318
674,172;29781,142;   -0,355;    0,318
674,747;29204,930;    0,372;   -1,045
675,321;29119,809;   -0,628;    3,318
675,896;28635,416;    0,645;    1,045
676,471;29671,658;    2,645;    1,591
677,045;29444,083;   -1,264;    0,682
677,620;29528,689;    0,190;    1,136
678,194;29805,750;   -2,628;    1,136
678,769;29364,447;   -1,083;   -0,318
679,343;29618,781;   -0,628;    1,773
679,917;29462,296;   -1,446;    1,955
680,492;29599,266;    0,826;    3,227
681,066;29762,236;    3,372;    0,409
681,640;29796,297;    1,463;   -0,318
682,214;30635,357;    0,735;    0,500
682,788;30135,691;   -1,356;   -0,773
683,363;30070,206;   -1,810;    1,682
683,937;29806,358;   -1,719;   -0,318
684,511;30538,055;    0,463;   -0,591
685,085;30247,662;   -1,356;    0,318
685,659;29975,995;   -2,538;    0,864
686,232;30196,329;   -0,356;   -0,318
686,806;29966,844;   -0,901;    0,409
687,380;30650,360;   -0,174;    0,591
687,954;30832,602;   -1,174;    1,136
688,528;30536,299;   -0,719;    1,955
689,101;31351,087;   -3,992;    1,045
689,675;30959,421;   -0,356;   -0,136
690,249;30331,482;   -0,719;    0,409
690,822;30619,634;    0,280;    0,318
691,396;30699,331;   -0,265;    1,227
691,969;30119,119;    1,280;    0,136
692,543;30660,089;   -0,447;   -1,955
693,116;30264,968;   -0,265;   -1,409
693,690;30104,847;    0,099;    0,500
694,263;30693,908;   -1,083;    2,955
694,836;30745,332;    1,371;    3,591
695,410;29345,393;   -0,265;    1,773
695,983;29836,727;    0,189;    0,591
696,556;29778,787;   -0,447;   -1,045
697,129;30148,939;   -0,356;    1,409
697,703;29765,818;   -1,629;    1,955
698,276;29773,515;    1,462;   -0,773
698,849;29604,485;    1,280;    1,409
699,422;29954,637;   -1,083;    0,591
699,995;29710,516;    0,007;    0,136
700,568;30197,668;   -0,629;    3,045
701,140;30230,274;   -2,811;    1,682
701,713;29893,426;   -0,174;    2,409
702,286;29697,668;   -0,538;    0,864
702,859;29641,638;   -0,902;   -0,591
703,432;28689,790;    0,825;    0,682
704,004;29225,033;    0,462;    0,318
704,577;29076,730;   -0,629;    0,136
705,150;29634,791;    0,189;    2,500
705,722;29443,670;   -0,356;   -3,227
706,295;29247,822;   -0,175;   -0,591
706,867;29089,337;   -0,175;    1,955
707,440;29298,671;   -1,720;   -0,409
708,012;29560,004;    0,462;    0,591
708,584;29453,156;    2,462;    0,227
709,157;29768,308;    1,825;   -0,591
709,729;29406,550;    2,280;    2,045
710,301;30311,702;    0,734;    0,045
710,874;30306,854;   -1,447;   -0,227
711,446;29199,915;    0,371;    0,864
712,018;29042,703;    0,098;    0,500
712,590;28787,582;   -1,993;    1,682
713,162;29300,733;    0,825;    1,318
713,734;29609,158;    1,825;   -2,045
714,306;29499,310;   -1,902;   -0,409
714,878;28121,825;    0,825;    0,864
715,450;28910,068;    0,643;    0,864
716,022;29253,219;    1,552;    1,318
716,593;29395,553;    0,189;    0,591
717,165;29287,523;   -3,175;   -1,227
717,737;28967,220;    0,280;    0,409
718,309;28671,645;    0,280;   -0,045
718,880;28646,705;   -0,539;   -1,409
719,452;28877,312;   -0,175;   -1,591
720,024;28424,918;    0,734;   -0,591
720,595;29003,161;   -2,902;    0,955
721,167;28534,040;    0,370;   -2,045
721,738;28063,646;   -0,812;   -1,045
722,309;28047,979;   -0,993;   -1,227
722,881;27809,495;   -1,357;    0,773
723,452;28443,737;   -2,630;    2,864
724,023;28626,071;   -0,721;    2,682
724,595;28393,859;    0,007;    0,682
725,166;28129,556;    0,007;   -0,409
725,737;27818,435;    1,734;    0,227
726,308;27850,769;   -0,266;    0,318
726,879;28239,102;   -1,630;    1,227
727,450;28094,709;    0,552;   -0,045
728,021;28092,588;    3,097;    0,682
728,592;27884,467;    0,734;    0,500
729,163;28255,800;    0,643;   -0,136
729,734;28271,952;    0,188;   -0,227
730,305;28578,104;    1,734;    0,136
730,876;28997,801;    0,188;    2,955
731,447;28651,953;    2,188;    2,682
732,017;28786,377;    1,097;    1,864
732,588;28265,620;    0,734;    1,227
733,159;28452,863;    0,643;   -1,045
733,729;28303,742;    0,006;    0,409
734,300;27586,166;    0,915;    0,864
734,870;28005,772;    3,461;    0,591
735,441;28592,197;    0,370;   -0,591
736,011;28299,076;    0,643;   -1,591
736,582;28290,773;   -0,812;    0,045
737,152;27779,379;   -1,721;   -2,045
737,722;28192,713;   -0,267;   -0,682
738,293;27915,956;   -1,358;    1,318
738,863;27756,925;    2,461;    2,318
739,433;27559,714;    5,279;    0,318
740,003;28198,047;   -0,994;   -0,682
740,573;27583,472;    2,097;   -1,591
741,143;27562,351;   -1,085;    0,318
741,713;28355,230;    1,188;   -0,500
742,283;28010,836;    0,915;    1,591
742,853;27810,624;    1,915;    1,591
743,423;27280,503;    1,733;    0,045
743,993;27375,291;   -0,358;    1,500
744,563;26712,261;    0,097;   -0,864
745,133;26700,231;   -0,812;   -0,864
745,702;27423,019;   -0,267;    1,773
746,272;26610,716;   -0,176;    0,591
746,842;26392,959;   -1,358;   -0,591
747,411;26823,747;   -0,267;   -0,318
747,981;27003,353;    0,097;    0,500
748,551;27068,051;    2,278;   -1,045
749,120;26872,293;    0,642;   -0,227
749,690;27221,899;   -0,631;    2,409
750,259;27598,960;    1,369;    2,955
750,828;27513,112;    1,551;   -1,955
751,398;27795,446;    1,278;   -0,045
751,967;27273,325;    2,187;    0,409
752,536;27507,567;   -0,813;   -0,227
753,105;27905,901;    0,096;    0,227
753,675;27770,780;    0,096;    1,773
754,244;27705,023;   -0,904;    3,591
754,813;27700,811;    0,551;    1,227
755,382;27313,144;    0,460;    0,955
755,951;27883,478;    1,551;    3,682
756,520;27342,175;   -0,085;    1,864
757,089;27937,509;    0,278;    0,500
757,658;28103,569;    1,733;    1,227
758,227;28076,539;    1,096;    0,318
758,795;28390,600;    1,187;    1,136
759,364;28664,934;   -0,086;   -0,591
759,933;27718,813;   -1,176;   -0,045
760,501;27184,601;    0,733;   -1,318
761,070;27669,207;   -2,813;   -1,409
761,639;28316,632;   -1,904;    1,318
762,207;27665,238;    1,551;   -0,955
762,776;27642,026;    0,369;    0,864
763,344;27568,360;   -0,995;    0,591
763,913;26703,329;   -0,722;    1,409
764,481;27442,754;    1,005;   -0,136
765,049;27200,269;   -1,358;    1,409
765,618;27156,785;   -0,086;    0,318
766,186;27235,118;    0,278;    0,136
766,754;27353,724;    0,005;    1,864
767,322;26367,876;   -1,995;    0,409
767,890;26431,028;   -0,722;   -1,773
768,459;26827,089;   -2,177;   -0,318
769,027;26931,241;    1,641;    3,409
769,595;25926,938;    3,278;    2,591
770,163;26406,271;    3,823;    2,955
770,730;26141,878;    0,732;   -0,136
771,298;25982,848;    0,187;   -1,409
771,866;26094,363;   -1,541;    4,955
772,434;26414,606;   -0,631;   -1,864
773,002;26540,485;    0,005;    0,682
773,569;26221,364;    0,914;    1,682
774,137;26013,970;   -0,268;   -0,045
774,705;26876,485;    0,278;   -0,136
775,272;26333,637;    0,641;    0,682
775,840;26110,061;   -0,177;    2,682
776,407;25641,577;    0,277;    1,955
776,975;25211,820;   -0,632;    0,318
777,542;26222,789;   -1,086;   -0,045
778,110;25997,941;   -1,268;   -0,045
778,677;25725,275;   -2,359;   -0,864
779,244;25474,426;    2,186;    1,045
779,812;25604,396;    1,823;    0,864
780,379;25420,548;    0,005;    1,136
780,946;25658,791;    1,005;   -0,773
781,513;26049,215;   -1,450;    0,318
782,080;25401,640;   -0,086;    2,864
782,647;26120,519;   -0,268;    3,045
783,214;25670,125;   -0,177;    3,864
783,781;25322,640;   -0,723;   -0,682
784,348;25227,792;   -0,632;    1,500
784,915;25692,126;   -3,177;    0,318
785,482;25448,641;    1,368;    2,591
786,049;25887,611;    0,186;   -0,591
786,615;25998,217;    0,277;   -0,955
787,182;25743,824;    0,186;   -0,682
787,749;25423,612;   -2,814;    1,409
788,315;24771,763;   -1,632;   -0,409
788,882;25060,461;    1,550;   -1,227
789,448;25725,340;    1,732;   -0,955
790,015;25764,310;    1,095;    3,227
790,581;25353,098;    1,459;    0,227
791,148;25240,613;    0,641;    1,045
791,714;25511,310;   -0,541;    3,136
792,280;25141,917;    0,186;    1,591
792,847;24641,159;    0,550;    2,500
793,413;25252,129;   -0,269;   -0,318
793,979;24756,645;    3,459;   -1,318
794,545;24813,342;    4,459;    2,682
795,111;24202,948;    2,186;    1,318
795,678;24394,463;    0,731;   -1,682
796,244;24056,797;    3,368;    0,136
796,810;24639,312;    1,731;    0,773
797,375;24323,737;    0,549;   -2,136
797,941;24374,889;   -0,541;    0,591
798,507;24540,131;   -0,451;   -0,955
799,073;24020,465;   -0,360;    0,591
799,639;24073,707;   -2,632;    3,136
800,205;24117,223;    0,095;    2,682
800,770;23685,465;    0,640;    1,773
801,336;23792,163;    1,368;   -0,955
801,901;23409,314;    4,549;    3,136
802,467;24016,466;   -0,542;    2,045
803,033;23344,800;   -0,087;    0,864
803,598;23596,861;    1,913;   -1,045
804,163;23545,740;    1,095;   -0,318
804,729;23527,437;   -0,178;    1,136
805,294;23991,225;    0,822;    2,227
805,859;23762,195;    0,731;   -0,409
806,425;23176,347;    1,186;    2,682
806,990;22860,862;    2,186;    4,318
807,555;23376,650;   -1,451;    2,591
808,120;23235,984;    0,822;   -0,409
808,685;23295,681;    0,185;   -2,500
809,250;22817,651;    0,004;   -0,500
809,815;23151,439;    1,913;    0,682
810,380;23688,045;   -0,269;    1,591
810,945;24249,106;   -1,087;    2,045
811,510;23380,894;    2,094;    1,591
812,075;23042,137;   -0,633;   -1,409
812,640;23116,198;    2,003;    1,409
813,204;23203,167;    0,822;   -0,227
813,769;23662,865;    2,094;   -0,045
814,334;23062,107;    0,458;    0,864
814,898;23125,895;    0,367;    0,591
815,463;22995,774;    1,276;   -0,773
816,027;22957,563;   -0,724;   -2,318
816,592;23004,260;    0,640;   -2,045
817,156;22551,411;    2,094;    1,136
817,721;22386,200;    4,276;    2,318
818,285;22317,260;    2,912;    1,500
818,849;22999,958;   -1,451;    1,682
819,414;22897,200;   -0,269;    2,955
819,978;22480,534;   -1,269;    1,773
820,542;23037,958;    2,003;    0,500
821,106;22747,746;   -0,815;    0,682
821,670;22835,534;   -0,815;    2,591
822,234;22583,413;   -0,270;    1,409
822,798;21927,929;    0,003;    0,500
823,362;21850,626;   -0,633;    4,227
823,926;21225,505;    0,094;    1,136
824,490;21442,384;   -0,997;   -0,682
825,054;21860,990;   -0,088;   -1,136
825,618;21465,415;   -1,542;   -1,500
826,181;21402,839;    0,458;   -1,318
826,745;21343,264;    1,367;   -1,045
827,309;21742,597;    1,185;    1,318
827,872;21113,840;    1,367;    0,955
828,436;22089,628;    1,185;   -0,773
828,999;22143,144;   -0,997;    1,227
829,563;20940,932;   -0,179;    1,136
830,126;20739,629;   -0,179;   -0,591
830,690;20744,690;   -1,997;    2,864
831,253;20250,932;   -0,543;    2,227
831,816;20378,448;   -1,906;    0,500
832,380;20345,509;    0,185;    0,864
832,943;20537,206;   -1,361;   -0,500
833,506;20018,994;    2,639;   -1,227
834,069;20837,418;    3,912;   -0,955
834,632;20898,115;    1,730;    1,318
835,195;20754,267;    1,003;    0,955
835,758;19964,964;   -0,997;    1,955
836,321;19876,662;    0,730;   -1,045
836,884;19915,995;   -0,725;   -0,955
837,447;19913,511;   -2,816;    1,773
838,010;20181,935;    0,366;    3,227
838,573;20503,178;   -1,179;    0,773
839,135;20460,875;   -1,361;   -0,955
839,698;19907,845;    1,275;    0,409
840,261;19450,542;    1,003;   -0,227
840,823;19243,239;   -0,543;    0,864
841,386;19558,573;   -0,452;   -2,409
841,948;19405,452;   -1,361;    1,773
842,511;19213,240;    0,912;    1,682
843,073;19370,755;    1,912;    0,227
843,636;19116,816;   -0,361;   -0,227
844,198;19005,877;    0,911;    0,591
844,760;19129,029;    1,093;    1,955
845,322;18796,180;    0,548;    1,136
845,885;19199,514;    0,730;    0,591
846,447;19672,848;   -1,998;    0,227
847,009;19245,272;    1,911;   -0,682
847,571;19547,515;    0,820;   -2,045
848,133;19637,757;   -1,089;   -1,864
848,695;19493,000;   -0,543;    1,409
849,257;19072,152;   -1,089;   -1,682
849,819;19182,667;   -0,998;   -0,409
850,381;19255,819;   -0,725;   -0,864
850,942;19656,516;    1,093;   -0,591
851,504;19596,668;    1,184;    0,227
852,066;19627,729;    1,275;   -1,591
852,628;19147,608;   -0,180;    1,955
853,189;18692,396;    1,638;    2,682
853,751;18788,184;   -0,907;    1,409
854,312;18629,790;   -0,453;   -1,682
854,874;19143,124;   -2,089;   -0,773
855,435;19666,912;   -0,907;   -1,682
855,997;19846,791;   -1,816;   -0,136
856,558;19124,943;    0,366;    1,773
857,119;19208,276;    0,820;    2,864
857,681;18912,610;    0,002;    0,318
858,242;18945,671;    1,911;   -2,136
858,803;19395,822;    0,456;   -0,773
859,364;19963,429;    0,184;   -4,773
859,925;19313,035;   -2,453;   -0,955
860,486;19197,550;   -0,453;   -0,955
861,047;18912,247;   -0,544;   -1,227
861,608;18684,217;   -1,089;   -0,773
862,169;18824,824;    0,638;   -0,045
862,730;18623,975;    0,456;    1,409
863,291;18861,400;   -0,635;   -0,500
863,852;19237,370;   -0,635;    1,955
864,412;18703,431;   -0,271;   -0,864
864,973;17250,491;   -0,089;    0,500
865,534;17111,643;   -1,726;    0,227
866,094;18655,159;    1,820;    0,227
866,655;18253,128;    1,274;    3,318
867,215;18543,462;    0,274;    0,136
867,776;18412,886;    0,547;   -0,136
868,336;18532,766;   -1,453;    0,136
868,897;17940,281;    2,638;    1,682
869,457;17662,614;    1,365;    0,318
870,017;17903,312;    0,547;   -1,227
870,578;18457,736;   -0,817;    0,773
871,138;18172,342;   -2,089;   -0,955
871,698;17704,858;   -0,817;   -1,318
872,258;17529,919;   -0,453;   -2,864
872,818;17936,707;    2,729;    0,045
873,378;17873,677;    0,638;    1,045
873,938;17424,828;    0,547;    0,500
874,498;17802,435;    0,274;   -1,955
875,058;17659,223;    2,183;    1,773
875,618;17515,556;    1,910;   -2,682
876,177;17451,254;    1,274;    0,136
876,737;17024,042;   -0,090;    1,955
877,297;17023,830;    0,183;    1,955
877,856;17041,345;   -0,362;    0,318
878,416;16990,497;    1,183;   -0,136
878,976;17231,649;   -1,817;    0,409
879,535;17379,528;    0,092;    3,136
880,095;17148,043;   -0,544;    0,045
880,654;17272,922;   -1,090;    1,318
881,213;17332,983;    2,456;    1,500
881,773;16978,407;    2,637;    2,682
882,332;17319,923;    3,365;    5,136
882,891;17194,893;    3,092;    2,136
883,451;17688,317;   -1,272;    1,682
884,010;17110,287;   -2,908;   -0,409
884,569;17177,621;   -0,999;   -0,045
885,128;17328,136;    2,819;   -1,864
885,687;17415,288;    4,455;    0,682
886,246;17083,076;    1,455;    2,136
886,805;16878,228;    2,455;    2,045
887,364;17203,379;   -0,999;   -0,500
887,922;17554,713;   -1,181;    0,045
888,481;16982,137;   -1,545;    0,591
889,040;17326,016;    1,183;    2,136
889,599;18053,077;    2,455;    1,409
890,157;18084,138;    1,455;    2,409
890,716;17754,835;   -0,090;    0,227
891,274;17601,987;    0,092;   -1,136
891,833;18024,139;    1,546;    0,864
892,391;17867,836;   -0,454;    0,500
892,950;17956,624;    1,819;   -0,773
893,508;18350,503;    0,455;   -0,409
894,067;17698,200;    0,637;    0,136
894,625;17589,988;   -0,636;   -1,500
895,183;17804,595;   -0,363;   -0,682
895,741;17690,928;    1,728;   -1,773
896,299;17571,898;   -0,545;   -2,409
896,858;17729,141;    0,819;   -1,591
897,416;17865,474;    2,728;   -1,318
897,974;17589,262;    1,819;    0,318
898,532;17730,960;    6,091;    2,682
899,089;17593,566;    2,091;   -0,682
899,647;17672,899;   -1,454;    1,318
900,205;17433,778;    1,182;    1,045
900,763;17598,839;   -0,454;    0,227
901,321;17622,718;    2,364;   -1,409
901,878;17029,234;   -1,000;   -0,773
902,436;16904,022;   -1,363;    1,318
902,994;17289,355;    4,728;    3,682
903,551;16718,871;    0,728;    0,409
904,109;17117,295;    0,182;   -1,409
904,666;16684,629;    2,455;    1,045
905,224;16557,417;    0,182;   -0,409
905,781;16265,750;    0,727;   -0,318
906,338;16384,084;   -1,363;    1,045
906,895;16265,963;    0,637;    2,045
907,453;16195,297;    1,727;    1,136
908,010;16272,903;   -0,909;    0,409
908,567;15895,782;    1,273;    0,591
909,124;15402,025;    0,364;   -1,500
909,681;15450,540;   -2,909;    0,682
910,238;15599,146;    0,636;   -1,318
910,795;15938,753;   -0,273;   -1,136
911,352;15523,298;   -2,909;   -2,682
911,909;14936,662;   -1,364;   -0,864
912,466;15419,207;   -3,182;    1,500
913,022;15008,480;   -1,636;    0,500
913,579;15355,116;   -0,909;    2,045
914,136;15029,662;    1,636;    0,955
914,692;15402,571;    0,091;   -1,227
915,249;15008,116;    1,455;    0,409
915,806;15241,389;    0,182;    1,955
916,362;14925,207;    1,909;    1,864
916,918;14491,389;    2,000;    1,045
917,475;14426,025;   -1,182;    0,955
918,031;14540,389;    3,364;   -0,045
918,587;13969,298;   -0,909;   -0,318
919,144;14197,480;   -2,273;    0,227
919,700;14551,934;    1,727;    0,773
920,256;14121,843;    0,727;    0,045
920,812;13734,571;   -0,727;   -1,045
921,368;13704,207;   -1,727;   -1,045
921,924;13355,298;    0,182;   -0,136
922,480;12905,207;   -0,545;    1,227
923,036;13495,207;    1,273;    1,955
923,592;13446,116;    0,455;    0,318
924,148;13359,934;    0,455;   -0,955
924,704;12706,662;   -1,364;   -0,409
925,259;12998,116;   -0,273;    0,591
925,815;12700,571;    1,455;    0,500
926,371;12227,389;    2,909;    1,409
926,926;12105,025;    2,091;    0,591
927,482;11741,116;   -1,364;    0,773
928,037;11602,298;    0,909;    2,045
928,593;11843,843;    1,636;    1,045
929,148;11667,934;   -1,818;   -1,500
929,704;11163,207;   -1,455;   -0,500
930,259;11390,116;    0,091;   -0,136
930,814;10488,662;   -0,818;    1,955
931,369;10160,116;    1,091;   -0,773
931,925;10028,025;   -0,091;    0,136
932,480; 9898,298;   -2,818;   -2,591
933,035; 9743,934;    0,545;   -0,318
933,590; 9517,025;    0,364;   -1,773
934,145; 9189,934;   -1,364;   -0,318
934,700; 9540,298;    0,455;   -0,591
935,255; 9312,662;   -0,091;    0,045
935,809; 8543,116;    3,182;    0,864
936,364; 7698,934;   -0,455;   -0,136
936,919; 7667,662;    0,455;   -1,773
937,474; 7521,753;    1,455;    0,136
938,028; 7293,389;   -1,636;    1,136
938,583; 6742,753;    1,818;    4,682
939,138; 7041,480;    2,091;    2,136
939,692; 6467,480;    1,636;   -1,136
940,247; 6162,480;   -0,727;   -1,045
940,801; 5695,389;   -0,636;    0,227
941,355; 5613,662;   -0,364;    2,591
941,910; 5249,662;   -0,273;   -2,136
942,464; 5352,934;   -0,818;   -0,318
943,018; 5126,116;    1,000;   -0,227
943,572; 5072,389;    2,545;   -0,682
944,126; 4472,480;    0,091;   -0,409
944,681; 4364,571;    3,091;    0,227
945,235; 4335,389;    1,000;   -0,591
945,789; 4290,662;    0,364;   -1,864
946,342; 4361,389;    0,455;   -0,591
946,896; 4192,843;   -2,273;    0,955
947,450; 3955,025;    1,545;   -0,227
948,004; 4126,025;    1,727;   -0,045
948,558; 4144,662;    0,273;   -0,864
949,111; 4044,389;   -0,273;   -0,318
949,665; 4074,571;    1,636;   -0,682
950,219; 3947,389;   -0,091;   -1,045
950,772; 4022,934;   -1,909;    1,864
951,326; 3920,843;    0,545;   -0,955
951,879; 4054,298;    0,727;   -2,318
952,433; 4063,571;    0,000;    2,227
952,986; 3884,389;    2,909;    0,682
953,539; 3858,116;   -0,273;    0,591
954,093; 3772,934;    0,545;   -1,318
954,646; 3905,025;    0,909;    1,318
955,199; 3729,480;    0,000;   -0,500
955,752; 3585,207;   -0,455;    1,773
956,305; 3549,843;   -0,091;    2,955
956,858; 3722,025;    0,818;   -0,318
957,411; 3899,480;   -0,545;    2,136
957,964; 3743,207;    1,364;    2,136
958,517; 3725,389;   -1,545;    3,136
959,070; 3541,843;   -0,455;    1,955
959,623; 3592,843;    1,091;    1,500
960,176; 3382,207;    1,727;    2,045
960,728; 3368,207;   -2,727;    0,773
961,281; 3422,753;    0,545;    0,500
961,834; 3473,843;   -0,909;    0,864
962,386; 3397,025;    1,727;    1,045
962,939; 3319,662;    0,364;   -0,318
963,491; 3449,662;    0,455;    1,136
964,043; 3340,298;    1,182;    2,409
964,596; 3450,934;   -1,000;    2,227
965,148; 3286,843;   -1,000;    1,773
965,700; 3209,934;    1,091;   -0,227
966,253; 3340,207;   -0,636;    0,318
966,805; 3177,753;   -2,273;    0,773
967,357; 3235,298;    1,091;   -1,500
967,909; 3192,934;    0,455;   -1,227
968,461; 3307,389;    0,545;    3,136
969,013; 3243,207;   -0,182;   -0,864
969,565; 3321,753;   -0,455;   -1,136
970,117; 3361,571;   -0,364;    1,045
970,669; 3208,662;    0,182;   -0,136
971,220; 3088,662;   -0,455;   -1,500
971,772; 3006,753;   -0,636;   -0,318
972,324; 3102,753;    0,091;   -0,500
972,876; 3074,571;    0,818;   -0,045
973,427; 3221,298;    1,909;   -1,045
973,979; 3173,298;   -0,727;   -2,500
974,530; 3236,298;    1,818;    1,318
975,082; 3241,207;   -0,545;    1,682
975,633; 3121,843;    1,091;    1,682
976,184; 3259,298;    0,909;    0,773
976,736; 3040,753;    0,091;    0,227
977,287; 2857,571;   -0,909;   -0,500
977,838; 3027,207;    0,909;   -0,318
978,389; 3080,934;   -1,000;   -0,500
978,940; 2966,934;    0,545;   -0,409
979,491; 3012,843;    0,091;   -0,500
980,042; 2957,843;    0,182;    3,045
980,593; 3011,025;   -2,545;    0,227
981,144; 3052,389;    2,545;   -0,500
981,695; 3012,571;    1,455;    1,500
982,246; 2974,480;   -0,273;    1,045
982,797; 3144,207;   -1,727;    0,682
983,347; 3225,753;    0,364;    0,591
983,898; 3383,298;    3,091;    0,409
984,449; 3228,298;    2,182;    0,773
984,999; 3159,116;    1,455;   -1,136
985,550; 2936,116;    0,182;   -0,318
986,100; 2974,389;   -0,455;   -0,318
986,651; 3015,480;   -0,818;    0,045
987,201; 2979,934;   -1,000;   -0,591
987,751; 3052,934;    0,818;    2,864
988,302; 3048,480;    2,636;    1,500
988,852; 3061,298;    0,455;   -1,136
989,402; 3073,025;    0,091;    0,682
989,952; 2999,207;   -2,182;    0,864
990,502; 3132,934;   -0,091;    0,682
991,052; 3106,662;   -0,727;    0,045
991,602; 2971,025;   -2,909;    1,318
992,152; 2952,389;    0,455;    0,682
992,702; 2945,298;    1,364;   -0,045
993,252; 2860,389;   -3,000;   -0,500
993,802; 2933,207;   -0,273;    1,318
994,352; 3177,934;   -1,545;    1,136
994,901; 3275,843;   -0,182;    3,227
995,451; 3184,116;   -0,182;    0,318
996,000; 3283,843;    1,636;    0,318
996,550; 2994,571;    2,273;    0,227
997,100; 2992,207;    1,273;   -0,045
997,649; 3279,662;    2,182;    0,955
998,198; 2924,662;    1,727;   -1,500
998,748; 3080,571;    1,091;   -2,318
999,297; 3025,116;   -0,818;   -0,409
999,846; 3068,116;    1,000;   -0,773
1000,395; 3127,934;   -0,818;    0,500
1000,945; 3062,116;    1,818;   -0,773
1001,494; 3163,843;    2,364;    0,682
1002,043; 3163,480;    4,636;    0,864
1002,592; 3010,571;   -1,091;    1,955
1003,141; 3163,207;   -0,455;   -0,682
1003,690; 2991,389;    1,727;    0,500
1004,238; 3082,389;    1,455;   -0,045
1004,787; 2723,207;    1,364;    1,227
1005,336; 2929,662;    0,364;    0,682
1005,885; 3102,571;    1,364;   -2,773
1006,433; 3260,025;    0,545;    0,955
1006,982; 3293,207;    0,455;    1,682
1007,531; 3208,025;   -1,818;   -0,227
1008,079; 3165,662;   -2,273;    0,500
1008,627; 3312,389;   -1,455;    0,409
1009,176; 3033,662;    0,000;   -1,955
1009,724; 3090,207;    1,091;    0,864
1010,273; 3134,025;    1,273;    0,500
1010,821; 3252,207;    0,091;    1,409
1011,369; 2987,662;   -1,364;    1,318
1011,917; 2973,298;   -1,364;   -0,591
1012,465; 3262,662;    1,273;   -1,591
1013,013; 3373,116;    2,091;   -1,682
1013,561; 3248,843;    0,455;   -0,773
1014,109; 3292,934;   -1,909;    1,682
1014,657; 3161,662;    0,364;    0,591
1015,205; 3294,389;    1,636;   -0,955
1015,753; 3347,571;   -0,545;   -1,409
1016,301; 3376,571;   -2,636;    3,045
1016,848; 3376,025;   -1,273;    0,409
1017,396; 3422,843;    2,545;    0,045
1017,944; 3528,116;    1,182;    1,864
1018,491; 3278,298;    0,273;    1,409
1019,039; 3418,934;    0,455;    0,591
1019,586; 3374,480;   -1,364;    1,682
1020,134; 3466,934;    0,455;    1,500
1020,681; 3498,571;    0,182;   -1,136
1021,228; 3533,662;    2,909;   -2,227
1021,776; 3343,298;    1,182;   -1,136
1022,323; 3560,298;    0,455;    0,773
1022,870; 3494,116;   -1,000;   -0,045
1023,417; 3375,298;    2,636;    1,864
1023,964; 3555,571;    2,636;    1,227
1024,511; 3371,662;    1,000;    0,773
1025,058; 3181,480;    3,182;   -0,045
1025,605; 3241,116;   -2,273;    3,136
1026,152; 3438,934;    1,727;   -0,591
1026,699; 3163,934;    1,818;    1,318
1027,245; 3350,934;   -0,091;    0,318
1027,792; 3576,571;   -1,000;    1,409
1028,339; 3419,116;    2,364;   -0,045
1028,885; 3304,753;    1,000;   -0,227
1029,432; 3239,116;   -0,091;    0,227
1029,978; 3281,389;   -1,000;   -1,591
1030,525; 3189,298;    1,000;    0,409
1031,071; 3459,662;   -1,364;    1,136
1031,618; 3539,025;    0,364;    1,682
1032,164; 3333,843;   -0,091;    3,045
1032,710; 3345,116;    1,636;   -1,500
1033,256; 3282,843;   -0,636;   -0,136
1033,803; 3305,753;   -0,545;    1,500
1034,349; 3013,843;   -1,364;    0,136
1034,895; 3178,298;    0,000;   -0,318
1035,441; 3142,298;   -0,818;    0,318
1035,987; 3125,934;   -2,364;   -0,682
1036,533; 3128,843;   -1,455;   -0,955
1037,078; 3312,753;    1,455;    1,682
1037,624; 3147,389;    2,455;   -0,955
1038,170; 3204,934;    0,455;   -0,318
1038,716; 3077,843;    1,636;   -0,409
1039,261; 3016,480;   -2,273;   -0,773
1039,807; 2955,389;   -0,091;    3,409
1040,352; 2995,116;   -1,909;   -0,318
1040,898; 3047,207;   -1,545;   -0,682
1041,443; 2964,934;   -1,455;   -2,591
1041,989; 2941,298;    1,091;    1,591
1042,534; 2840,298;   -0,364;    2,591
1043,079; 2974,662;    2,909;    0,955
1043,625; 2762,843;    1,818;    0,500
1044,170; 2800,843;   -1,364;    1,045
1044,715; 3047,753;    2,455;    0,955
1045,260; 2863,207;    2,182;   -0,955
1045,805; 2938,207;    1,182;   -0,591
1046,350; 2867,116;    1,364;   -0,409
1046,895; 2806,662;    2,909;    1,591
1047,440; 2751,571;    5,364;    0,409
1047,985; 2672,480;    2,818;   -0,955
1048,530; 2600,662;    1,545;    1,227
1049,074; 2637,025;    0,000;    0,318
1049,619; 2635,389;   -1,364;    1,955
1050,164; 2436,298;    0,455;    0,227
1050,708; 2454,207;   -0,455;    0,045
1051,253; 2807,662;    1,273;   -2,227
1051,797; 2523,480;    0,818;   -1,318
1052,342; 2571,389;   -1,182;    1,045
1052,886; 2532,843;    0,364;   -1,409
1053,430; 2424,843;   -1,364;    0,136
1053,975; 2434,843;   -0,818;   -0,318
1054,519; 2413,571;   -0,727;    3,227
1055,063; 2426,207;    0,909;    1,318
1055,607; 2293,207;   -0,182;    0,227
1056,151; 2328,116;    2,909;    1,682
1056,695; 2254,571;    2,273;   -1,136
1057,239; 2316,753;   -1,727;   -0,682
1057,783; 2329,480;    0,818;   -1,500
1058,327; 2255,025;    0,000;    1,409
1058,871; 2491,480;   -0,545;    1,318
1059,415; 2203,753;   -0,818;   -0,045
1059,958; 2436,662;    1,455;    2,591
1060,502; 2165,843;   -1,000;   -0,773
1061,046; 2099,025;    0,364;   -0,955
1061,589; 2094,207;   -3,000;   -1,136
1062,133; 1963,571;   -1,273;    1,864
1062,676; 1896,480;    1,182;    0,864
1063,220; 1879,298;    1,091;    0,500
1063,763; 1907,298;    0,909;    1,136
1064,306; 1984,389;   -0,909;    1,864
1064,849; 1861,298;   -0,909;    0,591
1065,393; 1871,934;    2,000;   -1,500
1065,936; 1987,480;    0,182;   -0,409
1066,479; 1895,207;   -1,455;    1,318
1067,022; 1900,207;   -0,273;   -0,227
1067,565; 1791,389;   -0,091;   -1,318
1068,108; 1829,025;    0,727;   -0,591
1068,651; 1813,389;   -0,636;    1,409
1069,194; 1743,480;   -0,455;   -1,682
1069,736; 1733,843;   -1,273;    0,955
1070,279; 1714,116;   -1,364;   -0,500
1070,822; 1739,571;   -2,000;   -0,318
1071,364; 1815,934;   -0,364;    1,318
1071,907; 1653,480;   -0,727;    3,227
1072,450; 1565,843;    0,000;   -0,045
1072,992; 1548,843;   -0,273;    3,136
1073,535; 1681,207;    2,091;    2,136
1074,077; 1478,116;   -0,727;    2,045
1074,619; 1449,662;   -1,364;    0,591
1075,161; 1474,662;   -1,091;    1,500
1075,704; 1652,025;    1,545;    1,227
1076,246; 1462,389;   -0,182;    0,682
1076,788; 1400,662;   -0,364;    1,773
1077,330; 1465,116;    1,273;    2,136
1077,872; 1422,480;    0,909;    0,955
1078,414; 1636,753;    2,727;    0,773
1078,956; 1383,207;    1,273;   -0,227
1079,498; 1630,480;    1,636;    0,318
1080,040; 1335,934;    1,909;   -1,318
1080,581; 1282,480;    1,636;   -0,318
1081,123; 1206,025;    0,091;   -0,773
1081,665; 1278,116;   -1,182;   -0,955
1082,206; 1551,480;    1,364;   -0,500
1082,748; 1410,298;    0,727;    2,045
1083,289; 1287,662;   -2,000;    1,318
1083,831; 1200,025;   -0,545;    0,227
1084,372; 1224,207;    0,000;    0,591
1084,913; 1225,843;    1,091;    0,864
1085,455; 1204,662;   -1,909;   -2,045
1085,996; 1169,662;   -2,273;    0,136
1086,537; 1186,753;   -0,091;    0,864
1087,078; 1218,934;   -0,909;   -2,136
1087,619; 1257,934;   -1,273;    0,227
1088,160; 1179,843;    0,000;    1,318
1088,701; 1157,480;   -1,091;    0,682
1089,242; 1105,480;    1,364;   -2,227
1089,783; 1198,480;   -0,273;    1,409
1090,324; 1170,662;    0,455;    0,682
1090,865; 1049,025;    2,727;   -0,409
1091,405; 1019,934;    0,727;    2,227
1091,946; 1047,843;    0,182;   -0,955
1092,487;  964,753;    0,818;   -1,409
1093,027; 1130,207;   -1,364;   -1,500
1093,568;  980,934;   -0,364;    1,227
1094,108; 1062,662;    0,273;    1,773
1094,649; 1007,753;   -1,182;    0,136
1095,189;  950,298;   -0,636;   -0,682
1095,729;  908,753;   -0,091;    0,955
1096,269;  917,298;    0,727;   -0,955
1096,810; 1227,298;   -1,364;    0,500
1097,350; 1040,571;    1,364;   -0,773
1097,890;  945,480;    0,364;    1,227
1098,430; 1191,116;    2,364;    2,864
1098,970; 1067,298;    2,182;    1,682
1099,510;  942,843;    0,545;   -2,318
1100,050;  857,843;    1,000;   -1,591
1100,589;  822,934;   -0,727;   -0,318
1101,129;  951,934;    0,818;   -0,955
1101,669; 1097,662;    1,727;    2,136
1102,209;  918,662;   -0,091;    2,227
1102,748;  866,571;    0,000;    0,955
1103,288;  860,571;    1,273;   -1,227
1103,827;  888,753;    3,091;   -2,227
1104,367;  764,389;   -0,091;   -2,409
1104,906;  734,298;    1,364;   -1,136
1105,445;  805,571;    0,636;   -1,136
1105,985;  738,753;   -0,727;    1,500
1106,524;  785,480;   -1,727;   -0,682
1107,063;  764,116;   -2,727;    1,409
1107,602;  755,116;   -1,909;   -1,500
1108,141;  672,207;   -1,909;    1,500
1108,680;  758,025;   -3,455;   -0,591
1109,219;  698,207;   -0,909;   -0,500
1109,758;  711,025;    0,455;    0,682
1110,297;  674,116;    1,000;   -0,682
1110,836;  626,843;   -0,727;    0,955
1111,375;  789,843;   -2,545;    0,409
1111,913;  804,662;   -1,000;    0,773
1112,452;  739,025;   -0,273;    0,136
1112,991;  619,753;    1,091;    1,955
1113,529;  570,298;   -0,818;   -0,045
1114,068;  642,480;   -0,273;    2,955
1114,606;  547,753;   -0,364;   -0,955
1115,144;  719,571;   -1,273;    1,045
1115,683;  641,934;   -0,727;    0,318
1116,221;  692,480;   -0,455;   -0,864
1116,759;  592,389;    0,636;   -0,864
1117,297;  787,025;    0,000;    1,864
1117,836;  593,389;   -2,182;   -1,227
1118,374;  604,207;    0,182;   -0,682
1118,912;  549,116;    0,909;    2,682
1119,450;  544,025;    1,000;    0,864
1119,988;  601,298;    1,545;    2,136
1120,525; 1044,753;    5,091;    3,318
1121,063;  742,116;    1,182;    1,864
1121,601;  547,662;   -0,909;   -1,227
1122,139;  511,753;   -0,727;   -2,045
1122,676;  701,662;   -0,727;    2,773
1123,214;  637,480;   -1,182;    4,409
1123,751;  443,116;    1,727;    2,227
1124,289;  574,662;   -0,091;   -0,409
1124,826;  439,480;    1,727;    0,227
1125,364;  375,116;    1,727;   -0,955
1125,901;  552,934;    1,182;    1,227
1126,438;  677,025;    0,818;    0,955
1126,975;  392,116;   -0,727;   -0,773
1127,513;  466,843;    0,273;    2,136
1128,050;  375,934;    1,636;   -0,682
1128,587;  475,207;    2,000;   -0,227
1129,124;  517,207;    0,091;    1,318
1129,661;  382,843;    0,273;    0,227
1130,198;  541,843;    1,636;    0,773
1130,734;  483,934;    0,182;    1,409
1131,271;  353,934;   -0,909;    0,864
1131,808;  523,207;    2,909;    3,045
1132,345;  389,480;    1,545;    0,318
1132,881;  266,480;   -1,545;   -1,864
1133,418;  400,753;    0,727;   -1,136
1133,954;  336,571;    2,455;   -2,682
1134,491;  405,934;    1,364;   -0,773
1135,027;  299,207;    2,364;    0,864
1135,564;  387,116;    0,273;    2,955
1136,100;  378,662;    0,364;    2,136
1136,636;  272,480;   -1,273;   -1,045
1137,172;  366,025;    0,000;   -1,045
1137,708;  285,298;   -1,364;   -1,045
1138,245;  292,298;    1,273;   -1,227
1138,781;  243,843;    1,091;   -3,318
1139,317;  311,116;    1,273;   -1,409
1139,852;  297,571;    3,091;    0,136
1140,388;  415,662;   -1,182;   -0,409
1140,924;  299,934;   -1,091;   -2,227
1141,460;  234,389;   -1,636;    0,136
1141,996;  167,207;   -1,364;    2,682
1142,531;  219,934;    1,364;    3,318
1143,067;  436,753;    1,182;    1,045
1143,602;  483,389;   -0,091;   -0,318
1144,138;  332,298;   -2,636;    1,045
1144,673;  205,934;   -1,455;    1,409
1145,209;  270,753;   -1,909;   -0,318
1145,744;  191,753;   -0,727;    0,864
1146,279;  325,753;    1,818;   -0,136
1146,815;  245,389;    1,545;   -2,682
1147,350;  283,480;   -1,364;    0,045
1147,885;  193,753;   -0,818;   -1,318
1148,420;  184,298;   -2,273;    0,773
1148,955;  171,571;   -1,727;    1,864
1149,490;  203,389;   -0,909;   -1,591
1150,025;  185,843;    0,455;   -1,773
1150,560;  298,298;    1,091;   -0,955
1151,094;  258,480;    1,455;   -0,591
1151,629;  262,843;    1,636;    0,864
1152,164;  187,571;    1,364;    1,318
1152,698;  147,298;   -0,182;   -0,136
1153,233;  108,207;    0,091;   -0,682
1153,767;  156,571;   -3,000;   -2,318
1154,302;  204,934;   -1,455;    1,773
1154,836;  207,934;   -0,455;   -2,136
1155,371;  263,753;   -1,364;    3,682
1155,905;  210,934;   -0,636;    1,682
1156,439;  175,843;   -0,636;   -0,500
1156,973;  213,480;    0,364;    0,318
1157,507;  146,025;   -0,364;    0,682
1158,042;  181,753;   -0,727;    1,045
1158,576;  227,116;    0,182;    1,773
1159,110;  207,298;   -0,818;    2,409
1159,643;  183,843;    0,636;   -0,045
1160,177;  120,571;   -1,545;    1,500

