
Integration time [ms]:   0,040
Averaging Nr. [scans]: 11
Smoothing Nr. [pixels]: 0
Data measured with spectrometer [name]: 7318044SP
Wave   ;Sample   ;Dark     ;Reference
[nm]   ;[counts] ;[counts] ;[counts] 

186,757;   29,841;   31,551;    1,318
187,357;   57,487;   22,551;    0,955
187,958;   29,187;   15,460;   -1,591
188,558;   67,476;    8,915;   -1,227
189,159;   36,035;    6,733;   -4,500
189,759;   15,368;    7,278;   -3,591
190,360;   15,668;    2,824;   -2,136
190,960;   35,451;    2,915;   -4,136
191,560;   52,770;    3,189;   -6,591
192,161;  274,099;    4,372;   -3,500
192,761;  130,224;    4,010;   -3,227
193,361;   85,695;    1,556;   -3,773
193,962;  119,992;    2,010;   -2,682
194,562;   47,400;    1,189;   -3,955
195,162;   79,407;   -2,448;   -2,227
195,762;  221,301;   -3,176;   -0,045
196,362;  177,946;    1,370;   -2,500
196,963;   61,081;    2,006;   -0,864
197,563;  120,204;    1,551;   -0,955
198,163;   67,716;    0,096;   -0,682
198,763;   85,643;    1,733;   -0,500
199,363;  177,614;    3,096;   -0,500
199,963;  143,275;    0,369;    0,409
200,563;  113,498;    2,823;   -1,409
201,163;   91,631;    3,277;   -0,227
201,763;  173,173;    3,732;    0,318
202,363;  112,422;    1,459;    1,500
202,963;  211,314;    1,459;    1,045
203,563;  300,336;    0,277;    0,500
204,162;  168,430;    2,096;   -1,864
204,762;  168,917;    0,550;    0,591
205,362;  135,146;    3,004;    1,955
205,962;  223,449;    3,096;    1,955
206,562;  219,716;    1,823;    2,318
207,161;  186,077;   -0,087;    0,318
207,761;  336,928;    1,277;    2,409
208,361;  220,613;   -0,268;    1,409
208,960;  301,955;    0,459;    1,500
209,560;  359,011;    1,277;    1,591
210,160;  346,454;    0,550;    1,864
210,759;  306,568;    4,186;    1,227
211,359;  309,931;    1,459;    1,045
211,958;  548,457;    1,277;    2,045
212,558;  620,725;    1,732;    1,864
213,157;  470,553;    1,822;    1,500
213,757;  865,118;    3,822;   -0,227
214,356;  594,227;    1,277;   -0,409
214,956;  895,083;    3,095;    0,409
215,555;  552,849;    2,095;    2,136
216,154;  504,607;   -2,723;   -0,591
216,754;  497,332;    0,277;    0,773
217,353;  611,195;   -0,268;   -1,045
217,952;  469,834;   -0,178;    0,318
218,552;  696,199;    1,368;   -0,773
219,151;  590,784;    0,277;    0,955
219,750;  582,769;    0,004;   -0,227
220,349;  650,808;   -0,451;    1,045
220,948;  751,728;   -1,360;    1,136
221,548;  706,558;    0,913;    1,227
222,147;  803,675;   -0,087;   -0,409
222,746; 1073,271;   -0,451;   -0,955
223,345;  939,548;    0,731;    0,500
223,944;  925,775;   -0,451;    0,773
224,543; 1033,947;    1,004;   -1,409
225,142; 1165,442;    0,094;    0,136
225,741; 1049,932;   -0,814;    1,045
226,340; 1044,057;   -0,451;   -0,955
226,939; 1407,310;   -0,996;   -0,136
227,538; 1263,506;   -0,360;   -0,773
228,137; 1438,546;   -0,814;    0,864
228,735; 1458,545;   -0,541;    1,227
229,334; 1233,998;   -0,905;   -0,227
229,933; 1596,334;    0,459;    0,591
230,532; 1682,961;    1,186;   -0,409
231,131; 1752,167;    1,732;    0,318
231,729; 1728,694;   -2,450;   -2,318
232,328; 1716,024;   -0,723;   -1,500
232,927; 1726,859;    1,004;   -0,500
233,525; 1779,558;    3,640;    0,045
234,124; 1948,749;    2,368;   -1,591
234,723; 1918,482;    0,913;   -1,045
235,321; 2007,373;    2,277;    0,136
235,920; 2137,422;    1,186;   -1,227
236,518; 2397,858;    3,459;    0,318
237,117; 2436,982;    0,004;   -0,227
237,715; 2554,969;    0,640;   -0,500
238,314; 2617,691;   -0,087;   -2,318
238,912; 2772,630;   -0,723;   -1,409
239,510; 2750,718;    0,459;   -1,227
240,109; 2944,702;    0,004;    3,773
240,707; 2948,221;   -0,996;    1,227
241,305; 3176,257;    0,550;    0,136
241,904; 3391,893;   -0,178;   -2,045
242,502; 3431,804;   -0,632;   -0,227
243,100; 3383,967;   -0,087;   -0,955
243,698; 3593,590;    0,732;    1,682
244,297; 3746,545;   -0,632;    0,682
244,895; 3697,280;   -0,269;   -2,318
245,493; 3994,167;    2,186;   -0,591
246,091; 4017,587;    1,368;   -1,318
246,689; 4018,496;    1,004;    0,591
247,287; 4170,919;    0,822;   -1,136
247,885; 4444,571;   -1,451;    1,227
248,483; 4527,797;    1,822;   -0,500
249,081; 4654,191;    0,185;    1,591
249,679; 4807,309;   -0,178;    1,682
250,277; 5058,293;   -1,723;    0,864
250,875; 5046,331;   -1,087;   -1,045
251,473; 5073,559;   -1,178;    0,500
252,071; 5260,888;    1,459;    1,045
252,669; 5430,230;   -1,814;    0,318
253,267; 5626,347;   -0,087;    0,773
253,864; 5581,646;   -0,360;    0,682
254,462; 5540,296;    1,640;    1,591
255,060; 5488,019;   -0,269;    1,318
255,658; 5782,139;    0,822;   -0,136
256,255; 6157,282;    0,186;   -2,045
256,853; 6058,480;   -0,269;    1,409
257,451; 6045,710;    0,822;    1,864
258,048; 6357,343;    1,822;    1,864
258,646; 6133,659;    1,731;   -1,045
259,243; 6281,025;   -0,087;    2,227
259,841; 6339,927;   -0,814;    0,318
260,438; 6251,359;   -0,087;    0,864
261,036; 6875,121;   -1,905;    1,409
261,633; 6805,141;   -0,087;    2,227
262,231; 6610,895;    2,731;   -0,045
262,828; 6669,934;   -0,905;    1,136
263,425; 6697,887;    0,913;   -0,591
264,023; 6980,928;    0,186;    0,045
264,620; 6566,748;   -0,360;   -0,318
265,217; 6876,413;   -2,087;    3,136
265,815; 6985,462;   -1,905;    2,136
266,412; 6834,323;    0,731;    0,136
267,009; 6872,164;   -1,451;    0,773
267,606; 6818,840;    0,822;   -0,955
268,203; 6767,973;   -0,269;   -0,591
268,801; 7012,442;    1,731;    0,591
269,398; 7256,876;   -0,360;    2,500
269,995; 7243,661;    0,277;    1,591
270,592; 7028,211;   -0,632;   -0,500
271,189; 7205,816;    0,186;    0,409
271,786; 7344,464;   -0,632;    1,227
272,383; 7221,487;   -1,087;    0,227
272,980; 7340,226;    0,277;    0,318
273,577; 7750,202;    0,004;    1,227
274,174; 7355,599;    0,822;    2,591
274,771; 7308,866;   -0,814;   -0,773
275,367; 7488,746;    2,277;    1,409
275,964; 7462,635;    0,731;   -0,500
276,561; 7571,869;    1,549;   -1,045
277,158; 7766,855;    0,095;   -1,773
277,755; 7919,282;    2,185;    0,409
278,351; 7347,567;   -0,451;   -1,500
278,948; 7657,160;   -0,815;    0,045
279,545; 7694,454;   -1,360;    2,318
280,141; 8296,162;   -1,723;   -2,045
280,738; 8163,410;   -0,451;   -0,136
281,334; 8364,058;   -1,633;    0,591
281,931; 7823,962;   -0,087;   -1,318
282,528; 8011,807;    0,822;   -0,500
283,124; 8669,568;   -1,087;   -0,500
283,721; 8578,413;   -0,451;    1,409
284,317; 8452,297;    0,185;    2,500
284,913; 8974,748;   -1,360;    0,591
285,510; 9193,748;    0,640;   -0,318
286,106; 9235,162;   -2,269;   -0,955
286,703; 8858,763;   -0,360;    1,955
287,299; 9113,655;   -1,451;   -0,591
287,895; 9360,415;    0,822;   -1,045
288,491; 9908,967;    0,186;    2,136
289,088; 9643,216;   -2,360;    2,409
289,684; 9728,503;   -1,723;    1,500
290,280; 9745,069;    0,368;    0,682
290,876; 9828,535;    1,822;    5,500
291,472; 9765,976;    1,276;    2,227
292,068; 9904,891;    1,367;    0,227
292,665; 9633,018;    2,095;    0,773
293,261; 9313,454;    0,276;    2,136
293,857; 9681,340;    2,913;    2,136
294,453; 9664,969;    3,550;    0,955
295,049; 9528,170;   -0,268;    1,955
295,644; 9578,343;    0,095;    0,136
296,240; 9525,845;   -0,905;   -0,136
296,836; 9615,555;   -0,995;    0,318
297,432; 9883,754;    1,096;   -0,500
298,028; 9934,724;    0,732;    0,773
298,624;10331,648;    1,459;    1,864
299,220;10570,884;    2,368;    0,591
299,815;10262,863;    1,005;   -0,409
300,411;10087,079;    0,914;    1,773
301,007;10102,994;    1,368;    0,227
301,602;10132,617;   -0,541;   -2,318
302,198;10318,259;    0,732;   -0,773
302,794;10627,851;    1,187;   -0,500
303,389;10737,671;   -1,177;    1,045
303,985;10819,643;    0,550;    1,409
304,580;10763,123;    1,459;    1,591
305,176;10772,503;   -3,086;    0,136
305,771;10714,632;   -1,268;   -1,227
306,367;10546,697;    4,095;    0,136
306,962;10882,890;    0,641;    1,500
307,558;10619,829;   -0,450;    0,136
308,153;10556,868;    1,095;   -1,136
308,748;10776,832;   -0,814;    1,682
309,344;10707,819;   -0,632;   -1,318
309,939;10768,206;   -1,905;   -1,318
310,534;11065,331;   -0,086;   -1,682
311,130;10981,349;    0,459;   -2,500
311,725;10705,991;    1,004;   -0,500
312,320;11039,952;    2,459;    0,045
312,915;10882,059;    1,459;   -1,045
313,510;10914,659;    1,550;   -0,500
314,105;11402,088;    1,096;    1,409
314,700;10840,731;   -3,086;   -1,045
315,295;10480,214;   -0,904;    0,045
315,890;10084,888;    1,277;    0,864
316,485;10403,357;   -0,359;   -0,318
317,080;10535,619;   -3,086;    1,591
317,675;11032,498;    2,005;   -0,682
318,270;10498,172;    5,550;    3,318
318,865;10520,262;    3,278;    3,045
319,460;10344,132;   -0,904;    0,591
320,055;10562,770;   -0,541;   -1,227
320,650;10245,191;   -1,995;   -0,591
321,244;10293,229;   -0,177;   -1,409
321,839;11185,369;   -1,541;   -0,227
322,434;11038,315;   -1,086;   -1,591
323,029;10717,752;    1,732;    1,591
323,623;10557,923;    1,550;    0,773
324,218;10355,565;    2,368;    1,409
324,812;10276,124;    1,096;    1,591
325,407;10054,768;   -0,814;    2,045
326,002; 9978,012;    0,277;   -0,409
326,596;10298,365;    0,914;    1,318
327,191;10488,281;    0,823;   -1,045
327,785;10105,365;   -0,813;   -0,227
328,379;10320,402;    1,368;    0,136
328,974;10111,251;    0,914;   -3,955
329,568;10392,428;    0,186;   -2,409
330,163;10200,966;    2,096;    1,045
330,757;10572,056;    2,459;    1,591
331,351; 9981,987;    0,459;    0,682
331,945;10252,486;    0,914;    1,409
332,540; 9883,078;   -1,723;   -0,591
333,134;10065,572;   -1,086;    0,773
333,728;10261,684;    0,005;    0,318
334,322;10615,886;   -1,177;   -0,864
334,916; 9939,641;    0,277;    0,955
335,510;10251,107;   -0,450;   -0,136
336,105;10551,463;   -1,086;    1,591
336,699;10261,535;   -1,086;    0,591
337,293;10187,427;   -1,723;    0,318
337,887;10367,800;   -2,723;    1,955
338,481;10459,108;    0,459;    0,591
339,074;10610,095;   -0,359;    2,682
339,668;10451,424;   -1,632;    1,227
340,262;10738,603;    1,732;    3,227
340,856;10261,618;    1,822;   -0,682
341,450; 9693,867;    1,004;    1,864
342,044;10514,427;    1,459;    0,136
342,637;10336,975;    0,913;   -2,136
343,231;10230,044;   -2,360;    0,682
343,825;10179,898;   -1,086;   -0,591
344,419;10160,764;   -1,995;    0,500
345,012; 9969,151;    2,459;    4,045
345,606; 9978,843;    4,641;    1,591
346,199; 9862,955;   -1,813;   -0,227
346,793; 9430,284;    1,914;    2,045
347,386; 9599,275;   -0,813;   -1,136
347,980; 9585,851;   -0,268;   -0,045
348,573; 9383,080;    2,278;    0,409
349,167; 9063,309;    5,278;    4,773
349,760; 9413,886;    2,914;    2,682
350,354; 9396,699;   -0,813;    1,136
350,947; 9184,655;    1,096;    1,682
351,540; 8866,047;   -0,358;   -1,409
352,134; 8802,099;    1,096;    1,136
352,727; 8870,119;   -0,086;    1,136
353,320; 8707,951;    0,005;    0,591
353,913; 8541,987;   -1,995;    1,864
354,507; 8713,081;    0,823;   -1,227
355,100; 8737,258;    0,460;    0,864
355,693; 7991,957;    2,005;    2,409
356,286; 8017,280;    0,823;    2,773
356,879; 8401,161;   -0,722;    1,227
357,472; 8021,830;   -0,904;    1,500
358,065; 8178,423;   -0,722;    2,500
358,658; 8111,524;   -0,540;    2,318
359,251; 7774,980;   -1,631;   -0,591
359,844; 7309,512;   -1,904;   -1,136
360,437; 7464,775;   -2,995;    0,045
361,030; 7716,585;    1,369;   -0,682
361,623; 7315,232;    2,824;    0,318
362,215; 7357,270;   -0,086;    2,045
362,808; 7203,547;   -2,358;   -1,682
363,401; 7381,104;   -2,449;    0,136
363,994; 7107,430;   -0,631;   -1,500
364,586; 7046,257;    0,824;   -1,500
365,179; 7251,728;   -0,449;   -1,136
365,772; 6746,204;   -1,995;    2,045
366,364; 7027,675;    1,915;   -3,227
366,957; 7218,276;    2,279;   -0,045
367,549; 7192,480;    2,188;   -0,864
368,142; 6893,279;    1,825;   -1,500
368,734; 7064,907;    0,734;   -2,136
369,327; 7047,165;    1,643;   -0,500
369,919; 6972,018;   -1,538;    0,409
370,512; 6776,921;   -1,083;   -0,500
371,104; 6545,461;   -0,901;    1,591
371,696; 6700,232;    1,191;   -0,955
372,289; 6767,335;    0,373;    1,136
372,881; 6885,945;   -2,080;    1,318
373,473; 6826,055;   -2,170;    1,136
374,066; 6647,740;   -0,169;    0,500
374,658; 6507,656;    0,378;    1,136
375,250; 6847,035;    0,653;   -1,409
375,842; 6677,937;    0,473;   -0,045
376,434; 6533,848;   -0,435;   -0,409
377,026; 7111,008;    0,204;   -2,500
377,618; 7004,297;   -0,158;   -0,682
378,210; 6844,791;   -0,338;   -1,955
378,802; 6676,456;    0,754;   -0,591
379,394; 6645,023;    1,846;    0,682
379,986; 7212,008;    1,393;   -0,955
380,578; 7277,683;   -0,153;    0,773
381,170; 6665,243;   -0,972;    0,045
381,762; 6619,524;    0,755;    1,409
382,354; 6783,754;   -0,065;   -1,318
382,945; 6901,927;   -2,976;    0,318
383,537; 7051,720;   -2,705;   -1,955
384,129; 7081,208;   -2,160;   -1,136
384,721; 7240,403;   -0,252;    0,955
385,312; 7142,009;   -0,161;   -0,955
385,904; 7251,410;   -2,706;    1,591
386,496; 6666,020;   -0,979;    1,045
387,087; 6812,428;    1,022;    2,500
387,679; 6812,860;   -1,160;    0,045
388,270; 6970,843;    2,840;    2,045
388,862; 7099,158;    1,295;   -0,318
389,453; 6961,242;   -0,887;    1,045
390,045; 7207,029;   -0,705;   -2,682
390,636; 7104,796;    0,204;   -0,591
391,227; 6966,459;   -0,523;   -0,045
391,819; 7079,835;    0,204;    0,773
392,410; 7115,641;    1,022;    0,045
393,001; 7082,817;   -0,979;   -1,591
393,593; 7352,496;    1,930;   -0,045
394,184; 7213,910;    1,385;   -0,409
394,775; 7108,396;    1,839;    2,136
395,366; 7324,974;    1,385;    0,773
395,957; 7290,310;    0,113;    0,136
396,548; 7606,512;   -0,342;    2,682
397,139; 7889,844;   -2,433;    0,591
397,730; 7636,760;   -1,888;    0,955
398,321; 7696,233;   -1,252;    0,955
398,912; 7714,633;   -0,615;    0,136
399,503; 7813,299;   -3,524;   -1,409
400,094; 7261,978;    0,294;    1,682
400,685; 7155,260;   -0,433;    0,045
401,276; 7207,436;    0,930;   -0,955
401,867; 7480,814;   -0,888;    0,773
402,458; 7587,040;   -2,251;   -2,318
403,048; 7558,820;    1,112;    0,591
403,639; 7177,705;    0,840;    0,864
404,230; 7426,943;    2,476;    0,318
404,821; 7374,753;   -0,615;    0,045
405,411; 7506,525;    1,203;   -2,591
406,002; 7094,215;   -1,252;   -1,136
406,592; 6946,962;    2,294;    0,045
407,183; 7210,745;    0,566;   -1,500
407,774; 7145,068;    3,475;   -0,136
408,364; 7423,212;    0,930;    0,409
408,954; 7046,463;    0,384;    1,227
409,545; 7106,552;    1,021;    1,045
410,135; 6643,209;    1,293;    0,500
410,726; 6787,460;    1,838;    0,318
411,316; 7098,766;    0,111;    0,773
411,906; 6810,722;   -0,253;   -0,409
412,497; 6332,633;   -1,070;   -0,045
413,087; 6865,241;   -1,980;   -0,227
413,677; 7228,036;   -0,707;    3,864
414,267; 7084,184;    0,656;    1,409
414,857; 7038,916;   -2,980;    4,227
415,448; 7283,821;    0,839;    0,500
416,038; 6986,128;    0,020;   -0,591
416,628; 6923,125;   -0,889;    0,409
417,218; 6429,378;    0,565;    3,318
417,808; 6644,837;    0,202;   -0,409
418,398; 7010,232;    0,020;    2,682
418,988; 7002,114;    2,020;    0,591
419,578; 7210,828;   -0,707;    1,409
420,168; 7482,178;   -1,343;   -0,955
420,757; 7073,579;   -1,343;   -1,500
421,347; 6742,131;    0,111;   -0,227
421,937; 6876,614;    2,292;    1,409
422,527; 6839,442;    0,838;   -0,773
423,116; 6639,898;   -0,253;   -0,045
423,706; 6921,332;   -1,889;    0,318
424,296; 6855,694;    1,384;    0,682
424,885; 7255,421;   -0,071;   -3,045
425,475; 7467,524;    1,474;   -2,864
426,065; 7373,280;   -0,980;   -0,318
426,654; 7024,554;   -0,435;   -0,318
427,244; 7112,194;    0,020;    1,409
427,833; 6606,461;    1,383;   -0,500
428,423; 6988,697;   -0,526;    1,136
429,012; 7633,082;   -0,344;   -1,136
429,601; 7151,850;   -1,344;    0,136
430,191; 7339,861;    1,292;    4,318
430,780; 6976,305;   -0,344;   -0,409
431,369; 6907,305;    0,746;   -0,045
431,959; 7417,522;   -1,254;    0,500
432,548; 7190,464;   -1,163;   -0,045
433,137; 7262,564;   -1,254;   -1,318
433,726; 7699,557;    0,292;    0,500
434,315; 7128,079;   -0,526;    2,409
434,905; 7184,322;   -1,254;    1,409
435,494; 7110,337;    0,746;    0,955
436,083; 7423,894;   -0,981;   -0,955
436,672; 7284,721;    0,110;    0,500
437,261; 6921,798;    0,292;   -1,955
437,850; 6997,851;    1,383;    0,682
438,439; 6940,303;    3,291;    1,955
439,027; 6791,946;    3,655;    1,773
439,616; 7031,355;    2,927;    1,227
440,205; 6838,856;    0,200;   -2,136
440,794; 6833,177;    2,109;   -0,045
441,383; 6999,075;   -1,346;   -0,591
441,971; 6845,708;   -2,436;    0,591
442,560; 6652,939;    0,563;   -1,773
443,149; 6389,550;    0,379;   -1,318
443,737; 6506,846;   -0,074;   -2,318
444,326; 6687,396;    0,018;    0,318
444,915; 6698,059;   -1,982;    0,864
445,503; 6936,505;   -2,891;   -0,318
446,092; 6330,966;    0,382;    2,136
446,680; 6739,705;    0,382;    0,318
447,269; 6827,772;   -0,346;   -0,318
447,857; 6596,333;    0,018;   -1,773
448,445; 6660,005;    0,563;    1,318
449,034; 6862,122;   -1,528;   -1,136
449,622; 6886,941;   -1,073;    3,500
450,210; 6303,519;    2,017;    2,227
450,799; 6691,434;    0,290;   -0,591
451,387; 6580,834;    1,381;   -0,591
451,975; 6277,462;    2,654;    0,864
452,563; 6366,781;    3,472;    2,318
453,151; 6340,349;   -0,528;   -1,227
453,739; 6257,986;   -1,347;    0,136
454,328; 6150,128;    2,381;   -2,136
454,916; 5914,352;    2,562;   -0,136
455,504; 6036,099;    1,017;    1,227
456,092; 6184,483;    0,017;   -1,591
456,679; 6088,545;    1,472;    0,682
457,267; 6124,470;    4,017;    1,045
457,855; 6145,721;    1,017;    1,409
458,443; 5880,467;   -0,165;    1,682
459,031; 6042,910;    0,108;    2,409
459,619; 6328,688;   -1,801;    2,864
460,206; 6356,180;    0,835;    2,045
460,794; 6444,948;   -2,983;   -0,227
461,382; 6590,729;   -0,529;   -0,864
461,970; 6243,122;    1,198;    1,864
462,557; 6295,697;   -0,711;   -0,682
463,145; 6435,022;   -3,165;   -1,682
463,732; 6511,046;    2,016;   -1,045
464,320; 6386,459;   -0,075;   -3,045
464,907; 6175,876;    2,743;   -0,773
465,495; 6074,428;    0,743;   -1,227
466,082; 6153,305;   -1,984;   -0,045
466,670; 6029,308;   -2,529;    1,227
467,257; 6342,589;   -1,711;    2,045
467,844; 6486,990;   -0,075;    0,045
468,432; 6487,114;    0,834;    3,500
469,019; 6078,287;    0,925;   -1,773
469,606; 6402,881;    0,470;    3,682
470,193; 6271,605;   -1,439;    0,227
470,780; 5943,643;   -2,075;    0,864
471,368; 6183,506;   -1,257;   -0,773
471,955; 5979,862;    1,379;   -0,682
472,542; 5662,458;    0,652;   -1,136
473,129; 5804,473;   -0,166;    0,136
473,716; 5601,255;    1,470;    0,591
474,303; 5657,802;    0,652;   -0,864
474,890; 5835,232;   -1,439;   -0,500
475,477; 5885,212;   -1,621;    0,409
476,064; 5756,870;    1,106;   -1,591
476,650; 5611,941;    0,288;    0,318
477,237; 5445,759;   -0,258;    0,955
477,824; 5549,522;   -1,076;    0,864
478,411; 5512,155;   -1,894;   -0,318
478,997; 5607,718;    0,560;   -0,773
479,584; 5603,711;    1,196;   -0,409
480,171; 6078,792;   -0,440;   -0,773
480,757; 5826,753;    2,651;    0,773
481,344; 5946,309;    0,469;    0,409
481,931; 5510,886;    1,105;    1,045
482,517; 6152,769;   -1,258;    0,318
483,104; 6407,589;    1,106;    2,864
483,690; 6541,864;   -1,804;    0,045
484,276; 6678,639;   -0,895;    0,227
484,863; 6508,083;    2,469;    1,136
485,449; 6850,562;   -0,077;    0,318
486,035; 6807,777;   -1,986;   -0,136
486,622; 7124,034;   -0,895;    0,045
487,208; 7022,105;    1,378;    1,500
487,794; 6936,968;    0,741;    0,318
488,380; 7039,611;    0,105;   -1,409
488,967; 7079,459;   -1,168;   -0,409
489,553; 7139,023;   -1,895;   -1,409
490,139; 7319,539;    1,559;    0,773
490,725; 6996,361;    0,741;   -0,227
491,311; 6809,327;    3,287;    3,045
491,897; 6398,238;   -0,986;    1,500
492,483; 6426,911;    0,105;    1,227
493,069; 6548,574;    3,923;    0,864
493,655; 6459,801;    1,650;    0,682
494,241; 6474,767;    1,377;   -0,955
494,826; 6833,931;    0,287;   -1,045
495,412; 6482,416;    2,559;   -0,682
495,998; 6699,637;   -0,805;   -0,318
496,584; 6848,385;    0,377;    1,045
497,169; 6909,181;    1,014;   -0,682
497,755; 6994,996;    0,650;    1,227
498,341; 7571,453;    0,559;    0,318
498,926; 7368,526;    1,832;    1,955
499,512; 7623,071;    1,286;    2,955
500,097; 7785,045;    0,195;   -0,318
500,683; 7908,036;   -0,350;    2,136
501,268; 8372,159;   -0,169;   -0,955
501,854; 8283,683;   -0,169;    1,227
502,439; 8382,432;   -0,624;   -1,773
503,024; 8658,931;    0,195;    0,500
503,610; 8879,869;   -0,078;   -0,682
504,195; 9041,453;    0,558;    1,955
504,780; 9327,798;    2,922;    1,227
505,366; 9355,885;    3,013;    2,864
505,951; 9264,330;    0,740;    1,045
506,536; 9415,446;   -3,260;   -3,682
507,121; 9498,740;    0,285;   -0,318
507,706;10155,288;    2,376;    1,045
508,291;10636,330;    2,649;    1,136
508,876;10272,221;   -0,988;    2,591
509,461; 9893,114;   -0,169;   -0,773
510,046;10385,687;    0,194;    0,318
510,631;10725,401;   -0,351;   -0,773
511,216;10510,382;    2,467;   -0,500
511,801;11018,691;   -0,442;    2,591
512,386;11386,377;    0,740;    0,500
512,971;11438,853;   -2,988;    0,955
513,555;11097,262;   -0,897;   -1,500
514,140;11937,935;   -0,442;   -3,136
514,725;11951,292;   -0,715;   -1,136
515,309;12158,197;   -0,533;    0,318
515,894;11713,620;   -0,624;   -2,227
516,479;12252,355;   -0,624;   -0,955
517,063;12125,530;    0,376;    1,227
517,648;12318,987;    1,012;   -1,136
518,232;11990,510;   -0,261;   -1,409
518,817;12373,299;   -0,079;    1,682
519,401;12603,628;    2,194;    0,591
519,985;12193,531;    1,103;    1,136
520,570;12157,666;    0,830;   -1,955
521,154;12444,464;    2,102;    0,591
521,738;12622,577;   -2,352;    2,409
522,323;13192,005;   -0,170;    1,682
522,907;13002,271;    0,466;   -0,136
523,491;12767,455;    0,557;    0,955
524,075;12758,608;    2,284;    0,591
524,659;12867,989;    1,466;    0,591
525,243;12346,659;    1,739;    0,409
525,827;12600,215;    0,648;   -0,045
526,411;13439,898;   -1,989;   -0,136
526,995;13661,421;   -0,352;    1,409
527,579;13279,904;   -0,443;   -1,045
528,163;13574,219;    0,375;   -1,500
528,747;13498,943;    2,466;   -0,773
529,331;13825,151;   -0,080;   -1,409
529,915;14053,070;    1,738;    0,955
530,499;13981,948;   -0,807;    1,227
531,082;13700,266;   -0,534;    1,591
531,666;13142,270;    1,374;    0,773
532,250;13829,187;    1,284;    2,682
532,833;14171,326;    0,920;    2,773
533,417;14037,359;   -1,807;    0,864
534,001;13993,404;    1,647;   -0,318
534,584;14740,450;    0,374;    0,500
535,168;14539,540;    0,465;    1,409
535,751;14584,119;    0,647;    0,045
536,334;14052,308;   -0,898;   -0,409
536,918;14646,246;    0,011;    1,591
537,501;14752,256;   -0,899;    1,318
538,085;14724,534;   -0,444;    1,045
538,668;14905,687;    0,829;    2,409
539,251;15238,476;    1,829;    3,773
539,834;15252,564;    0,101;    0,773
540,418;15167,343;   -1,990;    4,318
541,001;15283,216;   -0,990;    1,773
541,584;15280,949;    2,101;    2,227
542,167;14985,377;    1,374;    2,955
542,750;15154,778;    1,919;   -0,773
543,333;14749,318;    0,555;    2,136
543,916;15486,696;    0,192;    2,500
544,499;16101,764;   -1,354;    0,227
545,082;16106,826;    1,374;    3,591
545,665;16225,942;    1,919;    1,500
546,248;16596,591;    1,010;   -0,318
546,830;16242,920;   -0,445;    1,955
547,413;16649,089;    1,010;   -0,773
547,996;17179,523;    0,555;    0,500
548,579;16966,960;    0,919;    0,955
549,161;16755,932;    1,828;    2,682
549,744;16541,460;   -0,809;    0,409
550,326;17055,007;   -0,809;   -1,136
550,909;16805,351;    2,737;    0,591
551,492;17206,093;   -0,263;    0,227
552,074;16994,842;   -0,173;   -1,318
552,657;17550,085;    2,373;    0,045
553,239;17348,907;   -0,173;   -0,773
553,821;17244,619;   -1,082;    1,045
554,404;16739,235;    1,282;    1,136
554,986;17084,608;    0,464;    1,045
555,568;17715,430;    1,191;   -0,955
556,151;16964,129;    1,191;   -0,227
556,733;17149,968;   -0,264;   -0,864
557,315;17579,629;    0,100;    0,500
557,897;17393,959;    0,554;   -0,500
558,479;17544,082;   -1,991;    1,318
559,061;17633,832;   -0,719;   -0,864
559,643;18008,882;   -0,264;    0,045
560,225;18356,493;    1,645;    2,864
560,807;18375,427;    0,918;    0,318
561,389;17903,401;    0,554;    2,318
561,971;18596,067;    0,463;    2,136
562,553;18428,500;   -1,628;    1,591
563,135;18528,528;   -0,537;    1,136
563,717;18170,315;    3,372;    1,136
564,298;18856,808;    3,645;   -0,045
564,880;18525,356;    0,645;   -1,409
565,462;18702,901;    0,645;    1,318
566,043;19837,906;   -0,446;    2,318
566,625;19388,178;    1,918;    1,227
567,207;19195,101;    1,099;    1,682
567,788;20295,923;   -1,264;    1,500
568,370;21109,185;    1,917;   -0,500
568,951;20932,444;    0,190;    0,227
569,533;21749,014;   -0,628;   -0,500
570,114;22170,944;   -0,446;    0,682
570,695;22660,519;   -0,174;   -1,318
571,277;23156,528;   -0,265;   -1,682
571,858;23819,915;    2,008;   -1,136
572,439;24701,602;    1,554;   -1,045
573,021;24852,037;    2,099;   -2,773
573,602;25336,754;   -1,265;    0,318
574,183;26250,733;   -2,083;    2,227
574,764;26337,155;   -1,629;    0,409
575,345;26867,891;    0,917;   -0,136
575,926;27477,962;   -0,356;    0,136
576,507;27451,480;    1,099;   -0,227
577,088;28531,904;    3,099;    1,682
577,669;28530,525;    0,735;    1,955
578,250;29217,006;    0,644;   -1,045
578,831;29868,638;   -1,356;   -2,227
579,412;30075,859;   -0,810;    0,955
579,993;31069,195;    1,008;    0,227
580,573;31422,590;   -0,629;   -0,955
581,154;30360,647;    0,735;   -0,591
581,735;31164,675;    0,644;    0,773
582,315;30672,766;   -0,629;    2,136
582,896;30962,428;   -0,174;    1,227
583,477;30465,083;    0,189;    1,227
584,057;30684,891;    0,553;    0,955
584,638;31011,558;    2,553;    2,318
585,218;30937,254;   -0,538;    2,682
585,799;31139,460;    0,281;   -0,227
586,379;31189,359;    0,372;    1,591
586,959;30019,522;    0,735;    0,318
587,540;29399,089;   -0,629;    2,227
588,120;28931,778;    1,007;   -0,045
588,700;27896,791;    2,553;    2,136
589,281;28241,620;    0,462;   -0,955
589,861;28140,018;    0,099;   -1,682
590,441;27976,530;    2,371;   -2,682
591,021;26952,376;   -0,265;   -2,591
591,601;27246,293;   -0,537;    0,500
592,181;27217,593;   -0,719;   -0,773
592,761;26516,705;    0,007;    1,409
593,341;26436,945;   -0,901;    0,045
593,921;26461,692;   -0,265;    1,591
594,501;26338,552;   -0,538;    1,318
595,081;26171,176;    0,917;   -0,318
595,661;26496,881;   -1,447;    0,955
596,240;27028,051;   -0,537;    0,136
596,820;26642,703;    0,372;    1,955
597,400;26860,000;    2,008;    0,773
597,980;27063,985;    2,008;    1,045
598,559;27106,452;    2,735;   -0,227
599,139;26781,002;   -0,174;   -1,227
599,718;26711,366;   -0,174;   -0,409
600,298;26981,755;    0,735;    0,682
600,877;27194,623;    2,917;    1,409
601,457;27428,094;    2,281;    1,136
602,036;27379,474;    0,190;    2,045
602,616;27574,893;    0,644;    1,682
603,195;27892,184;   -0,355;    3,500
603,774;27430,612;   -0,901;    2,045
604,354;27301,220;    0,826;   -0,500
604,933;26825,564;    0,463;    1,864
605,512;26956,464;    3,554;    0,591
606,091;27037,784;   -0,537;    3,773
606,671;27841,428;    0,281;    0,773
607,250;26900,247;    1,644;    3,136
607,829;27166,775;    2,372;    3,227
608,408;27024,843;    1,190;    2,591
608,987;26081,910;    1,281;    3,409
609,566;26383,791;   -1,265;   -2,500
610,145;26468,519;   -1,082;    0,682
610,723;26906,735;    4,372;    6,864
611,302;26184,540;   -0,446;    1,682
611,881;25695,637;    5,008;   11,227
612,460;26498,881;    1,645;    3,955
613,039;26937,624;   -0,082;    2,045
613,617;25746,991;    1,736;    4,773
614,196;25897,821;    1,099;    1,227
614,775;26197,501;    1,009;    2,409
615,353;26206,734;    0,736;    0,864
615,932;25920,706;    0,100;    2,409
616,510;26495,318;    0,554;    0,591
617,089;25996,951;    7,100;   17,591
617,667;25777,798;    2,372;    6,136
618,246;25635,728;   -1,537;    1,318
618,824;25789,064;   -3,355;   -0,955
619,402;25399,338;   -2,900;   -1,773
619,981;25891,328;   -0,173;   -1,045
620,559;25762,109;    0,009;    1,682
621,137;25307,083;   -0,718;    1,864
621,715;25316,662;   -1,173;   -0,682
622,293;25210,142;   -0,537;   -0,773
622,871;25652,538;   -0,718;    0,500
623,450;25268,248;    0,373;   -0,864
624,028;25083,775;    0,191;   -0,955
624,606;24749,252;   -1,718;    1,682
625,183;25224,119;   -1,536;   -1,136
625,761;24814,846;    1,009;    1,136
626,339;25071,861;    1,373;    2,591
626,917;25497,193;   -0,172;   -0,045
627,495;25557,044;   -0,354;    1,318
628,073;25009,882;   -0,263;    2,864
628,650;24695,233;    0,100;    2,136
629,228;25072,912;    0,373;    4,409
629,806;24552,962;    2,282;    1,136
630,383;24828,373;    1,464;   -0,318
630,961;24618,629;    2,555;   -0,955
631,539;24364,704;    2,464;    0,227
632,116;23661,720;   11,373;   15,409
632,694;24233,920;    2,555;    6,500
633,271;24502,562;    0,828;    2,682
633,848;24437,118;    1,828;    2,045
634,426;24531,342;   -1,081;    1,773
635,003;23692,739;    1,101;   -0,409
635,580;23974,554;    1,192;    3,682
636,158;24527,635;    3,737;    1,227
636,735;24475,866;    0,555;   -0,500
637,312;24639,001;   -0,809;   -0,682
637,889;24754,581;   -4,354;   -0,682
638,466;24233,004;   -3,990;   -0,409
639,043;24249,376;    2,101;   -1,136
639,620;24579,162;   -2,262;   -0,955
640,197;24878,392;    1,100;    1,682
640,774;25007,348;   -0,172;    1,136
641,351;25407,850;    0,737;    1,136
641,928;24806,534;   -0,627;    1,409
642,505;24469,399;    0,828;   -0,500
643,082;24586,901;   -1,718;    1,227
643,658;23591,493;   -0,718;    1,500
644,235;24351,359;    1,191;    2,500
644,812;24645,860;    1,918;    0,773
645,388;24390,180;   -0,991;    1,409
645,965;24496,409;   -0,809;    1,682
646,542;24563,638;   -1,445;   -0,227
647,118;24559,412;    1,009;   -0,955
647,695;24850,005;   -0,263;    1,136
648,271;24745,598;   -0,536;    0,500
648,848;25081,645;    0,736;    2,227
649,424;24874,510;    0,827;    1,318
650,000;24662,739;   -0,354;   -1,045
650,577;24449,604;   -0,627;   -0,955
651,153;24956,561;   -1,809;    0,955
651,729;25896,880;    1,191;    0,864
652,305;26029,200;    0,645;    2,773
652,881;30021,520;   -0,082;    1,136
653,458;36484,658;    1,100;    0,227
654,034;40332,614;    0,282;    1,591
654,610;41867,025;    0,554;    0,773
655,186;43208,709;    0,645;    3,045
655,762;42898,210;   -0,991;    0,409
656,338;42882,530;    0,100;    0,136
656,913;43882,577;   -0,082;    0,409
657,489;43208,897;    0,827;   -0,318
658,065;43181,763;   -0,173;   -1,591
658,641;43803,446;   -0,900;   -0,864
659,217;43168,857;   -0,991;    0,409
659,792;42528,268;    0,645;   -0,409
660,368;42801,679;   -2,173;   -0,682
660,944;42592,453;   -2,082;    1,227
661,519;38436,773;   -0,628;    0,409
662,095;32797,365;   -1,719;    0,591
662,670;28169,049;    1,281;   -0,136
663,246;26919,005;    1,009;   -0,409
663,821;26222,507;    0,281;    1,682
664,396;25657,736;    0,009;    1,864
664,972;25940,237;    0,009;   -0,500
665,547;26221,557;    1,372;    0,136
666,122;26268,332;   -1,082;    0,318
666,698;26554,833;   -0,173;    0,318
667,273;25939,699;   -0,173;    0,136
667,848;26725,564;    2,372;    1,500
668,423;26444,157;    2,190;    2,318
668,998;27020,022;    2,827;   -0,682
669,573;27540,705;   -3,264;   -1,500
670,148;27376,389;   -1,446;   -0,682
670,723;27220,254;   -1,810;    0,318
671,298;27639,574;    2,372;    1,045
671,873;27719,440;   -0,082;   -0,136
672,448;27627,032;    0,645;    0,136
673,023;28002,897;   -1,992;   -0,227
673,597;28308,217;    0,827;    2,318
674,172;28094,810;   -0,355;    0,318
674,747;27599,493;    0,372;   -1,045
675,321;27448,541;   -0,628;    3,318
675,896;27048,315;    0,645;    1,045
676,471;28008,998;    2,645;    1,591
677,045;27805,318;   -1,264;    0,682
677,620;27856,002;    0,190;    1,136
678,194;28149,958;   -2,628;    1,136
678,769;27769,551;   -1,083;   -0,318
679,343;27958,598;   -0,628;    1,773
679,917;27831,009;   -1,446;    1,955
680,492;27942,965;    0,826;    3,227
681,066;28070,557;    3,372;    0,409
681,640;28095,968;    1,463;   -0,318
682,214;28866,015;    0,735;    0,500
682,788;28422,517;   -1,356;   -0,773
683,363;28363,110;   -1,810;    1,682
683,937;28073,248;   -1,719;   -0,318
684,511;28843,386;    0,463;   -0,591
685,085;28538,342;   -1,356;    0,318
685,659;28314,753;   -2,538;    0,864
686,232;28536,891;   -0,356;   -0,318
686,806;28290,847;   -0,901;    0,409
687,380;28940,803;   -0,174;    0,591
687,954;29201,305;   -1,174;    1,136
688,528;28857,261;   -0,719;    1,955
689,101;29605,036;   -3,992;    1,045
689,675;29192,174;   -0,356;   -0,136
690,249;28530,130;   -0,719;    0,409
690,822;28859,086;    0,280;    0,318
691,396;28997,497;   -0,265;    1,227
691,969;28395,635;    1,280;    0,136
692,543;28879,137;   -0,447;   -1,955
693,116;28570,456;   -0,265;   -1,409
693,690;28426,685;    0,099;    0,500
694,263;28978,642;   -1,083;    2,955
694,836;28964,871;    1,371;    3,591
695,410;27631,100;   -0,265;    1,773
695,983;28128,601;    0,189;    0,591
696,556;28109,376;   -0,447;   -1,045
697,129;28529,332;   -0,356;    1,409
697,703;28107,561;   -1,629;    1,955
698,276;28112,972;    1,462;   -0,773
698,849;27933,473;    1,280;    1,409
699,422;28293,975;   -1,083;    0,591
699,995;28056,386;    0,007;    0,136
700,568;28493,069;   -0,629;    3,045
701,140;28597,571;   -2,811;    1,682
701,713;28291,891;   -0,174;    2,409
702,286;28020,393;   -0,538;    0,864
702,859;27907,531;   -0,902;   -0,591
703,432;27064,760;    0,825;    0,682
704,004;27566,716;    0,462;    0,318
704,577;27387,854;   -0,629;    0,136
705,150;28015,356;    0,189;    2,500
705,722;27785,312;   -0,356;   -3,227
706,295;27564,086;   -0,175;   -0,591
706,867;27418,406;   -0,175;    1,955
707,440;27634,908;   -1,720;   -0,409
708,012;27884,591;    0,462;    0,591
708,584;27818,184;    2,462;    0,227
709,157;28150,049;    1,825;   -0,591
709,729;27800,096;    2,280;    2,045
710,301;28616,598;    0,734;    0,045
710,874;28607,372;   -1,447;   -0,227
711,446;27496,601;    0,371;    0,864
712,018;27420,012;    0,098;    0,500
712,590;27135,332;   -1,993;    1,682
713,162;27628,197;    0,825;    1,318
713,734;27909,335;    1,825;   -2,045
714,306;27855,110;   -1,902;   -0,409
714,878;26530,884;    0,825;    0,864
715,450;27331,477;    0,643;    0,864
716,022;27562,979;    1,552;    1,318
716,593;27750,207;    0,189;    0,591
717,165;27660,346;   -3,175;   -1,227
717,737;27343,211;    0,280;    0,409
718,309;27011,985;    0,280;   -0,045
718,880;26984,032;   -0,539;   -1,409
719,452;27246,443;   -0,175;   -1,591
720,024;26811,127;    0,734;   -0,591
720,595;27408,447;   -2,902;    0,955
721,167;26987,766;    0,370;   -2,045
721,738;26440,814;   -0,812;   -1,045
722,309;26422,770;   -0,993;   -1,227
722,881;26178,453;   -1,357;    0,773
723,452;26820,955;   -2,630;    2,864
724,023;27027,184;   -0,721;    2,682
724,595;26783,504;    0,007;    0,682
725,166;26539,551;    0,007;   -0,409
725,737;26210,689;    1,734;    0,227
726,308;26257,645;   -0,266;    0,318
726,879;26652,783;   -1,630;    1,227
727,450;26600,830;    0,552;   -0,045
728,021;26558,969;    3,097;    0,682
728,592;26352,288;    0,734;    0,500
729,163;26673,063;    0,643;   -0,136
729,734;26687,110;    0,188;   -0,227
730,305;27017,793;    1,734;    0,136
730,876;27321,931;    0,188;    2,955
731,447;27056,979;    2,188;    2,682
732,017;27160,753;    1,097;    1,864
732,588;26674,073;    0,734;    1,227
733,159;26828,666;    0,643;   -1,045
733,729;26669,440;    0,006;    0,409
734,300;25945,851;    0,915;    0,864
734,870;26387,716;    3,461;    0,591
735,441;26944,945;    0,370;   -0,591
736,011;26697,538;    0,643;   -1,591
736,582;26652,221;   -0,812;    0,045
737,152;26146,814;   -1,721;   -2,045
737,722;26512,679;   -0,267;   -0,682
738,293;26271,817;   -1,358;    1,318
738,863;26139,501;    2,461;    2,318
739,433;25971,275;    5,279;    0,318
740,003;26607,049;   -0,994;   -0,682
740,573;25994,278;    2,097;   -1,591
741,143;25957,962;   -1,085;    0,318
741,713;26777,282;    1,188;   -0,500
742,283;26459,783;    0,915;    1,591
742,853;26256,740;    1,915;    1,591
743,423;25671,969;    1,733;    0,045
743,993;25806,107;   -0,358;    1,500
744,563;25196,517;    0,097;   -0,864
745,133;25186,474;   -0,812;   -0,864
745,702;25839,612;   -0,267;    1,773
746,272;25064,204;   -0,176;    0,591
746,842;24839,979;   -1,358;   -0,591
747,411;25313,299;   -0,267;   -0,318
747,981;25491,528;    0,097;    0,500
748,551;25548,120;    2,278;   -1,045
749,120;25344,985;    0,642;   -0,227
749,690;25710,578;   -0,631;    2,409
750,259;26061,171;    1,369;    2,955
750,828;25988,581;    1,551;   -1,955
751,398;26291,810;    1,278;   -0,045
751,967;25774,221;    2,187;    0,409
752,536;25947,996;   -0,813;   -0,227
753,105;26358,861;    0,096;    0,227
753,675;26225,817;    0,096;    1,773
754,244;26114,046;   -0,904;    3,591
754,813;26157,184;    0,551;    1,227
755,382;25709,413;    0,460;    0,955
755,951;26275,915;    1,551;    3,682
756,520;25811,053;   -0,085;    1,864
757,089;26384,373;    0,278;    0,500
757,658;26490,056;    1,733;    1,227
758,227;26476,012;    1,096;    0,318
758,795;26817,423;    1,187;    1,136
759,364;27048,289;   -0,086;   -0,591
759,933;26047,336;   -1,176;   -0,045
760,501;25591,383;    0,733;   -1,318
761,070;26060,885;   -2,813;   -1,409
761,639;26753,113;   -1,904;    1,318
762,207;26088,161;    1,551;   -0,955
762,776;26011,026;    0,369;    0,864
763,344;25958,800;   -0,995;    0,591
763,913;25091,393;   -0,722;    1,409
764,481;25861,895;    1,005;   -0,136
765,049;25649,669;   -1,358;    1,409
765,618;25548,898;   -0,086;    0,318
766,186;25618,582;    0,278;    0,136
766,754;25783,538;    0,005;    1,864
767,322;24793,039;   -1,995;    0,409
767,890;24854,359;   -0,722;   -1,773
768,459;25259,497;   -2,177;   -0,318
769,027;25398,454;    1,641;    3,409
769,595;24381,046;    3,278;    2,591
770,163;24804,093;    3,823;    2,955
770,730;24582,140;    0,732;   -0,136
771,298;24498,824;    0,187;   -1,409
771,866;24587,871;   -1,541;    4,955
772,434;24892,646;   -0,631;   -1,864
773,002;25079,329;    0,005;    0,682
773,569;24755,558;    0,914;    1,682
774,137;24541,423;   -0,268;   -0,045
774,705;25342,743;    0,278;   -0,136
775,272;24838,336;    0,641;    0,682
775,840;24594,928;   -0,177;    2,682
776,407;24096,248;    0,277;    1,955
776,975;23719,750;   -0,632;    0,318
777,542;24695,615;   -1,086;   -0,045
778,110;24574,844;   -1,268;   -0,045
778,677;24264,528;   -2,359;   -0,864
779,244;24003,302;    2,186;    1,045
779,812;24102,986;    1,823;    0,864
780,379;23943,124;    0,005;    1,136
780,946;24212,625;    1,005;   -0,773
781,513;24532,854;   -1,450;    0,318
782,080;23938,720;   -0,086;    2,864
782,647;24691,130;   -0,268;    3,045
783,214;24236,996;   -0,177;    3,864
783,781;23846,316;   -0,723;   -0,682
784,348;23760,181;   -0,632;    1,500
784,915;24196,410;   -3,177;    0,318
785,482;23954,821;    1,368;    2,591
786,049;24393,595;    0,186;   -0,591
786,615;24492,824;    0,277;   -0,955
787,182;24228,235;    0,186;   -0,682
787,749;23936,646;   -2,814;    1,409
788,315;23314,056;   -1,632;   -0,409
788,882;23601,104;    1,550;   -1,227
789,448;24227,787;    1,732;   -0,955
790,015;24277,198;    1,095;    3,227
790,581;23841,790;    1,459;    0,227
791,148;23756,201;    0,641;    1,045
791,714;24012,157;   -0,541;    3,136
792,280;23665,568;    0,186;    1,591
792,847;23239,524;    0,550;    2,500
793,413;23798,572;   -0,269;   -0,318
793,979;23304,982;    3,459;   -1,318
794,545;23362,939;    4,459;    2,682
795,111;22789,077;    2,186;    1,318
795,678;22967,487;    0,731;   -1,682
796,244;22591,989;    3,368;    0,136
796,810;23167,400;    1,731;    0,773
797,375;22907,083;    0,549;   -2,136
797,941;22900,040;   -0,541;    0,591
798,507;23078,541;   -0,451;   -0,955
799,073;22655,043;   -0,360;    0,591
799,639;22716,181;   -2,632;    3,136
800,205;22791,501;    0,095;    2,682
800,770;22350,457;    0,640;    1,773
801,336;22428,504;    1,368;   -0,955
801,901;22095,461;    4,549;    3,136
802,467;22693,417;   -0,542;    2,045
803,033;22025,373;   -0,087;    0,864
803,598;22280,875;    1,913;   -1,045
804,163;22280,558;    1,095;   -0,318
804,729;22221,151;   -0,178;    1,136
805,294;22656,471;    0,822;    2,227
805,859;22394,609;    0,731;   -0,409
806,425;21884,474;    1,186;    2,682
806,990;21534,703;    2,186;    4,318
807,555;22004,568;   -1,451;    2,591
808,120;21929,070;    0,822;   -0,409
808,685;22018,026;    0,185;   -2,500
809,250;21491,528;    0,004;   -0,500
809,815;21805,939;    1,913;    0,682
810,380;22321,168;   -0,269;    1,591
810,945;22856,578;   -1,087;    2,045
811,510;22020,807;    2,094;    1,591
812,075;21740,855;   -0,633;   -1,409
812,640;21758,811;    2,003;    1,409
813,204;21832,585;    0,822;   -0,227
813,769;22334,723;    2,094;   -0,045
814,334;21718,043;    0,458;    0,864
814,898;21766,272;    0,367;    0,591
815,463;21650,410;    1,276;   -0,773
816,027;21631,548;   -0,724;   -2,318
816,592;21725,050;    0,640;   -2,045
817,156;21274,733;    2,094;    1,136
817,721;21134,781;    4,276;    2,318
818,285;21071,464;    2,912;    1,500
818,849;21716,875;   -1,451;    1,682
819,414;21613,013;   -0,269;    2,955
819,978;21219,151;   -1,269;    1,773
820,542;21748,653;    2,003;    0,500
821,106;21482,882;   -0,815;    0,682
821,670;21584,838;   -0,815;    2,591
822,234;21295,067;   -0,270;    1,409
822,798;20712,478;    0,003;    0,500
823,362;20662,434;   -0,633;    4,227
823,926;19984,117;    0,094;    1,136
824,490;20177,983;   -0,997;   -0,682
825,054;20652,484;   -0,088;   -1,136
825,618;20308,895;   -1,542;   -1,500
826,181;20205,306;    0,458;   -1,318
826,745;20101,262;    1,367;   -1,045
827,309;20461,946;    1,185;    1,318
827,872;19880,265;    1,367;    0,955
828,436;20864,313;    1,185;   -0,773
828,999;20931,360;   -0,997;    1,227
829,563;19774,680;   -0,179;    1,136
830,126;19575,363;   -0,179;   -0,591
830,690;19551,228;   -1,997;    2,864
831,253;19101,003;   -0,543;    2,227
831,816;19252,595;   -1,906;    0,500
832,380;19171,097;    0,185;    0,864
832,943;19297,962;   -1,361;   -0,500
833,506;18809,010;    2,639;   -1,227
834,069;19670,057;    3,912;   -0,955
834,632;19696,013;    1,730;    1,318
835,195;19615,606;    1,003;    0,955
835,758;18823,562;   -0,997;    1,955
836,321;18683,336;    0,730;   -1,045
836,884;18775,929;   -0,725;   -0,955
837,447;18796,067;   -2,816;    1,773
838,010;19041,569;    0,366;    3,227
838,573;19330,252;   -1,179;    0,773
839,135;19282,481;   -1,361;   -0,955
839,698;18741,074;    1,275;    0,409
840,261;18295,848;    1,003;   -0,227
840,823;18142,350;   -0,543;    0,864
841,386;18471,851;   -0,452;   -2,409
841,948;18318,989;   -1,361;    1,773
842,511;18088,582;    0,912;    1,682
843,073;18195,447;    1,912;    0,227
843,636;18040,676;   -0,361;   -0,227
844,198;17928,633;    0,911;    0,591
844,760;18030,862;    1,093;    1,955
845,322;17723,818;    0,548;    1,136
845,885;18157,319;    0,730;    0,591
846,447;18584,912;   -1,998;    0,227
847,009;18143,323;    1,911;   -0,682
847,571;18456,188;    0,820;   -2,045
848,133;18559,417;   -1,089;   -1,864
848,695;18378,282;   -0,543;    1,409
849,257;17972,511;   -1,089;   -1,682
849,819;18115,377;   -0,998;   -0,409
850,381;18207,151;   -0,725;   -0,864
850,942;18536,380;    1,093;   -0,591
851,504;18468,245;    1,184;    0,227
852,066;18541,474;    1,275;   -1,591
852,628;18068,249;   -0,180;    1,955
853,189;17630,750;    1,638;    2,682
853,751;17754,798;   -0,907;    1,409
854,312;17596,117;   -0,453;   -1,682
854,874;18070,619;   -2,089;   -0,773
855,435;18598,575;   -0,907;   -1,682
855,997;18792,532;   -1,816;   -0,136
856,558;18049,488;    0,366;    1,773
857,119;18125,899;    0,820;    2,864
857,681;17826,219;    0,002;    0,318
858,242;17900,175;    1,911;   -2,136
858,803;18328,949;    0,456;   -0,773
859,364;18904,633;    0,184;   -4,773
859,925;18200,589;   -2,453;   -0,955
860,486;18116,818;   -0,453;   -0,955
861,047;17860,320;   -0,544;   -1,227
861,608;17622,185;   -1,089;   -0,773
862,169;17765,777;    0,638;   -0,045
862,730;17550,006;    0,456;    1,409
863,291;17771,690;   -0,635;   -0,500
863,852;18180,828;   -0,635;    1,955
864,412;17638,330;   -0,271;   -0,864
864,973;16252,286;   -0,089;    0,500
865,534;16119,242;   -1,726;    0,227
866,094;17582,107;    1,820;    0,227
866,655;17270,791;    1,274;    3,318
867,215;17517,565;    0,274;    0,136
867,776;17380,340;    0,547;   -0,136
868,336;17488,114;   -1,453;    0,136
868,897;16963,343;    2,638;    1,682
869,457;16682,027;    1,365;    0,318
870,017;16914,347;    0,547;   -1,227
870,578;17425,121;   -0,817;    0,773
871,138;17140,441;   -2,089;   -0,955
871,698;16651,124;   -0,817;   -1,318
872,258;16548,262;   -0,453;   -2,864
872,818;16943,946;    2,729;    0,045
873,378;16889,993;    0,638;    1,045
873,938;16435,949;    0,547;    0,500
874,498;16777,905;    0,274;   -1,955
875,058;16696,498;    2,183;    1,773
875,618;16525,182;    1,910;   -2,682
876,177;16434,047;    1,274;    0,136
876,737;16077,094;   -0,090;    1,955
877,297;16029,596;    0,183;    1,955
877,856;16089,097;   -0,362;    0,318
878,416;16009,326;    1,183;   -0,136
878,976;16262,283;   -1,817;    0,409
879,535;16440,239;    0,092;    3,136
880,095;16175,559;   -0,544;    0,045
880,654;16250,515;   -1,090;    1,318
881,213;16329,380;    2,456;    1,500
881,773;15976,609;    2,637;    2,682
882,332;16333,020;    3,365;    5,136
882,891;16231,067;    3,092;    2,136
883,451;16657,387;   -1,272;    1,682
884,010;16135,889;   -2,908;   -0,409
884,569;16197,118;   -0,999;   -0,045
885,128;16323,892;    2,819;   -1,864
885,687;16382,848;    4,455;    0,682
886,246;16062,895;    1,455;    2,136
886,805;15840,306;    2,455;    2,045
887,364;16174,353;   -0,999;   -0,500
887,922;16565,401;   -1,181;    0,045
888,481;16036,266;   -1,545;    0,591
889,040;16327,858;    1,183;    2,136
889,599;17012,087;    2,455;    1,409
890,157;17111,135;    1,455;    2,409
890,716;16777,454;   -0,090;    0,227
891,274;16583,138;    0,092;   -1,136
891,833;16946,458;    1,546;    0,864
892,391;16865,414;   -0,454;    0,500
892,950;16936,188;    1,819;   -0,773
893,508;17294,145;    0,455;   -0,409
894,067;16675,283;    0,637;    0,136
894,625;16572,875;   -0,636;   -1,500
895,183;16792,832;   -0,363;   -0,682
895,741;16667,424;    1,728;   -1,773
896,299;16526,017;   -0,545;   -2,409
896,858;16702,973;    0,819;   -1,591
897,416;16819,384;    2,728;   -1,318
897,974;16578,795;    1,819;    0,318
898,532;16681,569;    6,091;    2,682
899,089;16610,889;    2,091;   -0,682
899,647;16684,390;   -1,454;    1,318
900,205;16381,347;    1,182;    1,045
900,763;16585,939;   -0,454;    0,227
901,321;16642,441;    2,364;   -1,409
901,878;16080,125;   -1,000;   -0,773
902,436;15949,717;   -1,363;    1,318
902,994;16325,219;    4,728;    3,682
903,551;15805,357;    0,728;    0,409
904,109;16171,404;    0,182;   -1,409
904,666;15745,088;    2,455;    1,045
905,224;15590,135;    0,182;   -0,409
905,781;15330,545;    0,727;   -0,318
906,338;15397,502;   -1,363;    1,045
906,895;15343,731;    0,637;    2,045
907,453;15261,050;    1,727;    1,136
908,010;15340,825;   -0,909;    0,409
908,567;14984,236;    1,273;    0,591
909,124;14486,101;    0,364;   -1,500
909,681;14557,694;   -2,909;    0,682
910,238;14736,832;    0,636;   -1,318
910,795;15049,879;   -0,273;   -1,136
911,352;14677,424;   -2,909;   -2,682
911,909;14095,515;   -1,364;   -0,864
912,466;14587,333;   -3,182;    1,500
913,022;14162,788;   -1,636;    0,500
913,579;14502,970;   -0,909;    2,045
914,136;14192,061;    1,636;    0,955
914,692;14522,061;    0,091;   -1,227
915,249;14135,424;    1,455;    0,409
915,806;14377,242;    0,182;    1,955
916,362;14104,515;    1,909;    1,864
916,918;13673,788;    2,000;    1,045
917,475;13660,242;   -1,182;    0,955
918,031;13748,697;    3,364;   -0,045
918,587;13192,515;   -0,909;   -0,318
919,144;13404,061;   -2,273;    0,227
919,700;13709,970;    1,727;    0,773
920,256;13315,333;    0,727;    0,045
920,812;12942,788;   -0,727;   -1,045
921,368;12959,697;   -1,727;   -1,045
921,924;12591,061;    0,182;   -0,136
922,480;12156,515;   -0,545;    1,227
923,036;12772,242;    1,273;    1,955
923,592;12700,788;    0,455;    0,318
924,148;12629,152;    0,455;   -0,955
924,704;11925,697;   -1,364;   -0,409
925,259;12253,061;   -0,273;    0,591
925,815;11998,697;    1,455;    0,500
926,371;11504,606;    2,909;    1,409
926,926;11418,697;    2,091;    0,591
927,482;11067,242;   -1,364;    0,773
928,037;10947,424;    0,909;    2,045
928,593;11224,424;    1,636;    1,045
929,148;11042,606;   -1,818;   -1,500
929,704;10528,606;   -1,455;   -0,500
930,259;10756,424;    0,091;   -0,136
930,814; 9831,970;   -0,818;    1,955
931,369; 9521,152;    1,091;   -0,773
931,925; 9431,879;   -0,091;    0,136
932,480; 9330,697;   -2,818;   -2,591
933,035; 9207,606;    0,545;   -0,318
933,590; 8983,152;    0,364;   -1,773
934,145; 8650,879;   -1,364;   -0,318
934,700; 9029,697;    0,455;   -0,591
935,255; 8821,152;   -0,091;    0,045
935,809; 8110,152;    3,182;    0,864
936,364; 7280,424;   -0,455;   -0,136
936,919; 7224,606;    0,455;   -1,773
937,474; 7131,879;    1,455;    0,136
938,028; 6903,970;   -1,636;    1,136
938,583; 6376,515;    1,818;    4,682
939,138; 6656,061;    2,091;    2,136
939,692; 6095,333;    1,636;   -1,136
940,247; 5805,515;   -0,727;   -1,045
940,801; 5377,788;   -0,636;    0,227
941,355; 5272,515;   -0,364;    2,591
941,910; 4944,879;   -0,273;   -2,136
942,464; 5030,788;   -0,818;   -0,318
943,018; 4822,242;    1,000;   -0,227
943,572; 4782,970;    2,545;   -0,682
944,126; 4224,424;    0,091;   -0,409
944,681; 4120,424;    3,091;    0,227
945,235; 4097,424;    1,000;   -0,591
945,789; 4033,152;    0,364;   -1,864
946,342; 4126,606;    0,455;   -0,591
946,896; 3923,242;   -2,273;    0,955
947,450; 3706,879;    1,545;   -0,227
948,004; 3883,152;    1,727;   -0,045
948,558; 3890,788;    0,273;   -0,864
949,111; 3828,061;   -0,273;   -0,318
949,665; 3860,788;    1,636;   -0,682
950,219; 3738,515;   -0,091;   -1,045
950,772; 3808,879;   -1,909;    1,864
951,326; 3719,333;    0,545;   -0,955
951,879; 3793,788;    0,727;   -2,318
952,433; 3820,242;    0,000;    2,227
952,986; 3679,242;    2,909;    0,682
953,539; 3637,333;   -0,273;    0,591
954,093; 3559,970;    0,545;   -1,318
954,646; 3694,061;    0,909;    1,318
955,199; 3522,515;    0,000;   -0,500
955,752; 3396,242;   -0,455;    1,773
956,305; 3365,152;   -0,091;    2,955
956,858; 3528,788;    0,818;   -0,318
957,411; 3695,152;   -0,545;    2,136
957,964; 3527,879;    1,364;    2,136
958,517; 3513,606;   -1,545;    3,136
959,070; 3356,697;   -0,455;    1,955
959,623; 3431,788;    1,091;    1,500
960,176; 3205,515;    1,727;    2,045
960,728; 3185,424;   -2,727;    0,773
961,281; 3257,879;    0,545;    0,500
961,834; 3291,606;   -0,909;    0,864
962,386; 3213,242;    1,727;    1,045
962,939; 3136,333;    0,364;   -0,318
963,491; 3269,152;    0,455;    1,136
964,043; 3127,242;    1,182;    2,409
964,596; 3247,333;   -1,000;    2,227
965,148; 3101,606;   -1,000;    1,773
965,700; 3037,424;    1,091;   -0,227
966,253; 3195,152;   -0,636;    0,318
966,805; 3021,515;   -2,273;    0,773
967,357; 3044,879;    1,091;   -1,500
967,909; 3016,061;    0,455;   -1,227
968,461; 3139,061;    0,545;    3,136
969,013; 3077,152;   -0,182;   -0,864
969,565; 3137,879;   -0,455;   -1,136
970,117; 3204,061;   -0,364;    1,045
970,669; 3045,697;    0,182;   -0,136
971,220; 2906,970;   -0,455;   -1,500
971,772; 2839,606;   -0,636;   -0,318
972,324; 2966,515;    0,091;   -0,500
972,876; 2902,424;    0,818;   -0,045
973,427; 3020,606;    1,909;   -1,045
973,979; 3007,879;   -0,727;   -2,500
974,530; 3043,333;    1,818;    1,318
975,082; 3040,061;   -0,545;    1,682
975,633; 2956,879;    1,091;    1,682
976,184; 3085,697;    0,909;    0,773
976,736; 2875,242;    0,091;    0,227
977,287; 2705,333;   -0,909;   -0,500
977,838; 2863,606;    0,909;   -0,318
978,389; 2911,424;   -1,000;   -0,500
978,940; 2797,333;    0,545;   -0,409
979,491; 2828,788;    0,091;   -0,500
980,042; 2798,788;    0,182;    3,045
980,593; 2843,424;   -2,545;    0,227
981,144; 2903,697;    2,545;   -0,500
981,695; 2863,515;    1,455;    1,500
982,246; 2824,242;   -0,273;    1,045
982,797; 2975,061;   -1,727;    0,682
983,347; 3071,333;    0,364;    0,591
983,898; 3239,515;    3,091;    0,409
984,449; 3051,788;    2,182;    0,773
984,999; 2979,424;    1,455;   -1,136
985,550; 2762,606;    0,182;   -0,318
986,100; 2796,606;   -0,455;   -0,318
986,651; 2830,333;   -0,818;    0,045
987,201; 2824,061;   -1,000;   -0,591
987,751; 2895,697;    0,818;    2,864
988,302; 2887,788;    2,636;    1,500
988,852; 2912,879;    0,455;   -1,136
989,402; 2958,515;    0,091;    0,682
989,952; 2867,242;   -2,182;    0,864
990,502; 2970,061;   -0,091;    0,682
991,052; 2944,333;   -0,727;    0,045
991,602; 2817,606;   -2,909;    1,318
992,152; 2789,697;    0,455;    0,682
992,702; 2771,242;    1,364;   -0,045
993,252; 2698,697;   -3,000;   -0,500
993,802; 2784,697;   -0,273;    1,318
994,352; 3032,515;   -1,545;    1,136
994,901; 3127,606;   -0,182;    3,227
995,451; 3038,242;   -0,182;    0,318
996,000; 3108,242;    1,636;    0,318
996,550; 2823,788;    2,273;    0,227
997,100; 2824,515;    1,273;   -0,045
997,649; 3115,515;    2,182;    0,955
998,198; 2763,606;    1,727;   -1,500
998,748; 2961,424;    1,091;   -2,318
999,297; 2880,061;   -0,818;   -0,409
999,846; 2928,970;    1,000;   -0,773
1000,395; 2973,788;   -0,818;    0,500
1000,945; 2928,424;    1,818;   -0,773
1001,494; 2995,424;    2,364;    0,682
1002,043; 2982,606;    4,636;    0,864
1002,592; 2826,788;   -1,091;    1,955
1003,141; 2986,152;   -0,455;   -0,682
1003,690; 2841,515;    1,727;    0,500
1004,238; 2909,424;    1,455;   -0,045
1004,787; 2563,242;    1,364;    1,227
1005,336; 2799,333;    0,364;    0,682
1005,885; 2937,879;    1,364;   -2,773
1006,433; 3072,333;    0,545;    0,955
1006,982; 3143,515;    0,455;    1,682
1007,531; 3044,879;   -1,818;   -0,227
1008,079; 2977,606;   -2,273;    0,500
1008,627; 3108,424;   -1,455;    0,409
1009,176; 2850,333;    0,000;   -1,955
1009,724; 2905,606;    1,091;    0,864
1010,273; 2979,152;    1,273;    0,500
1010,821; 3085,061;    0,091;    1,409
1011,369; 2848,697;   -1,364;    1,318
1011,917; 2818,515;   -1,364;   -0,591
1012,465; 3096,242;    1,273;   -1,591
1013,013; 3195,152;    2,091;   -1,682
1013,561; 3081,788;    0,455;   -0,773
1014,109; 3123,061;   -1,909;    1,682
1014,657; 3008,879;    0,364;    0,591
1015,205; 3129,606;    1,636;   -0,955
1015,753; 3145,697;   -0,545;   -1,409
1016,301; 3189,333;   -2,636;    3,045
1016,848; 3199,970;   -1,273;    0,409
1017,396; 3246,515;    2,545;    0,045
1017,944; 3353,515;    1,182;    1,864
1018,491; 3138,152;    0,273;    1,409
1019,039; 3272,424;    0,455;    0,591
1019,586; 3193,879;   -1,364;    1,682
1020,134; 3299,515;    0,455;    1,500
1020,681; 3327,061;    0,182;   -1,136
1021,228; 3333,697;    2,909;   -2,227
1021,776; 3176,788;    1,182;   -1,136
1022,323; 3382,788;    0,455;    0,773
1022,870; 3301,697;   -1,000;   -0,045
1023,417; 3205,152;    2,636;    1,864
1023,964; 3353,879;    2,636;    1,227
1024,511; 3190,424;    1,000;    0,773
1025,058; 2987,606;    3,182;   -0,045
1025,605; 3036,606;   -2,273;    3,136
1026,152; 3278,152;    1,727;   -0,591
1026,699; 3004,333;    1,818;    1,318
1027,245; 3156,879;   -0,091;    0,318
1027,792; 3371,515;   -1,000;    1,409
1028,339; 3250,061;    2,364;   -0,045
1028,885; 3108,061;    1,000;   -0,227
1029,432; 3042,242;   -0,091;    0,227
1029,978; 3117,152;   -1,000;   -1,591
1030,525; 3023,515;    1,000;    0,409
1031,071; 3259,333;   -1,364;    1,136
1031,618; 3356,788;    0,364;    1,682
1032,164; 3161,970;   -0,091;    3,045
1032,710; 3197,879;    1,636;   -1,500
1033,256; 3119,879;   -0,636;   -0,136
1033,803; 3109,061;   -0,545;    1,500
1034,349; 2843,333;   -1,364;    0,136
1034,895; 2977,242;    0,000;   -0,318
1035,441; 2983,606;   -0,818;    0,318
1035,987; 2962,697;   -2,364;   -0,682
1036,533; 2964,333;   -1,455;   -0,955
1037,078; 3155,515;    1,455;    1,682
1037,624; 2974,606;    2,455;   -0,955
1038,170; 3015,424;    0,455;   -0,318
1038,716; 2915,424;    1,636;   -0,409
1039,261; 2839,242;   -2,273;   -0,773
1039,807; 2778,333;   -0,091;    3,409
1040,352; 2845,242;   -1,909;   -0,318
1040,898; 2903,061;   -1,545;   -0,682
1041,443; 2799,788;   -1,455;   -2,591
1041,989; 2820,333;    1,091;    1,591
1042,534; 2697,970;   -0,364;    2,591
1043,079; 2822,333;    2,909;    0,955
1043,625; 2608,242;    1,818;    0,500
1044,170; 2658,697;   -1,364;    1,045
1044,715; 2906,424;    2,455;    0,955
1045,260; 2710,879;    2,182;   -0,955
1045,805; 2784,879;    1,182;   -0,591
1046,350; 2711,515;    1,364;   -0,409
1046,895; 2668,697;    2,909;    1,591
1047,440; 2624,697;    5,364;    0,409
1047,985; 2535,606;    2,818;   -0,955
1048,530; 2440,061;    1,545;    1,227
1049,074; 2504,152;    0,000;    0,318
1049,619; 2479,697;   -1,364;    1,955
1050,164; 2290,424;    0,455;    0,227
1050,708; 2345,152;   -0,455;    0,045
1051,253; 2686,788;    1,273;   -2,227
1051,797; 2405,242;    0,818;   -1,318
1052,342; 2424,152;   -1,182;    1,045
1052,886; 2404,152;    0,364;   -1,409
1053,430; 2290,697;   -1,364;    0,136
1053,975; 2322,333;   -0,818;   -0,318
1054,519; 2293,970;   -0,727;    3,227
1055,063; 2312,879;    0,909;    1,318
1055,607; 2198,061;   -0,182;    0,227
1056,151; 2215,333;    2,909;    1,682
1056,695; 2144,152;    2,273;   -1,136
1057,239; 2195,606;   -1,727;   -0,682
1057,783; 2203,152;    0,818;   -1,500
1058,327; 2150,879;    0,000;    1,409
1058,871; 2387,061;   -0,545;    1,318
1059,415; 2107,697;   -0,818;   -0,045
1059,958; 2367,152;    1,455;    2,591
1060,502; 2083,152;   -1,000;   -0,773
1061,046; 1998,061;    0,364;   -0,955
1061,589; 1975,333;   -3,000;   -1,136
1062,133; 1863,606;   -1,273;    1,864
1062,676; 1791,333;    1,182;    0,864
1063,220; 1795,606;    1,091;    0,500
1063,763; 1823,333;    0,909;    1,136
1064,306; 1888,515;   -0,909;    1,864
1064,849; 1783,788;   -0,909;    0,591
1065,393; 1776,970;    2,000;   -1,500
1065,936; 1897,424;    0,182;   -0,409
1066,479; 1786,152;   -1,455;    1,318
1067,022; 1821,061;   -0,273;   -0,227
1067,565; 1712,152;   -0,091;   -1,318
1068,108; 1734,515;    0,727;   -0,591
1068,651; 1714,333;   -0,636;    1,409
1069,194; 1645,606;   -0,455;   -1,682
1069,736; 1638,606;   -1,273;    0,955
1070,279; 1612,788;   -1,364;   -0,500
1070,822; 1683,606;   -2,000;   -0,318
1071,364; 1757,879;   -0,364;    1,318
1071,907; 1567,515;   -0,727;    3,227
1072,450; 1480,424;    0,000;   -0,045
1072,992; 1472,061;   -0,273;    3,136
1073,535; 1619,970;    2,091;    2,136
1074,077; 1411,515;   -0,727;    2,045
1074,619; 1374,152;   -1,364;    0,591
1075,161; 1412,152;   -1,091;    1,500
1075,704; 1582,970;    1,545;    1,227
1076,246; 1394,879;   -0,182;    0,682
1076,788; 1323,061;   -0,364;    1,773
1077,330; 1396,424;    1,273;    2,136
1077,872; 1353,970;    0,909;    0,955
1078,414; 1580,424;    2,727;    0,773
1078,956; 1314,061;    1,273;   -0,227
1079,498; 1566,970;    1,636;    0,318
1080,040; 1274,970;    1,909;   -1,318
1080,581; 1221,152;    1,636;   -0,318
1081,123; 1145,424;    0,091;   -0,773
1081,665; 1200,333;   -1,182;   -0,955
1082,206; 1483,697;    1,364;   -0,500
1082,748; 1343,333;    0,727;    2,045
1083,289; 1234,788;   -2,000;    1,318
1083,831; 1139,970;   -0,545;    0,227
1084,372; 1172,152;    0,000;    0,591
1084,913; 1180,515;    1,091;    0,864
1085,455; 1143,152;   -1,909;   -2,045
1085,996; 1121,424;   -2,273;    0,136
1086,537; 1153,152;   -0,091;    0,864
1087,078; 1177,606;   -0,909;   -2,136
1087,619; 1208,424;   -1,273;    0,227
1088,160; 1129,606;    0,000;    1,318
1088,701; 1110,242;   -1,091;    0,682
1089,242; 1049,970;    1,364;   -2,227
1089,783; 1140,333;   -0,273;    1,409
1090,324; 1107,697;    0,455;    0,682
1090,865;  987,152;    2,727;   -0,409
1091,405;  956,606;    0,727;    2,227
1091,946;  990,606;    0,182;   -0,955
1092,487;  934,515;    0,818;   -1,409
1093,027; 1078,697;   -1,364;   -1,500
1093,568;  938,333;   -0,364;    1,227
1094,108; 1030,333;    0,273;    1,773
1094,649;  972,879;   -1,182;    0,136
1095,189;  908,606;   -0,636;   -0,682
1095,729;  851,515;   -0,091;    0,955
1096,269;  851,061;    0,727;   -0,955
1096,810; 1176,424;   -1,364;    0,500
1097,350; 1010,515;    1,364;   -0,773
1097,890;  907,242;    0,364;    1,227
1098,430; 1154,788;    2,364;    2,864
1098,970; 1023,424;    2,182;    1,682
1099,510;  895,152;    0,545;   -2,318
1100,050;  822,424;    1,000;   -1,591
1100,589;  785,152;   -0,727;   -0,318
1101,129;  918,970;    0,818;   -0,955
1101,669; 1063,424;    1,727;    2,136
1102,209;  886,697;   -0,091;    2,227
1102,748;  839,152;    0,000;    0,955
1103,288;  833,788;    1,273;   -1,227
1103,827;  862,515;    3,091;   -2,227
1104,367;  742,242;   -0,091;   -2,409
1104,906;  705,424;    1,364;   -1,136
1105,445;  774,515;    0,636;   -1,136
1105,985;  720,242;   -0,727;    1,500
1106,524;  753,152;   -1,727;   -0,682
1107,063;  734,424;   -2,727;    1,409
1107,602;  704,333;   -1,909;   -1,500
1108,141;  628,970;   -1,909;    1,500
1108,680;  732,970;   -3,455;   -0,591
1109,219;  675,424;   -0,909;   -0,500
1109,758;  682,152;    0,455;    0,682
1110,297;  650,424;    1,000;   -0,682
1110,836;  591,697;   -0,727;    0,955
1111,375;  750,152;   -2,545;    0,409
1111,913;  765,515;   -1,000;    0,773
1112,452;  702,606;   -0,273;    0,136
1112,991;  590,697;    1,091;    1,955
1113,529;  543,333;   -0,818;   -0,045
1114,068;  622,606;   -0,273;    2,955
1114,606;  524,879;   -0,364;   -0,955
1115,144;  680,879;   -1,273;    1,045
1115,683;  610,152;   -0,727;    0,318
1116,221;  654,424;   -0,455;   -0,864
1116,759;  561,788;    0,636;   -0,864
1117,297;  756,879;    0,000;    1,864
1117,836;  576,697;   -2,182;   -1,227
1118,374;  585,970;    0,182;   -0,682
1118,912;  516,970;    0,909;    2,682
1119,450;  516,424;    1,000;    0,864
1119,988;  569,333;    1,545;    2,136
1120,525; 1028,788;    5,091;    3,318
1121,063;  723,333;    1,182;    1,864
1121,601;  526,515;   -0,909;   -1,227
1122,139;  481,606;   -0,727;   -2,045
1122,676;  682,152;   -0,727;    2,773
1123,214;  607,697;   -1,182;    4,409
1123,751;  419,697;    1,727;    2,227
1124,289;  545,152;   -0,091;   -0,409
1124,826;  422,515;    1,727;    0,227
1125,364;  350,697;    1,727;   -0,955
1125,901;  539,606;    1,182;    1,227
1126,438;  652,697;    0,818;    0,955
1126,975;  376,697;   -0,727;   -0,773
1127,513;  448,606;    0,273;    2,136
1128,050;  354,424;    1,636;   -0,682
1128,587;  451,788;    2,000;   -0,227
1129,124;  489,333;    0,091;    1,318
1129,661;  360,242;    0,273;    0,227
1130,198;  522,879;    1,636;    0,773
1130,734;  471,242;    0,182;    1,409
1131,271;  327,879;   -0,909;    0,864
1131,808;  503,152;    2,909;    3,045
1132,345;  368,061;    1,545;    0,318
1132,881;  258,515;   -1,545;   -1,864
1133,418;  384,970;    0,727;   -1,136
1133,954;  318,424;    2,455;   -2,682
1134,491;  389,515;    1,364;   -0,773
1135,027;  297,515;    2,364;    0,864
1135,564;  393,879;    0,273;    2,955
1136,100;  361,697;    0,364;    2,136
1136,636;  257,515;   -1,273;   -1,045
1137,172;  356,061;    0,000;   -1,045
1137,708;  281,242;   -1,364;   -1,045
1138,245;  282,788;    1,273;   -1,227
1138,781;  233,606;    1,091;   -3,318
1139,317;  297,788;    1,273;   -1,409
1139,852;  281,788;    3,091;    0,136
1140,388;  409,515;   -1,182;   -0,409
1140,924;  293,879;   -1,091;   -2,227
1141,460;  233,424;   -1,636;    0,136
1141,996;  158,152;   -1,364;    2,682
1142,531;  201,333;    1,364;    3,318
1143,067;  412,424;    1,182;    1,045
1143,602;  471,152;   -0,091;   -0,318
1144,138;  320,515;   -2,636;    1,045
1144,673;  194,606;   -1,455;    1,409
1145,209;  259,515;   -1,909;   -0,318
1145,744;  189,515;   -0,727;    0,864
1146,279;  321,242;    1,818;   -0,136
1146,815;  225,515;    1,545;   -2,682
1147,350;  268,788;   -1,364;    0,045
1147,885;  187,424;   -0,818;   -1,318
1148,420;  189,333;   -2,273;    0,773
1148,955;  170,697;   -1,727;    1,864
1149,490;  194,333;   -0,909;   -1,591
1150,025;  179,333;    0,455;   -1,773
1150,560;  286,879;    1,091;   -0,955
1151,094;  258,152;    1,455;   -0,591
1151,629;  263,333;    1,636;    0,864
1152,164;  189,061;    1,364;    1,318
1152,698;  147,424;   -0,182;   -0,136
1153,233;  104,606;    0,091;   -0,682
1153,767;  150,061;   -3,000;   -2,318
1154,302;  195,061;   -1,455;    1,773
1154,836;  201,697;   -0,455;   -2,136
1155,371;  248,242;   -1,364;    3,682
1155,905;  206,333;   -0,636;    1,682
1156,439;  173,152;   -0,636;   -0,500
1156,973;  202,515;    0,364;    0,318
1157,507;  139,788;   -0,364;    0,682
1158,042;  164,606;   -0,727;    1,045
1158,576;  214,788;    0,182;    1,773
1159,110;  202,788;   -0,818;    2,409
1159,643;  173,515;    0,636;   -0,045
1160,177;  112,242;   -1,545;    1,500

