
Integration time [ms]:   0,040
Averaging Nr. [scans]: 11
Smoothing Nr. [pixels]: 0
Data measured with spectrometer [name]: 7318044SP
Wave   ;Sample   ;Dark     ;Reference
[nm]   ;[counts] ;[counts] ;[counts] 

186,757;    9,153;   31,551;    1,318
187,357;   33,411;   22,551;    0,955
187,958;   10,387;   15,460;   -1,591
188,558;   46,786;    8,915;   -1,227
189,159;   14,507;    6,733;   -4,500
189,759;   -4,708;    7,278;   -3,591
190,360;   -9,265;    2,824;   -2,136
190,960;    8,022;    2,915;   -4,136
191,560;   21,797;    3,189;   -6,591
192,161;  214,393;    4,372;   -3,500
192,761;   76,615;    4,010;   -3,227
193,361;   32,705;    1,556;   -3,773
193,962;   75,012;    2,010;   -2,682
194,562;   12,929;    1,189;   -3,955
195,162;   14,870;   -2,448;   -2,227
195,762;  123,637;   -3,176;   -0,045
196,362;   79,384;    1,370;   -2,500
196,963;    5,353;    2,006;   -0,864
197,563;   39,787;    1,551;   -0,955
198,163;   -0,577;    0,096;   -0,682
198,763;    5,152;    1,733;   -0,500
199,363;   46,126;    3,096;   -0,500
199,963;   32,635;    0,369;    0,409
200,563;   18,233;    2,823;   -1,409
201,163;    0,018;    3,277;   -0,227
201,763;   34,646;    3,732;    0,318
202,363;    2,267;    1,459;    1,500
202,963;   27,265;    1,459;    1,045
203,563;   77,641;    0,277;    0,500
204,162;   21,920;    2,096;   -1,864
204,762;    9,356;    0,550;    0,591
205,362;  -15,885;    3,004;    1,955
205,962;    8,380;    3,096;    1,955
206,562;   14,040;    1,823;    2,318
207,161;    1,071;   -0,087;    0,318
207,761;   63,616;    1,277;    2,409
208,361;    5,923;   -0,268;    1,409
208,960;   27,093;    0,459;    1,500
209,560;   23,543;    1,277;    1,591
210,160;   40,974;    0,550;    1,864
210,759;   15,897;    4,186;    1,227
211,359;    4,114;    1,459;    1,045
211,958;   91,888;    1,277;    2,045
212,558;   98,787;    1,732;    1,864
213,157;   36,718;    1,822;    1,500
213,757;  171,033;    3,822;   -0,227
214,356;   53,582;    1,277;   -0,409
214,956;  152,503;    3,095;    0,409
215,555;   33,950;    2,095;    2,136
216,154;    6,709;   -2,723;   -0,591
216,754;   10,432;    0,277;    0,773
217,353;   22,548;   -0,268;   -1,045
217,952;  -22,318;   -0,178;    0,318
218,552;   35,684;    1,368;   -0,773
219,151;    8,190;    0,277;    0,955
219,750;   10,101;    0,004;   -0,227
220,349;   -8,339;   -0,451;    1,045
220,948;   47,049;   -1,360;    1,136
221,548;    3,128;    0,913;    1,227
222,147;   10,787;   -0,087;   -0,409
222,746;   75,316;   -0,451;   -0,955
223,345;   33,052;    0,731;    0,500
223,944;   25,535;   -0,451;    0,773
224,543;   27,695;    1,004;   -1,409
225,142;   20,691;    0,094;    0,136
225,741;   30,425;   -0,814;    1,045
226,340;   19,555;   -0,451;   -0,955
226,939;   54,511;   -0,996;   -0,136
227,538;    2,450;   -0,360;   -0,773
228,137;   67,194;   -0,814;    0,864
228,735;   41,920;   -0,541;    1,227
229,334;  -15,175;   -0,905;   -0,227
229,933;   58,981;    0,459;    0,591
230,532;   64,870;    1,186;   -0,409
231,131;  104,978;    1,732;    0,318
231,729;   34,791;   -2,450;   -2,318
232,328;    3,210;   -0,723;   -1,500
232,927;   11,301;    1,004;   -0,500
233,525;   15,585;    3,640;    0,045
234,124;   35,112;    2,368;   -1,591
234,723;   -3,238;    0,913;   -1,045
235,321;   -4,606;    2,277;    0,136
235,920;   10,429;    1,186;   -1,227
236,518;   71,243;    3,459;    0,318
237,117;    5,190;    0,004;   -0,227
237,715;   21,069;    0,640;   -0,500
238,314;   21,784;   -0,087;   -2,318
238,912;   64,452;   -0,723;   -1,409
239,510;   35,354;    0,459;   -1,227
240,109;   84,228;    0,004;    3,773
240,707;   66,296;   -0,996;    1,227
241,305;   -0,116;    0,550;    0,136
241,904;   32,157;   -0,178;   -2,045
242,502;   89,889;   -0,632;   -0,227
243,100;   33,429;   -0,087;   -0,955
243,698;    3,035;    0,732;    1,682
244,297;   24,372;   -0,632;    0,682
244,895;   12,482;   -0,269;   -2,318
245,493;   81,831;    2,186;   -0,591
246,091;   96,158;    1,368;   -1,318
246,689;   39,156;    1,004;    0,591
247,287;   38,760;    0,822;   -1,136
247,885;   22,521;   -1,451;    1,227
248,483;    3,000;    1,822;   -0,500
249,081;   40,885;    0,185;    1,591
249,679;   47,455;   -0,178;    1,682
250,277;   -0,037;   -1,723;    0,864
250,875;   34,794;   -1,087;   -1,045
251,473;   16,586;   -1,178;    0,500
252,071;   52,545;    1,459;    1,045
252,669;   14,171;   -1,814;    0,318
253,267;    2,865;   -0,087;    0,773
253,864;   16,214;   -0,360;    0,682
254,462;   61,243;    1,640;    1,591
255,060;    0,234;   -0,269;    1,318
255,658;   -5,647;    0,822;   -0,136
256,255;   13,940;    0,186;   -2,045
256,853;   33,975;   -0,269;    1,409
257,451;   10,010;    0,822;    1,864
258,048;  163,456;    1,822;    1,864
258,646;   63,059;    1,731;   -1,045
259,243;   97,884;   -0,087;    2,227
259,841;   53,142;   -0,814;    0,318
260,438;    4,855;   -0,087;    0,864
261,036;   37,496;   -1,905;    1,409
261,633;   -0,098;   -0,087;    2,227
262,231;  -10,349;    2,731;   -0,045
262,828;  -18,425;   -0,905;    1,136
263,425;   -3,366;    0,913;   -0,591
264,023;   -0,857;    0,186;    0,045
264,620;   49,510;   -0,360;   -0,318
265,217;   82,082;   -2,087;    3,136
265,815;    9,609;   -1,905;    2,136
266,412;   42,903;    0,731;    0,136
267,009;   39,554;   -1,451;    0,773
267,606;   63,150;    0,822;   -0,955
268,203;   14,443;   -0,269;   -0,591
268,801;    4,927;    1,731;    0,591
269,398;   -5,080;   -0,360;    2,500
269,995;   32,575;    0,277;    1,591
270,592;   17,311;   -0,632;   -0,500
271,189;  -10,776;    0,186;    0,409
271,786;  -21,060;   -0,632;    1,227
272,383;   40,136;   -1,087;    0,227
272,980;    7,890;    0,277;    0,318
273,577;   -3,710;    0,004;    1,227
274,174;   -5,672;    0,822;    2,591
274,771;   30,716;   -0,814;   -0,773
275,367;  180,107;    2,277;    1,409
275,964;   88,825;    0,731;   -0,500
276,561;   17,449;    1,549;   -1,045
277,158;  -13,454;    0,095;   -1,773
277,755;   69,794;    2,185;    0,409
278,351;   39,330;   -0,451;   -1,500
278,948;   53,944;   -0,815;    0,045
279,545;   26,954;   -1,360;    2,318
280,141;   68,912;   -1,723;   -2,045
280,738;   80,713;   -0,451;   -0,136
281,334;    7,920;   -1,633;    0,591
281,931;    2,854;   -0,087;   -1,318
282,528;   52,695;    0,822;   -0,500
283,124;   68,243;   -1,087;   -0,500
283,721;   63,938;   -0,451;    1,409
284,317;   26,463;    0,185;    2,500
284,913;   77,365;   -1,360;    0,591
285,510;  124,547;    0,640;   -0,318
286,106;   82,403;   -2,269;   -0,955
286,703;   39,453;   -0,360;    1,955
287,299;   15,233;   -1,451;   -0,591
287,895;   11,905;    0,822;   -1,045
288,491;    4,557;    0,186;    2,136
289,088;   30,541;   -2,360;    2,409
289,684;   40,535;   -1,723;    1,500
290,280;   96,180;    0,368;    0,682
290,876;   65,205;    1,822;    5,500
291,472;   59,759;    1,276;    2,227
292,068;   58,225;    1,367;    0,227
292,665;   17,415;    2,095;    0,773
293,261;   -1,682;    0,276;    2,136
293,857;   47,086;    2,913;    2,136
294,453;   26,889;    3,550;    0,955
295,049;  101,130;   -0,268;    1,955
295,644;   37,965;    0,095;    0,136
296,240;   -5,640;   -0,905;   -0,136
296,836;   34,050;   -0,995;    0,318
297,432;   61,869;    1,096;   -0,500
298,028;   50,476;    0,732;    0,773
298,624;   27,419;    1,459;    1,864
299,220;   27,464;    2,368;    0,591
299,815;   23,728;    1,005;   -0,409
300,411;   58,767;    0,914;    1,773
301,007;   69,107;    1,368;    0,227
301,602;   13,386;   -0,541;   -2,318
302,198;   73,909;    0,732;   -0,773
302,794;   34,064;    1,187;   -0,500
303,389;   -2,567;   -1,177;    1,045
303,985;   12,134;    0,550;    1,409
304,580;   65,790;    1,459;    1,591
305,176;   22,100;   -3,086;    0,136
305,771;  -20,945;   -1,268;   -1,227
306,367;  136,854;    4,095;    0,136
306,962;   43,750;    0,641;    1,500
307,558;   60,961;   -0,450;    0,136
308,153;   54,738;    1,095;   -1,136
308,748;    5,878;   -0,814;    1,682
309,344;  128,794;   -0,632;   -1,318
309,939;  118,537;   -1,905;   -1,318
310,534;   23,847;   -0,086;   -1,682
311,130;   14,942;    0,459;   -2,500
311,725;    5,137;    1,004;   -0,500
312,320;   23,632;    2,459;    0,045
312,915;   51,667;    1,459;   -1,045
313,510;  125,170;    1,550;   -0,500
314,105;   22,569;    1,096;    1,409
314,700;   -2,509;   -3,086;   -1,045
315,295;   11,063;   -0,904;    0,045
315,890;   -3,890;    1,277;    0,864
316,485;   38,050;   -0,359;   -0,318
317,080;    2,662;   -3,086;    1,591
317,675;  117,179;    2,005;   -0,682
318,270;  223,281;    5,550;    3,318
318,865;  140,461;    3,278;    3,045
319,460;   79,901;   -0,904;    0,591
320,055;   13,051;   -0,541;   -1,227
320,650;   13,012;   -1,995;   -0,591
321,244;   20,605;   -0,177;   -1,409
321,839;    9,224;   -1,541;   -0,227
322,434;   31,632;   -1,086;   -1,591
323,029;    9,047;    1,732;    1,591
323,623;    3,788;    1,550;    0,773
324,218;   87,126;    2,368;    1,409
324,812;   49,975;    1,096;    1,591
325,407;   42,355;   -0,814;    2,045
326,002;  108,873;    0,277;   -0,409
326,596;   63,577;    0,914;    1,318
327,191;   18,956;    0,823;   -1,045
327,785;   33,850;   -0,813;   -0,227
328,379;   16,896;    1,368;    0,136
328,974;   27,836;    0,914;   -3,955
329,568;   42,189;    0,186;   -2,409
330,163;   71,536;    2,096;    1,045
330,757;   14,115;    2,459;    1,591
331,351;   -4,418;    0,459;    0,682
331,945;   -6,028;    0,914;    1,409
332,540;   35,402;   -1,723;   -0,591
333,134;   38,451;   -1,086;    0,773
333,728;   42,643;    0,005;    0,318
334,322;    0,923;   -1,177;   -0,864
334,916;   -0,198;    0,277;    0,955
335,510;   56,245;   -0,450;   -0,136
336,105;   37,229;   -1,086;    1,591
336,699;   13,043;   -1,086;    0,591
337,293;   24,586;   -1,723;    0,318
337,887;    1,572;   -2,723;    1,955
338,481;   55,249;    0,459;    0,591
339,074;   91,073;   -0,359;    2,682
339,668;   89,579;   -1,632;    1,227
340,262;  362,574;    1,732;    3,227
340,856;  158,243;    1,822;   -0,682
341,450;   35,954;    1,004;    1,864
342,044;   57,041;    1,459;    0,136
342,637;  110,318;    0,913;   -2,136
343,231;   66,617;   -2,360;    0,682
343,825;   58,587;   -1,086;   -0,591
344,419;   59,345;   -1,995;    0,500
345,012;  363,725;    2,459;    4,045
345,606;  247,866;    4,641;    1,591
346,199;   85,875;   -1,813;   -0,227
346,793;  154,472;    1,914;    2,045
347,386;   59,942;   -0,813;   -1,136
347,980;   25,300;   -0,268;   -0,045
348,573;   83,879;    2,278;    0,409
349,167;  285,090;    5,278;    4,773
349,760;  188,579;    2,914;    2,682
350,354;  167,531;   -0,813;    1,136
350,947;  192,234;    1,096;    1,682
351,540;  133,988;   -0,358;   -1,409
352,134;   59,156;    1,096;    1,136
352,727;   69,565;   -0,086;    1,136
353,320;   94,195;    0,005;    0,591
353,913;   50,690;   -1,995;    1,864
354,507;  179,426;    0,823;   -1,227
355,100;   98,234;    0,460;    0,864
355,693;  412,808;    2,005;    2,409
356,286;  222,518;    0,823;    2,773
356,879;  124,764;   -0,722;    1,227
357,472;  124,437;   -0,904;    1,500
358,065;  152,379;   -0,722;    2,500
358,658;   61,581;   -0,540;    2,318
359,251;   44,675;   -1,631;   -0,591
359,844;  162,010;   -1,904;   -1,136
360,437;  205,843;   -2,995;    0,045
361,030;   91,372;    1,369;   -0,682
361,623;  106,539;    2,824;    0,318
362,215;  272,677;   -0,086;    2,045
362,808;  148,688;   -2,358;   -1,682
363,401;   96,404;   -2,449;    0,136
363,994;  253,903;   -0,631;   -1,500
364,586;  115,158;    0,824;   -1,500
365,179;   83,158;   -0,449;   -1,136
365,772;   -4,758;   -1,995;    2,045
366,364;   86,206;    1,915;   -3,227
366,957;  109,401;    2,279;   -0,045
367,549;   70,230;    2,188;   -0,864
368,142;   94,188;    1,825;   -1,500
368,734;   57,589;    0,734;   -2,136
369,327;   21,557;    1,643;   -0,500
369,919;   43,925;   -1,538;    0,409
370,512;   56,966;   -1,083;   -0,500
371,104;  256,699;   -0,901;    1,591
371,696;  258,013;    1,191;   -0,955
372,289;  148,421;    0,373;    1,136
372,881;  110,746;   -2,080;    1,318
373,473;   30,407;   -2,170;    1,136
374,066;   98,387;   -0,169;    0,500
374,658;   75,093;    0,378;    1,136
375,250;   15,546;    0,653;   -1,409
375,842;   56,586;    0,473;   -0,045
376,434;   17,864;   -0,435;   -0,409
377,026;   -3,584;    0,204;   -2,500
377,618;   27,836;   -0,158;   -0,682
378,210;  -24,332;   -0,338;   -1,955
378,802;  -36,449;    0,754;   -0,591
379,394;  319,634;    1,846;    0,682
379,986;   88,983;    1,393;   -0,955
380,578;    2,541;   -0,153;    0,773
381,170;  241,736;   -0,972;    0,045
381,762;  151,771;    0,755;    1,409
382,354;  120,805;   -0,065;   -1,318
382,945;   42,420;   -2,976;    0,318
383,537;    6,311;   -2,705;   -1,955
384,129;    9,584;   -2,160;   -1,136
384,721;  110,104;   -0,252;    0,955
385,312;   51,564;   -0,161;   -0,955
385,904;  131,119;   -2,706;    1,591
386,496;   61,971;   -0,979;    1,045
387,087;  171,504;    1,022;    2,500
387,679;  107,274;   -1,160;    0,045
388,270;   87,962;    2,840;    2,045
388,862;   67,475;    1,295;   -0,318
389,453;   46,731;   -0,887;    1,045
390,045;   53,609;   -0,705;   -2,682
390,636;  -43,831;    0,204;   -0,591
391,227;   12,317;   -0,523;   -0,045
391,819;  -10,654;    0,204;    0,773
392,410;  213,264;    1,022;    0,045
393,001;   54,778;   -0,979;   -1,591
393,593;  104,107;    1,930;   -0,045
394,184;  147,055;    1,385;   -0,409
394,775;   41,360;    1,839;    2,136
395,366;  -33,550;    1,385;    0,773
395,957;  126,208;    0,113;    0,136
396,548;   24,161;   -0,342;    2,682
397,139;  125,184;   -2,433;    0,591
397,730;   45,234;   -1,888;    0,955
398,321;   63,093;   -1,252;    0,955
398,912;    3,228;   -0,615;    0,136
399,503;    7,983;   -3,524;   -1,409
400,094;   49,859;    0,294;    1,682
400,685;   32,117;   -0,433;    0,045
401,276;   -9,988;    0,930;   -0,955
401,867;  -20,137;   -0,888;    0,773
402,458;  -57,749;   -2,251;   -2,318
403,048;   73,602;    1,112;    0,591
403,639;   26,731;    0,840;    0,864
404,230;  121,454;    2,476;    0,318
404,821;  167,255;   -0,615;    0,045
405,411;   86,498;    1,203;   -2,591
406,002;    5,727;   -1,252;   -1,136
406,592;  206,042;    2,294;    0,045
407,183;   84,401;    0,566;   -1,500
407,774;   70,439;    3,475;   -0,136
408,364;   23,848;    0,930;    0,409
408,954;  128,290;    0,384;    1,227
409,545;  125,921;    1,021;    1,045
410,135;   78,332;    1,293;    0,500
410,726;   35,083;    1,838;    0,318
411,316;  203,446;    0,111;    0,773
411,906;   57,878;   -0,253;   -0,409
412,497;   63,119;   -1,070;   -0,045
413,087;   19,730;   -1,980;   -0,227
413,677;  -42,249;   -0,707;    3,864
414,267;  -48,832;    0,656;    1,409
414,857;  -62,641;   -2,980;    4,227
415,448;  -65,686;    0,839;    0,500
416,038;  -27,737;    0,020;   -0,591
416,628;    7,745;   -0,889;    0,409
417,218;   51,738;    0,565;    3,318
417,808;  177,748;    0,202;   -0,409
418,398;   72,235;    0,020;    2,682
418,988;  -32,423;    2,020;    0,591
419,578;   52,821;   -0,707;    1,409
420,168;   -1,482;   -1,343;   -0,955
420,757;  113,527;   -1,343;   -1,500
421,347;   23,523;    0,111;   -0,227
421,937;   -9,724;    2,292;    1,409
422,527;  107,480;    0,838;   -0,773
423,116;  235,356;   -0,253;   -0,045
423,706;   -5,472;   -1,889;    0,318
424,296;  -44,202;    1,384;    0,682
424,885;   72,980;   -0,071;   -3,045
425,475;   44,096;    1,474;   -2,864
426,065;  -40,240;   -0,980;   -0,318
426,654;  -62,746;   -0,435;   -0,318
427,244;  161,315;    0,020;    1,409
427,833;  134,485;    1,383;   -0,500
428,423;   25,568;   -0,526;    1,136
429,012;   21,068;   -0,344;   -1,136
429,601;  139,759;   -1,344;    0,136
430,191;   38,564;    1,292;    4,318
430,780;  -47,914;   -0,344;   -0,409
431,369;  118,124;    0,746;   -0,045
431,959;   22,255;   -1,254;    0,500
432,548;  -33,528;   -1,163;   -0,045
433,137;  -86,144;   -1,254;   -1,318
433,726;  -16,341;    0,292;    0,500
434,315;    7,462;   -0,526;    2,409
434,905;  102,924;   -1,254;    1,409
435,494;   93,557;    0,746;    0,955
436,083;  -28,000;   -0,981;   -0,955
436,672;   58,839;    0,110;    0,500
437,261;   14,845;    0,292;   -1,955
437,850;  210,979;    1,383;    0,682
438,439;  258,920;    3,291;    1,955
439,027;  362,479;    3,655;    1,773
439,616;  292,089;    2,927;    1,227
440,205;   87,299;    0,200;   -2,136
440,794;   41,370;    2,109;   -0,045
441,383;  -11,346;   -1,346;   -0,591
441,971;  -35,717;   -2,436;    0,591
442,560;  -28,282;    0,563;   -1,773
443,149; -113,503;    0,379;   -1,318
443,737;  -77,759;   -0,074;   -2,318
444,326;  -48,004;    0,018;    0,318
444,915;   -0,709;   -1,982;    0,864
445,503;    9,364;   -2,891;   -0,318
446,092;  250,741;    0,382;    2,136
446,680;  176,584;    0,382;    0,318
447,269;   85,387;   -0,346;   -0,318
447,857;   72,966;    0,018;   -1,773
448,445;   37,827;    0,563;    1,318
449,034;  -13,062;   -1,528;   -1,136
449,622;   -5,878;   -1,073;    3,500
450,210;  247,194;    2,017;    2,227
450,799;  164,933;    0,290;   -0,591
451,387;  140,069;    1,381;   -0,591
451,975;  116,414;    2,654;    0,864
452,563;  186,262;    3,472;    2,318
453,151;   27,674;   -0,528;   -1,227
453,739;   70,076;   -1,347;    0,136
454,328;  165,387;    2,381;   -2,136
454,916;  108,536;    2,562;   -0,136
455,504;  125,087;    1,017;    1,227
456,092;   13,732;    0,017;   -1,591
456,679;  -15,385;    1,472;    0,682
457,267;  372,104;    4,017;    1,045
457,855;   73,002;    1,017;    1,409
458,443;  -56,776;   -0,165;    1,682
459,031;   88,654;    0,108;    2,409
459,619;   50,964;   -1,801;    2,864
460,206;  -44,535;    0,835;    2,045
460,794;  -40,935;   -2,983;   -0,227
461,382;    7,146;   -0,529;   -0,864
461,970;    1,721;    1,198;    1,864
462,557;  -59,706;   -0,711;   -0,682
463,145;   55,426;   -3,165;   -1,682
463,732;  277,935;    2,016;   -1,045
464,320;   73,097;   -0,075;   -3,045
464,907;  198,505;    2,743;   -0,773
465,495;  114,465;    0,743;   -1,227
466,082;   35,395;   -1,984;   -0,045
466,670;   64,857;   -2,529;    1,227
467,257;  -30,490;   -1,711;    2,045
467,844;   60,465;   -0,075;    0,045
468,432;   34,321;    0,834;    3,500
469,019;    5,337;    0,925;   -1,773
469,606;   83,825;    0,470;    3,682
470,193;  102,673;   -1,439;    0,227
470,780;   65,139;   -2,075;    0,864
471,368;    9,654;   -1,257;   -0,773
471,955;   95,548;    1,379;   -0,682
472,542;   60,805;    0,652;   -1,136
473,129;  -41,836;   -0,166;    0,136
473,716;  -32,879;    1,470;    0,591
474,303;   -1,694;    0,652;   -0,864
474,890;    4,871;   -1,439;   -0,500
475,477;   98,044;   -1,621;    0,409
476,064;    2,365;    1,106;   -1,591
476,650;  125,231;    0,288;    0,318
477,237;   42,594;   -0,258;    0,955
477,824;   22,999;   -1,076;    0,864
478,411;  -60,553;   -1,894;   -0,318
478,997;  -66,424;    0,560;   -0,773
479,584; -109,404;    1,196;   -0,409
480,171;   49,849;   -0,440;   -0,773
480,757;  112,652;    2,651;    0,773
481,344;   10,457;    0,469;    0,409
481,931;  -71,619;    1,105;    1,045
482,517;   41,233;   -1,258;    0,318
483,104;  121,747;    1,106;    2,864
483,690;   -3,975;   -1,804;    0,045
484,276;  -25,816;   -0,895;    0,227
484,863;  175,162;    2,469;    1,136
485,449;   32,850;   -0,077;    0,318
486,035;  -10,112;   -1,986;   -0,136
486,622;   73,762;   -0,895;    0,045
487,208;    0,573;    1,378;    1,500
487,794;  -72,274;    0,741;    0,318
488,380;  -77,169;    0,105;   -1,409
488,967;  -78,467;   -1,168;   -0,409
489,553;  -57,736;   -1,895;   -1,409
490,139;   12,509;    1,559;    0,773
490,725;  -45,664;    0,741;   -0,227
491,311;   -0,522;    3,287;    3,045
491,897;  -29,971;   -0,986;    1,500
492,483;  -16,745;    0,105;    1,227
493,069;  387,096;    3,923;    0,864
493,655;  118,613;    1,650;    0,682
494,241;    6,756;    1,377;   -0,955
494,826;   14,081;    0,287;   -1,045
495,412;   69,930;    2,559;   -0,682
495,998;   -6,348;   -0,805;   -0,318
496,584;   44,206;    0,377;    1,045
497,169;   51,558;    1,014;   -0,682
497,755;    0,678;    0,650;    1,227
498,341;  117,374;    0,559;    0,318
498,926;  231,734;    1,832;    1,955
499,512;   -8,284;    1,286;    2,955
500,097;   -8,250;    0,195;   -0,318
500,683;   12,911;   -0,350;    2,136
501,268;  -32,509;   -0,169;   -0,955
501,854;   -6,338;   -0,169;    1,227
502,439;  -21,018;   -0,624;   -1,773
503,024;    2,099;    0,195;    0,500
503,610;   29,125;   -0,078;   -0,682
504,195;  -17,735;    0,558;    1,955
504,780;   63,134;    2,922;    1,227
505,366;  129,033;    3,013;    2,864
505,951;   78,084;    0,740;    1,045
506,536;    5,650;   -3,260;   -3,682
507,121;   50,206;    0,285;   -0,318
507,706;    7,393;    2,376;    1,045
508,291;  -32,914;    2,649;    1,136
508,876;  -37,791;   -0,988;    2,591
509,461;   11,992;   -0,169;   -0,773
510,046;   42,107;    0,194;    0,318
510,631;   48,260;   -0,351;   -0,773
511,216;  -19,929;    2,467;   -0,500
511,801;   29,443;   -0,442;    2,591
512,386;   43,879;    0,740;    0,500
512,971;   54,472;   -2,988;    0,955
513,555;   87,864;   -0,897;   -1,500
514,140;   41,906;   -0,442;   -3,136
514,725;  152,020;   -0,715;   -1,136
515,309;   77,374;   -0,533;    0,318
515,894;    1,523;   -0,624;   -2,227
516,479;   30,722;   -0,624;   -0,955
517,063;   31,434;    0,376;    1,227
517,648;   10,441;    1,012;   -1,136
518,232;   -0,901;   -0,261;   -1,409
518,817;   83,436;   -0,079;    1,682
519,401;  200,031;    2,194;    0,591
519,985;  205,290;    1,103;    1,136
520,570;   99,897;    0,830;   -1,955
521,154;  241,071;    2,102;    0,591
521,738;  467,391;   -2,352;    2,409
522,323;  340,516;   -0,170;    1,682
522,907;  403,628;    0,466;   -0,136
523,491;  381,270;    0,557;    0,955
524,075;  423,060;    2,284;    0,591
524,659;  776,153;    1,466;    0,591
525,243;  797,009;    1,739;    0,409
525,827;  865,849;    0,648;   -0,045
526,411; 1095,881;   -1,989;   -0,136
526,995; 1485,048;   -0,352;    1,409
527,579; 1702,020;   -0,443;   -1,045
528,163; 1929,896;    0,375;   -1,500
528,747; 2371,615;    2,466;   -0,773
529,331; 2716,274;   -0,080;   -1,409
529,915; 2941,839;    1,738;    0,955
530,499; 3343,627;   -0,807;    1,227
531,082; 3649,471;   -0,534;    1,591
531,666; 3886,971;    1,374;    0,773
532,250; 4555,587;    1,284;    2,682
532,833; 5123,931;    0,920;    2,773
533,417; 5454,329;   -1,807;    0,864
534,001; 5784,028;    1,647;   -0,318
534,584; 6664,549;    0,374;    0,500
535,168; 6955,000;    0,465;    1,409
535,751; 7430,458;    0,647;    0,045
536,334; 7375,746;   -0,898;   -0,409
536,918; 8230,499;    0,011;    1,591
537,501; 8615,431;   -0,899;    1,318
538,085; 8986,898;   -0,444;    1,045
538,668; 9395,961;    0,829;    2,409
539,251;10009,115;    1,829;    3,773
539,834;10367,563;    0,101;    0,773
540,418;10568,459;   -1,990;    4,318
541,001;10914,324;   -0,990;    1,773
541,584;11162,918;    2,101;    2,227
542,167;11110,133;    1,374;    2,955
542,750;11453,179;    1,919;   -0,773
543,333;11267,750;    0,555;    2,136
543,916;12157,652;    0,192;    2,500
544,499;12846,457;   -1,354;    0,227
545,082;13030,067;    1,374;    3,591
545,665;13300,266;    1,919;    1,500
546,248;13782,477;    1,010;   -0,318
546,830;13610,710;   -0,445;    1,955
547,413;14103,445;    1,010;   -0,773
547,996;14725,073;    0,555;    0,500
548,579;14644,252;    0,919;    0,955
549,161;14572,227;    1,828;    2,682
549,744;14467,588;   -0,809;    0,409
550,326;15051,773;   -0,809;   -1,136
550,909;14946,675;    2,737;    0,591
551,492;15392,945;   -0,263;    0,227
552,074;15283,992;   -0,173;   -1,318
552,657;15886,054;    2,373;    0,045
553,239;15736,244;   -0,173;   -0,773
553,821;15719,210;   -1,082;    1,045
554,404;15303,021;    1,282;    1,136
554,986;15715,587;    0,464;    1,045
555,568;16333,777;    1,191;   -0,955
556,151;15632,022;    1,191;   -0,227
556,733;15860,760;   -0,264;   -0,864
557,315;16358,996;    0,100;    0,500
557,897;16202,595;    0,554;   -0,500
558,479;16377,629;   -1,991;    1,318
559,061;16547,952;   -0,719;   -0,864
559,643;16887,898;   -0,264;    0,045
560,225;17236,933;    1,645;    2,864
560,807;17320,352;    0,918;    0,318
561,389;16867,695;    0,554;    2,318
561,971;17592,214;    0,463;    2,136
562,553;17404,167;   -1,628;    1,591
563,135;17550,465;   -0,537;    1,136
563,717;17194,615;    3,372;    1,136
564,298;17897,117;    3,645;   -0,045
564,880;17656,977;    0,645;   -1,409
565,462;17864,613;    0,645;    1,318
566,043;19001,770;   -0,446;    2,318
566,625;18538,768;    1,918;    1,227
567,207;18399,980;    1,099;    1,682
567,788;19461,171;   -1,264;    1,500
568,370;20267,000;    1,917;   -0,500
568,951;20087,879;    0,190;    0,227
569,533;20961,115;   -0,628;   -0,500
570,114;21401,089;   -0,446;    0,682
570,695;21868,791;   -0,174;   -1,318
571,277;22370,902;   -0,265;   -1,682
571,858;23055,643;    2,008;   -1,136
572,439;23956,136;    1,554;   -1,045
573,021;24147,438;    2,099;   -2,773
573,602;24583,598;   -1,265;    0,318
574,183;25511,589;   -2,083;    2,227
574,764;25620,735;   -1,629;    0,409
575,345;26133,572;    0,917;   -0,136
575,926;26763,166;   -0,356;    0,136
576,507;26743,778;    1,099;   -0,227
577,088;27829,565;    3,099;    1,682
577,669;27828,021;    0,735;    1,955
578,250;28526,589;    0,644;   -1,045
578,831;29183,706;   -1,356;   -2,227
579,412;29432,266;   -0,810;    0,955
579,993;30370,513;    1,008;    0,227
580,573;30747,273;   -0,629;   -0,955
581,154;29757,326;    0,735;   -0,591
581,735;30593,079;    0,644;    0,773
582,315;30060,352;   -0,629;    2,136
582,896;30388,280;   -0,174;    1,227
583,477;29923,139;    0,189;    1,227
584,057;30161,482;    0,553;    0,955
584,638;30429,422;    2,553;    2,318
585,218;30462,752;   -0,538;    2,682
585,799;30579,769;    0,281;   -0,227
586,379;30592,929;    0,372;    1,591
586,959;29476,742;    0,735;    0,318
587,540;28848,427;   -0,629;    2,227
588,120;28493,868;    1,007;   -0,045
588,700;27485,406;    2,553;    2,136
589,281;27798,211;    0,462;   -0,955
589,861;27708,889;    0,099;   -1,682
590,441;27523,487;    2,371;   -2,682
591,021;26548,966;   -0,265;   -2,591
591,601;26883,493;   -0,537;    0,500
592,181;26881,336;   -0,719;   -0,773
592,761;26176,781;    0,007;    1,409
593,341;26127,436;   -0,901;    0,045
593,921;26123,807;   -0,265;    1,591
594,501;26049,136;   -0,538;    1,318
595,081;25896,744;    0,917;   -0,318
595,661;26241,641;   -1,447;    0,955
596,240;26776,706;   -0,537;    0,136
596,820;26425,523;    0,372;    1,955
597,400;26597,939;    2,008;    0,773
597,980;26811,269;    2,008;    1,045
598,559;26795,752;    2,735;   -0,227
599,139;26551,490;   -0,174;   -1,227
599,718;26466,126;   -0,174;   -0,409
600,298;26737,510;    0,735;    0,682
600,877;26971,001;    2,917;    1,409
601,457;27293,091;    2,281;    1,136
602,036;27179,128;    0,190;    2,045
602,616;27358,540;    0,644;    1,682
603,195;27740,998;   -0,355;    3,500
603,774;27256,069;   -0,901;    2,045
604,354;27170,859;    0,826;   -0,500
604,933;26690,398;    0,463;    1,864
605,512;26768,924;    3,554;    0,591
606,091;26893,501;   -0,537;    3,773
606,671;27710,244;    0,281;    0,773
607,250;26820,156;    1,644;    3,136
607,829;27016,572;    2,372;    3,227
608,408;26969,013;    1,190;    2,591
608,987;25984,142;    1,281;    3,409
609,566;26306,279;   -1,265;   -2,500
610,145;26394,027;   -1,082;    0,682
610,723;26808,156;    4,372;    6,864
611,302;26079,036;   -0,446;    1,682
611,881;25556,322;    5,008;   11,227
612,460;26402,660;    1,645;    3,955
613,039;26894,748;   -0,082;    2,045
613,617;25663,700;    1,736;    4,773
614,196;25846,418;    1,099;    1,227
614,775;26145,078;    1,009;    2,409
615,353;26082,937;    0,736;    0,864
615,932;25872,821;    0,100;    2,409
616,510;26414,349;    0,554;    0,591
617,089;25955,977;    7,100;   17,591
617,667;25748,731;    2,372;    6,136
618,246;25602,106;   -1,537;    1,318
618,824;25736,809;   -3,355;   -0,955
619,402;25375,174;   -2,900;   -1,773
619,981;25861,970;   -0,173;   -1,045
620,559;25733,742;    0,009;    1,682
621,137;25272,722;   -0,718;    1,864
621,715;25251,032;   -1,173;   -0,682
622,293;25185,962;   -0,537;   -0,773
622,871;25663,178;   -0,718;    0,500
623,450;25225,321;    0,373;   -0,864
624,028;25144,590;    0,191;   -0,955
624,606;24808,784;   -1,718;    1,682
625,183;25201,548;   -1,536;   -1,136
625,761;24834,910;    1,009;    1,136
626,339;25132,398;    1,373;    2,591
626,917;25545,783;   -0,172;   -0,045
627,495;25554,456;   -0,354;    1,318
628,073;24973,916;   -0,263;    2,864
628,650;24704,562;    0,100;    2,136
629,228;25138,709;    0,373;    4,409
629,806;24528,383;    2,282;    1,136
630,383;24800,142;    1,464;   -0,318
630,961;24631,323;    2,555;   -0,955
631,539;24373,017;    2,464;    0,227
632,116;23629,960;   11,373;   15,409
632,694;24302,963;    2,555;    6,500
633,271;24595,213;    0,828;    2,682
633,848;24522,600;    1,828;    2,045
634,426;24602,529;   -1,081;    1,773
635,003;23733,619;    1,101;   -0,409
635,580;24013,340;    1,192;    3,682
636,158;24622,538;    3,737;    1,227
636,735;24607,062;    0,555;   -0,500
637,312;24726,942;   -0,809;   -0,682
637,889;24777,217;   -4,354;   -0,682
638,466;24259,148;   -3,990;   -0,409
639,043;24268,130;    2,101;   -1,136
639,620;24633,916;   -2,262;   -0,955
640,197;24952,870;    1,100;    1,682
640,774;25122,828;   -0,172;    1,136
641,351;25499,968;    0,737;    1,136
641,928;24902,654;   -0,627;    1,409
642,505;24548,522;    0,828;   -0,500
643,082;24702,844;   -1,718;    1,227
643,658;23738,257;   -0,718;    1,500
644,235;24509,216;    1,191;    2,500
644,812;24735,265;    1,918;    0,773
645,388;24486,587;   -0,991;    1,409
645,965;24623,091;   -0,809;    1,682
646,542;24709,232;   -1,445;   -0,227
647,118;24665,645;    1,009;   -0,955
647,695;24932,058;   -0,263;    1,136
648,271;24907,471;   -0,536;    0,500
648,848;25236,338;    0,736;    2,227
649,424;25021,115;    0,827;    1,318
650,000;24791,801;   -0,354;   -1,045
650,577;24618,032;   -0,627;   -0,955
651,153;25032,082;   -1,809;    0,955
651,729;26024,040;    1,191;    0,864
652,305;26142,999;    0,645;    2,773
652,881;30208,230;   -0,082;    1,136
653,458;36812,370;    1,100;    0,227
654,034;40636,783;    0,282;    1,591
654,610;42128,742;    0,554;    0,773
655,186;43467,428;    0,645;    3,045
655,762;43199,841;   -0,991;    0,409
656,338;43222,436;    0,100;    0,136
656,913;44185,758;   -0,082;    0,409
657,489;43476,898;    0,827;   -0,318
658,065;43467,766;   -0,173;   -1,591
658,641;44156,270;   -0,900;   -0,864
659,217;43495,683;   -0,991;    0,409
659,792;42887,732;    0,645;   -0,409
660,368;43106,509;   -2,173;   -0,682
660,944;42853,195;   -2,082;    1,227
661,519;38653,062;   -0,628;    0,409
662,095;32954,294;   -1,719;    0,591
662,670;28347,343;    1,281;   -0,136
663,246;27145,120;    1,009;   -0,409
663,821;26370,715;    0,281;    1,682
664,396;25880,855;    0,009;    1,864
664,972;26123,450;    0,009;   -0,500
665,547;26395,045;    1,372;    0,136
666,122;26438,367;   -1,082;    0,318
666,698;26773,598;   -0,173;    0,318
667,273;26097,648;   -0,173;    0,136
667,848;26880,697;    2,372;    1,500
668,423;26662,746;    2,190;    2,318
668,998;27241,978;    2,827;   -0,682
669,573;27760,027;   -3,264;   -1,500
670,148;27626,895;   -1,446;   -0,682
670,723;27444,035;   -1,810;    0,318
671,298;27793,084;    2,372;    1,045
671,873;27906,679;   -0,082;   -0,136
672,448;27876,638;    0,645;    0,136
673,023;28216,051;   -1,992;   -0,227
673,597;28557,464;    0,827;    2,318
674,172;28289,059;   -0,355;    0,318
674,747;27798,654;    0,372;   -1,045
675,321;27689,976;   -0,628;    3,318
675,896;27247,389;    0,645;    1,045
676,471;28227,711;    2,645;    1,591
677,045;27998,306;   -1,264;    0,682
677,620;28023,174;    0,190;    1,136
678,194;28391,405;   -2,628;    1,136
678,769;27949,182;   -1,083;   -0,318
679,343;28160,867;   -0,628;    1,773
679,917;28012,644;   -1,446;    1,955
680,492;28136,603;    0,826;    3,227
681,066;28256,107;    3,372;    0,409
681,640;28306,247;    1,463;   -0,318
682,214;29056,206;    0,735;    0,500
682,788;28629,619;   -1,356;   -0,773
683,363;28585,486;   -1,810;    1,682
683,937;28278,445;   -1,719;   -0,318
684,511;29059,494;    0,463;   -0,591
685,085;28740,635;   -1,356;    0,318
685,659;28497,502;   -2,538;    0,864
686,232;28723,370;   -0,356;   -0,318
686,806;28491,056;   -0,901;    0,409
687,380;29219,196;   -0,174;    0,591
687,954;29366,882;   -1,174;    1,136
688,528;29031,295;   -0,719;    1,955
689,101;29853,799;   -3,992;    1,045
689,675;29432,212;   -0,356;   -0,136
690,249;28803,261;   -0,719;    0,409
690,822;29086,583;    0,280;    0,318
691,396;29207,451;   -0,265;    1,227
691,969;28649,046;    1,280;    0,136
692,543;29159,186;   -0,447;   -1,955
693,116;28815,418;   -0,265;   -1,409
693,690;28684,467;    0,099;    0,500
694,263;29262,698;   -1,083;    2,955
694,836;29230,475;    1,371;    3,591
695,410;27905,706;   -0,265;    1,773
695,983;28362,937;    0,189;    0,591
696,556;28373,350;   -0,447;   -1,045
697,129;28762,764;   -0,356;    1,409
697,703;28382,722;   -1,629;    1,955
698,276;28374,226;    1,462;   -0,773
698,849;28186,366;    1,280;    1,409
699,422;28581,961;   -1,083;    0,591
699,995;28303,102;    0,007;    0,136
700,568;28719,787;   -0,629;    3,045
701,140;28777,837;   -2,811;    1,682
701,713;28498,068;   -0,174;    2,409
702,286;28246,027;   -0,538;    0,864
702,859;28159,076;   -0,902;   -0,591
703,432;27295,216;    0,825;    0,682
704,004;27803,811;    0,462;    0,318
704,577;27691,497;   -0,629;    0,136
705,150;28238,728;    0,189;    2,500
705,722;28032,687;   -0,356;   -3,227
706,295;27838,373;   -0,175;   -0,591
706,867;27647,149;   -0,175;    1,955
707,440;27875,108;   -1,720;   -0,409
708,012;28103,703;    0,462;    0,591
708,584;28028,116;    2,462;    0,227
709,157;28356,074;    1,825;   -0,591
709,729;28004,124;    2,280;    2,045
710,301;28853,991;    0,734;    0,045
710,874;28869,132;   -1,447;   -0,227
711,446;27759,908;    0,371;    0,864
712,018;27593,594;    0,098;    0,500
712,590;27351,735;   -1,993;    1,682
713,162;27867,420;    0,825;    1,318
713,734;28175,470;    1,825;   -2,045
714,306;28088,065;   -1,902;   -0,409
714,878;26772,569;    0,825;    0,864
715,450;27595,527;    0,643;    0,864
716,022;27857,213;    1,552;    1,318
716,593;28044,353;    0,189;    0,591
717,165;27928,403;   -3,175;   -1,227
717,737;27628,816;    0,280;    0,409
718,309;27333,956;    0,280;   -0,045
718,880;27295,642;   -0,539;   -1,409
719,452;27468,601;   -0,175;   -1,591
720,024;27029,105;    0,734;   -0,591
720,595;27624,336;   -2,902;    0,955
721,167;27217,476;    0,370;   -2,045
721,738;26712,889;   -0,812;   -1,045
722,309;26680,939;   -0,993;   -1,227
722,881;26467,534;   -1,357;    0,773
723,452;27116,401;   -2,630;    2,864
724,023;27289,723;   -0,721;    2,682
724,595;27022,500;    0,007;    0,682
725,166;26768,640;    0,007;   -0,409
725,737;26402,781;    1,734;    0,227
726,308;26521,285;   -0,266;    0,318
726,879;26939,698;   -1,630;    1,227
727,450;26817,202;    0,552;   -0,045
728,021;26795,433;    3,097;    0,682
728,592;26556,664;    0,734;    0,500
729,163;26904,623;    0,643;   -0,136
729,734;26935,490;    0,188;   -0,227
730,305;27306,631;    1,734;    0,136
730,876;27668,589;    0,188;    2,955
731,447;27324,548;    2,188;    2,682
732,017;27442,052;    1,097;    1,864
732,588;26911,919;    0,734;    1,227
733,159;27089,423;    0,643;   -1,045
733,729;26906,382;    0,006;    0,409
734,300;26196,613;    0,915;    0,864
734,870;26632,844;    3,461;    0,591
735,441;27199,985;    0,370;   -0,591
736,011;26929,398;    0,643;   -1,591
736,582;26907,447;   -0,812;    0,045
737,152;26388,042;   -1,721;   -2,045
737,722;26813,364;   -0,267;   -0,682
738,293;26557,050;   -1,358;    1,318
738,863;26408,190;    2,461;    2,318
739,433;26228,149;    5,279;    0,318
740,003;26870,744;   -0,994;   -0,682
740,573;26274,248;    2,097;   -1,591
741,143;26243,570;   -1,085;    0,318
741,713;27005,074;    1,188;   -0,500
742,283;26685,305;    0,915;    1,591
742,853;26456,264;    1,915;    1,591
743,423;25976,586;    1,733;    0,045
743,993;26037,090;   -0,358;    1,500
744,563;25404,776;    0,097;   -0,864
745,133;25402,825;   -0,812;   -0,864
745,702;26179,511;   -0,267;    1,773
746,272;25379,742;   -0,176;    0,591
746,842;25120,519;   -1,358;   -0,591
747,411;25537,932;   -0,267;   -0,318
747,981;25719,890;    0,097;    0,500
748,551;25753,303;    2,278;   -1,045
749,120;25607,444;    0,642;   -0,227
749,690;25990,039;   -0,631;    2,409
750,259;26293,270;    1,369;    2,955
750,828;26223,228;    1,551;   -1,955
751,398;26559,278;    1,278;   -0,045
751,967;26008,236;    2,187;    0,409
752,536;26254,468;   -0,813;   -0,227
753,105;26660,517;    0,096;    0,227
753,675;26458,930;    0,096;    1,773
754,244;26331,707;   -0,904;    3,591
754,813;26413,120;    0,551;    1,227
755,382;25973,806;    0,460;    0,955
755,951;26536,037;    1,551;    3,682
756,520;26062,996;   -0,085;    1,864
757,089;26583,681;    0,278;    0,500
757,658;26755,549;    1,733;    1,227
758,227;26778,326;    1,096;    0,318
758,795;27105,193;    1,187;    1,136
759,364;27274,606;   -0,086;   -0,591
759,933;26283,929;   -1,176;   -0,045
760,501;25845,796;    0,733;   -1,318
761,070;26294,573;   -2,813;   -1,409
761,639;26999,168;   -1,904;    1,318
762,207;26317,217;    1,551;   -0,955
762,776;26266,267;    0,369;    0,864
763,344;26254,316;   -0,995;    0,591
763,913;25454,729;   -0,722;    1,409
764,481;26119,324;    1,005;   -0,136
765,049;25926,646;   -1,358;    1,409
765,618;25814,150;   -0,086;    0,318
766,186;25919,836;    0,278;    0,136
766,754;26063,340;    0,005;    1,864
767,322;25096,298;   -1,995;    0,409
767,890;25135,439;   -0,722;   -1,773
768,459;25532,034;   -2,177;   -0,318
769,027;25684,992;    1,641;    3,409
769,595;24678,133;    3,278;    2,591
770,163;25112,637;    3,823;    2,955
770,730;24875,595;    0,732;   -0,136
771,298;24719,735;    0,187;   -1,409
771,866;24862,603;   -1,541;    4,955
772,434;25155,289;   -0,631;   -1,864
773,002;25311,156;    0,005;    0,682
773,569;24986,388;    0,914;    1,682
774,137;24754,801;   -0,268;   -0,045
774,705;25617,941;    0,278;   -0,136
775,272;25121,172;    0,641;    0,682
775,840;24819,131;   -0,177;    2,682
776,407;24366,089;    0,277;    1,955
776,975;23965,502;   -0,632;    0,318
777,542;24994,006;   -1,086;   -0,045
778,110;24825,238;   -1,268;   -0,045
778,677;24544,014;   -2,359;   -0,864
779,244;24292,609;    2,186;    1,045
779,812;24351,841;    1,823;    0,864
780,379;24238,072;    0,005;    1,136
780,946;24450,576;    1,005;   -0,773
781,513;24809,080;   -1,450;    0,318
782,080;24184,493;   -0,086;    2,864
782,647;24926,815;   -0,268;    3,045
783,214;24501,410;   -0,177;    3,864
783,781;24138,368;   -0,723;   -0,682
784,348;24011,691;   -0,632;    1,500
784,915;24431,467;   -3,177;    0,318
785,482;24243,062;    1,368;    2,591
786,049;24691,293;    0,186;   -0,591
786,615;24813,252;    0,277;   -0,955
787,182;24552,938;    0,186;   -0,682
787,749;24238,260;   -2,814;    1,409
788,315;23575,037;   -1,632;   -0,409
788,882;23869,631;    1,550;   -1,227
789,448;24502,954;    1,732;   -0,955
790,015;24582,185;    1,095;    3,227
790,581;24074,416;    1,459;    0,227
791,148;24003,556;    0,641;    1,045
791,714;24247,879;   -0,541;    3,136
792,280;23948,655;    0,186;    1,591
792,847;23511,159;    0,550;    2,500
793,413;24051,300;   -0,269;   -0,318
793,979;23599,895;    3,459;   -1,318
794,545;23657,944;    4,459;    2,682
795,111;23050,721;    2,186;    1,318
795,678;23237,679;    0,731;   -1,682
796,244;22884,910;    3,368;    0,136
796,810;23428,596;    1,731;    0,773
797,375;23150,918;    0,549;   -2,136
797,941;23207,604;   -0,541;    0,591
798,507;23358,017;   -0,451;   -0,955
799,073;22889,885;   -0,360;    0,591
799,639;22964,389;   -2,632;    3,136
800,205;23032,166;    0,095;    2,682
800,770;22539,397;    0,640;    1,773
801,336;22624,264;    1,368;   -0,955
801,901;22339,496;    4,549;    3,136
802,467;22900,000;   -0,542;    2,045
803,033;22260,595;   -0,087;    0,864
803,598;22457,189;    1,913;   -1,045
804,163;22509,875;    1,095;   -0,318
804,729;22412,652;   -0,178;    1,136
805,294;22842,065;    0,822;    2,227
805,859;22635,660;    0,731;   -0,409
806,425;22086,255;    1,186;    2,682
806,990;21733,486;    2,186;    4,318
807,555;22252,172;   -1,451;    2,591
808,120;22108,312;    0,822;   -0,409
808,685;22150,816;    0,185;   -2,500
809,250;21710,684;    0,004;   -0,500
809,815;22049,733;    1,913;    0,682
810,380;22582,146;   -0,269;    1,591
810,945;23068,014;   -1,087;    2,045
811,510;22255,154;    2,094;    1,591
812,075;21980,567;   -0,633;   -1,409
812,640;21992,526;    2,003;    1,409
813,204;22073,939;    0,822;   -0,227
813,769;22553,443;    2,094;   -0,045
814,334;22008,311;    0,458;    0,864
814,898;22039,815;    0,367;    0,591
815,463;21920,137;    1,276;   -0,773
816,027;21883,550;   -0,724;   -2,318
816,592;21980,872;    0,640;   -2,045
817,156;21498,830;    2,094;    1,136
817,721;21327,971;    4,276;    2,318
818,285;21277,293;    2,912;    1,500
818,849;21899,342;   -1,451;    1,682
819,414;21823,483;   -0,269;    2,955
819,978;21420,623;   -1,269;    1,773
820,542;22020,945;    2,003;    0,500
821,106;21712,086;   -0,815;    0,682
821,670;21809,135;   -0,815;    2,591
822,234;21513,548;   -0,270;    1,409
822,798;20932,416;    0,003;    0,500
823,362;20881,920;   -0,633;    4,227
823,926;20196,242;    0,094;    1,136
824,490;20439,109;   -0,997;   -0,682
825,054;20858,068;   -0,088;   -1,136
825,618;20433,208;   -1,542;   -1,500
826,181;20378,803;    0,458;   -1,318
826,745;20326,307;    1,367;   -1,045
827,309;20648,084;    1,185;    1,318
827,872;20092,406;    1,367;    0,955
828,436;21022,910;    1,185;   -0,773
828,999;21131,505;   -0,997;    1,227
829,563;19983,373;   -0,179;    1,136
830,126;19799,967;   -0,179;   -0,591
830,690;19758,471;   -1,997;    2,864
831,253;19298,703;   -0,543;    2,227
831,816;19422,025;   -1,906;    0,500
832,380;19394,529;    0,185;    0,864
832,943;19592,305;   -1,361;   -0,500
833,506;19089,719;    2,639;   -1,227
834,069;19875,223;    3,912;   -0,955
834,632;19983,454;    1,730;    1,318
835,195;19865,594;    1,003;    0,955
835,758;19019,098;   -0,997;    1,955
836,321;18844,329;    0,730;   -1,045
836,884;18974,106;   -0,725;   -0,955
837,447;19011,883;   -2,816;    1,773
838,010;19279,932;    0,366;    3,227
838,573;19550,891;   -1,179;    0,773
839,135;19548,577;   -1,361;   -0,955
839,698;18990,353;    1,275;    0,409
840,261;18540,584;    1,003;   -0,227
840,823;18381,998;   -0,543;    0,864
841,386;18647,138;   -0,452;   -2,409
841,948;18495,460;   -1,361;    1,773
842,511;18266,419;    0,912;    1,682
843,073;18375,741;    1,912;    0,227
843,636;18207,063;   -0,361;   -0,227
844,198;18109,840;    0,911;    0,591
844,760;18244,889;    1,093;    1,955
845,322;17929,938;    0,548;    1,136
845,885;18328,988;    0,730;    0,591
846,447;18751,856;   -1,998;    0,227
847,009;18324,178;    1,911;   -0,682
847,571;18704,954;    0,820;   -2,045
848,133;18806,731;   -1,089;   -1,864
848,695;18591,417;   -0,543;    1,409
849,257;18169,103;   -1,089;   -1,682
849,819;18349,152;   -0,998;   -0,409
850,381;18388,020;   -0,725;   -0,864
850,942;18742,706;    1,093;   -0,591
851,504;18641,391;    1,184;    0,227
852,066;18709,168;    1,275;   -1,591
852,628;18253,763;   -0,180;    1,955
853,189;17846,267;    1,638;    2,682
853,751;18006,680;   -0,907;    1,409
854,312;17816,002;   -0,453;   -1,682
854,874;18271,052;   -2,089;   -0,773
855,435;18789,828;   -0,907;   -1,682
855,997;18943,060;   -1,816;   -0,136
856,558;18215,564;    0,366;    1,773
857,119;18338,886;    0,820;    2,864
857,681;18003,753;    0,002;    0,318
858,242;18069,166;    1,911;   -2,136
858,803;18530,307;    0,456;   -0,773
859,364;19066,902;    0,184;   -4,773
859,925;18393,315;   -2,453;   -0,955
860,486;18285,091;   -0,453;   -0,955
861,047;18047,050;   -0,544;   -1,227
861,608;17810,554;   -1,089;   -0,773
862,169;17941,421;    0,638;   -0,045
862,730;17744,562;    0,456;    1,409
863,291;17981,702;   -0,635;   -0,500
863,852;18366,297;   -0,635;    1,955
864,412;17853,801;   -0,271;   -0,864
864,973;16386,760;   -0,089;    0,500
865,534;16254,718;   -1,726;    0,227
866,094;17744,313;    1,820;    0,227
866,655;17396,544;    1,274;    3,318
867,215;17699,139;    0,274;    0,136
867,776;17573,916;    0,547;   -0,136
868,336;17694,056;   -1,453;    0,136
868,897;17123,469;    2,638;    1,682
869,457;16879,064;    1,365;    0,318
870,017;17110,114;    0,547;   -1,227
870,578;17608,981;   -0,817;    0,773
871,138;17298,485;   -2,089;   -0,955
871,698;16839,171;   -0,817;   -1,318
872,258;16739,857;   -0,453;   -2,864
872,818;17067,997;    2,729;    0,045
873,378;17039,410;    0,638;    1,045
873,938;16609,551;    0,547;    0,500
874,498;16963,782;    0,274;   -1,955
875,058;16824,468;    2,183;    1,773
875,618;16648,972;    1,910;   -2,682
876,177;16602,112;    1,274;    0,136
876,737;16237,889;   -0,090;    1,955
877,297;16238,665;    0,183;    1,955
877,856;16239,624;   -0,362;    0,318
878,416;16198,946;    1,183;   -0,136
878,976;16414,268;   -1,817;    0,409
879,535;16602,590;    0,092;    3,136
880,095;16358,367;   -0,544;    0,045
880,654;16451,507;   -1,090;    1,318
881,213;16534,011;    2,456;    1,500
881,773;16158,879;    2,637;    2,682
882,332;16492,019;    3,365;    5,136
882,891;16388,978;    3,092;    2,136
883,451;16839,845;   -1,272;    1,682
884,010;16288,895;   -2,908;   -0,409
884,569;16366,672;   -0,999;   -0,045
885,128;16483,903;    2,819;   -1,864
885,687;16569,861;    4,455;    0,682
886,246;16263,365;    1,455;    2,136
886,805;16016,324;    2,455;    2,045
887,364;16330,919;   -0,999;   -0,500
887,922;16703,241;   -1,181;    0,045
888,481;16210,745;   -1,545;    0,591
889,040;16544,794;    1,183;    2,136
889,599;17224,935;    2,455;    1,409
890,157;17254,620;    1,455;    2,409
890,716;16928,124;   -0,090;    0,227
891,274;16735,356;    0,092;   -1,136
891,833;17159,314;    1,546;    0,864
892,391;17019,455;   -0,454;    0,500
892,950;17100,868;    1,819;   -0,773
893,508;17487,826;    0,455;   -0,409
894,067;16891,966;    0,637;    0,136
894,625;16777,380;   -0,636;   -1,500
895,183;17021,338;   -0,363;   -0,682
895,741;16881,115;    1,728;   -1,773
896,299;16703,710;   -0,545;   -2,409
896,858;16898,032;    0,819;   -1,591
897,416;17020,990;    2,728;   -1,318
897,974;16763,767;    1,819;    0,318
898,532;16877,998;    6,091;    2,682
899,089;16820,684;    2,091;   -0,682
899,647;16842,643;   -1,454;    1,318
900,205;16564,601;    1,182;    1,045
900,763;16803,651;   -0,454;    0,227
901,321;16815,064;    2,364;   -1,409
901,878;16240,204;   -1,000;   -0,773
902,436;16123,981;   -1,363;    1,318
902,994;16505,576;    4,728;    3,682
903,551;15928,261;    0,728;    0,409
904,109;16294,765;    0,182;   -1,409
904,666;15905,360;    2,455;    1,045
905,224;15751,137;    0,182;   -0,409
905,781;15495,641;    0,727;   -0,318
906,338;15541,418;   -1,363;    1,045
906,895;15498,376;    0,637;    2,045
907,453;15430,607;    1,727;    1,136
908,010;15486,748;   -0,909;    0,409
908,567;15120,797;    1,273;    0,591
909,124;14649,574;    0,364;   -1,500
909,681;14739,805;   -2,909;    0,682
910,238;14896,400;    0,636;   -1,318
910,795;15205,359;   -0,273;   -1,136
911,352;14838,268;   -2,909;   -2,682
911,909;14220,631;   -1,364;   -0,864
912,466;14696,995;   -3,182;    1,500
913,022;14286,177;   -1,636;    0,500
913,579;14651,813;   -0,909;    2,045
914,136;14328,449;    1,636;    0,955
914,692;14637,177;    0,091;   -1,227
915,249;14266,540;    1,455;    0,409
915,806;14470,813;    0,182;    1,955
916,362;14246,813;    1,909;    1,864
916,918;13791,449;    2,000;    1,045
917,475;13749,359;   -1,182;    0,955
918,031;13864,177;    3,364;   -0,045
918,587;13327,813;   -0,909;   -0,318
919,144;13521,449;   -2,273;    0,227
919,700;13834,631;    1,727;    0,773
920,256;13448,813;    0,727;    0,045
920,812;13072,359;   -0,727;   -1,045
921,368;13059,995;   -1,727;   -1,045
921,924;12696,722;    0,182;   -0,136
922,480;12274,086;   -0,545;    1,227
923,036;12872,722;    1,273;    1,955
923,592;12800,904;    0,455;    0,318
924,148;12749,995;    0,455;   -0,955
924,704;12081,177;   -1,364;   -0,409
925,259;12350,449;   -0,273;    0,591
925,815;12072,268;    1,455;    0,500
926,371;11641,722;    2,909;    1,409
926,926;11533,359;    2,091;    0,591
927,482;11155,631;   -1,364;    0,773
928,037;11042,540;    0,909;    2,045
928,593;11321,359;    1,636;    1,045
929,148;11159,086;   -1,818;   -1,500
929,704;10616,449;   -1,455;   -0,500
930,259;10887,086;    0,091;   -0,136
930,814; 9955,904;   -0,818;    1,955
931,369; 9626,631;    1,091;   -0,773
931,925; 9517,904;   -0,091;    0,136
932,480; 9438,722;   -2,818;   -2,591
933,035; 9322,359;    0,545;   -0,318
933,590; 9064,813;    0,364;   -1,773
934,145; 8742,722;   -1,364;   -0,318
934,700; 9084,359;    0,455;   -0,591
935,255; 8914,177;   -0,091;    0,045
935,809; 8166,904;    3,182;    0,864
936,364; 7300,904;   -0,455;   -0,136
936,919; 7283,722;    0,455;   -1,773
937,474; 7150,995;    1,455;    0,136
938,028; 6939,086;   -1,636;    1,136
938,583; 6401,449;    1,818;    4,682
939,138; 6708,722;    2,091;    2,136
939,692; 6166,086;    1,636;   -1,136
940,247; 5868,177;   -0,727;   -1,045
940,801; 5428,995;   -0,636;    0,227
941,355; 5312,268;   -0,364;    2,591
941,910; 4977,449;   -0,273;   -2,136
942,464; 5086,904;   -0,818;   -0,318
943,018; 4880,449;    1,000;   -0,227
943,572; 4838,904;    2,545;   -0,682
944,126; 4271,359;    0,091;   -0,409
944,681; 4151,268;    3,091;    0,227
945,235; 4125,359;    1,000;   -0,591
945,789; 4077,177;    0,364;   -1,864
946,342; 4171,722;    0,455;   -0,591
946,896; 3970,177;   -2,273;    0,955
947,450; 3745,813;    1,545;   -0,227
948,004; 3946,449;    1,727;   -0,045
948,558; 3942,086;    0,273;   -0,864
949,111; 3863,631;   -0,273;   -0,318
949,665; 3870,268;    1,636;   -0,682
950,219; 3754,631;   -0,091;   -1,045
950,772; 3840,722;   -1,909;    1,864
951,326; 3736,449;    0,545;   -0,955
951,879; 3855,086;    0,727;   -2,318
952,433; 3889,086;    0,000;    2,227
952,986; 3715,086;    2,909;    0,682
953,539; 3662,813;   -0,273;    0,591
954,093; 3618,540;    0,545;   -1,318
954,646; 3728,995;    0,909;    1,318
955,199; 3530,540;    0,000;   -0,500
955,752; 3432,813;   -0,455;    1,773
956,305; 3400,359;   -0,091;    2,955
956,858; 3545,177;    0,818;   -0,318
957,411; 3696,813;   -0,545;    2,136
957,964; 3543,722;    1,364;    2,136
958,517; 3551,904;   -1,545;    3,136
959,070; 3387,904;   -0,455;    1,955
959,623; 3469,995;    1,091;    1,500
960,176; 3234,359;    1,727;    2,045
960,728; 3199,722;   -2,727;    0,773
961,281; 3272,631;    0,545;    0,500
961,834; 3314,449;   -0,909;    0,864
962,386; 3212,268;    1,727;    1,045
962,939; 3153,540;    0,364;   -0,318
963,491; 3294,268;    0,455;    1,136
964,043; 3176,449;    1,182;    2,409
964,596; 3291,995;   -1,000;    2,227
965,148; 3125,540;   -1,000;    1,773
965,700; 3068,449;    1,091;   -0,227
966,253; 3224,359;   -0,636;    0,318
966,805; 3037,359;   -2,273;    0,773
967,357; 3093,631;    1,091;   -1,500
967,909; 3042,813;    0,455;   -1,227
968,461; 3150,904;    0,545;    3,136
969,013; 3096,086;   -0,182;   -0,864
969,565; 3181,995;   -0,455;   -1,136
970,117; 3240,449;   -0,364;    1,045
970,669; 3088,813;    0,182;   -0,136
971,220; 2942,359;   -0,455;   -1,500
971,772; 2866,722;   -0,636;   -0,318
972,324; 2981,086;    0,091;   -0,500
972,876; 2920,995;    0,818;   -0,045
973,427; 3056,904;    1,909;   -1,045
973,979; 3030,813;   -0,727;   -2,500
974,530; 3081,177;    1,818;    1,318
975,082; 3080,631;   -0,545;    1,682
975,633; 2972,449;    1,091;    1,682
976,184; 3107,359;    0,909;    0,773
976,736; 2900,904;    0,091;    0,227
977,287; 2718,904;   -0,909;   -0,500
977,838; 2890,813;    0,909;   -0,318
978,389; 2944,086;   -1,000;   -0,500
978,940; 2814,813;    0,545;   -0,409
979,491; 2838,904;    0,091;   -0,500
980,042; 2822,449;    0,182;    3,045
980,593; 2882,449;   -2,545;    0,227
981,144; 2917,631;    2,545;   -0,500
981,695; 2878,631;    1,455;    1,500
982,246; 2849,995;   -0,273;    1,045
982,797; 3013,813;   -1,727;    0,682
983,347; 3107,268;    0,364;    0,591
983,898; 3268,268;    3,091;    0,409
984,449; 3103,449;    2,182;    0,773
984,999; 2997,359;    1,455;   -1,136
985,550; 2786,359;    0,182;   -0,318
986,100; 2835,086;   -0,455;   -0,318
986,651; 2855,540;   -0,818;    0,045
987,201; 2842,995;   -1,000;   -0,591
987,751; 2913,813;    0,818;    2,864
988,302; 2897,904;    2,636;    1,500
988,852; 2931,995;    0,455;   -1,136
989,402; 2972,177;    0,091;    0,682
989,952; 2893,631;   -2,182;    0,864
990,502; 2985,995;   -0,091;    0,682
991,052; 2949,722;   -0,727;    0,045
991,602; 2823,268;   -2,909;    1,318
992,152; 2816,995;    0,455;    0,682
992,702; 2804,995;    1,364;   -0,045
993,252; 2740,904;   -3,000;   -0,500
993,802; 2818,904;   -0,273;    1,318
994,352; 3058,995;   -1,545;    1,136
994,901; 3132,631;   -0,182;    3,227
995,451; 3057,995;   -0,182;    0,318
996,000; 3142,813;    1,636;    0,318
996,550; 2867,177;    2,273;    0,227
997,100; 2862,177;    1,273;   -0,045
997,649; 3142,904;    2,182;    0,955
998,198; 2780,904;    1,727;   -1,500
998,748; 2959,086;    1,091;   -2,318
999,297; 2892,722;   -0,818;   -0,409
999,846; 2947,359;    1,000;   -0,773
1000,395; 2981,631;   -0,818;    0,500
1000,945; 2928,540;    1,818;   -0,773
1001,494; 3026,268;    2,364;    0,682
1002,043; 3026,722;    4,636;    0,864
1002,592; 2855,268;   -1,091;    1,955
1003,141; 3009,631;   -0,455;   -0,682
1003,690; 2859,177;    1,727;    0,500
1004,238; 2933,631;    1,455;   -0,045
1004,787; 2592,540;    1,364;    1,227
1005,336; 2819,268;    0,364;    0,682
1005,885; 2957,449;    1,364;   -2,773
1006,433; 3097,813;    0,545;    0,955
1006,982; 3149,722;    0,455;    1,682
1007,531; 3067,268;   -1,818;   -0,227
1008,079; 3013,631;   -2,273;    0,500
1008,627; 3171,359;   -1,455;    0,409
1009,176; 2918,722;    0,000;   -1,955
1009,724; 2943,722;    1,091;    0,864
1010,273; 2994,722;    1,273;    0,500
1010,821; 3115,631;    0,091;    1,409
1011,369; 2853,177;   -1,364;    1,318
1011,917; 2844,086;   -1,364;   -0,591
1012,465; 3119,449;    1,273;   -1,591
1013,013; 3227,995;    2,091;   -1,682
1013,561; 3101,359;    0,455;   -0,773
1014,109; 3146,995;   -1,909;    1,682
1014,657; 3036,813;    0,364;    0,591
1015,205; 3161,722;    1,636;   -0,955
1015,753; 3183,631;   -0,545;   -1,409
1016,301; 3211,449;   -2,636;    3,045
1016,848; 3208,904;   -1,273;    0,409
1017,396; 3270,449;    2,545;    0,045
1017,944; 3398,540;    1,182;    1,864
1018,491; 3162,722;    0,273;    1,409
1019,039; 3302,813;    0,455;    0,591
1019,586; 3241,904;   -1,364;    1,682
1020,134; 3335,268;    0,455;    1,500
1020,681; 3335,995;    0,182;   -1,136
1021,228; 3354,540;    2,909;   -2,227
1021,776; 3193,449;    1,182;   -1,136
1022,323; 3391,177;    0,455;    0,773
1022,870; 3339,177;   -1,000;   -0,045
1023,417; 3244,177;    2,636;    1,864
1023,964; 3395,359;    2,636;    1,227
1024,511; 3222,722;    1,000;    0,773
1025,058; 3020,995;    3,182;   -0,045
1025,605; 3081,177;   -2,273;    3,136
1026,152; 3283,359;    1,727;   -0,591
1026,699; 3036,449;    1,818;    1,318
1027,245; 3193,995;   -0,091;    0,318
1027,792; 3396,449;   -1,000;    1,409
1028,339; 3261,631;    2,364;   -0,045
1028,885; 3126,540;    1,000;   -0,227
1029,432; 3078,813;   -0,091;    0,227
1029,978; 3136,995;   -1,000;   -1,591
1030,525; 3055,268;    1,000;    0,409
1031,071; 3300,904;   -1,364;    1,136
1031,618; 3386,722;    0,364;    1,682
1032,164; 3171,540;   -0,091;    3,045
1032,710; 3229,268;    1,636;   -1,500
1033,256; 3151,722;   -0,636;   -0,136
1033,803; 3132,177;   -0,545;    1,500
1034,349; 2861,086;   -1,364;    0,136
1034,895; 3021,268;    0,000;   -0,318
1035,441; 2982,359;   -0,818;    0,318
1035,987; 2992,359;   -2,364;   -0,682
1036,533; 3001,813;   -1,455;   -0,955
1037,078; 3186,268;    1,455;    1,682
1037,624; 3019,904;    2,455;   -0,955
1038,170; 3046,722;    0,455;   -0,318
1038,716; 2946,268;    1,636;   -0,409
1039,261; 2863,177;   -2,273;   -0,773
1039,807; 2811,177;   -0,091;    3,409
1040,352; 2863,359;   -1,909;   -0,318
1040,898; 2925,722;   -1,545;   -0,682
1041,443; 2832,268;   -1,455;   -2,591
1041,989; 2828,813;    1,091;    1,591
1042,534; 2712,722;   -0,364;    2,591
1043,079; 2863,722;    2,909;    0,955
1043,625; 2626,086;    1,818;    0,500
1044,170; 2690,813;   -1,364;    1,045
1044,715; 2920,359;    2,455;    0,955
1045,260; 2732,086;    2,182;   -0,955
1045,805; 2809,177;    1,182;   -0,591
1046,350; 2744,813;    1,364;   -0,409
1046,895; 2690,813;    2,909;    1,591
1047,440; 2638,449;    5,364;    0,409
1047,985; 2554,631;    2,818;   -0,955
1048,530; 2454,449;    1,545;    1,227
1049,074; 2536,268;    0,000;    0,318
1049,619; 2518,086;   -1,364;    1,955
1050,164; 2301,995;    0,455;    0,227
1050,708; 2338,449;   -0,455;    0,045
1051,253; 2710,086;    1,273;   -2,227
1051,797; 2432,813;    0,818;   -1,318
1052,342; 2460,086;   -1,182;    1,045
1052,886; 2424,722;    0,364;   -1,409
1053,430; 2323,631;   -1,364;    0,136
1053,975; 2339,995;   -0,818;   -0,318
1054,519; 2317,813;   -0,727;    3,227
1055,063; 2327,995;    0,909;    1,318
1055,607; 2216,722;   -0,182;    0,227
1056,151; 2225,904;    2,909;    1,682
1056,695; 2160,177;    2,273;   -1,136
1057,239; 2230,268;   -1,727;   -0,682
1057,783; 2227,359;    0,818;   -1,500
1058,327; 2165,540;    0,000;    1,409
1058,871; 2402,722;   -0,545;    1,318
1059,415; 2121,268;   -0,818;   -0,045
1059,958; 2355,813;    1,455;    2,591
1060,502; 2078,086;   -1,000;   -0,773
1061,046; 1994,177;    0,364;   -0,955
1061,589; 1994,813;   -3,000;   -1,136
1062,133; 1871,086;   -1,273;    1,864
1062,676; 1816,086;    1,182;    0,864
1063,220; 1797,995;    1,091;    0,500
1063,763; 1825,722;    0,909;    1,136
1064,306; 1901,449;   -0,909;    1,864
1064,849; 1788,813;   -0,909;    0,591
1065,393; 1794,631;    2,000;   -1,500
1065,936; 1905,995;    0,182;   -0,409
1066,479; 1807,722;   -1,455;    1,318
1067,022; 1832,722;   -0,273;   -0,227
1067,565; 1722,813;   -0,091;   -1,318
1068,108; 1749,631;    0,727;   -0,591
1068,651; 1726,268;   -0,636;    1,409
1069,194; 1657,268;   -0,455;   -1,682
1069,736; 1659,268;   -1,273;    0,955
1070,279; 1625,904;   -1,364;   -0,500
1070,822; 1681,449;   -2,000;   -0,318
1071,364; 1766,177;   -0,364;    1,318
1071,907; 1574,449;   -0,727;    3,227
1072,450; 1488,995;    0,000;   -0,045
1072,992; 1492,086;   -0,273;    3,136
1073,535; 1634,177;    2,091;    2,136
1074,077; 1421,177;   -0,727;    2,045
1074,619; 1379,449;   -1,364;    0,591
1075,161; 1415,540;   -1,091;    1,500
1075,704; 1599,086;    1,545;    1,227
1076,246; 1405,722;   -0,182;    0,682
1076,788; 1332,268;   -0,364;    1,773
1077,330; 1407,540;    1,273;    2,136
1077,872; 1366,631;    0,909;    0,955
1078,414; 1590,813;    2,727;    0,773
1078,956; 1327,268;    1,273;   -0,227
1079,498; 1576,086;    1,636;    0,318
1080,040; 1288,268;    1,909;   -1,318
1080,581; 1222,449;    1,636;   -0,318
1081,123; 1160,813;    0,091;   -0,773
1081,665; 1206,904;   -1,182;   -0,955
1082,206; 1491,177;    1,364;   -0,500
1082,748; 1357,904;    0,727;    2,045
1083,289; 1245,995;   -2,000;    1,318
1083,831; 1150,631;   -0,545;    0,227
1084,372; 1176,722;    0,000;    0,591
1084,913; 1182,631;    1,091;    0,864
1085,455; 1146,995;   -1,909;   -2,045
1085,996; 1123,904;   -2,273;    0,136
1086,537; 1143,904;   -0,091;    0,864
1087,078; 1181,722;   -0,909;   -2,136
1087,619; 1214,813;   -1,273;    0,227
1088,160; 1132,449;    0,000;    1,318
1088,701; 1127,268;   -1,091;    0,682
1089,242; 1063,359;    1,364;   -2,227
1089,783; 1155,268;   -0,273;    1,409
1090,324; 1122,631;    0,455;    0,682
1090,865; 1017,904;    2,727;   -0,409
1091,405;  969,268;    0,727;    2,227
1091,946; 1007,995;    0,182;   -0,955
1092,487;  928,904;    0,818;   -1,409
1093,027; 1092,631;   -1,364;   -1,500
1093,568;  949,722;   -0,364;    1,227
1094,108; 1043,631;    0,273;    1,773
1094,649;  971,177;   -1,182;    0,136
1095,189;  912,177;   -0,636;   -0,682
1095,729;  858,449;   -0,091;    0,955
1096,269;  870,449;    0,727;   -0,955
1096,810; 1178,540;   -1,364;    0,500
1097,350; 1011,813;    1,364;   -0,773
1097,890;  905,995;    0,364;    1,227
1098,430; 1148,086;    2,364;    2,864
1098,970; 1024,177;    2,182;    1,682
1099,510;  895,813;    0,545;   -2,318
1100,050;  825,904;    1,000;   -1,591
1100,589;  791,540;   -0,727;   -0,318
1101,129;  905,631;    0,818;   -0,955
1101,669; 1052,268;    1,727;    2,136
1102,209;  891,359;   -0,091;    2,227
1102,748;  850,631;    0,000;    0,955
1103,288;  825,268;    1,273;   -1,227
1103,827;  853,722;    3,091;   -2,227
1104,367;  741,631;   -0,091;   -2,409
1104,906;  697,904;    1,364;   -1,136
1105,445;  765,086;    0,636;   -1,136
1105,985;  719,177;   -0,727;    1,500
1106,524;  765,813;   -1,727;   -0,682
1107,063;  742,359;   -2,727;    1,409
1107,602;  716,722;   -1,909;   -1,500
1108,141;  635,177;   -1,909;    1,500
1108,680;  739,904;   -3,455;   -0,591
1109,219;  683,540;   -0,909;   -0,500
1109,758;  669,904;    0,455;    0,682
1110,297;  646,813;    1,000;   -0,682
1110,836;  594,904;   -0,727;    0,955
1111,375;  765,813;   -2,545;    0,409
1111,913;  767,631;   -1,000;    0,773
1112,452;  708,540;   -0,273;    0,136
1112,991;  595,813;    1,091;    1,955
1113,529;  555,359;   -0,818;   -0,045
1114,068;  628,722;   -0,273;    2,955
1114,606;  526,540;   -0,364;   -0,955
1115,144;  678,631;   -1,273;    1,045
1115,683;  610,631;   -0,727;    0,318
1116,221;  667,177;   -0,455;   -0,864
1116,759;  574,995;    0,636;   -0,864
1117,297;  765,813;    0,000;    1,864
1117,836;  578,995;   -2,182;   -1,227
1118,374;  581,086;    0,182;   -0,682
1118,912;  525,904;    0,909;    2,682
1119,450;  515,722;    1,000;    0,864
1119,988;  567,359;    1,545;    2,136
1120,525; 1017,631;    5,091;    3,318
1121,063;  726,813;    1,182;    1,864
1121,601;  528,086;   -0,909;   -1,227
1122,139;  490,813;   -0,727;   -2,045
1122,676;  689,359;   -0,727;    2,773
1123,214;  611,177;   -1,182;    4,409
1123,751;  436,086;    1,727;    2,227
1124,289;  572,086;   -0,091;   -0,409
1124,826;  433,722;    1,727;    0,227
1125,364;  350,540;    1,727;   -0,955
1125,901;  538,904;    1,182;    1,227
1126,438;  657,904;    0,818;    0,955
1126,975;  376,631;   -0,727;   -0,773
1127,513;  447,177;    0,273;    2,136
1128,050;  358,086;    1,636;   -0,682
1128,587;  450,995;    2,000;   -0,227
1129,124;  490,449;    0,091;    1,318
1129,661;  363,359;    0,273;    0,227
1130,198;  528,449;    1,636;    0,773
1130,734;  473,722;    0,182;    1,409
1131,271;  330,540;   -0,909;    0,864
1131,808;  504,177;    2,909;    3,045
1132,345;  374,540;    1,545;    0,318
1132,881;  248,268;   -1,545;   -1,864
1133,418;  382,904;    0,727;   -1,136
1133,954;  323,449;    2,455;   -2,682
1134,491;  390,086;    1,364;   -0,773
1135,027;  296,359;    2,364;    0,864
1135,564;  385,359;    0,273;    2,955
1136,100;  368,359;    0,364;    2,136
1136,636;  272,813;   -1,273;   -1,045
1137,172;  359,268;    0,000;   -1,045
1137,708;  269,722;   -1,364;   -1,045
1138,245;  274,449;    1,273;   -1,227
1138,781;  232,904;    1,091;   -3,318
1139,317;  306,813;    1,273;   -1,409
1139,852;  290,177;    3,091;    0,136
1140,388;  400,177;   -1,182;   -0,409
1140,924;  285,995;   -1,091;   -2,227
1141,460;  232,449;   -1,636;    0,136
1141,996;  169,086;   -1,364;    2,682
1142,531;  216,995;    1,364;    3,318
1143,067;  425,631;    1,182;    1,045
1143,602;  487,359;   -0,091;   -0,318
1144,138;  325,086;   -2,636;    1,045
1144,673;  196,449;   -1,455;    1,409
1145,209;  257,631;   -1,909;   -0,318
1145,744;  181,449;   -0,727;    0,864
1146,279;  308,540;    1,818;   -0,136
1146,815;  231,722;    1,545;   -2,682
1147,350;  267,449;   -1,364;    0,045
1147,885;  178,086;   -0,818;   -1,318
1148,420;  182,086;   -2,273;    0,773
1148,955;  163,359;   -1,727;    1,864
1149,490;  196,631;   -0,909;   -1,591
1150,025;  182,540;    0,455;   -1,773
1150,560;  279,722;    1,091;   -0,955
1151,094;  247,631;    1,455;   -0,591
1151,629;  259,359;    1,636;    0,864
1152,164;  187,813;    1,364;    1,318
1152,698;  135,177;   -0,182;   -0,136
1153,233;   99,449;    0,091;   -0,682
1153,767;  147,177;   -3,000;   -2,318
1154,302;  191,268;   -1,455;    1,773
1154,836;  195,086;   -0,455;   -2,136
1155,371;  251,268;   -1,364;    3,682
1155,905;  208,086;   -0,636;    1,682
1156,439;  166,904;   -0,636;   -0,500
1156,973;  201,995;    0,364;    0,318
1157,507;  140,177;   -0,364;    0,682
1158,042;  165,995;   -0,727;    1,045
1158,576;  209,086;    0,182;    1,773
1159,110;  197,813;   -0,818;    2,409
1159,643;  174,449;    0,636;   -0,045
1160,177;  115,904;   -1,545;    1,500

