
Integration time [ms]:   0,040
Averaging Nr. [scans]: 11
Smoothing Nr. [pixels]: 0
Data measured with spectrometer [name]: 7318044SP
Wave   ;Sample   ;Dark     ;Reference
[nm]   ;[counts] ;[counts] ;[counts] 

186,757;   21,869;   31,551;    1,318
187,357;   52,877;   22,551;    0,955
187,958;   29,577;   15,460;   -1,591
188,558;   73,049;    8,915;   -1,227
189,159;   43,334;    6,733;   -4,500
189,759;    8,939;    7,278;   -3,591
190,360;   13,964;    2,824;   -2,136
190,960;   45,745;    2,915;   -4,136
191,560;   60,241;    3,189;   -6,591
192,161;  302,649;    4,372;   -3,500
192,761;  146,582;    4,010;   -3,227
193,361;   89,869;    1,556;   -3,773
193,962;  146,354;    2,010;   -2,682
194,562;   66,595;    1,189;   -3,955
195,162;  104,973;   -2,448;   -2,227
195,762;  262,416;   -3,176;   -0,045
196,362;  212,425;    1,370;   -2,500
196,963;   80,652;    2,006;   -0,864
197,563;  146,505;    1,551;   -0,955
198,163;  101,200;    0,096;   -0,682
198,763;  119,490;    1,733;   -0,500
199,363;  208,461;    3,096;   -0,500
199,963;  176,942;    0,369;    0,409
200,563;  159,529;    2,823;   -1,409
201,163;  131,482;    3,277;   -0,227
201,763;  218,114;    3,732;    0,318
202,363;  159,091;    1,459;    1,500
202,963;  258,438;    1,459;    1,045
203,563;  374,460;    0,277;    0,500
204,162;  225,645;    2,096;   -1,864
204,762;  216,135;    0,550;    0,591
205,362;  188,272;    3,004;    1,955
205,962;  284,936;    3,096;    1,955
206,562;  283,022;    1,823;    2,318
207,161;  259,113;   -0,087;    0,318
207,761;  405,507;    1,277;    2,409
208,361;  284,737;   -0,268;    1,409
208,960;  378,807;    0,459;    1,500
209,560;  447,046;    1,277;    1,591
210,160;  423,489;    0,550;    1,864
210,759;  397,057;    4,186;    1,227
211,359;  403,331;    1,459;    1,045
211,958;  656,674;    1,277;    2,045
212,558;  743,487;    1,732;    1,864
213,157;  586,952;    1,822;    1,500
213,757; 1022,609;    3,822;   -0,227
214,356;  725,808;    1,277;   -0,409
214,956; 1059,754;    3,095;    0,409
215,555;  684,159;    2,095;    2,136
216,154;  625,462;   -2,723;   -0,591
216,754;  634,733;    0,277;    0,773
217,353;  764,776;   -0,268;   -1,045
217,952;  640,872;   -0,178;    0,318
218,552;  861,146;    1,368;   -0,773
219,151;  760,277;    0,277;    0,955
219,750;  765,718;    0,004;   -0,227
220,349;  869,301;   -0,451;    1,045
220,948;  930,767;   -1,360;    1,136
221,548;  959,141;    0,913;    1,227
222,147; 1055,258;   -0,087;   -0,409
222,746; 1343,220;   -0,451;   -0,955
223,345; 1212,042;    0,731;    0,500
223,944; 1221,359;   -0,451;    0,773
224,543; 1401,076;    1,004;   -1,409
225,142; 1490,119;    0,094;    0,136
225,741; 1400,698;   -0,814;    1,045
226,340; 1428,824;   -0,451;   -0,955
226,939; 1861,802;   -0,996;   -0,136
227,538; 1804,726;   -0,360;   -0,773
228,137; 1945,401;   -0,814;    0,864
228,735; 2070,037;   -0,541;    1,227
229,334; 1837,126;   -0,905;   -0,227
229,933; 2192,553;    0,459;    0,591
230,532; 2287,543;    1,186;   -0,409
231,131; 2335,658;    1,732;    0,318
231,729; 2458,094;   -2,450;   -2,318
232,328; 2552,788;   -0,723;   -1,500
232,927; 2620,804;    1,004;   -0,500
233,525; 2743,687;    3,640;    0,045
234,124; 2941,785;    2,368;   -1,591
234,723; 2938,973;    0,913;   -1,045
235,321; 3073,865;    2,277;    0,136
235,920; 3265,459;    1,186;   -1,227
236,518; 3536,896;    3,459;    0,318
237,117; 3694,475;    0,004;   -0,227
237,715; 3840,551;    0,640;   -0,500
238,314; 3859,363;   -0,087;   -2,318
238,912; 3951,303;   -0,723;   -1,409
239,510; 4032,027;    0,459;   -1,227
240,109; 4204,555;    0,004;    3,773
240,707; 4224,620;   -0,996;    1,227
241,305; 4559,656;    0,550;    0,136
241,904; 4782,747;   -0,178;   -2,045
242,502; 4762,931;   -0,632;   -0,227
243,100; 4715,913;   -0,087;   -0,955
243,698; 4937,262;    0,732;    1,682
244,297; 5118,127;   -0,632;    0,682
244,895; 4991,500;   -0,269;   -2,318
245,493; 5308,932;    2,186;   -0,591
246,091; 5336,898;    1,368;   -1,318
246,689; 5305,806;    1,004;    0,591
247,287; 5513,866;    0,822;   -1,136
247,885; 5769,519;   -1,451;    1,227
248,483; 5872,562;    1,822;   -0,500
249,081; 5994,413;    0,185;    1,591
249,679; 6156,895;   -0,178;    1,682
250,277; 6410,513;   -1,723;    0,864
250,875; 6398,732;   -1,087;   -1,045
251,473; 6437,961;   -1,178;    0,500
252,071; 6620,016;    1,459;    1,045
252,669; 6772,723;   -1,814;    0,318
253,267; 7051,387;   -0,087;    0,773
253,864; 6990,411;   -0,360;    0,682
254,462; 6851,698;    1,640;    1,591
255,060; 6827,876;   -0,269;    1,318
255,658; 7160,087;    0,822;   -0,136
256,255; 7573,774;    0,186;   -2,045
256,853; 7438,064;   -0,269;    1,409
257,451; 7413,839;    0,822;    1,864
258,048; 7705,290;    1,822;    1,864
258,646; 7453,788;    1,731;   -1,045
259,243; 7654,882;   -0,087;    2,227
259,841; 7702,784;   -0,814;    0,318
260,438; 7625,944;   -0,087;    0,864
261,036; 8291,431;   -1,905;    1,409
261,633; 8198,906;   -0,087;    2,227
262,231; 7949,296;    2,731;   -0,045
262,828; 8040,335;   -0,905;    1,136
263,425; 8090,288;    0,913;   -0,591
264,023; 8376,058;    0,186;    0,045
264,620; 7939,241;   -0,360;   -0,318
265,217; 8244,724;   -2,087;    3,136
265,815; 8365,775;   -1,905;    2,136
266,412; 8184,453;    0,731;    0,136
267,009; 8196,384;   -1,451;    0,773
267,606; 8092,334;    0,822;   -0,955
268,203; 8082,283;   -0,269;   -0,591
268,801; 8365,844;    1,731;    0,591
269,398; 8667,279;   -0,360;    2,500
269,995; 8641,425;    0,277;    1,591
270,592; 8414,339;   -0,632;   -0,500
271,189; 8635,764;    0,186;    0,409
271,786; 8722,411;   -0,632;    1,227
272,383; 8590,160;   -1,087;    0,227
272,980; 8763,719;    0,277;    0,318
273,577; 9213,965;    0,004;    1,227
274,174; 8793,454;    0,822;    2,591
274,771; 8768,268;   -0,814;   -0,773
275,367; 8903,783;    2,277;    1,409
275,964; 8848,944;    0,731;   -0,500
276,561; 8975,634;    1,549;   -1,045
277,158; 9161,077;    0,095;   -1,773
277,755; 9309,049;    2,185;    0,409
278,351; 8705,696;   -0,451;   -1,500
278,948; 9016,472;   -0,815;    0,045
279,545; 9020,675;   -1,360;    2,318
280,141; 9603,927;   -1,723;   -2,045
280,738; 9485,812;   -0,451;   -0,136
281,334; 9739,915;   -1,633;    0,591
281,931; 9123,185;   -0,087;   -1,318
282,528; 9251,302;    0,822;   -0,500
283,124; 9951,607;   -1,087;   -0,500
283,721; 9847,454;   -0,451;    1,409
284,317; 9684,247;    0,185;    2,500
284,913;10208,153;   -1,360;    0,591
285,510;10390,698;    0,640;   -0,318
286,106;10409,293;   -2,269;   -0,955
286,703;10055,985;   -0,360;    1,955
287,299;10265,693;   -1,451;   -0,591
287,895;10445,453;    0,822;   -1,045
288,491;11030,643;    0,186;    2,136
289,088;10764,347;   -2,360;    2,409
289,684;10844,359;   -1,723;    1,500
290,280;10828,652;    0,368;    0,682
290,876;10891,028;    1,822;    5,500
291,472;10801,925;    1,276;    2,227
292,068;10897,658;    1,367;    0,227
292,665;10661,420;    2,095;    0,773
293,261;10279,584;    0,276;    2,136
293,857;10652,287;    2,913;    2,136
294,453;10627,643;    3,550;    0,955
295,049;10495,477;   -0,268;    1,955
295,644;10515,651;    0,095;    0,136
296,240;10409,152;   -0,905;   -0,136
296,836;10482,861;   -0,995;    0,318
297,432;10783,150;    1,096;   -0,500
298,028;10807,393;    0,732;    0,773
298,624;11182,591;    1,459;    1,864
299,220;11442,735;    2,368;    0,591
299,815;11120,988;    1,005;   -0,409
300,411;10925,386;    0,914;    1,773
301,007;10930,027;    1,368;    0,227
301,602;11001,105;   -0,541;   -2,318
302,198;11136,018;    0,732;   -0,773
302,794;11491,611;    1,187;   -0,500
303,389;11607,704;   -1,177;    1,045
303,985;11663,494;    0,550;    1,409
304,580;11595,065;    1,459;    1,591
305,176;11574,446;   -3,086;    0,136
305,771;11512,666;   -1,268;   -1,227
306,367;11363,732;    4,095;    0,136
306,962;11703,741;    0,641;    1,500
307,558;11414,953;   -0,450;    0,136
308,153;11374,629;    1,095;   -1,136
308,748;11601,866;   -0,814;    1,682
309,344;11536,126;   -0,632;   -1,318
309,939;11624,150;   -1,905;   -1,318
310,534;11894,183;   -0,086;   -1,682
311,130;11828,746;    0,459;   -2,500
311,725;11542,571;    1,004;   -0,500
312,320;11926,258;    2,459;    0,045
312,915;11736,821;    1,459;   -1,045
313,510;11813,512;    1,550;   -0,500
314,105;12313,939;    1,096;    1,409
314,700;11730,309;   -3,086;   -1,045
315,295;11359,519;   -0,904;    0,045
315,890;10960,740;    1,277;    0,864
316,485;11292,300;   -0,359;   -0,318
317,080;11428,925;   -3,086;    1,591
317,675;11950,077;    2,005;   -0,682
318,270;11351,477;    5,550;    3,318
318,865;11363,476;    3,278;    3,045
319,460;11218,165;   -0,904;    0,591
320,055;11469,893;   -0,541;   -1,227
320,650;11107,131;   -1,995;   -0,591
321,244;11176,170;   -0,177;   -1,409
321,839;12057,948;   -1,541;   -0,227
322,434;11934,349;   -1,086;   -1,591
323,029;11571,057;    1,732;    1,591
323,623;11420,957;    1,550;    0,773
324,218;11200,506;    2,368;    1,409
324,812;11103,884;    1,096;    1,591
325,407;10893,893;   -0,814;    2,045
326,002;10796,136;    0,277;   -0,409
326,596;11087,761;    0,914;    1,318
327,191;11291,041;    0,823;   -1,045
327,785;10881,579;   -0,813;   -0,227
328,379;11101,890;    1,368;    0,136
328,974;10913,739;    0,914;   -3,955
329,568;11128,461;    0,186;   -2,409
330,163;10968,362;    2,096;    1,045
330,757;11345,181;    2,459;    1,591
331,351;10689,112;    0,459;    0,682
331,945;10960,428;    0,914;    1,409
332,540;10580,112;   -1,723;   -0,591
333,134;10710,698;   -1,086;    0,773
333,728;10953,355;    0,005;    0,318
334,322;11290,283;   -1,177;   -0,864
334,916;10578,494;    0,277;    0,955
335,510;10923,777;   -0,450;   -0,136
336,105;11179,587;   -1,086;    1,591
336,699;10874,388;   -1,086;    0,591
337,293;10844,735;   -1,723;    0,318
337,887;10989,743;   -2,723;    1,955
338,481;11084,960;    0,459;    0,591
339,074;11240,493;   -0,359;    2,682
339,668;11091,550;   -1,632;    1,227
340,262;11309,274;    1,732;    3,227
340,856;10855,926;    1,822;   -0,682
341,450;10242,903;    1,004;    1,864
342,044;11140,644;    1,459;    0,136
342,637;10885,737;    0,913;   -2,136
343,231;10739,719;   -2,360;    0,682
343,825;10715,750;   -1,086;   -0,591
344,419;10698,251;   -1,995;    0,500
345,012;10477,547;    2,459;    4,045
345,606;10469,694;    4,641;    1,591
346,199;10316,986;   -1,813;   -0,227
346,793; 9879,133;    1,914;    2,045
347,386;10068,308;   -0,813;   -1,136
347,980;10023,790;   -0,268;   -0,045
348,573; 9859,474;    2,278;    0,409
349,167; 9560,428;    5,278;    4,773
349,760; 9896,461;    2,914;    2,682
350,354; 9868,180;   -0,813;    1,136
350,947; 9625,864;    1,096;    1,682
351,540; 9298,893;   -0,358;   -1,409
352,134; 9231,400;    1,096;    1,136
352,727; 9318,695;   -0,086;    1,136
353,320; 9139,799;    0,005;    0,591
353,913; 8991,198;   -1,995;    1,864
354,507; 9172,020;    0,823;   -1,227
355,100; 9179,015;    0,460;    0,864
355,693; 8408,712;    2,005;    2,409
356,286; 8451,672;    0,823;    2,773
356,879; 8824,553;   -0,722;    1,227
357,472; 8432,495;   -0,904;    1,500
358,065; 8633,452;   -0,722;    2,500
358,658; 8569,552;   -0,540;    2,318
359,251; 8206,827;   -1,631;   -0,591
359,844; 7702,722;   -1,904;   -1,136
360,437; 7872,623;   -2,995;    0,045
361,030; 8129,433;    1,369;   -0,682
361,623; 7742,532;    2,824;    0,318
362,215; 7777,662;   -0,086;    2,045
362,808; 7616,757;   -2,358;   -1,682
363,401; 7806,676;   -2,449;    0,136
363,994; 7580,548;   -0,631;   -1,500
364,586; 7515,645;    0,824;   -1,500
365,179; 7704,388;   -0,449;   -1,136
365,772; 7186,505;   -1,995;    2,045
366,364; 7478,154;    1,915;   -3,227
366,957; 7663,844;    2,279;   -0,045
367,549; 7681,592;    2,188;   -0,864
368,142; 7337,117;    1,825;   -1,500
368,734; 7532,742;    0,734;   -2,136
369,327; 7482,999;    1,643;   -0,500
369,919; 7418,851;   -1,538;    0,409
370,512; 7195,569;   -1,083;   -0,500
371,104; 6976,286;   -0,901;    1,591
371,696; 7154,323;    1,191;   -0,955
372,289; 7234,059;    0,373;    1,136
372,881; 7361,663;   -2,080;    1,318
373,473; 7291,950;   -2,170;    1,136
374,066; 7070,443;   -0,169;    0,500
374,658; 6968,983;    0,378;    1,136
375,250; 7326,531;    0,653;   -1,409
375,842; 7154,874;    0,473;   -0,045
376,434; 7032,048;   -0,435;   -0,409
377,026; 7622,738;    0,204;   -2,500
377,618; 7507,740;   -0,158;   -0,682
378,210; 7346,130;   -0,338;   -1,955
378,802; 7197,424;    0,754;   -0,591
379,394; 7149,346;    1,846;    0,682
379,986; 7741,690;    1,393;   -0,955
380,578; 7823,181;   -0,153;    0,773
381,170; 7180,019;   -0,972;    0,045
381,762; 7160,489;    0,755;    1,409
382,354; 7330,548;   -0,065;   -1,318
382,945; 7461,731;   -2,976;    0,318
383,537; 7606,263;   -2,705;   -1,955
384,129; 7580,669;   -2,160;   -1,136
384,721; 7766,140;   -0,252;    0,955
385,312; 7694,930;   -0,161;   -0,955
385,904; 7795,057;   -2,706;    1,591
386,496; 7161,483;   -0,979;    1,045
387,087; 7291,160;    1,022;    2,500
387,679; 7347,136;   -1,160;    0,045
388,270; 7504,572;    2,840;    2,045
388,862; 7601,434;    1,295;   -0,318
389,453; 7463,971;   -0,887;    1,045
390,045; 7751,213;   -0,705;   -2,682
390,636; 7683,433;    0,204;   -0,591
391,227; 7523,916;   -0,523;   -0,045
391,819; 7627,293;    0,204;    0,773
392,410; 7721,464;    1,022;    0,045
393,001; 7660,190;   -0,979;   -1,591
393,593; 7913,505;    1,930;   -0,045
394,184; 7777,464;    1,385;   -0,409
394,775; 7693,405;    1,839;    2,136
395,366; 7887,799;    1,385;    0,773
395,957; 7878,497;    0,113;    0,136
396,548; 8187,700;   -0,342;    2,682
397,139; 8481,121;   -2,433;    0,591
397,730; 8210,221;   -1,888;    0,955
398,321; 8279,332;   -1,252;    0,955
398,912; 8308,642;   -0,615;    0,136
399,503; 8388,580;   -3,524;   -1,409
400,094; 7839,078;    0,294;    1,682
400,685; 7701,086;   -0,433;    0,045
401,276; 7789,716;    0,930;   -0,955
401,867; 8101,550;   -0,888;    0,773
402,458; 8186,957;   -2,251;   -2,318
403,048; 8178,556;    1,112;    0,591
403,639; 7780,439;    0,840;    0,864
404,230; 8056,679;    2,476;    0,318
404,821; 7987,762;   -0,615;    0,045
405,411; 8086,171;    1,203;   -2,591
406,002; 7667,952;   -1,252;   -1,136
406,592; 7539,699;    2,294;    0,045
407,183; 7834,939;    0,566;   -1,500
407,774; 7757,443;    3,475;   -0,136
408,364; 8067,678;    0,930;    0,409
408,954; 7698,838;    0,384;    1,227
409,545; 7738,199;    1,021;    1,045
410,135; 7307,950;    1,293;    0,500
410,726; 7440,112;    1,838;    0,318
411,316; 7802,416;    0,111;    0,773
411,906; 7491,374;   -0,253;   -0,409
412,497; 6999,283;   -1,070;   -0,045
413,087; 7588,164;   -1,980;   -0,227
413,677; 7972,143;   -0,707;    3,864
414,267; 7798,655;    0,656;    1,409
414,857; 7819,932;   -2,980;    4,227
415,448; 8125,653;    0,839;    0,500
416,038; 7798,142;    0,020;   -0,591
416,628; 7760,231;   -0,889;    0,409
417,218; 7222,758;    0,565;    3,318
417,808; 7462,672;    0,202;   -0,409
418,398; 7908,067;    0,020;    2,682
418,988; 7934,586;    2,020;    0,591
419,578; 8179,117;   -0,707;    1,409
420,168; 8480,648;   -1,343;   -0,955
420,757; 8048,684;   -1,343;   -1,500
421,347; 7755,240;    0,111;   -0,227
421,937; 7905,905;    2,292;    1,409
422,527; 7860,643;    0,838;   -0,773
423,116; 7655,642;   -0,253;   -0,045
423,706; 8003,804;   -1,889;    0,318
424,296; 7974,075;    1,384;    0,682
424,885; 8401,621;   -0,071;   -3,045
425,475; 8667,633;    1,474;   -2,864
426,065; 8573,207;   -0,980;   -0,318
426,654; 8220,484;   -0,435;   -0,318
427,244; 8315,758;    0,020;    1,409
427,833; 7773,934;    1,383;   -0,500
428,423; 8254,808;   -0,526;    1,136
429,012; 9003,648;   -0,344;   -1,136
429,601; 8497,691;   -1,344;    0,136
430,191; 8704,609;    1,292;    4,318
430,780; 8342,052;   -0,344;   -0,409
431,369; 8261,237;    0,746;   -0,045
431,959; 8874,362;   -1,254;    0,500
432,548; 8657,577;   -1,163;   -0,045
433,137; 8778,133;   -1,254;   -1,318
433,726; 9282,762;    0,292;    0,500
434,315; 8656,193;   -0,526;    2,409
434,905; 8760,802;   -1,254;    1,409
435,494; 8667,634;    0,746;    0,955
436,083; 9110,917;   -0,981;   -0,955
436,672; 8969,472;    0,110;    0,500
437,261; 8570,732;    0,292;   -1,955
437,850; 8654,785;    1,383;    0,682
438,439; 8619,784;    3,291;    1,955
439,027; 8453,700;    3,655;    1,773
439,616; 8782,384;    2,927;    1,227
440,205; 8661,519;    0,200;   -2,136
440,794; 8708,024;    2,109;   -0,045
441,383; 8951,014;   -1,346;   -0,591
441,971; 8787,102;   -2,436;    0,591
442,560; 8633,970;    0,563;   -1,773
443,149; 8407,687;    0,379;   -1,318
443,737; 8543,336;   -0,074;   -2,318
444,326; 8791,245;    0,018;    0,318
444,915; 8807,999;   -1,982;    0,864
445,503; 9158,717;   -2,891;   -0,318
446,092; 8474,088;    0,382;    2,136
446,680; 8991,009;    0,382;    0,318
447,269; 9156,895;   -0,346;   -0,318
447,857; 8940,275;    0,018;   -1,773
448,445; 9056,311;    0,563;    1,318
449,034; 9257,519;   -1,528;   -1,136
449,622; 9348,429;   -1,073;    3,500
450,210; 8594,919;    2,017;    2,227
450,799; 9094,470;    0,290;   -0,591
451,387; 9084,416;    1,381;   -0,591
451,975; 8716,043;    2,654;    0,864
452,563; 8794,089;    3,472;    2,318
453,151; 8838,567;   -0,528;   -1,227
453,739; 8753,752;   -1,347;    0,136
454,328; 8592,620;    2,381;   -2,136
454,916; 8347,482;    2,562;   -0,136
455,504; 8513,500;    1,017;    1,227
456,092; 8688,793;    0,017;   -1,591
456,679; 8638,856;    1,472;    0,682
457,267; 8581,145;    4,017;    1,045
457,855; 8714,397;    1,017;    1,409
458,443; 8469,962;   -0,165;    1,682
459,031; 8617,404;    0,108;    2,409
459,619; 9050,818;   -1,801;    2,864
460,206; 9194,037;    0,835;    2,045
460,794; 9234,807;   -2,983;   -0,227
461,382; 9461,953;   -0,529;   -0,864
461,970; 9036,619;    1,198;    1,864
462,557; 9088,375;   -0,711;   -0,682
463,145; 9252,517;   -3,165;   -1,682
463,732; 9396,544;    2,016;   -1,045
464,320; 9326,867;   -0,075;   -3,045
464,907; 8984,556;    2,743;   -0,773
465,495; 8879,292;    0,743;   -1,227
466,082; 9023,986;   -1,984;   -0,045
466,670; 8941,353;   -2,529;    1,227
467,257; 9365,088;   -1,711;    2,045
467,844; 9478,308;   -0,075;    0,045
468,432; 9472,251;    0,834;    3,500
469,019; 8994,789;    0,925;   -1,773
469,606; 9480,291;    0,470;    3,682
470,193; 9299,562;   -1,439;    0,227
470,780; 8875,963;   -2,075;    0,864
471,368; 9184,008;   -1,257;   -0,773
471,955; 9007,910;    1,379;   -0,682
472,542; 8660,689;    0,652;   -1,136
473,129; 8880,975;   -0,166;    0,136
473,716; 8592,484;    1,470;    0,591
474,303; 8784,213;    0,652;   -0,864
474,890; 9049,555;   -1,439;   -0,500
475,477; 9063,990;   -1,621;    0,409
476,064; 8938,468;    1,106;   -1,591
476,650; 8843,265;    0,288;    0,318
477,237; 8671,265;   -0,258;    0,955
477,824; 8813,028;   -1,076;    0,864
478,411; 8811,024;   -1,894;   -0,318
478,997; 9015,680;    0,560;   -0,773
479,584; 9100,674;    1,196;   -0,409
480,171; 9714,573;   -0,440;   -0,773
480,757; 9385,535;    2,651;    0,773
481,344; 9657,908;    0,469;    0,409
481,931; 9130,944;    1,105;    1,045
482,517;10026,825;   -1,258;    0,318
483,104;10481,552;    1,106;    2,864
483,690;10742,737;   -1,804;    0,045
484,276;11031,603;   -0,895;    0,227
484,863;10772,865;    2,469;    1,136
485,449;11354,345;   -0,077;    0,318
486,035;11345,198;   -1,986;   -0,136
486,622;11738,271;   -0,895;    0,045
487,208;11667,434;    1,378;    1,500
487,794;11532,844;    0,741;    0,318
488,380;11625,487;    0,105;   -1,409
488,967;11726,428;   -1,168;   -0,409
489,553;11794,809;   -1,895;   -1,409
490,139;11953,598;    1,559;    0,773
490,725;11475,239;    0,741;   -0,227
491,311;11096,931;    3,287;    3,045
491,897;10514,206;   -0,986;    1,500
492,483;10386,153;    0,105;    1,227
493,069;10190,088;    3,923;    0,864
493,655;10167,407;    1,650;    0,682
494,241;10133,373;    1,377;   -0,955
494,826;10534,808;    0,287;   -1,045
495,412;10029,839;    2,559;   -0,682
495,998;10225,517;   -0,805;   -0,318
496,584;10356,173;    0,377;    1,045
497,169;10341,606;    1,014;   -0,682
497,755;10361,787;    0,650;    1,227
498,341;10919,242;    0,559;    0,318
498,926;10554,679;    1,832;    1,955
499,512;10765,865;    1,286;    2,955
500,097;10905,656;    0,195;   -0,318
500,683;10909,646;   -0,350;    2,136
501,268;11298,405;   -0,169;   -0,955
501,854;11083,657;   -0,169;    1,227
502,439;11044,226;   -0,624;   -1,773
503,024;11242,088;    0,195;    0,500
503,610;11360,843;   -0,078;   -0,682
504,195;11401,701;    0,558;    1,955
504,780;11628,681;    2,922;    1,227
505,366;11439,222;    3,013;    2,864
505,951;11218,216;    0,740;    1,045
506,536;11294,605;   -3,260;   -3,682
507,121;11292,080;    0,285;   -0,318
507,706;11864,992;    2,376;    1,045
508,291;12257,126;    2,649;    1,136
508,876;11756,747;   -0,988;    2,591
509,461;11256,912;   -0,169;   -0,773
510,046;11725,939;    0,194;    0,318
510,631;11980,379;   -0,351;   -0,773
511,216;11668,360;    2,467;   -0,500
511,801;12040,941;   -0,442;    2,591
512,386;12332,265;    0,740;    0,500
512,971;12322,469;   -2,988;    0,955
513,555;11897,787;   -0,897;   -1,500
514,140;12691,460;   -0,442;   -3,136
514,725;12726,910;   -0,715;   -1,136
515,309;12873,632;   -0,533;    0,318
515,894;12345,601;   -0,624;   -2,227
516,479;12798,336;   -0,624;   -0,955
517,063;12630,965;    0,376;    1,227
517,648;12756,787;    1,012;   -1,136
518,232;12475,312;   -0,261;   -1,409
518,817;12814,374;   -0,079;    1,682
519,401;13011,157;    2,194;    0,591
519,985;12526,332;    1,103;    1,136
520,570;12452,014;    0,830;   -1,955
521,154;12725,267;    2,102;    0,591
521,738;12878,563;   -2,352;    2,409
522,323;13479,990;   -0,170;    1,682
522,907;13223,076;    0,466;   -0,136
523,491;12940,442;    0,557;    0,955
524,075;12915,413;    2,284;    0,591
524,659;13013,975;    1,466;    0,591
525,243;12478,736;    1,739;    0,409
525,827;12725,656;    0,648;   -0,045
526,411;13567,066;   -1,989;   -0,136
526,995;13780,225;   -0,352;    1,409
527,579;13375,710;   -0,443;   -1,045
528,163;13687,754;    0,375;   -1,500
528,747;13624,659;    2,466;   -0,773
529,331;13907,140;   -0,080;   -1,409
529,915;14123,695;    1,738;    0,955
530,499;14108,392;   -0,807;    1,227
531,082;13832,618;   -0,534;    1,591
531,666;13249,079;    1,374;    0,773
532,250;13923,175;    1,284;    2,682
532,833;14240,862;    0,920;    2,773
533,417;14094,167;   -1,807;    0,864
534,001;14102,304;    1,647;   -0,318
534,584;14765,898;    0,374;    0,500
535,168;14601,078;    0,465;    1,409
535,751;14640,928;    0,647;    0,045
536,334;14155,936;   -0,898;   -0,409
536,918;14706,964;    0,011;    1,591
537,501;14823,612;   -0,899;    1,318
538,085;14804,708;   -0,444;    1,045
538,668;14957,588;    0,829;    2,409
539,251;15238,196;    1,829;    3,773
539,834;15296,284;    0,101;    0,773
540,418;15193,883;   -1,990;    4,318
541,001;15294,300;   -0,990;    1,773
541,584;15315,944;    2,101;    2,227
542,167;14983,644;    1,374;    2,955
542,750;15180,045;    1,919;   -0,773
543,333;14753,769;    0,555;    2,136
543,916;15509,418;    0,192;    2,500
544,499;16123,850;   -1,354;    0,227
545,082;16128,913;    1,374;    3,591
545,665;16252,664;    1,919;    1,500
546,248;16580,315;    1,010;   -0,318
546,830;16260,189;   -0,445;    1,955
547,413;16636,632;    1,010;   -0,773
547,996;17192,703;    0,555;    0,500
548,579;16962,686;    0,919;    0,955
549,161;16767,931;    1,828;    2,682
549,744;16571,551;   -0,809;    0,409
550,326;17061,825;   -0,809;   -1,136
550,909;16843,624;    2,737;    0,591
551,492;17260,093;   -0,263;    0,227
552,074;17071,389;   -0,173;   -1,318
552,657;17589,904;    2,373;    0,045
553,239;17342,999;   -0,173;   -0,773
553,821;17283,256;   -1,082;    1,045
554,404;16741,873;    1,282;    1,136
554,986;17116,065;    0,464;    1,045
555,568;17709,796;    1,191;   -0,955
556,151;16917,313;    1,191;   -0,227
556,733;17149,333;   -0,264;   -0,864
557,315;17650,178;    0,100;    0,500
557,897;17434,871;    0,554;   -0,500
558,479;17532,267;   -1,991;    1,318
559,061;17662,565;   -0,719;   -0,864
559,643;18021,795;   -0,264;    0,045
560,225;18357,404;    1,645;    2,864
560,807;18394,977;    0,918;    0,318
561,389;17901,042;    0,554;    2,318
561,971;18608,892;    0,463;    2,136
562,553;18445,505;   -1,628;    1,591
563,135;18558,533;   -0,537;    1,136
563,717;18124,229;    3,372;    1,136
564,298;18836,904;    3,645;   -0,045
564,880;18605,454;    0,645;   -1,409
565,462;18750,182;    0,645;    1,318
566,043;19884,640;   -0,446;    2,318
566,625;19387,093;    1,918;    1,227
567,207;19216,563;    1,099;    1,682
567,788;20312,658;   -1,264;    1,500
568,370;21120,739;    1,917;   -0,500
568,951;20909,724;    0,190;    0,227
569,533;21772,205;   -0,628;   -0,500
570,114;22198,587;   -0,446;    0,682
570,695;22645,346;   -0,174;   -1,318
571,277;23184,720;   -0,265;   -1,682
571,858;23815,287;    2,008;   -1,136
572,439;24763,519;    1,554;   -1,045
573,021;24900,139;    2,099;   -2,773
573,602;25411,037;   -1,265;    0,318
574,183;26280,926;   -2,083;    2,227
574,764;26351,984;   -1,629;    0,409
575,345;26889,448;    0,917;   -0,136
575,926;27553,882;   -0,356;    0,136
576,507;27524,127;    1,099;   -0,227
577,088;28620,733;    3,099;    1,682
577,669;28577,718;    0,735;    1,955
578,250;29275,381;    0,644;   -1,045
578,831;29905,742;   -1,356;   -2,227
579,412;30121,689;   -0,810;    0,955
579,993;31026,934;    1,008;    0,227
580,573;31366,783;   -0,629;   -0,955
581,154;30390,386;    0,735;   -0,591
581,735;31210,050;    0,644;    0,773
582,315;30687,777;   -0,629;    2,136
582,896;31040,620;   -0,174;    1,227
583,477;30511,095;    0,189;    1,227
584,057;30699,448;    0,553;    0,955
584,638;31004,661;    2,553;    2,318
585,218;30938,356;   -0,538;    2,682
585,799;31163,289;    0,281;   -0,227
586,379;31233,187;    0,372;    1,591
586,959;30017,351;    0,735;    0,318
587,540;29394,920;   -0,629;    2,227
588,120;28903,428;    1,007;   -0,045
588,700;27931,804;    2,553;    2,136
589,281;28231,449;    0,462;   -0,955
589,861;28199,121;    0,099;   -1,682
590,441;27949,542;    2,371;   -2,682
591,021;26951,569;   -0,265;   -2,591
591,601;27220,030;   -0,537;    0,500
592,181;27225,876;   -0,719;   -0,773
592,761;26583,173;    0,007;    1,409
593,341;26504,956;   -0,901;    0,045
593,921;26467,793;   -0,265;    1,591
594,501;26396,654;   -0,538;    1,318
595,081;26235,822;    0,917;   -0,318
595,661;26567,801;   -1,447;    0,955
596,240;27058,243;   -0,537;    0,136
596,820;26680,440;    0,372;    1,955
597,400;26819,192;    2,008;    0,773
597,980;27030,540;    2,008;    1,045
598,559;27123,190;    2,735;   -0,227
599,139;26817,922;   -0,174;   -1,227
599,718;26709,558;   -0,174;   -0,409
600,298;26984,948;    0,735;    0,682
600,877;27197,633;    2,917;    1,409
601,457;27470,193;    2,281;    1,136
602,036;27374,030;    0,190;    2,045
602,616;27590,084;    0,644;    1,682
603,195;27934,556;   -0,355;    3,500
603,774;27431,349;   -0,901;    2,045
604,354;27331,502;    0,826;   -0,500
604,933;26866,664;    0,463;    1,864
605,512;27013,201;    3,554;    0,591
606,091;27038,247;   -0,537;    3,773
606,671;27841,345;    0,281;    0,773
607,250;26959,165;    1,644;    3,136
607,829;27233,328;    2,372;    3,227
608,408;27074,215;    1,190;    2,591
608,987;26095,735;    1,281;    3,409
609,566;26443,165;   -1,265;   -2,500
610,145;26506,435;   -1,082;    0,682
610,723;26895,832;    4,372;    6,864
611,302;26161,000;   -0,446;    1,682
611,881;25732,825;    5,008;   11,227
612,460;26551,433;    1,645;    3,955
613,039;26994,356;   -0,082;    2,045
613,617;25740,635;    1,736;    4,773
614,196;25934,009;    1,099;    1,227
614,775;26212,415;    1,009;    2,409
615,353;26184,557;    0,736;    0,864
615,932;25900,347;    0,100;    2,409
616,510;26482,505;    0,554;    0,591
617,089;25984,137;    7,100;   17,591
617,667;25774,712;    2,372;    6,136
618,246;25680,278;   -1,537;    1,318
618,824;25873,705;   -3,355;   -0,955
619,402;25428,342;   -2,900;   -1,773
619,981;25928,786;   -0,173;   -1,045
620,559;25749,475;    0,009;    1,682
621,137;25313,268;   -0,718;    1,864
621,715;25272,211;   -1,173;   -0,682
622,293;25214,964;   -0,537;   -0,773
622,871;25701,632;   -0,718;    0,500
623,450;25275,250;    0,373;   -0,864
624,028;25151,232;    0,191;   -0,955
624,606;24833,345;   -1,718;    1,682
625,183;25196,576;   -1,536;   -1,136
625,761;24854,757;    1,009;    1,136
626,339;25111,773;    1,373;    2,591
626,917;25508,921;   -0,172;   -0,045
627,495;25538,954;   -0,354;    1,318
628,073;24983,700;   -0,263;    2,864
628,650;24689,052;    0,100;    2,136
629,228;25130,732;    0,373;    4,409
629,806;24577,690;    2,282;    1,136
630,383;24797,373;    1,464;   -0,318
630,961;24575,630;    2,555;   -0,955
631,539;24340,159;    2,464;    0,227
632,116;23700,176;   11,373;   15,409
632,694;24276,375;    2,555;    6,500
633,271;24594,743;    0,828;    2,682
633,848;24510,663;    1,828;    2,045
634,426;24547,067;   -1,081;    1,773
635,003;23694,644;    1,101;   -0,409
635,580;23937,368;    1,192;    3,682
636,158;24520,996;    3,737;    1,227
636,735;24499,410;    0,555;   -0,500
637,312;24645,182;   -0,809;   -0,682
637,889;24729,942;   -4,354;   -0,682
638,466;24208,817;   -3,990;   -0,409
639,043;24225,097;    2,101;   -1,136
639,620;24546,883;   -2,262;   -0,955
640,197;24865,573;    1,100;    1,682
640,774;25002,711;   -0,172;    1,136
641,351;25396,940;    0,737;    1,136
641,928;24849,533;   -0,627;    1,409
642,505;24484,489;    0,828;   -0,500
643,082;24623,264;   -1,718;    1,227
643,658;23682,584;   -0,718;    1,500
644,235;24415,995;    1,191;    2,500
644,812;24666,770;    1,918;    0,773
645,388;24414,726;   -0,991;    1,409
645,965;24523,773;   -0,809;    1,682
646,542;24558,911;   -1,445;   -0,227
647,118;24538,686;    1,009;   -0,955
647,695;24836,915;   -0,263;    1,136
648,271;24763,326;   -0,536;    0,500
648,848;25098,555;    0,736;    2,227
649,424;24942,875;    0,827;    1,318
650,000;24714,195;   -0,354;   -1,045
650,577;24537,242;   -0,627;   -0,955
651,153;24956,926;   -1,809;    0,955
651,729;25967,155;    1,191;    0,864
652,305;26020,384;    0,645;    2,773
652,881;30068,068;   -0,082;    1,136
653,458;36539,661;    1,100;    0,227
654,034;40348,344;    0,282;    1,591
654,610;41839,573;    0,554;    0,773
655,186;43200,075;    0,645;    3,045
655,762;42846,486;   -0,991;    0,409
656,338;42900,352;    0,100;    0,136
656,913;43866,308;   -0,082;    0,409
657,489;43243,082;    0,827;   -0,318
658,065;43219,312;   -0,173;   -1,591
658,641;43886,904;   -0,900;   -0,864
659,217;43186,224;   -0,991;    0,409
659,792;42537,817;    0,645;   -0,409
660,368;42816,773;   -2,173;   -0,682
660,944;42592,093;   -2,082;    1,227
661,519;38455,232;   -0,628;    0,409
662,095;32809,552;   -1,719;    0,591
662,670;28169,235;    1,281;   -0,136
663,246;26942,646;    1,009;   -0,409
663,821;26215,784;    0,281;    1,682
664,396;25661,923;    0,009;    1,864
664,972;25936,515;    0,009;   -0,500
665,547;26253,744;    1,372;    0,136
666,122;26300,246;   -1,082;    0,318
666,698;26555,748;   -0,173;    0,318
667,273;25896,068;   -0,173;    0,136
667,848;26722,479;    2,372;    1,500
668,423;26521,981;    2,190;    2,318
668,998;27047,210;    2,827;   -0,682
669,573;27586,621;   -3,264;   -1,500
670,148;27410,032;   -1,446;   -0,682
670,723;27246,715;   -1,810;    0,318
671,298;27621,581;    2,372;    1,045
671,873;27747,355;   -0,082;   -0,136
672,448;27692,312;    0,645;    0,136
673,023;28013,177;   -1,992;   -0,227
673,597;28355,497;    0,827;    2,318
674,172;28137,999;   -0,355;    0,318
674,747;27587,592;    0,372;   -1,045
675,321;27480,730;   -0,628;    3,318
675,896;27072,505;    0,645;    1,045
676,471;28071,825;    2,645;    1,591
677,045;27798,235;   -1,264;    0,682
677,620;27836,828;    0,190;    1,136
678,194;28155,057;   -2,628;    1,136
678,769;27740,468;   -1,083;   -0,318
679,343;27962,516;   -0,628;    1,773
679,917;27801,563;   -1,446;    1,955
680,492;27946,701;    0,826;    3,227
681,066;28064,930;    3,372;    0,409
681,640;28113,341;    1,463;   -0,318
682,214;28882,752;    0,735;    0,500
682,788;28428,617;   -1,356;   -0,773
683,363;28379,937;   -1,810;    1,682
683,937;28103,894;   -1,719;   -0,318
684,511;28845,668;    0,463;   -0,591
685,085;28566,897;   -1,356;    0,318
685,659;28339,672;   -2,538;    0,864
686,232;28582,992;   -0,356;   -0,318
686,806;28294,948;   -0,901;    0,409
687,380;28976,177;   -0,174;    0,591
687,954;29162,134;   -1,174;    1,136
688,528;28855,545;   -0,719;    1,955
689,101;29607,774;   -3,992;    1,045
689,675;29230,094;   -0,356;   -0,136
690,249;28565,141;   -0,719;    0,409
690,822;28901,825;    0,280;    0,318
691,396;28968,781;   -0,265;    1,227
691,969;28467,556;    1,280;    0,136
692,543;28947,421;   -0,447;   -1,955
693,116;28604,923;   -0,265;   -1,409
693,690;28443,788;    0,099;    0,500
694,263;28975,927;   -1,083;    2,955
694,836;28986,156;    1,371;    3,591
695,410;27625,021;   -0,265;    1,773
695,983;28093,250;    0,189;    0,591
696,556;28107,843;   -0,447;   -1,045
697,129;28515,072;   -0,356;    1,409
697,703;28142,574;   -1,629;    1,955
698,276;28141,530;    1,462;   -0,773
698,849;27954,032;    1,280;    1,409
699,422;28334,170;   -1,083;    0,591
699,995;28018,854;    0,007;    0,136
700,568;28486,083;   -0,629;    3,045
701,140;28517,767;   -2,811;    1,682
701,713;28250,996;   -0,174;    2,409
702,286;27998,225;   -0,538;    0,864
702,859;27911,545;   -0,902;   -0,591
703,432;27115,683;    0,825;    0,682
704,004;27562,276;    0,462;    0,318
704,577;27434,505;   -0,629;    0,136
705,150;28036,643;    0,189;    2,500
705,722;27812,145;   -0,356;   -3,227
706,295;27549,465;   -0,175;   -0,591
706,867;27412,967;   -0,175;    1,955
707,440;27621,287;   -1,720;   -0,409
708,012;27894,607;    0,462;    0,591
708,584;27793,745;    2,462;    0,227
709,157;28118,247;    1,825;   -0,591
709,729;27817,749;    2,280;    2,045
710,301;28673,614;    0,734;    0,045
710,874;28627,389;   -1,447;   -0,227
711,446;27472,800;    0,371;    0,864
712,018;27361,938;    0,098;    0,500
712,590;27106,803;   -1,993;    1,682
713,162;27630,032;    0,825;    1,318
713,734;27917,352;    1,825;   -2,045
714,306;27841,309;   -1,902;   -0,409
714,878;26522,447;    0,825;    0,864
715,450;27354,494;    0,643;    0,864
716,022;27614,905;    1,552;    1,318
716,593;27802,316;    0,189;    0,591
717,165;27750,363;   -3,175;   -1,227
717,737;27383,411;    0,280;    0,409
718,309;27072,458;    0,280;   -0,045
718,880;27038,051;   -0,539;   -1,409
719,452;27273,462;   -0,175;   -1,591
720,024;26838,418;    0,734;   -0,591
720,595;27396,011;   -2,902;    0,955
721,167;26967,331;    0,370;   -2,045
721,738;26448,287;   -0,812;   -1,045
722,309;26423,516;   -0,993;   -1,227
722,881;26193,382;   -1,357;    0,773
723,452;26805,247;   -2,630;    2,864
724,023;27014,113;   -0,721;    2,682
724,595;26787,887;    0,007;    0,682
725,166;26596,025;    0,007;   -0,409
725,737;26189,254;    1,734;    0,227
726,308;26288,211;   -0,266;    0,318
726,879;26726,985;   -1,630;    1,227
727,450;26567,305;    0,552;   -0,045
728,021;26482,716;    3,097;    0,682
728,592;26282,945;    0,734;    0,500
729,163;26637,084;    0,643;   -0,136
729,734;26669,494;    0,188;   -0,227
730,305;27049,905;    1,734;    0,136
730,876;27392,316;    0,188;    2,955
731,447;27049,727;    2,188;    2,682
732,017;27123,684;    1,097;    1,864
732,588;26598,185;    0,734;    1,227
733,159;26816,960;    0,643;   -1,045
733,729;26694,916;    0,006;    0,409
734,300;25937,873;    0,915;    0,864
734,870;26404,738;    3,461;    0,591
735,441;26986,058;    0,370;   -0,591
736,011;26720,105;    0,643;   -1,591
736,582;26668,880;   -0,812;    0,045
737,152;26122,564;   -1,721;   -2,045
737,722;26560,793;   -0,267;   -0,682
738,293;26289,113;   -1,358;    1,318
738,863;26195,978;    2,461;    2,318
739,433;25977,935;    5,279;    0,318
740,003;26569,982;   -0,994;   -0,682
740,573;25993,393;    2,097;   -1,591
741,143;25951,986;   -1,085;    0,318
741,713;26733,396;    1,188;   -0,500
742,283;26432,535;    0,915;    1,591
742,853;26269,127;    1,915;    1,591
743,423;25725,629;    1,733;    0,045
743,993;25817,767;   -0,358;    1,500
744,563;25234,087;    0,097;   -0,864
745,133;25223,135;   -0,812;   -0,864
745,702;25918,273;   -0,267;    1,773
746,272;25128,320;   -0,176;    0,591
746,842;24857,095;   -1,358;   -0,591
747,411;25298,415;   -0,267;   -0,318
747,981;25491,735;    0,097;    0,500
748,551;25536,055;    2,278;   -1,045
749,120;25393,375;    0,642;   -0,227
749,690;25816,240;   -0,631;    2,409
750,259;26093,924;    1,369;    2,955
750,828;25969,607;    1,551;   -1,955
751,398;26210,382;    1,278;   -0,045
751,967;25729,066;    2,187;    0,409
752,536;25987,749;   -0,813;   -0,227
753,105;26379,433;    0,096;    0,227
753,675;26163,208;    0,096;    1,773
754,244;26139,346;   -0,904;    3,591
754,813;26178,120;    0,551;    1,227
755,382;25763,349;    0,460;    0,955
755,951;26285,851;    1,551;    3,682
756,520;25803,626;   -0,085;    1,864
757,089;26352,855;    0,278;    0,500
757,658;26488,084;    1,733;    1,227
758,227;26519,858;    1,096;    0,318
758,795;26786,633;    1,187;    1,136
759,364;27060,408;   -0,086;   -0,591
759,933;26081,637;   -1,176;   -0,045
760,501;25632,866;    0,733;   -1,318
761,070;26052,004;   -2,813;   -1,409
761,639;26764,233;   -1,904;    1,318
762,207;26043,008;    1,551;   -0,955
762,776;26027,146;    0,369;    0,864
763,344;26019,829;   -0,995;    0,591
763,913;25119,695;   -0,722;    1,409
764,481;25847,924;    1,005;   -0,136
765,049;25613,426;   -1,358;    1,409
765,618;25560,382;   -0,086;    0,318
766,186;25686,611;    0,278;    0,136
766,754;25854,113;    0,005;    1,864
767,322;24854,797;   -1,995;    0,409
767,890;24875,480;   -0,722;   -1,773
768,459;25248,982;   -2,177;   -0,318
769,027;25426,030;    1,641;    3,409
769,595;24459,986;    3,278;    2,591
770,163;24867,397;    3,823;    2,955
770,730;24620,444;    0,732;   -0,136
771,298;24517,764;    0,187;   -1,409
771,866;24571,721;   -1,541;    4,955
772,434;24871,131;   -0,631;   -1,864
773,002;25040,906;    0,005;    0,682
773,569;24742,590;    0,914;    1,682
774,137;24527,546;   -0,268;   -0,045
774,705;25334,230;    0,278;   -0,136
775,272;24817,822;    0,641;    0,682
775,840;24584,233;   -0,177;    2,682
776,407;24168,553;    0,277;    1,955
776,975;23755,510;   -0,632;    0,318
777,542;24764,921;   -1,086;   -0,045
778,110;24601,422;   -1,268;   -0,045
778,677;24308,106;   -2,359;   -0,864
779,244;24028,517;    2,186;    1,045
779,812;24162,564;    1,823;    0,864
780,379;24044,521;    0,005;    1,136
780,946;24256,386;    1,005;   -0,773
781,513;24604,524;   -1,450;    0,318
782,080;24000,662;   -0,086;    2,864
782,647;24726,164;   -0,268;    3,045
783,214;24260,575;   -0,177;    3,864
783,781;23849,350;   -0,723;   -0,682
784,348;23749,306;   -0,632;    1,500
784,915;24231,081;   -3,177;    0,318
785,482;23977,310;    1,368;    2,591
786,049;24453,539;    0,186;   -0,591
786,615;24553,404;    0,277;   -0,955
787,182;24335,997;    0,186;   -0,682
787,749;24008,863;   -2,814;    1,409
788,315;23327,183;   -1,632;   -0,409
788,882;23619,048;    1,550;   -1,227
789,448;24296,732;    1,732;   -0,955
790,015;24349,961;    1,095;    3,227
790,581;23885,281;    1,459;    0,227
791,148;23748,237;    0,641;    1,045
791,714;23998,103;   -0,541;    3,136
792,280;23663,877;    0,186;    1,591
792,847;23284,924;    0,550;    2,500
793,413;23888,154;   -0,269;   -0,318
793,979;23344,110;    3,459;   -1,318
794,545;23407,248;    4,459;    2,682
795,111;22818,114;    2,186;    1,318
795,678;23035,252;    0,731;   -1,682
796,244;22671,208;    3,368;    0,136
796,810;23243,528;    1,731;    0,773
797,375;22899,666;    0,549;   -2,136
797,941;22981,986;   -0,541;    0,591
798,507;23093,943;   -0,451;   -0,955
799,073;22652,172;   -0,360;    0,591
799,639;22745,310;   -2,632;    3,136
800,205;22768,085;    0,095;    2,682
800,770;22347,132;    0,640;    1,773
801,336;22440,088;    1,368;   -0,955
801,901;22083,499;    4,549;    3,136
802,467;22665,637;   -0,542;    2,045
803,033;22022,230;   -0,087;    0,864
803,598;22282,096;    1,913;   -1,045
804,163;22257,870;    1,095;   -0,318
804,729;22264,463;   -0,178;    1,136
805,294;22652,601;    0,822;    2,227
805,859;22424,376;    0,731;   -0,409
806,425;21883,786;    1,186;    2,682
806,990;21510,107;    2,186;    4,318
807,555;22054,063;   -1,451;    2,591
808,120;21919,110;    0,822;   -0,409
808,685;21985,794;    0,185;   -2,500
809,250;21517,477;    0,004;   -0,500
809,815;21825,616;    1,913;    0,682
810,380;22352,027;   -0,269;    1,591
810,945;22894,347;   -1,087;    2,045
811,510;22063,121;    2,094;    1,591
812,075;21792,987;   -0,633;   -1,409
812,640;21834,670;    2,003;    1,409
813,204;21856,627;    0,822;   -0,227
813,769;22321,947;    2,094;   -0,045
814,334;21769,903;    0,458;    0,864
814,898;21832,041;    0,367;    0,591
815,463;21650,361;    1,276;   -0,773
816,027;21657,045;   -0,724;   -2,318
816,592;21743,183;    0,640;   -2,045
817,156;21217,503;    2,094;    1,136
817,721;21070,914;    4,276;    2,318
818,285;21055,961;    2,912;    1,500
818,849;21696,918;   -1,451;    1,682
819,414;21661,238;   -0,269;    2,955
819,978;21227,649;   -1,269;    1,773
820,542;21764,423;    2,003;    0,500
821,106;21515,379;   -0,815;    0,682
821,670;21564,881;   -0,815;    2,591
822,234;21341,019;   -0,270;    1,409
822,798;20732,976;    0,003;    0,500
823,362;20671,932;   -0,633;    4,227
823,926;19995,343;    0,094;    1,136
824,490;20224,027;   -0,997;   -0,682
825,054;20676,710;   -0,088;   -1,136
825,618;20275,212;   -1,542;   -1,500
826,181;20249,896;    0,458;   -1,318
826,745;20145,216;    1,367;   -1,045
827,309;20469,354;    1,185;    1,318
827,872;19866,129;    1,367;    0,955
828,436;20851,812;    1,185;   -0,773
828,999;20919,405;   -0,997;    1,227
829,563;19750,998;   -0,179;    1,136
830,126;19560,863;   -0,179;   -0,591
830,690;19563,001;   -1,997;    2,864
831,253;19091,321;   -0,543;    2,227
831,816;19231,096;   -1,906;    0,500
832,380;19166,871;    0,185;    0,864
832,943;19399,554;   -1,361;   -0,500
833,506;18882,874;    2,639;   -1,227
834,069;19649,649;    3,912;   -0,955
834,632;19724,332;    1,730;    1,318
835,195;19635,380;    1,003;    0,955
835,758;18854,063;   -0,997;    1,955
836,321;18697,020;    0,730;   -1,045
836,884;18822,067;   -0,725;   -0,955
837,447;18854,660;   -2,816;    1,773
838,010;19093,252;    0,366;    3,227
838,573;19358,300;   -1,179;    0,773
839,135;19321,620;   -1,361;   -0,955
839,698;18785,576;    1,275;    0,409
840,261;18366,351;    1,003;   -0,227
840,823;18188,398;   -0,543;    0,864
841,386;18459,991;   -0,452;   -2,409
841,948;18340,492;   -1,361;    1,773
842,511;18113,812;    0,912;    1,682
843,073;18201,678;    1,912;    0,227
843,636;18027,543;   -0,361;   -0,227
844,198;17980,136;    0,911;    0,591
844,760;18082,638;    1,093;    1,955
845,322;17712,594;    0,548;    1,136
845,885;18132,460;    0,730;    0,591
846,447;18589,143;   -1,998;    0,227
847,009;18152,191;    1,911;   -0,682
847,571;18509,965;    0,820;   -2,045
848,133;18623,649;   -1,089;   -1,864
848,695;18458,787;   -0,543;    1,409
849,257;18012,107;   -1,089;   -1,682
849,819;18127,700;   -0,998;   -0,409
850,381;18212,020;   -0,725;   -0,864
850,942;18583,340;    1,093;   -0,591
851,504;18525,296;    1,184;    0,227
852,066;18566,798;    1,275;   -1,591
852,628;18099,664;   -0,180;    1,955
853,189;17663,074;    1,638;    2,682
853,751;17753,940;   -0,907;    1,409
854,312;17584,442;   -0,453;   -1,682
854,874;18070,489;   -2,089;   -0,773
855,435;18620,536;   -0,907;   -1,682
855,997;18746,493;   -1,816;   -0,136
856,558;18033,085;    0,366;    1,773
857,119;18100,587;    0,820;    2,864
857,681;17788,725;    0,002;    0,318
858,242;17848,409;    1,911;   -2,136
858,803;18323,547;    0,456;   -0,773
859,364;18905,958;    0,184;   -4,773
859,925;18259,733;   -2,453;   -0,955
860,486;18152,689;   -0,453;   -0,955
861,047;17867,827;   -0,544;   -1,227
861,608;17655,602;   -1,089;   -0,773
862,169;17789,104;    0,638;   -0,045
862,730;17584,060;    0,456;    1,409
863,291;17801,289;   -0,635;   -0,500
863,852;18171,700;   -0,635;    1,955
864,412;17667,929;   -0,271;   -0,864
864,973;16278,886;   -0,089;    0,500
865,534;16130,842;   -1,726;    0,227
866,094;17611,162;    1,820;    0,227
866,655;17295,664;    1,274;    3,318
867,215;17545,984;    0,274;    0,136
867,776;17404,031;    0,547;   -0,136
868,336;17508,806;   -1,453;    0,136
868,897;16958,671;    2,638;    1,682
869,457;16667,355;    1,365;    0,318
870,017;16909,129;    0,547;   -1,227
870,578;17442,631;   -0,817;    0,773
871,138;17129,042;   -2,089;   -0,955
871,698;16700,726;   -0,817;   -1,318
872,258;16578,409;   -0,453;   -2,864
872,818;16900,729;    2,729;    0,045
873,378;16886,777;    0,638;    1,045
873,938;16426,824;    0,547;    0,500
874,498;16794,598;    0,274;   -1,955
875,058;16698,100;    2,183;    1,773
875,618;16556,148;    1,910;   -2,682
876,177;16450,195;    1,274;    0,136
876,737;16039,969;   -0,090;    1,955
877,297;16102,835;    0,183;    1,955
877,856;16076,064;   -0,362;    0,318
878,416;16023,384;    1,183;   -0,136
878,976;16231,068;   -1,817;    0,409
879,535;16422,479;    0,092;    3,136
880,095;16167,889;   -0,544;    0,045
880,654;16289,391;   -1,090;    1,318
881,213;16333,802;    2,456;    1,500
881,773;15979,940;    2,637;    2,682
882,332;16313,079;    3,365;    5,136
882,891;16189,944;    3,092;    2,136
883,451;16623,264;   -1,272;    1,682
884,010;16092,129;   -2,908;   -0,409
884,569;16237,722;   -0,999;   -0,045
885,128;16370,860;    2,819;   -1,864
885,687;16419,635;    4,455;    0,682
886,246;16105,682;    1,455;    2,136
886,805;15894,184;    2,455;    2,045
887,364;16184,050;   -0,999;   -0,500
887,922;16574,370;   -1,181;    0,045
888,481;16071,417;   -1,545;    0,591
889,040;16376,828;    1,183;    2,136
889,599;17051,420;    2,455;    1,409
890,157;17102,013;    1,455;    2,409
890,716;16747,515;   -0,090;    0,227
891,274;16547,744;    0,092;   -1,136
891,833;16970,791;    1,546;    0,864
892,391;16876,384;   -0,454;    0,500
892,950;16937,795;    1,819;   -0,773
893,508;17304,206;    0,455;   -0,409
894,067;16677,344;    0,637;    0,136
894,625;16571,391;   -0,636;   -1,500
895,183;16842,984;   -0,363;   -0,682
895,741;16690,395;    1,728;   -1,773
896,299;16506,261;   -0,545;   -2,409
896,858;16688,581;    0,819;   -1,591
897,416;16863,082;    2,728;   -1,318
897,974;16607,402;    1,819;    0,318
898,532;16687,450;    6,091;    2,682
899,089;16611,224;    2,091;   -0,682
899,647;16670,999;   -1,454;    1,318
900,205;16405,682;    1,182;    1,045
900,763;16647,730;   -0,454;    0,227
901,321;16613,777;    2,364;   -1,409
901,878;16086,006;   -1,000;   -0,773
902,436;15937,144;   -1,363;    1,318
902,994;16341,737;    4,728;    3,682
903,551;15768,875;    0,728;    0,409
904,109;16214,468;    0,182;   -1,409
904,666;15791,515;    2,455;    1,045
905,224;15637,290;    0,182;   -0,409
905,781;15369,064;    0,727;   -0,318
906,338;15423,930;   -1,363;    1,045
906,895;15387,159;    0,637;    2,045
907,453;15307,479;    1,727;    1,136
908,010;15313,435;   -0,909;    0,409
908,567;14956,210;    1,273;    0,591
909,124;14486,166;    0,364;   -1,500
909,681;14569,395;   -2,909;    0,682
910,238;14712,352;    0,636;   -1,318
910,795;15034,672;   -0,273;   -1,136
911,352;14672,490;   -2,909;   -2,682
911,909;14104,217;   -1,364;   -0,864
912,466;14567,035;   -3,182;    1,500
913,022;14135,490;   -1,636;    0,500
913,579;14500,217;   -0,909;    2,045
914,136;14228,672;    1,636;    0,955
914,692;14540,399;    0,091;   -1,227
915,249;14127,217;    1,455;    0,409
915,806;14340,217;    0,182;    1,955
916,362;14110,944;    1,909;    1,864
916,918;13679,399;    2,000;    1,045
917,475;13629,399;   -1,182;    0,955
918,031;13717,490;    3,364;   -0,045
918,587;13195,672;   -0,909;   -0,318
919,144;13430,035;   -2,273;    0,227
919,700;13720,854;    1,727;    0,773
920,256;13318,126;    0,727;    0,045
920,812;12947,399;   -0,727;   -1,045
921,368;12960,854;   -1,727;   -1,045
921,924;12589,126;    0,182;   -0,136
922,480;12173,217;   -0,545;    1,227
923,036;12765,490;    1,273;    1,955
923,592;12734,308;    0,455;    0,318
924,148;12628,854;    0,455;   -0,955
924,704;11923,581;   -1,364;   -0,409
925,259;12194,581;   -0,273;    0,591
925,815;11986,217;    1,455;    0,500
926,371;11537,672;    2,909;    1,409
926,926;11417,308;    2,091;    0,591
927,482;11036,490;   -1,364;    0,773
928,037;10965,581;    0,909;    2,045
928,593;11208,581;    1,636;    1,045
929,148;11026,308;   -1,818;   -1,500
929,704;10551,581;   -1,455;   -0,500
930,259;10753,217;    0,091;   -0,136
930,814; 9839,035;   -0,818;    1,955
931,369; 9501,672;    1,091;   -0,773
931,925; 9443,126;   -0,091;    0,136
932,480; 9354,581;   -2,818;   -2,591
933,035; 9244,126;    0,545;   -0,318
933,590; 9006,763;    0,364;   -1,773
934,145; 8646,217;   -1,364;   -0,318
934,700; 8976,126;    0,455;   -0,591
935,255; 8792,126;   -0,091;    0,045
935,809; 8088,490;    3,182;    0,864
936,364; 7259,944;   -0,455;   -0,136
936,919; 7228,217;    0,455;   -1,773
937,474; 7109,581;    1,455;    0,136
938,028; 6899,763;   -1,636;    1,136
938,583; 6358,763;    1,818;    4,682
939,138; 6663,854;    2,091;    2,136
939,692; 6110,217;    1,636;   -1,136
940,247; 5816,035;   -0,727;   -1,045
940,801; 5377,399;   -0,636;    0,227
941,355; 5284,672;   -0,364;    2,591
941,910; 4940,490;   -0,273;   -2,136
942,464; 5039,490;   -0,818;   -0,318
943,018; 4851,308;    1,000;   -0,227
943,572; 4790,854;    2,545;   -0,682
944,126; 4219,944;    0,091;   -0,409
944,681; 4113,399;    3,091;    0,227
945,235; 4084,581;    1,000;   -0,591
945,789; 4035,581;    0,364;   -1,864
946,342; 4127,581;    0,455;   -0,591
946,896; 3951,126;   -2,273;    0,955
947,450; 3716,672;    1,545;   -0,227
948,004; 3904,126;    1,727;   -0,045
948,558; 3897,308;    0,273;   -0,864
949,111; 3827,035;   -0,273;   -0,318
949,665; 3862,399;    1,636;   -0,682
950,219; 3715,854;   -0,091;   -1,045
950,772; 3780,217;   -1,909;    1,864
951,326; 3703,854;    0,545;   -0,955
951,879; 3812,217;    0,727;   -2,318
952,433; 3834,126;    0,000;    2,227
952,986; 3689,126;    2,909;    0,682
953,539; 3637,399;   -0,273;    0,591
954,093; 3580,217;    0,545;   -1,318
954,646; 3709,490;    0,909;    1,318
955,199; 3517,399;    0,000;   -0,500
955,752; 3408,035;   -0,455;    1,773
956,305; 3372,763;   -0,091;    2,955
956,858; 3525,126;    0,818;   -0,318
957,411; 3703,944;   -0,545;    2,136
957,964; 3521,581;    1,364;    2,136
958,517; 3523,308;   -1,545;    3,136
959,070; 3353,854;   -0,455;    1,955
959,623; 3416,399;    1,091;    1,500
960,176; 3201,308;    1,727;    2,045
960,728; 3189,672;   -2,727;    0,773
961,281; 3250,035;    0,545;    0,500
961,834; 3282,126;   -0,909;    0,864
962,386; 3211,126;    1,727;    1,045
962,939; 3122,672;    0,364;   -0,318
963,491; 3272,308;    0,455;    1,136
964,043; 3136,399;    1,182;    2,409
964,596; 3262,763;   -1,000;    2,227
965,148; 3116,308;   -1,000;    1,773
965,700; 3044,035;    1,091;   -0,227
966,253; 3166,399;   -0,636;    0,318
966,805; 3006,217;   -2,273;    0,773
967,357; 3068,308;    1,091;   -1,500
967,909; 3025,854;    0,455;   -1,227
968,461; 3146,035;    0,545;    3,136
969,013; 3072,854;   -0,182;   -0,864
969,565; 3149,035;   -0,455;   -1,136
970,117; 3224,035;   -0,364;    1,045
970,669; 3042,672;    0,182;   -0,136
971,220; 2911,308;   -0,455;   -1,500
971,772; 2842,308;   -0,636;   -0,318
972,324; 2956,944;    0,091;   -0,500
972,876; 2905,308;    0,818;   -0,045
973,427; 3038,581;    1,909;   -1,045
973,979; 3002,944;   -0,727;   -2,500
974,530; 3040,672;    1,818;    1,318
975,082; 3044,854;   -0,545;    1,682
975,633; 2939,126;    1,091;    1,682
976,184; 3084,490;    0,909;    0,773
976,736; 2878,399;    0,091;    0,227
977,287; 2684,126;   -0,909;   -0,500
977,838; 2849,399;    0,909;   -0,318
978,389; 2917,854;   -1,000;   -0,500
978,940; 2795,763;    0,545;   -0,409
979,491; 2830,490;    0,091;   -0,500
980,042; 2790,763;    0,182;    3,045
980,593; 2859,581;   -2,545;    0,227
981,144; 2881,035;    2,545;   -0,500
981,695; 2857,308;    1,455;    1,500
982,246; 2835,399;   -0,273;    1,045
982,797; 2999,490;   -1,727;    0,682
983,347; 3082,854;    0,364;    0,591
983,898; 3246,581;    3,091;    0,409
984,449; 3069,672;    2,182;    0,773
984,999; 2975,126;    1,455;   -1,136
985,550; 2771,763;    0,182;   -0,318
986,100; 2803,944;   -0,455;   -0,318
986,651; 2849,035;   -0,818;    0,045
987,201; 2822,399;   -1,000;   -0,591
987,751; 2895,672;    0,818;    2,864
988,302; 2887,944;    2,636;    1,500
988,852; 2899,944;    0,455;   -1,136
989,402; 2946,581;    0,091;    0,682
989,952; 2857,126;   -2,182;    0,864
990,502; 2964,672;   -0,091;    0,682
991,052; 2921,581;   -0,727;    0,045
991,602; 2796,217;   -2,909;    1,318
992,152; 2783,581;    0,455;    0,682
992,702; 2778,581;    1,364;   -0,045
993,252; 2709,490;   -3,000;   -0,500
993,802; 2788,308;   -0,273;    1,318
994,352; 3010,308;   -1,545;    1,136
994,901; 3112,763;   -0,182;    3,227
995,451; 3034,763;   -0,182;    0,318
996,000; 3122,399;    1,636;    0,318
996,550; 2846,581;    2,273;    0,227
997,100; 2823,581;    1,273;   -0,045
997,649; 3119,854;    2,182;    0,955
998,198; 2754,672;    1,727;   -1,500
998,748; 2937,308;    1,091;   -2,318
999,297; 2874,490;   -0,818;   -0,409
999,846; 2932,126;    1,000;   -0,773
1000,395; 2977,126;   -0,818;    0,500
1000,945; 2912,035;    1,818;   -0,773
1001,494; 3001,035;    2,364;    0,682
1002,043; 2973,035;    4,636;    0,864
1002,592; 2834,217;   -1,091;    1,955
1003,141; 2983,035;   -0,455;   -0,682
1003,690; 2845,944;    1,727;    0,500
1004,238; 2915,763;    1,455;   -0,045
1004,787; 2560,672;    1,364;    1,227
1005,336; 2811,035;    0,364;    0,682
1005,885; 2950,672;    1,364;   -2,773
1006,433; 3075,126;    0,545;    0,955
1006,982; 3124,581;    0,455;    1,682
1007,531; 3054,308;   -1,818;   -0,227
1008,079; 3004,217;   -2,273;    0,500
1008,627; 3137,672;   -1,455;    0,409
1009,176; 2865,035;    0,000;   -1,955
1009,724; 2920,763;    1,091;    0,864
1010,273; 2974,763;    1,273;    0,500
1010,821; 3069,763;    0,091;    1,409
1011,369; 2821,581;   -1,364;    1,318
1011,917; 2797,763;   -1,364;   -0,591
1012,465; 3092,763;    1,273;   -1,591
1013,013; 3196,672;    2,091;   -1,682
1013,561; 3082,672;    0,455;   -0,773
1014,109; 3122,308;   -1,909;    1,682
1014,657; 2995,035;    0,364;    0,591
1015,205; 3144,217;    1,636;   -0,955
1015,753; 3171,308;   -0,545;   -1,409
1016,301; 3203,854;   -2,636;    3,045
1016,848; 3201,399;   -1,273;    0,409
1017,396; 3242,035;    2,545;    0,045
1017,944; 3386,672;    1,182;    1,864
1018,491; 3134,035;    0,273;    1,409
1019,039; 3278,763;    0,455;    0,591
1019,586; 3211,581;   -1,364;    1,682
1020,134; 3316,944;    0,455;    1,500
1020,681; 3332,944;    0,182;   -1,136
1021,228; 3337,581;    2,909;   -2,227
1021,776; 3166,944;    1,182;   -1,136
1022,323; 3374,490;    0,455;    0,773
1022,870; 3318,490;   -1,000;   -0,045
1023,417; 3206,217;    2,636;    1,864
1023,964; 3354,490;    2,636;    1,227
1024,511; 3202,399;    1,000;    0,773
1025,058; 3005,763;    3,182;   -0,045
1025,605; 3069,581;   -2,273;    3,136
1026,152; 3261,944;    1,727;   -0,591
1026,699; 2999,944;    1,818;    1,318
1027,245; 3158,672;   -0,091;    0,318
1027,792; 3369,581;   -1,000;    1,409
1028,339; 3243,217;    2,364;   -0,045
1028,885; 3127,672;    1,000;   -0,227
1029,432; 3046,217;   -0,091;    0,227
1029,978; 3123,217;   -1,000;   -1,591
1030,525; 3008,126;    1,000;    0,409
1031,071; 3258,581;   -1,364;    1,136
1031,618; 3345,126;    0,364;    1,682
1032,164; 3143,490;   -0,091;    3,045
1032,710; 3194,854;    1,636;   -1,500
1033,256; 3095,854;   -0,636;   -0,136
1033,803; 3100,217;   -0,545;    1,500
1034,349; 2831,944;   -1,364;    0,136
1034,895; 2987,217;    0,000;   -0,318
1035,441; 2973,854;   -0,818;    0,318
1035,987; 2971,944;   -2,364;   -0,682
1036,533; 2961,399;   -1,455;   -0,955
1037,078; 3164,490;    1,455;    1,682
1037,624; 2987,672;    2,455;   -0,955
1038,170; 3020,399;    0,455;   -0,318
1038,716; 2914,854;    1,636;   -0,409
1039,261; 2847,126;   -2,273;   -0,773
1039,807; 2783,581;   -0,091;    3,409
1040,352; 2844,763;   -1,909;   -0,318
1040,898; 2897,217;   -1,545;   -0,682
1041,443; 2826,399;   -1,455;   -2,591
1041,989; 2815,126;    1,091;    1,591
1042,534; 2706,308;   -0,364;    2,591
1043,079; 2803,672;    2,909;    0,955
1043,625; 2613,944;    1,818;    0,500
1044,170; 2663,308;   -1,364;    1,045
1044,715; 2902,944;    2,455;    0,955
1045,260; 2752,944;    2,182;   -0,955
1045,805; 2795,944;    1,182;   -0,591
1046,350; 2721,944;    1,364;   -0,409
1046,895; 2667,581;    2,909;    1,591
1047,440; 2615,581;    5,364;    0,409
1047,985; 2534,672;    2,818;   -0,955
1048,530; 2447,944;    1,545;    1,227
1049,074; 2514,217;    0,000;    0,318
1049,619; 2506,490;   -1,364;    1,955
1050,164; 2297,854;    0,455;    0,227
1050,708; 2351,035;   -0,455;    0,045
1051,253; 2703,308;    1,273;   -2,227
1051,797; 2418,399;    0,818;   -1,318
1052,342; 2433,217;   -1,182;    1,045
1052,886; 2422,490;    0,364;   -1,409
1053,430; 2315,763;   -1,364;    0,136
1053,975; 2333,035;   -0,818;   -0,318
1054,519; 2313,854;   -0,727;    3,227
1055,063; 2321,399;    0,909;    1,318
1055,607; 2200,490;   -0,182;    0,227
1056,151; 2212,308;    2,909;    1,682
1056,695; 2138,126;    2,273;   -1,136
1057,239; 2217,126;   -1,727;   -0,682
1057,783; 2226,217;    0,818;   -1,500
1058,327; 2148,763;    0,000;    1,409
1058,871; 2385,672;   -0,545;    1,318
1059,415; 2102,763;   -0,818;   -0,045
1059,958; 2360,672;    1,455;    2,591
1060,502; 2080,126;   -1,000;   -0,773
1061,046; 1985,854;    0,364;   -0,955
1061,589; 1976,399;   -3,000;   -1,136
1062,133; 1850,944;   -1,273;    1,864
1062,676; 1782,672;    1,182;    0,864
1063,220; 1791,944;    1,091;    0,500
1063,763; 1826,854;    0,909;    1,136
1064,306; 1906,126;   -0,909;    1,864
1064,849; 1788,854;   -0,909;    0,591
1065,393; 1785,490;    2,000;   -1,500
1065,936; 1902,126;    0,182;   -0,409
1066,479; 1781,944;   -1,455;    1,318
1067,022; 1809,035;   -0,273;   -0,227
1067,565; 1708,672;   -0,091;   -1,318
1068,108; 1724,490;    0,727;   -0,591
1068,651; 1706,035;   -0,636;    1,409
1069,194; 1636,308;   -0,455;   -1,682
1069,736; 1645,581;   -1,273;    0,955
1070,279; 1617,035;   -1,364;   -0,500
1070,822; 1677,854;   -2,000;   -0,318
1071,364; 1750,035;   -0,364;    1,318
1071,907; 1582,581;   -0,727;    3,227
1072,450; 1492,399;    0,000;   -0,045
1072,992; 1475,763;   -0,273;    3,136
1073,535; 1614,126;    2,091;    2,136
1074,077; 1418,308;   -0,727;    2,045
1074,619; 1386,490;   -1,364;    0,591
1075,161; 1419,490;   -1,091;    1,500
1075,704; 1580,490;    1,545;    1,227
1076,246; 1391,581;   -0,182;    0,682
1076,788; 1329,035;   -0,364;    1,773
1077,330; 1392,581;    1,273;    2,136
1077,872; 1354,217;    0,909;    0,955
1078,414; 1577,581;    2,727;    0,773
1078,956; 1311,581;    1,273;   -0,227
1079,498; 1569,581;    1,636;    0,318
1080,040; 1285,308;    1,909;   -1,318
1080,581; 1214,854;    1,636;   -0,318
1081,123; 1147,308;    0,091;   -0,773
1081,665; 1198,672;   -1,182;   -0,955
1082,206; 1481,672;    1,364;   -0,500
1082,748; 1349,308;    0,727;    2,045
1083,289; 1230,672;   -2,000;    1,318
1083,831; 1138,581;   -0,545;    0,227
1084,372; 1166,308;    0,000;    0,591
1084,913; 1165,217;    1,091;    0,864
1085,455; 1146,490;   -1,909;   -2,045
1085,996; 1117,308;   -2,273;    0,136
1086,537; 1123,035;   -0,091;    0,864
1087,078; 1169,672;   -0,909;   -2,136
1087,619; 1202,217;   -1,273;    0,227
1088,160; 1127,581;    0,000;    1,318
1088,701; 1122,217;   -1,091;    0,682
1089,242; 1059,944;    1,364;   -2,227
1089,783; 1142,854;   -0,273;    1,409
1090,324; 1103,854;    0,455;    0,682
1090,865;  995,672;    2,727;   -0,409
1091,405;  961,217;    0,727;    2,227
1091,946;  989,490;    0,182;   -0,955
1092,487;  910,308;    0,818;   -1,409
1093,027; 1072,672;   -1,364;   -1,500
1093,568;  925,672;   -0,364;    1,227
1094,108; 1039,944;    0,273;    1,773
1094,649;  974,217;   -1,182;    0,136
1095,189;  906,308;   -0,636;   -0,682
1095,729;  861,672;   -0,091;    0,955
1096,269;  872,854;    0,727;   -0,955
1096,810; 1176,581;   -1,364;    0,500
1097,350;  997,672;    1,364;   -0,773
1097,890;  910,308;    0,364;    1,227
1098,430; 1150,308;    2,364;    2,864
1098,970; 1021,035;    2,182;    1,682
1099,510;  891,399;    0,545;   -2,318
1100,050;  821,763;    1,000;   -1,591
1100,589;  791,672;   -0,727;   -0,318
1101,129;  909,854;    0,818;   -0,955
1101,669; 1058,399;    1,727;    2,136
1102,209;  886,399;   -0,091;    2,227
1102,748;  842,217;    0,000;    0,955
1103,288;  835,944;    1,273;   -1,227
1103,827;  855,308;    3,091;   -2,227
1104,367;  733,854;   -0,091;   -2,409
1104,906;  704,217;    1,364;   -1,136
1105,445;  764,672;    0,636;   -1,136
1105,985;  704,763;   -0,727;    1,500
1106,524;  760,672;   -1,727;   -0,682
1107,063;  742,490;   -2,727;    1,409
1107,602;  712,944;   -1,909;   -1,500
1108,141;  647,217;   -1,909;    1,500
1108,680;  741,490;   -3,455;   -0,591
1109,219;  680,126;   -0,909;   -0,500
1109,758;  672,126;    0,455;    0,682
1110,297;  649,854;    1,000;   -0,682
1110,836;  595,672;   -0,727;    0,955
1111,375;  754,308;   -2,545;    0,409
1111,913;  762,763;   -1,000;    0,773
1112,452;  697,126;   -0,273;    0,136
1112,991;  588,490;    1,091;    1,955
1113,529;  550,944;   -0,818;   -0,045
1114,068;  613,308;   -0,273;    2,955
1114,606;  514,399;   -0,364;   -0,955
1115,144;  675,399;   -1,273;    1,045
1115,683;  618,490;   -0,727;    0,318
1116,221;  661,672;   -0,455;   -0,864
1116,759;  570,126;    0,636;   -0,864
1117,297;  764,035;    0,000;    1,864
1117,836;  579,944;   -2,182;   -1,227
1118,374;  590,490;    0,182;   -0,682
1118,912;  529,672;    0,909;    2,682
1119,450;  518,672;    1,000;    0,864
1119,988;  568,672;    1,545;    2,136
1120,525; 1025,854;    5,091;    3,318
1121,063;  729,581;    1,182;    1,864
1121,601;  528,035;   -0,909;   -1,227
1122,139;  484,126;   -0,727;   -2,045
1122,676;  671,308;   -0,727;    2,773
1123,214;  593,490;   -1,182;    4,409
1123,751;  414,308;    1,727;    2,227
1124,289;  549,854;   -0,091;   -0,409
1124,826;  422,308;    1,727;    0,227
1125,364;  349,399;    1,727;   -0,955
1125,901;  533,399;    1,182;    1,227
1126,438;  642,672;    0,818;    0,955
1126,975;  371,763;   -0,727;   -0,773
1127,513;  440,399;    0,273;    2,136
1128,050;  350,763;    1,636;   -0,682
1128,587;  453,308;    2,000;   -0,227
1129,124;  494,763;    0,091;    1,318
1129,661;  368,944;    0,273;    0,227
1130,198;  529,126;    1,636;    0,773
1130,734;  480,399;    0,182;    1,409
1131,271;  331,490;   -0,909;    0,864
1131,808;  503,308;    2,909;    3,045
1132,345;  377,126;    1,545;    0,318
1132,881;  250,035;   -1,545;   -1,864
1133,418;  387,854;    0,727;   -1,136
1133,954;  323,308;    2,455;   -2,682
1134,491;  395,763;    1,364;   -0,773
1135,027;  291,854;    2,364;    0,864
1135,564;  386,581;    0,273;    2,955
1136,100;  363,217;    0,364;    2,136
1136,636;  255,763;   -1,273;   -1,045
1137,172;  354,672;    0,000;   -1,045
1137,708;  278,672;   -1,364;   -1,045
1138,245;  285,581;    1,273;   -1,227
1138,781;  236,035;    1,091;   -3,318
1139,317;  293,399;    1,273;   -1,409
1139,852;  287,399;    3,091;    0,136
1140,388;  404,763;   -1,182;   -0,409
1140,924;  288,308;   -1,091;   -2,227
1141,460;  228,672;   -1,636;    0,136
1141,996;  162,217;   -1,364;    2,682
1142,531;  208,672;    1,364;    3,318
1143,067;  430,490;    1,182;    1,045
1143,602;  474,581;   -0,091;   -0,318
1144,138;  322,399;   -2,636;    1,045
1144,673;  192,217;   -1,455;    1,409
1145,209;  269,763;   -1,909;   -0,318
1145,744;  176,490;   -0,727;    0,864
1146,279;  314,308;    1,818;   -0,136
1146,815;  228,308;    1,545;   -2,682
1147,350;  267,763;   -1,364;    0,045
1147,885;  187,672;   -0,818;   -1,318
1148,420;  191,217;   -2,273;    0,773
1148,955;  165,581;   -1,727;    1,864
1149,490;  191,399;   -0,909;   -1,591
1150,025;  170,035;    0,455;   -1,773
1150,560;  282,581;    1,091;   -0,955
1151,094;  247,944;    1,455;   -0,591
1151,629;  249,672;    1,636;    0,864
1152,164;  179,944;    1,364;    1,318
1152,698;  141,399;   -0,182;   -0,136
1153,233;  107,217;    0,091;   -0,682
1153,767;  152,035;   -3,000;   -2,318
1154,302;  192,672;   -1,455;    1,773
1154,836;  197,308;   -0,455;   -2,136
1155,371;  252,944;   -1,364;    3,682
1155,905;  206,581;   -0,636;    1,682
1156,439;  171,763;   -0,636;   -0,500
1156,973;  200,672;    0,364;    0,318
1157,507;  134,126;   -0,364;    0,682
1158,042;  163,763;   -0,727;    1,045
1158,576;  219,581;    0,182;    1,773
1159,110;  202,126;   -0,818;    2,409
1159,643;  171,944;    0,636;   -0,045
1160,177;  111,035;   -1,545;    1,500

