
Integration time [ms]:   0,040
Averaging Nr. [scans]: 11
Smoothing Nr. [pixels]: 0
Data measured with spectrometer [name]: 7318044SP
Wave   ;Sample   ;Dark     ;Reference
[nm]   ;[counts] ;[counts] ;[counts] 

186,757;   36,066;   31,551;    1,318
187,357;   65,350;   22,551;    0,955
187,958;   41,140;   15,460;   -1,591
188,558;   73,882;    8,915;   -1,227
189,159;   46,261;    6,733;   -4,500
189,759;   14,048;    7,278;   -3,591
190,360;    8,168;    2,824;   -2,136
190,960;   58,863;    2,915;   -4,136
191,560;   66,459;    3,189;   -6,591
192,161;  295,070;    4,372;   -3,500
192,761;  144,296;    4,010;   -3,227
193,361;  102,586;    1,556;   -3,773
193,962;  156,241;    2,010;   -2,682
194,562;   84,274;    1,189;   -3,955
195,162;  108,547;   -2,448;   -2,227
195,762;  265,438;   -3,176;   -0,045
196,362;  210,537;    1,370;   -2,500
196,963;   86,853;    2,006;   -0,864
197,563;  161,883;    1,551;   -0,955
198,163;  100,393;    0,096;   -0,682
198,763;  127,412;    1,733;   -0,500
199,363;  223,929;    3,096;   -0,500
199,963;  186,134;    0,369;    0,409
200,563;  160,446;    2,823;   -1,409
201,163;  147,216;    3,277;   -0,227
201,763;  229,394;    3,732;    0,318
202,363;  173,824;    1,459;    1,500
202,963;  288,897;    1,459;    1,045
203,563;  383,556;    0,277;    0,500
204,162;  232,559;    2,096;   -1,864
204,762;  226,044;    0,550;    0,591
205,362;  200,092;    3,004;    1,955
205,962;  295,851;    3,096;    1,955
206,562;  295,935;    1,823;    2,318
207,161;  269,658;   -0,087;    0,318
207,761;  419,238;    1,277;    2,409
208,361;  295,287;   -0,268;    1,409
208,960;  398,628;    0,459;    1,500
209,560;  467,955;    1,277;    1,591
210,160;  447,400;    0,550;    1,864
210,759;  411,060;    4,186;    1,227
211,359;  421,057;    1,459;    1,045
211,958;  686,038;    1,277;    2,045
212,558;  767,943;    1,732;    1,864
213,157;  606,043;    1,822;    1,500
213,757; 1049,880;    3,822;   -0,227
214,356;  753,899;    1,277;   -0,409
214,956; 1091,484;    3,095;    0,409
215,555;  715,974;    2,095;    2,136
216,154;  654,732;   -2,723;   -0,591
216,754;  669,367;    0,277;    0,773
217,353;  801,230;   -0,268;   -1,045
217,952;  657,777;   -0,178;    0,318
218,552;  886,778;    1,368;   -0,773
219,151;  795,180;    0,277;    0,955
219,750;  795,164;    0,004;   -0,227
220,349;  906,205;   -0,451;    1,045
220,948;  978,670;   -1,360;    1,136
221,548; 1008,228;    0,913;    1,227
222,147; 1117,982;   -0,087;   -0,409
222,746; 1397,395;   -0,451;   -0,955
223,345; 1274,853;    0,731;    0,500
223,944; 1283,991;   -0,451;    0,773
224,543; 1462,981;    1,004;   -1,409
225,142; 1580,110;    0,094;    0,136
225,741; 1482,692;   -0,814;    1,045
226,340; 1502,818;   -0,451;   -0,955
226,939; 1939,253;   -0,996;   -0,136
227,538; 1910,812;   -0,360;   -0,773
228,137; 2056,126;   -0,814;    0,864
228,735; 2196,762;   -0,541;    1,227
229,334; 1970,306;   -0,905;   -0,227
229,933; 2323,005;    0,459;    0,591
230,532; 2443,542;    1,186;   -0,409
231,131; 2489,930;    1,732;    0,318
231,729; 2643,910;   -2,450;   -2,318
232,328; 2758,150;   -0,723;   -1,500
232,927; 2831,077;    1,004;   -0,500
233,525; 2933,592;    3,640;    0,045
234,124; 3162,056;    2,368;   -1,591
234,723; 3188,517;    0,913;   -1,045
235,321; 3328,952;    2,277;    0,136
235,920; 3568,547;    1,186;   -1,227
236,518; 3820,528;    3,459;    0,318
237,117; 3995,289;    0,004;   -0,227
237,715; 4169,731;    0,640;   -0,500
238,314; 4202,635;   -0,087;   -2,318
238,912; 4271,483;   -0,723;   -1,409
239,510; 4336,390;    0,459;   -1,227
240,109; 4515,374;    0,004;    3,773
240,707; 4572,257;   -0,996;    1,227
241,305; 4899,383;    0,550;    0,136
241,904; 5111,383;   -0,178;   -2,045
242,502; 5084,931;   -0,632;   -0,227
243,100; 5045,365;   -0,087;   -0,955
243,698; 5281,807;    0,732;    1,682
244,297; 5441,670;   -0,632;    0,682
244,895; 5275,860;   -0,269;   -2,318
245,493; 5609,746;    2,186;   -0,591
246,091; 5635,076;    1,368;   -1,318
246,689; 5654,893;    1,004;    0,591
247,287; 5823,226;    0,822;   -1,136
247,885; 6091,513;   -1,451;    1,227
248,483; 6226,649;    1,822;   -0,500
249,081; 6296,860;    0,185;    1,591
249,679; 6465,433;   -0,178;    1,682
250,277; 6754,690;   -1,723;    0,864
250,875; 6718,366;   -1,087;   -1,045
251,473; 6740,229;   -1,178;    0,500
252,071; 6935,740;    1,459;    1,045
252,669; 7096,082;   -1,814;    0,318
253,267; 7364,742;   -0,087;    0,773
253,864; 7290,498;   -0,360;    0,682
254,462; 7140,329;    1,640;    1,591
255,060; 7123,689;   -0,269;    1,318
255,658; 7496,991;    0,822;   -0,136
256,255; 7879,043;    0,186;   -2,045
256,853; 7718,240;   -0,269;    1,409
257,451; 7712,017;    0,822;    1,864
258,048; 7969,468;    1,822;    1,864
258,646; 7746,783;    1,731;   -1,045
259,243; 7958,604;   -0,087;    2,227
259,841; 8006,779;   -0,814;    0,318
260,438; 7888,756;   -0,087;    0,864
261,036; 8628,701;   -1,905;    1,409
261,633; 8534,992;   -0,087;    2,227
262,231; 8272,110;    2,731;   -0,045
262,828; 8349,060;   -0,905;    1,136
263,425; 8393,194;    0,913;   -0,591
264,023; 8644,416;    0,186;    0,045
264,620; 8173,872;   -0,360;   -0,318
265,217; 8538,173;   -2,087;    3,136
265,815; 8670,676;   -1,905;    2,136
266,412; 8436,447;    0,731;    0,136
267,009; 8523,562;   -1,451;    0,773
267,606; 8397,964;    0,822;   -0,955
268,203; 8368,371;   -0,269;   -0,591
268,801; 8671,293;    1,731;    0,591
269,398; 8969,818;   -0,360;    2,500
269,995; 8958,333;    0,277;    1,591
270,592; 8695,064;   -0,632;   -0,500
271,189; 8906,485;    0,186;    0,409
271,786; 9022,407;   -0,632;    1,227
272,383; 8839,067;   -1,087;    0,227
272,980; 9023,533;    0,277;    0,318
273,577; 9508,419;    0,004;    1,227
274,174; 9070,816;    0,822;    2,591
274,771; 9059,263;   -0,814;   -0,773
275,367; 9194,509;    2,277;    1,409
275,964; 9129,124;    0,731;   -0,500
276,561; 9251,720;    1,549;   -1,045
277,158; 9466,524;    0,095;   -1,773
277,755; 9596,950;    2,185;    0,409
278,351; 9007,327;   -0,451;   -1,500
278,948; 9312,283;   -0,815;    0,045
279,545; 9307,668;   -1,360;    2,318
280,141; 9936,105;   -1,723;   -2,045
280,738; 9769,171;   -0,451;   -0,136
281,334;10009,000;   -1,633;    0,591
281,931; 9384,175;   -0,087;   -1,318
282,528; 9492,657;    0,822;   -0,500
283,124;10212,692;   -1,087;   -0,500
283,721;10117,536;   -0,451;    1,409
284,317; 9927,964;    0,185;    2,500
284,913;10434,779;   -1,360;    0,591
285,510;10633,961;    0,640;   -0,318
286,106;10685,649;   -2,269;   -0,955
286,703;10278,887;   -0,360;    1,955
287,299;10468,870;   -1,451;   -0,591
287,895;10664,903;    0,822;   -1,045
288,491;11244,909;    0,186;    2,136
289,088;10980,885;   -2,360;    2,409
289,684;11033,354;   -1,723;    1,500
290,280;11030,557;    0,368;    0,682
290,876;11124,477;    1,822;    5,500
291,472;11021,827;    1,276;    2,227
292,068;11090,741;    1,367;    0,227
292,665;10816,506;    2,095;    0,773
293,261;10439,577;    0,276;    2,136
293,857;10834,829;    2,913;    2,136
294,453;10819,459;    3,550;    0,955
295,049;10676,753;   -0,268;    1,955
295,644;10696,379;    0,095;    0,136
296,240;10588,700;   -0,905;   -0,136
296,836;10643,229;   -0,995;    0,318
297,432;10901,156;    1,096;   -0,500
298,028;10933,490;    0,732;    0,773
298,624;11355,322;    1,459;    1,864
299,220;11597,831;    2,368;    0,591
299,815;11253,719;    1,005;   -0,409
300,411;11068,844;    0,914;    1,773
301,007;11084,760;    1,368;    0,227
301,602;11115,291;   -0,541;   -2,318
302,198;11286,208;    0,732;   -0,773
302,794;11610,343;    1,187;   -0,500
303,389;11727,982;   -1,177;    1,045
303,985;11807,408;    0,550;    1,409
304,580;11760,252;    1,459;    1,591
305,176;11752,359;   -3,086;    0,136
305,771;11710,032;   -1,268;   -1,227
306,367;11517,734;    4,095;    0,136
306,962;11867,655;    0,641;    1,500
307,558;11592,139;   -0,450;    0,136
308,153;11526,814;    1,095;   -1,136
308,748;11780,143;   -0,814;    1,682
309,344;11723,492;   -0,632;   -1,318
309,939;11804,970;   -1,905;   -1,318
310,534;12120,094;   -0,086;   -1,682
311,130;12045,023;    0,459;   -2,500
311,725;11718,937;    1,004;   -0,500
312,320;12069,171;    2,459;    0,045
312,915;11893,368;    1,459;   -1,045
313,510;11970,060;    1,550;   -0,500
314,105;12478,400;    1,096;    1,409
314,700;11883,769;   -3,086;   -1,045
315,295;11506,979;   -0,904;    0,045
315,890;11124,290;    1,277;    0,864
316,485;11469,212;   -0,359;   -0,318
317,080;11588,111;   -3,086;    1,591
317,675;12146,808;    2,005;   -0,682
318,270;11538,302;    5,550;    3,318
318,865;11552,756;    3,278;    3,045
319,460;11356,988;   -0,904;    0,591
320,055;11609,992;   -0,541;   -1,227
320,650;11312,776;   -1,995;   -0,591
321,244;11367,723;   -0,177;   -1,409
321,839;12275,317;   -1,541;   -0,227
322,434;12145,535;   -1,086;   -1,591
323,029;11782,427;    1,732;    1,591
323,623;11585,961;    1,550;    0,773
324,218;11364,240;    2,368;    1,409
324,812;11252,344;    1,096;    1,591
325,407;11065,442;   -0,814;    2,045
326,002;10972,959;    0,277;   -0,409
326,596;11288,403;    0,914;    1,318
327,191;11489,228;    0,823;   -1,045
327,785;11059,585;   -0,813;   -0,227
328,379;11277,986;    1,368;    0,136
328,974;11096,380;    0,914;   -3,955
329,568;11301,557;    0,186;   -2,409
330,163;11105,914;    2,096;    1,045
330,757;11468,638;    2,459;    1,591
331,351;10799,297;    0,459;    0,682
331,945;11103,434;    0,914;    1,409
332,540;10701,934;   -1,723;   -0,591
333,134;10835,700;   -1,086;    0,773
333,728;11077,267;    0,005;    0,318
334,322;11416,378;   -1,177;   -0,864
334,916;10702,313;    0,277;    0,955
335,510;11059,326;   -0,450;   -0,136
336,105;11312,410;   -1,086;    1,591
336,699;10991,936;   -1,086;    0,591
337,293;10957,100;   -1,723;    0,318
337,887;11111,565;   -2,723;    1,955
338,481;11212,236;    0,459;    0,591
339,074;11339,949;   -0,359;    2,682
339,668;11187,006;   -1,632;    1,227
340,262;11415,185;    1,732;    3,227
340,856;10944,926;    1,822;   -0,682
341,450;10344,175;    1,004;    1,864
342,044;11252,463;    1,459;    0,136
342,637;10981,829;    0,913;   -2,136
343,231;10821,623;   -2,360;    0,682
343,825;10809,935;   -1,086;   -0,591
344,419;10786,620;   -1,995;    0,500
345,012;10551,371;    2,459;    4,045
345,606;10543,064;    4,641;    1,591
346,199;10430,357;   -1,813;   -0,227
346,793; 9954,687;    1,914;    2,045
347,386;10145,949;   -0,813;   -1,136
347,980;10153,800;   -0,268;   -0,045
348,573; 9930,667;    2,278;    0,409
349,167; 9583,896;    5,278;    4,773
349,760; 9950,474;    2,914;    2,682
350,354; 9955,288;   -0,813;    1,136
350,947; 9702,970;    1,096;    1,682
351,540; 9379,909;   -0,358;   -1,409
352,134; 9338,686;    1,096;    1,136
352,727; 9397,705;   -0,086;    1,136
353,320; 9210,175;    0,005;    0,591
353,913; 9037,300;   -1,995;    1,864
354,507; 9213,758;    0,823;   -1,227
355,100; 9227,845;    0,460;    0,864
355,693; 8494,364;    2,005;    2,409
356,286; 8554,594;    0,823;    2,773
356,879; 8906,566;   -0,722;    1,227
357,472; 8505,508;   -0,904;    1,500
358,065; 8698,011;   -0,722;    2,500
358,658; 8632,020;   -0,540;    2,318
359,251; 8272,021;   -1,631;   -0,591
359,844; 7762,463;   -1,904;   -1,136
360,437; 7934,180;   -2,995;    0,045
361,030; 8208,900;    1,369;   -0,682
361,623; 7839,911;    2,824;    0,318
362,215; 7870,949;   -0,086;    2,045
362,808; 7715,044;   -2,358;   -1,682
363,401; 7924,329;   -2,449;    0,136
363,994; 7648,656;   -0,631;   -1,500
364,586; 7564,393;    0,824;   -1,500
365,179; 7758,319;   -0,449;   -1,136
365,772; 7254,247;   -1,995;    2,045
366,364; 7562,357;    1,915;   -3,227
366,957; 7756,233;    2,279;   -0,045
367,549; 7754,982;    2,188;   -0,864
368,142; 7437,510;    1,825;   -1,500
368,734; 7629,322;    0,734;   -2,136
369,327; 7592,672;    1,643;   -0,500
369,919; 7526,982;   -1,538;    0,409
370,512; 7305,887;   -1,083;   -0,500
371,104; 7056,067;   -0,901;    1,591
371,696; 7205,115;    1,191;   -0,955
372,289; 7311,767;    0,373;    1,136
372,881; 7445,837;   -2,080;    1,318
373,473; 7407,406;   -2,170;    1,136
374,066; 7213,826;   -0,169;    0,500
374,658; 7057,844;    0,378;    1,136
375,250; 7386,870;    0,653;   -1,409
375,842; 7218,511;    0,473;   -0,045
376,434; 7141,887;   -0,435;   -0,409
377,026; 7691,968;    0,204;   -2,500
377,618; 7575,906;   -0,158;   -0,682
378,210; 7427,683;   -0,338;   -1,955
378,802; 7307,538;    0,754;   -0,591
379,394; 7247,293;    1,846;    0,682
379,986; 7829,919;    1,393;   -0,955
380,578; 7929,959;   -0,153;    0,773
381,170; 7257,605;   -0,972;    0,045
381,762; 7198,061;    0,755;    1,409
382,354; 7433,283;   -0,065;   -1,318
382,945; 7548,447;   -2,976;    0,318
383,537; 7683,412;   -2,705;   -1,955
384,129; 7679,256;   -2,160;   -1,136
384,721; 7876,812;   -0,252;    0,955
385,312; 7786,871;   -0,161;   -0,955
385,904; 7885,182;   -2,706;    1,591
386,496; 7273,703;   -0,979;    1,045
387,087; 7423,296;    1,022;    2,500
387,679; 7457,366;   -1,160;    0,045
388,270; 7603,713;    2,840;    2,045
388,862; 7707,300;    1,295;   -0,318
389,453; 7598,384;   -0,887;    1,045
390,045; 7818,626;   -0,705;   -2,682
390,636; 7809,394;    0,204;   -0,591
391,227; 7636,601;   -0,523;   -0,045
391,819; 7751,158;    0,204;    0,773
392,410; 7830,781;    1,022;    0,045
393,001; 7741,227;   -0,979;   -1,591
393,593; 7990,177;    1,930;   -0,045
394,184; 7886,683;    1,385;   -0,409
394,775; 7800,805;    1,839;    2,136
395,366; 8003,112;    1,385;    0,773
395,957; 7982,541;    0,113;    0,136
396,548; 8298,559;   -0,342;    2,682
397,139; 8585,622;   -2,433;    0,591
397,730; 8315,444;   -1,888;    0,955
398,321; 8378,279;   -1,252;    0,955
398,912; 8427,770;   -0,615;    0,136
399,503; 8496,890;   -3,524;   -1,409
400,094; 7920,932;    0,294;    1,682
400,685; 7812,852;   -0,433;    0,045
401,276; 7914,301;    0,930;   -0,955
401,867; 8189,133;   -0,888;    0,773
402,458; 8278,360;   -2,251;   -2,318
403,048; 8267,411;    1,112;    0,591
403,639; 7893,297;    0,840;    0,864
404,230; 8131,624;    2,476;    0,318
404,821; 8061,799;   -0,615;    0,045
405,411; 8188,752;    1,203;   -2,591
406,002; 7797,443;   -1,252;   -1,136
406,592; 7656,188;    2,294;    0,045
407,183; 7966,242;    0,566;   -1,500
407,774; 7869,930;    3,475;   -0,136
408,364; 8196,711;    0,930;    0,409
408,954; 7793,961;    0,384;    1,227
409,545; 7841,959;    1,021;    1,045
410,135; 7409,252;    1,293;    0,500
410,726; 7548,864;    1,838;    0,318
411,316; 7940,989;    0,111;    0,773
411,906; 7631,399;   -0,253;   -0,409
412,497; 7134,676;   -1,070;   -0,045
413,087; 7741,738;   -1,980;   -0,227
413,677; 8106,349;   -0,707;    3,864
414,267; 7967,679;    0,656;    1,409
414,857; 7952,047;   -2,980;    4,227
415,448; 8237,227;    0,839;    0,500
416,038; 7922,443;    0,020;   -0,591
416,628; 7871,437;   -0,889;    0,409
417,218; 7370,417;    0,565;    3,318
417,808; 7643,512;    0,202;   -0,409
418,398; 8071,271;    0,020;    2,682
418,988; 8101,880;    2,020;    0,591
419,578; 8358,686;   -0,707;    1,409
420,168; 8669,219;   -1,343;   -0,955
420,757; 8249,803;   -1,343;   -1,500
421,347; 7925,078;    0,111;   -0,227
421,937; 8092,833;    2,292;    1,409
422,527; 8054,388;    0,838;   -0,773
423,116; 7863,664;   -0,253;   -0,045
423,706; 8244,188;   -1,889;    0,318
424,296; 8220,823;    1,384;    0,682
424,885; 8608,641;   -0,071;   -3,045
425,475; 8893,198;    1,474;   -2,864
426,065; 8835,227;   -0,980;   -0,318
426,654; 8443,136;   -0,435;   -0,318
427,244; 8551,958;    0,020;    1,409
427,833; 8000,317;    1,383;   -0,500
428,423; 8493,097;   -0,526;    1,136
429,012; 9226,753;   -0,344;   -1,136
429,601; 8720,248;   -1,344;    0,136
430,191; 8967,169;    1,292;    4,318
430,780; 8622,341;   -0,344;   -0,409
431,369; 8542,612;    0,746;   -0,045
431,959; 9176,465;   -1,254;    0,500
432,548; 8969,861;   -1,163;   -0,045
433,137; 9071,961;   -1,254;   -1,318
433,726; 9613,954;    0,292;    0,500
434,315; 8981,021;   -0,526;    2,409
434,905; 9078,444;   -1,254;    1,409
435,494; 8978,460;    0,746;    0,955
436,083; 9442,564;   -0,981;   -0,955
436,672; 9323,300;    0,110;    0,500
437,261; 8896,194;    0,292;   -1,955
437,850; 8995,792;    1,383;    0,682
438,439; 8969,698;    3,291;    1,955
439,027; 8811,249;    3,655;    1,773
439,616; 9143,476;    2,927;    1,227
440,205; 9036,431;    0,200;   -2,136
440,794; 9086,025;    2,109;   -0,045
441,383; 9362,194;   -1,346;   -0,591
441,971; 9251,009;   -2,436;    0,591
442,560; 9099,330;    0,563;   -1,773
443,149; 8866,927;    0,379;   -1,318
443,737; 8957,415;   -0,074;   -2,318
444,326; 9240,968;    0,018;    0,318
444,915; 9293,541;   -1,982;    0,864
445,503; 9708,442;   -2,891;   -0,318
446,092; 8967,448;    0,382;    2,136
446,680; 9507,913;    0,382;    0,318
447,269; 9663,162;   -0,346;   -0,318
447,857; 9452,085;    0,018;   -1,773
448,445; 9588,393;    0,563;    1,318
449,034; 9792,511;   -1,528;   -1,136
449,622; 9904,148;   -1,073;    3,500
450,210; 9152,269;    2,017;    2,227
450,799; 9698,093;    0,290;   -0,591
451,387; 9649,947;    1,381;   -0,591
451,975; 9288,394;    2,654;    0,864
452,563; 9368,714;    3,472;    2,318
453,151; 9456,462;   -0,528;   -1,227
453,739; 9348,006;   -1,347;    0,136
454,328; 9197,694;    2,381;   -2,136
454,916; 8913,372;    2,562;   -0,136
455,504; 9150,301;    1,017;    1,227
456,092; 9325,868;    0,017;   -1,591
456,679; 9301,385;    1,472;    0,682
457,267; 9183,126;    4,017;    1,045
457,855; 9357,105;    1,017;    1,409
458,443; 9124,849;   -0,165;    1,682
459,031; 9252,293;    0,108;    2,409
459,619; 9713,435;   -1,801;    2,864
460,206; 9849,290;    0,835;    2,045
460,794; 9922,240;   -2,983;   -0,227
461,382;10160,201;   -0,529;   -0,864
461,970; 9729,413;    1,198;    1,864
462,557; 9777,623;   -0,711;   -0,682
463,145; 9968,221;   -3,165;   -1,682
463,732;10103,517;    2,016;   -1,045
464,320;10035,565;   -0,075;   -3,045
464,907; 9699,710;    2,743;   -0,773
465,495; 9613,532;    0,743;   -1,227
466,082; 9758,230;   -1,984;   -0,045
466,670; 9663,414;   -2,529;    1,227
467,257;10132,785;   -1,711;    2,045
467,844;10266,368;   -0,075;    0,045
468,432;10285,310;    0,834;    3,500
469,019; 9811,209;    0,925;   -1,773
469,606;10254,440;    0,470;    3,682
470,193;10056,708;   -1,439;    0,227
470,780; 9630,020;   -2,075;    0,864
471,368; 9995,791;   -1,257;   -0,773
471,955; 9782,602;    1,379;   -0,682
472,542; 9414,652;    0,652;   -1,136
473,129; 9688,212;   -0,166;    0,136
473,716; 9444,177;    1,470;    0,591
474,303; 9634,269;    0,652;   -0,864
474,890; 9898,152;   -1,439;   -0,500
475,477; 9915,221;   -1,621;    0,409
476,064; 9813,424;    1,106;   -1,591
476,650; 9756,769;    0,288;    0,318
477,237; 9601,678;   -0,258;    0,955
477,824; 9749,986;   -1,076;    0,864
478,411; 9790,347;   -1,894;   -0,318
478,997; 9971,999;    0,560;   -0,773
479,584;10045,081;    1,196;   -0,409
480,171;10714,073;   -0,440;   -0,773
480,757;10384,305;    2,651;    0,773
481,344;10714,044;    0,469;    0,409
481,931;10251,890;    1,105;    1,045
482,517;11165,229;   -1,258;    0,318
483,104;11675,778;    1,106;    2,864
483,690;11978,326;   -1,804;    0,045
484,276;12357,281;   -0,895;    0,227
484,863;12099,363;    2,469;    1,136
485,449;12683,840;   -0,077;    0,318
486,035;12659,691;   -1,986;   -0,136
486,622;13104,858;   -0,895;    0,045
487,208;13058,747;    1,378;    1,500
487,794;12933,427;    0,741;    0,318
488,380;13039,069;    0,105;   -1,409
488,967;13090,461;   -1,168;   -0,409
489,553;13137,662;   -1,895;   -1,409
490,139;13344,178;    1,559;    0,773
490,725;12794,818;    0,741;   -0,227
491,311;12407,784;    3,287;    3,045
491,897;11815,513;   -0,986;    1,500
492,483;11625,004;    0,105;    1,227
493,069;11330,940;    3,923;    0,864
493,655;11336,894;    1,650;    0,682
494,241;11249,587;    1,377;   -0,955
494,826;11625,479;    0,287;   -1,045
495,412;11101,601;    2,559;   -0,682
495,998;11249,365;   -0,805;   -0,318
496,584;11400,931;    0,377;    1,045
497,169;11412,000;    1,014;   -0,682
497,755;11372,540;    0,650;    1,227
498,341;11878,362;    0,559;    0,318
498,926;11453,798;    1,832;    1,955
499,512;11652,522;    1,286;    2,955
500,097;11806,770;    0,195;   -0,318
500,683;11732,307;   -0,350;    2,136
501,268;12120,248;   -0,169;   -0,955
501,854;11852,408;   -0,169;    1,227
502,439;11759,519;   -0,624;   -1,773
503,024;11958,201;    0,195;    0,500
503,610;12028,866;   -0,078;   -0,682
504,195;12042,177;    0,558;    1,955
504,780;12207,796;    2,922;    1,227
505,366;12014,701;    3,013;    2,864
505,951;11770,779;    0,740;    1,045
506,536;11753,805;   -3,260;   -3,682
507,121;11788,373;    0,285;   -0,318
507,706;12275,011;    2,376;    1,045
508,291;12640,416;    2,649;    1,136
508,876;12144,759;   -0,988;    2,591
509,461;11618,198;   -0,169;   -0,773
510,046;11988,135;    0,194;    0,318
510,631;12241,123;   -0,351;   -0,773
511,216;11922,102;    2,467;   -0,500
511,801;12285,868;   -0,442;    2,591
512,386;12589,007;    0,740;    0,500
512,971;12508,664;   -2,988;    0,955
513,555;12059,438;   -0,897;   -1,500
514,140;12813,382;   -0,442;   -3,136
514,725;12860,193;   -0,715;   -1,136
515,309;12983,371;   -0,533;    0,318
515,894;12458,339;   -0,624;   -2,227
516,479;12912,437;   -0,624;   -0,955
517,063;12747,613;    0,376;    1,227
517,648;12878,252;    1,012;   -1,136
518,232;12543,409;   -0,261;   -1,409
518,817;12870,652;   -0,079;    1,682
519,401;13088,617;    2,194;    0,591
519,985;12585,703;    1,103;    1,136
520,570;12500,473;    0,830;   -1,955
521,154;12796,726;    2,102;    0,591
521,738;12943,382;   -2,352;    2,409
522,323;13508,267;   -0,170;    1,682
522,907;13285,168;    0,466;   -0,136
523,491;13004,533;    0,557;    0,955
524,075;12963,413;    2,284;    0,591
524,659;13029,886;    1,466;    0,591
525,243;12537,465;    1,739;    0,409
525,827;12758,929;    0,648;   -0,045
526,411;13585,250;   -1,989;   -0,136
526,995;13780,317;   -0,352;    1,409
527,579;13416,526;   -0,443;   -1,045
528,163;13706,750;    0,375;   -1,500
528,747;13632,655;    2,466;   -0,773
529,331;13950,137;   -0,080;   -1,409
529,915;14135,873;    1,738;    0,955
530,499;14065,478;   -0,807;    1,227
531,082;13786,343;   -0,534;    1,591
531,666;13265,981;    1,374;    0,773
532,250;13912,262;    1,284;    2,682
532,833;14212,128;    0,920;    2,773
533,417;14082,070;   -1,807;    0,864
534,001;14072,023;    1,647;   -0,318
534,584;14789,250;    0,374;    0,500
535,168;14592,431;    0,465;    1,409
535,751;14639,921;    0,647;    0,045
536,334;14134,382;   -0,898;   -0,409
536,918;14671,501;    0,011;    1,591
537,501;14772,330;   -0,899;    1,318
538,085;14764,971;   -0,444;    1,045
538,668;14938,397;    0,829;    2,409
539,251;15246,549;    1,829;    3,773
539,834;15260,365;    0,101;    0,773
540,418;15203,052;   -1,990;    4,318
541,001;15305,015;   -0,990;    1,773
541,584;15323,019;    2,101;    2,227
542,167;15001,085;    1,374;    2,955
542,750;15149,213;    1,919;   -0,773
543,333;14778,024;    0,555;    2,136
543,916;15492,675;    0,192;    2,500
544,499;16110,016;   -1,354;    0,227
545,082;16094,351;    1,374;    3,591
545,665;16242,194;    1,919;    1,500
546,248;16561,479;    1,010;   -0,318
546,830;16255,263;   -0,445;    1,955
547,413;16685,067;    1,010;   -0,773
547,996;17181,410;    0,555;    0,500
548,579;16963,937;    0,919;    0,955
549,161;16742,636;    1,828;    2,682
549,744;16552,617;   -0,809;    0,409
550,326;17038,710;   -0,809;   -1,136
550,909;16817,780;    2,737;    0,591
551,492;17187,523;   -0,263;    0,227
552,074;16998,998;   -0,173;   -1,318
552,657;17559,786;    2,373;    0,045
553,239;17335,426;   -0,173;   -0,773
553,821;17284,503;   -1,082;    1,045
554,404;16724,755;    1,282;    1,136
554,986;17114,855;    0,464;    1,045
555,568;17722,495;    1,191;   -0,955
556,151;16922,829;    1,191;   -0,227
556,733;17167,124;   -0,264;   -0,864
557,315;17615,511;    0,100;    0,500
557,897;17402,204;    0,554;   -0,500
558,479;17528,418;   -1,991;    1,318
559,061;17656,803;   -0,719;   -0,864
559,643;18005,672;   -0,264;    0,045
560,225;18348,103;    1,645;    2,864
560,807;18377,036;    0,918;    0,318
561,389;17876,282;    0,554;    2,318
561,971;18627,309;    0,463;    2,136
562,553;18432,107;   -1,628;    1,591
563,135;18516,409;   -0,537;    1,136
563,717;18128,923;    3,372;    1,136
564,298;18805,870;    3,645;   -0,045
564,880;18548,779;    0,645;   -1,409
565,462;18726,234;    0,645;    1,318
566,043;19854,513;   -0,446;    2,318
566,625;19384,240;    1,918;    1,227
567,207;19234,434;    1,099;    1,682
567,788;20336,256;   -1,264;    1,500
568,370;21139,244;    1,917;   -0,500
568,951;20909,322;    0,190;    0,227
569,533;21761,617;   -0,628;   -0,500
570,114;22183,914;   -0,446;    0,682
570,695;22659,487;   -0,174;   -1,318
571,277;23075,132;   -0,265;   -1,682
571,858;23835,156;    2,008;   -1,136
572,439;24702,388;    1,554;   -1,045
573,021;24866,275;    2,099;   -2,773
573,602;25351,357;   -1,265;    0,318
574,183;26238,154;   -2,083;    2,227
574,764;26361,030;   -1,629;    0,409
575,345;26868,311;    0,917;   -0,136
575,926;27471,747;   -0,356;    0,136
576,507;27448,356;    1,099;   -0,227
577,088;28508,871;    3,099;    1,682
577,669;28532,127;    0,735;    1,955
578,250;29216,881;    0,644;   -1,045
578,831;29820,057;   -1,356;   -2,227
579,412;30078,552;   -0,810;    0,955
579,993;31033,706;    1,008;    0,227
580,573;31356,373;   -0,629;   -0,955
581,154;30315,976;    0,735;   -0,591
581,735;31200,732;    0,644;    0,773
582,315;30643,732;   -0,629;    2,136
582,896;30975,030;   -0,174;    1,227
583,477;30439,320;    0,189;    1,227
584,057;30713,766;    0,553;    0,955
584,638;30932,706;    2,553;    2,318
585,218;30939,856;   -0,538;    2,682
585,799;31122,789;    0,281;   -0,227
586,379;31123,417;    0,372;    1,591
586,959;29977,488;    0,735;    0,318
587,540;29366,509;   -0,629;    2,227
588,120;28871,196;    1,007;   -0,045
588,700;27856,664;    2,553;    2,136
589,281;28154,130;    0,462;   -0,955
589,861;28108,438;    0,099;   -1,682
590,441;27923,586;    2,371;   -2,682
591,021;26978,523;   -0,265;   -2,591
591,601;27161,897;   -0,537;    0,500
592,181;27220,288;   -0,719;   -0,773
592,761;26505,578;    0,007;    1,409
593,341;26399,365;   -0,901;    0,045
593,921;26428,750;   -0,265;    1,591
594,501;26306,518;   -0,538;    1,318
595,081;26188,142;    0,917;   -0,318
595,661;26467,392;   -1,447;    0,955
596,240;27011,291;   -0,537;    0,136
596,820;26577,035;    0,372;    1,955
597,400;26827,603;    2,008;    0,773
597,980;27028,861;    2,008;    1,045
598,559;27074,873;    2,735;   -0,227
599,139;26820,423;   -0,174;   -1,227
599,718;26712,150;   -0,174;   -0,409
600,298;26955,540;    0,735;    0,682
600,877;27194,136;    2,917;    1,409
601,457;27472,244;    2,281;    1,136
602,036;27337,532;    0,190;    2,045
602,616;27537,497;    0,644;    1,682
603,195;27864,607;   -0,355;    3,500
603,774;27399,308;   -0,901;    2,045
604,354;27339,733;    0,826;   -0,500
604,933;26822,167;    0,463;    1,864
605,512;26935,886;    3,554;    0,591
606,091;27021,116;   -0,537;    3,773
606,671;27845,759;    0,281;    0,773
607,250;26942,033;    1,644;    3,136
607,829;27179,744;    2,372;    3,227
608,408;27041,357;    1,190;    2,591
608,987;26033,971;    1,281;    3,409
609,566;26352,484;   -1,265;   -2,500
610,145;26456,671;   -1,082;    0,682
610,723;26874,704;    4,372;    6,864
611,302;26183,965;   -0,446;    1,682
611,881;25673,061;    5,008;   11,227
612,460;26503,488;    1,645;    3,955
613,039;26938,867;   -0,082;    2,045
613,617;25688,414;    1,736;    4,773
614,196;25862,609;    1,099;    1,227
614,775;26171,381;    1,009;    2,409
615,353;26137,070;    0,736;    0,864
615,932;25893,132;    0,100;    2,409
616,510;26465,835;    0,554;    0,591
617,089;26019,649;    7,100;   17,591
617,667;25745,951;    2,372;    6,136
618,246;25642,155;   -1,537;    1,318
618,824;25805,491;   -3,355;   -0,955
619,402;25401,582;   -2,900;   -1,773
619,981;25875,209;   -0,173;   -1,045
620,559;25760,627;    0,009;    1,682
621,137;25299,328;   -0,718;    1,864
621,715;25267,634;   -1,173;   -0,682
622,293;25218,297;   -0,537;   -0,773
622,871;25683,147;   -0,718;    0,500
623,450;25271,039;    0,373;   -0,864
624,028;25124,111;    0,191;   -0,955
624,606;24786,861;   -1,718;    1,682
625,183;25195,912;   -1,536;   -1,136
625,761;24819,093;    1,009;    1,136
626,339;25091,652;    1,373;    2,591
626,917;25475,078;   -0,172;   -0,045
627,495;25487,201;   -0,354;    1,318
628,073;24946,221;   -0,263;    2,864
628,650;24689,480;    0,100;    2,136
629,228;25100,613;    0,373;    4,409
629,806;24533,027;    2,282;    1,136
630,383;24811,257;    1,464;   -0,318
630,961;24626,421;    2,555;   -0,955
631,539;24333,407;    2,464;    0,227
632,116;23618,785;   11,373;   15,409
632,694;24221,259;    2,555;    6,500
633,271;24516,448;    0,828;    2,682
633,848;24451,367;    1,828;    2,045
634,426;24544,228;   -1,081;    1,773
635,003;23669,899;    1,101;   -0,409
635,580;23931,351;    1,192;    3,682
636,158;24522,159;    3,737;    1,227
636,735;24467,751;    0,555;   -0,500
637,312;24682,977;   -0,809;   -0,682
637,889;24715,649;   -4,354;   -0,682
638,466;24204,528;   -3,990;   -0,409
639,043;24199,720;    2,101;   -1,136
639,620;24562,052;   -2,262;   -0,955
640,197;24859,914;    1,100;    1,682
640,774;24970,052;   -0,172;    1,136
641,351;25373,553;    0,737;    1,136
641,928;24778,419;   -0,627;    1,409
642,505;24427,829;    0,828;   -0,500
643,082;24557,240;   -1,718;    1,227
643,658;23629,560;   -0,718;    1,500
644,235;24354,788;    1,191;    2,500
644,812;24639,017;    1,918;    0,773
645,388;24403,610;   -0,991;    1,409
645,965;24463,839;   -0,809;    1,682
646,542;24560,795;   -1,445;   -0,227
647,118;24537,387;    1,009;   -0,955
647,695;24822,980;   -0,263;    1,136
648,271;24743,299;   -0,536;    0,500
648,848;25059,165;    0,736;    2,227
649,424;24867,121;    0,827;    1,318
650,000;24617,895;   -0,354;   -1,045
650,577;24430,851;   -0,627;   -0,955
651,153;24916,353;   -1,809;    0,955
651,729;25892,400;    1,191;    0,864
652,305;26050,810;    0,645;    2,773
652,881;29997,312;   -0,082;    1,136
653,458;36478,995;    1,100;    0,227
654,034;40286,133;    0,282;    1,591
654,610;41824,453;    0,554;    0,773
655,186;43106,773;    0,645;    3,045
655,762;42823,365;   -0,991;    0,409
656,338;42896,867;    0,100;    0,136
656,913;43850,459;   -0,082;    0,409
657,489;43133,234;    0,827;   -0,318
658,065;43167,008;   -0,173;   -1,591
658,641;43826,237;   -0,900;   -0,864
659,217;43108,920;   -0,991;    0,409
659,792;42501,058;    0,645;   -0,409
660,368;42756,469;   -2,173;   -0,682
660,944;42547,243;   -2,082;    1,227
661,519;38399,108;   -0,628;    0,409
662,095;32763,064;   -1,719;    0,591
662,670;28155,748;    1,281;   -0,136
663,246;26916,158;    1,009;   -0,409
663,821;26178,205;    0,281;    1,682
664,396;25700,162;    0,009;    1,864
664,972;25906,481;    0,009;   -0,500
665,547;26195,528;    1,372;    0,136
666,122;26264,666;   -1,082;    0,318
666,698;26507,350;   -0,173;    0,318
667,273;25927,215;   -0,173;    0,136
667,848;26699,080;    2,372;    1,500
668,423;26509,672;    2,190;    2,318
668,998;27075,083;    2,827;   -0,682
669,573;27547,494;   -3,264;   -1,500
670,148;27373,086;   -1,446;   -0,682
670,723;27224,861;   -1,810;    0,318
671,298;27570,999;    2,372;    1,045
671,873;27725,046;   -0,082;   -0,136
672,448;27685,183;    0,645;    0,136
673,023;27998,140;   -1,992;   -0,227
673,597;28314,641;    0,827;    2,318
674,172;28131,234;   -0,355;    0,318
674,747;27630,190;    0,372;   -1,045
675,321;27473,509;   -0,628;    3,318
675,896;27058,647;    0,645;    1,045
676,471;28033,149;    2,645;    1,591
677,045;27797,014;   -1,264;    0,682
677,620;27861,879;    0,190;    1,136
678,194;28204,563;   -2,628;    1,136
678,769;27735,337;   -1,083;   -0,318
679,343;27991,293;   -0,628;    1,773
679,917;27792,795;   -1,446;    1,955
680,492;27891,842;    0,826;    3,227
681,066;28038,071;    3,372;    0,409
681,640;28060,936;    1,463;   -0,318
682,214;28891,346;    0,735;    0,500
682,788;28394,939;   -1,356;   -0,773
683,363;28384,531;   -1,810;    1,682
683,937;28077,669;   -1,719;   -0,318
684,511;28811,353;    0,463;   -0,591
685,085;28563,491;   -1,356;    0,318
685,659;28360,629;   -2,538;    0,864
686,232;28538,585;   -0,356;   -0,318
686,806;28259,086;   -0,901;    0,409
687,380;28957,133;   -0,174;    0,591
687,954;29155,635;   -1,174;    1,136
688,528;28807,955;   -0,719;    1,955
689,101;29588,729;   -3,992;    1,045
689,675;29168,958;   -0,356;   -0,136
690,249;28530,550;   -0,719;    0,409
690,822;28851,506;    0,280;    0,318
691,396;28944,917;   -0,265;    1,227
691,969;28353,419;    1,280;    0,136
692,543;28846,738;   -0,447;   -1,955
693,116;28569,149;   -0,265;   -1,409
693,690;28434,105;    0,099;    0,500
694,263;28986,516;   -1,083;    2,955
694,836;28963,472;    1,371;    3,591
695,410;27656,973;   -0,265;    1,773
695,983;28125,293;    0,189;    0,591
696,556;28119,522;   -0,447;   -1,045
697,129;28506,387;   -0,356;    1,409
697,703;28139,434;   -1,629;    1,955
698,276;28132,663;    1,462;   -0,773
698,849;27908,983;    1,280;    1,409
699,422;28289,484;   -1,083;    0,591
699,995;27999,804;    0,007;    0,136
700,568;28488,124;   -0,629;    3,045
701,140;28499,171;   -2,811;    1,682
701,713;28227,763;   -0,174;    2,409
702,286;28047,265;   -0,538;    0,864
702,859;27904,403;   -0,902;   -0,591
703,432;27089,904;    0,825;    0,682
704,004;27504,770;    0,462;    0,318
704,577;27364,908;   -0,629;    0,136
705,150;27956,500;    0,189;    2,500
705,722;27816,456;   -0,356;   -3,227
706,295;27552,321;   -0,175;   -0,591
706,867;27400,914;   -0,175;    1,955
707,440;27576,415;   -1,720;   -0,409
708,012;27858,008;    0,462;    0,591
708,584;27756,419;    2,462;    0,227
709,157;28065,557;    1,825;   -0,591
709,729;27738,876;    2,280;    2,045
710,301;28603,196;    0,734;    0,045
710,874;28604,334;   -1,447;   -0,227
711,446;27456,836;    0,371;    0,864
712,018;27386,337;    0,098;    0,500
712,590;27098,384;   -1,993;    1,682
713,162;27608,522;    0,825;    1,318
713,734;27901,296;    1,825;   -2,045
714,306;27823,889;   -1,902;   -0,409
714,878;26520,481;    0,825;    0,864
715,450;27323,892;    0,643;    0,864
716,022;27584,303;    1,552;    1,318
716,593;27702,259;    0,189;    0,591
717,165;27679,306;   -3,175;   -1,227
717,737;27359,262;    0,280;    0,409
718,309;27017,036;    0,280;   -0,045
718,880;26952,720;   -0,539;   -1,409
719,452;27231,039;   -0,175;   -1,591
720,024;26830,450;    0,734;   -0,591
720,595;27334,588;   -2,902;    0,955
721,167;26928,817;    0,370;   -2,045
721,738;26448,864;   -0,812;   -1,045
722,309;26380,456;   -0,993;   -1,227
722,881;26183,231;   -1,357;    0,773
723,452;26816,368;   -2,630;    2,864
724,023;27005,143;   -0,721;    2,682
724,595;26782,826;    0,007;    0,682
725,166;26519,328;    0,007;   -0,409
725,737;26139,557;    1,734;    0,227
726,308;26243,331;   -0,266;    0,318
726,879;26718,560;   -1,630;    1,227
727,450;26554,607;    0,552;   -0,045
728,021;26518,290;    3,097;    0,682
728,592;26351,428;    0,734;    0,500
729,163;26626,657;    0,643;   -0,136
729,734;26597,158;    0,188;   -0,227
730,305;26935,751;    1,734;    0,136
730,876;27316,525;    0,188;    2,955
731,447;26961,572;    2,188;    2,682
732,017;27148,346;    1,097;    1,864
732,588;26640,484;    0,734;    1,227
733,159;26764,804;    0,643;   -1,045
733,729;26598,306;    0,006;    0,409
734,300;25927,353;    0,915;    0,864
734,870;26346,673;    3,461;    0,591
735,441;26910,992;    0,370;   -0,591
736,011;26680,130;    0,643;   -1,591
736,582;26620,904;   -0,812;    0,045
737,152;26080,952;   -1,721;   -2,045
737,722;26555,453;   -0,267;   -0,682
738,293;26298,864;   -1,358;    1,318
738,863;26193,456;    2,461;    2,318
739,433;25964,776;    5,279;    0,318
740,003;26580,641;   -0,994;   -0,682
740,573;26004,143;    2,097;   -1,591
741,143;25934,462;   -1,085;    0,318
741,713;26723,419;    1,188;   -0,500
742,283;26458,738;    0,915;    1,591
742,853;26225,058;    1,915;    1,591
743,423;25705,741;    1,733;    0,045
743,993;25862,698;   -0,358;    1,500
744,563;25208,017;    0,097;   -0,864
745,133;25157,792;   -0,812;   -0,864
745,702;25850,839;   -0,267;    1,773
746,272;25058,340;   -0,176;    0,591
746,842;24830,387;   -1,358;   -0,591
747,411;25292,162;   -0,267;   -0,318
747,981;25498,845;    0,097;    0,500
748,551;25482,347;    2,278;   -1,045
749,120;25297,757;    0,642;   -0,227
749,690;25703,622;   -0,631;    2,409
750,259;26032,760;    1,369;    2,955
750,828;26013,171;    1,551;   -1,955
751,398;26266,036;    1,278;   -0,045
751,967;25721,356;    2,187;    0,409
752,536;25937,585;   -0,813;   -0,227
753,105;26346,086;    0,096;    0,227
753,675;26146,224;    0,096;    1,773
754,244;26116,089;   -0,904;    3,591
754,813;26083,318;    0,551;    1,227
755,382;25715,002;    0,460;    0,955
755,951;26300,958;    1,551;    3,682
756,520;25787,368;   -0,085;    1,864
757,089;26320,961;    0,278;    0,500
757,658;26474,917;    1,733;    1,227
758,227;26470,419;    1,096;    0,318
758,795;26777,920;    1,187;    1,136
759,364;26944,876;   -0,086;   -0,591
759,933;26000,196;   -1,176;   -0,045
760,501;25563,970;    0,733;   -1,318
761,070;26035,472;   -2,813;   -1,409
761,639;26698,701;   -1,904;    1,318
762,207;26035,839;    1,551;   -0,955
762,776;26004,249;    0,369;    0,864
763,344;25964,296;   -0,995;    0,591
763,913;25113,889;   -0,722;    1,409
764,481;25833,118;    1,005;   -0,136
765,049;25634,801;   -1,358;    1,409
765,618;25506,848;   -0,086;    0,318
766,186;25657,441;    0,278;    0,136
766,754;25825,124;    0,005;    1,864
767,322;24879,262;   -1,995;    0,409
767,890;24858,127;   -0,722;   -1,773
768,459;25277,992;   -2,177;   -0,318
769,027;25397,585;    1,641;    3,409
769,595;24385,995;    3,278;    2,591
770,163;24858,406;    3,823;    2,955
770,730;24624,817;    0,732;   -0,136
771,298;24484,136;    0,187;   -1,409
771,866;24572,365;   -1,541;    4,955
772,434;24877,321;   -0,631;   -1,864
773,002;25022,459;    0,005;    0,682
773,569;24703,234;    0,914;    1,682
774,137;24523,917;   -0,268;   -0,045
774,705;25270,873;    0,278;   -0,136
775,272;24775,193;    0,641;    0,682
775,840;24538,876;   -0,177;    2,682
776,407;24086,469;    0,277;    1,955
776,975;23689,879;   -0,632;    0,318
777,542;24705,290;   -1,086;   -0,045
778,110;24562,155;   -1,268;   -0,045
778,677;24230,657;   -2,359;   -0,864
779,244;23986,613;    2,186;    1,045
779,812;24101,660;    1,823;    0,864
780,379;23967,707;    0,005;    1,136
780,946;24164,663;    1,005;   -0,773
781,513;24510,619;   -1,450;    0,318
782,080;23852,575;   -0,086;    2,864
782,647;24627,804;   -0,268;    3,045
783,214;24225,124;   -0,177;    3,864
783,781;23829,807;   -0,723;   -0,682
784,348;23772,036;   -0,632;    1,500
784,915;24258,356;   -3,177;    0,318
785,482;23970,857;    1,368;    2,591
786,049;24411,814;    0,186;   -0,591
786,615;24534,861;    0,277;   -0,955
787,182;24289,180;    0,186;   -0,682
787,749;23939,773;   -2,814;    1,409
788,315;23306,093;   -1,632;   -0,409
788,882;23596,594;    1,550;   -1,227
789,448;24266,732;    1,732;   -0,955
790,015;24261,779;    1,095;    3,227
790,581;23846,190;    1,459;    0,227
791,148;23748,328;    0,641;    1,045
791,714;24015,011;   -0,541;    3,136
792,280;23670,513;    0,186;    1,591
792,847;23218,105;    0,550;    2,500
793,413;23792,789;   -0,269;   -0,318
793,979;23314,654;    3,459;   -1,318
794,545;23382,973;    4,459;    2,682
795,111;22816,021;    2,186;    1,318
795,678;23008,340;    0,731;   -1,682
796,244;22626,296;    3,368;    0,136
796,810;23198,252;    1,731;    0,773
797,375;22939,663;    0,549;   -2,136
797,941;22948,165;   -0,541;    0,591
798,507;23061,848;   -0,451;   -0,955
799,073;22600,077;   -0,360;    0,591
799,639;22724,124;   -2,632;    3,136
800,205;22762,535;    0,095;    2,682
800,770;22277,763;    0,640;    1,773
801,336;22377,356;    1,368;   -0,955
801,901;22075,221;    4,549;    3,136
802,467;22645,632;   -0,542;    2,045
803,033;22020,042;   -0,087;    0,864
803,598;22218,544;    1,913;   -1,045
804,163;22258,227;    1,095;   -0,318
804,729;22219,729;   -0,178;    1,136
805,294;22617,776;    0,822;    2,227
805,859;22394,278;    0,731;   -0,409
806,425;21846,052;    1,186;    2,682
806,990;21531,099;    2,186;    4,318
807,555;21997,782;   -1,451;    2,591
808,120;21903,920;    0,822;   -0,409
808,685;21974,513;    0,185;   -2,500
809,250;21485,469;    0,004;   -0,500
809,815;21787,879;    1,913;    0,682
810,380;22315,745;   -0,269;    1,591
810,945;22822,973;   -1,087;    2,045
811,510;22037,384;    2,094;    1,591
812,075;21730,704;   -0,633;   -1,409
812,640;21784,842;    2,003;    1,409
813,204;21854,252;    0,822;   -0,227
813,769;22307,936;    2,094;   -0,045
814,334;21745,801;    0,458;    0,864
814,898;21788,666;    0,367;    0,591
815,463;21651,168;    1,276;   -0,773
816,027;21613,760;   -0,724;   -2,318
816,592;21715,626;    0,640;   -2,045
817,156;21200,218;    2,094;    1,136
817,721;21051,356;    4,276;    2,318
818,285;21016,039;    2,912;    1,500
818,849;21650,086;   -1,451;    1,682
819,414;21588,497;   -0,269;    2,955
819,978;21177,362;   -1,269;    1,773
820,542;21733,955;    2,003;    0,500
821,106;21454,365;   -0,815;    0,682
821,670;21602,049;   -0,815;    2,591
822,234;21306,187;   -0,270;    1,409
822,798;20705,597;    0,003;    0,500
823,362;20647,008;   -0,633;    4,227
823,926;19952,146;    0,094;    1,136
824,490;20169,738;   -0,997;   -0,682
825,054;20621,876;   -0,088;   -1,136
825,618;20241,287;   -1,542;   -1,500
826,181;20156,607;    0,458;   -1,318
826,745;20099,290;    1,367;   -1,045
827,309;20446,246;    1,185;    1,318
827,872;19864,021;    1,367;    0,955
828,436;20840,613;    1,185;   -0,773
828,999;20895,751;   -0,997;    1,227
829,563;19735,707;   -0,179;    1,136
830,126;19576,027;   -0,179;   -0,591
830,690;19610,256;   -1,997;    2,864
831,253;19098,303;   -0,543;    2,227
831,816;19210,713;   -1,906;    0,500
832,380;19146,306;    0,185;    0,864
832,943;19383,535;   -1,361;   -0,500
833,506;18862,218;    2,639;   -1,227
834,069;19625,265;    3,912;   -0,955
834,632;19691,403;    1,730;    1,318
835,195;19603,995;    1,003;    0,955
835,758;18800,406;   -0,997;    1,955
836,321;18680,271;    0,730;   -1,045
836,884;18789,500;   -0,725;   -0,955
837,447;18808,274;   -2,816;    1,773
838,010;19046,503;    0,366;    3,227
838,573;19382,641;   -1,179;    0,773
839,135;19285,416;   -1,361;   -0,955
839,698;18765,553;    1,275;    0,409
840,261;18299,964;    1,003;   -0,227
840,823;18171,466;   -0,543;    0,864
841,386;18478,240;   -0,452;   -2,409
841,948;18358,014;   -1,361;    1,773
842,511;18064,516;    0,912;    1,682
843,073;18171,745;    1,912;    0,227
843,636;18008,337;   -0,361;   -0,227
844,198;17943,021;    0,911;    0,591
844,760;18058,068;    1,093;    1,955
845,322;17714,933;    0,548;    1,136
845,885;18128,707;    0,730;    0,591
846,447;18566,390;   -1,998;    0,227
847,009;18127,983;    1,911;   -0,682
847,571;18440,575;    0,820;   -2,045
848,133;18609,622;   -1,089;   -1,864
848,695;18443,579;   -0,543;    1,409
849,257;17988,080;   -1,089;   -1,682
849,819;18142,763;   -0,998;   -0,409
850,381;18187,447;   -0,725;   -0,864
850,942;18524,130;    1,093;   -0,591
851,504;18468,359;    1,184;    0,227
852,066;18481,952;    1,275;   -1,591
852,628;18056,999;   -0,180;    1,955
853,189;17628,773;    1,638;    2,682
853,751;17777,547;   -0,907;    1,409
854,312;17583,594;   -0,453;   -1,682
854,874;18050,550;   -2,089;   -0,773
855,435;18567,325;   -0,907;   -1,682
855,997;18703,008;   -1,816;   -0,136
856,558;18064,328;    0,366;    1,773
857,119;18159,647;    0,820;    2,864
857,681;17825,149;    0,002;    0,318
858,242;17859,651;    1,911;   -2,136
858,803;18295,152;    0,456;   -0,773
859,364;18861,290;    0,184;   -4,773
859,925;18153,246;   -2,453;   -0,955
860,486;18077,202;   -0,453;   -0,955
861,047;17822,431;   -0,544;   -1,227
861,608;17651,842;   -1,089;   -0,773
862,169;17793,162;    0,638;   -0,045
862,730;17553,663;    0,456;    1,409
863,291;17757,528;   -0,635;   -0,500
863,852;18107,757;   -0,635;    1,955
864,412;17595,259;   -0,271;   -0,864
864,973;16248,306;   -0,089;    0,500
865,534;16078,716;   -1,726;    0,227
866,094;17603,309;    1,820;    0,227
866,655;17257,083;    1,274;    3,318
867,215;17520,494;    0,274;    0,136
867,776;17405,450;    0,547;   -0,136
868,336;17485,042;   -1,453;    0,136
868,897;16913,362;    2,638;    1,682
869,457;16635,137;    1,365;    0,318
870,017;16885,911;    0,547;   -1,227
870,578;17419,776;   -0,817;    0,773
871,138;17089,187;   -2,089;   -0,955
871,698;16652,143;   -0,817;   -1,318
872,258;16554,553;   -0,453;   -2,864
872,818;16903,964;    2,729;    0,045
873,378;16867,193;    0,638;    1,045
873,938;16402,240;    0,547;    0,500
874,498;16754,196;    0,274;   -1,955
875,058;16646,243;    2,183;    1,773
875,618;16450,290;    1,910;   -2,682
876,177;16420,246;    1,274;    0,136
876,737;16045,748;   -0,090;    1,955
877,297;16082,158;    0,183;    1,955
877,856;16066,478;   -0,362;    0,318
878,416;15978,980;    1,183;   -0,136
878,976;16225,754;   -1,817;    0,409
879,535;16404,256;    0,092;    3,136
880,095;16118,030;   -0,544;    0,045
880,654;16285,441;   -1,090;    1,318
881,213;16355,579;    2,456;    1,500
881,773;15992,898;    2,637;    2,682
882,332;16303,491;    3,365;    5,136
882,891;16186,901;    3,092;    2,136
883,451;16634,858;   -1,272;    1,682
884,010;16124,905;   -2,908;   -0,409
884,569;16222,406;   -0,999;   -0,045
885,128;16316,180;    2,819;   -1,864
885,687;16368,227;    4,455;    0,682
886,246;16080,820;    1,455;    2,136
886,805;15891,231;    2,455;    2,045
887,364;16166,459;   -0,999;   -0,500
887,922;16483,870;   -1,181;    0,045
888,481;16003,463;   -1,545;    0,591
889,040;16332,964;    1,183;    2,136
889,599;17005,557;    2,455;    1,409
890,157;17076,604;    1,455;    2,409
890,716;16778,196;   -0,090;    0,227
891,274;16575,425;    0,092;   -1,136
891,833;16998,199;    1,546;    0,864
892,391;16877,337;   -0,454;    0,500
892,950;16938,021;    1,819;   -0,773
893,508;17281,886;    0,455;   -0,409
894,067;16651,478;    0,637;    0,136
894,625;16563,162;   -0,636;   -1,500
895,183;16792,754;   -0,363;   -0,682
895,741;16663,528;    1,728;   -1,773
896,299;16545,030;   -0,545;   -2,409
896,858;16720,804;    0,819;   -1,591
897,416;16823,306;    2,728;   -1,318
897,974;16573,080;    1,819;    0,318
898,532;16698,218;    6,091;    2,682
899,089;16572,083;    2,091;   -0,682
899,647;16652,039;   -1,454;    1,318
900,205;16405,905;    1,182;    1,045
900,763;16594,679;   -0,454;    0,227
901,321;16580,726;    2,364;   -1,409
901,878;16046,409;   -1,000;   -0,773
902,436;15936,093;   -1,363;    1,318
902,994;16307,776;    4,728;    3,682
903,551;15753,550;    0,728;    0,409
904,109;16177,234;    0,182;   -1,409
904,666;15788,190;    2,455;    1,045
905,224;15594,873;    0,182;   -0,409
905,781;15348,284;    0,727;   -0,318
906,338;15418,058;   -1,363;    1,045
906,895;15348,651;    0,637;    2,045
907,453;15315,698;    1,727;    1,136
908,010;15350,472;   -0,909;    0,409
908,567;14968,883;    1,273;    0,591
909,124;14494,202;    0,364;   -1,500
909,681;14553,340;   -2,909;    0,682
910,238;14724,024;    0,636;   -1,318
910,795;15059,253;   -0,273;   -1,136
911,352;14679,798;   -2,909;   -2,682
911,909;14067,798;   -1,364;   -0,864
912,466;14597,162;   -3,182;    1,500
913,022;14140,253;   -1,636;    0,500
913,579;14488,616;   -0,909;    2,045
914,136;14199,889;    1,636;    0,955
914,692;14557,071;    0,091;   -1,227
915,249;14111,707;    1,455;    0,409
915,806;14354,525;    0,182;    1,955
916,362;14043,343;    1,909;    1,864
916,918;13634,889;    2,000;    1,045
917,475;13642,434;   -1,182;    0,955
918,031;13720,525;    3,364;   -0,045
918,587;13191,980;   -0,909;   -0,318
919,144;13365,980;   -2,273;    0,227
919,700;13707,980;    1,727;    0,773
920,256;13282,980;    0,727;    0,045
920,812;12922,162;   -0,727;   -1,045
921,368;12905,525;   -1,727;   -1,045
921,924;12551,889;    0,182;   -0,136
922,480;12150,980;   -0,545;    1,227
923,036;12761,889;    1,273;    1,955
923,592;12693,253;    0,455;    0,318
924,148;12626,343;    0,455;   -0,955
924,704;11933,798;   -1,364;   -0,409
925,259;12224,434;   -0,273;    0,591
925,815;11983,071;    1,455;    0,500
926,371;11484,434;    2,909;    1,409
926,926;11376,616;    2,091;    0,591
927,482;11058,343;   -1,364;    0,773
928,037;10951,162;    0,909;    2,045
928,593;11224,707;    1,636;    1,045
929,148;11034,798;   -1,818;   -1,500
929,704;10544,071;   -1,455;   -0,500
930,259;10769,434;    0,091;   -0,136
930,814; 9855,525;   -0,818;    1,955
931,369; 9528,253;    1,091;   -0,773
931,925; 9426,889;   -0,091;    0,136
932,480; 9368,616;   -2,818;   -2,591
933,035; 9212,889;    0,545;   -0,318
933,590; 8987,889;    0,364;   -1,773
934,145; 8655,616;   -1,364;   -0,318
934,700; 8999,343;    0,455;   -0,591
935,255; 8811,707;   -0,091;    0,045
935,809; 8090,162;    3,182;    0,864
936,364; 7257,525;   -0,455;   -0,136
936,919; 7222,525;    0,455;   -1,773
937,474; 7113,071;    1,455;    0,136
938,028; 6856,253;   -1,636;    1,136
938,583; 6342,798;    1,818;    4,682
939,138; 6655,071;    2,091;    2,136
939,692; 6112,707;    1,636;   -1,136
940,247; 5798,980;   -0,727;   -1,045
940,801; 5358,253;   -0,636;    0,227
941,355; 5278,525;   -0,364;    2,591
941,910; 4937,162;   -0,273;   -2,136
942,464; 5047,343;   -0,818;   -0,318
943,018; 4839,343;    1,000;   -0,227
943,572; 4784,616;    2,545;   -0,682
944,126; 4219,889;    0,091;   -0,409
944,681; 4090,889;    3,091;    0,227
945,235; 4072,889;    1,000;   -0,591
945,789; 4012,707;    0,364;   -1,864
946,342; 4127,253;    0,455;   -0,591
946,896; 3941,798;   -2,273;    0,955
947,450; 3700,343;    1,545;   -0,227
948,004; 3881,980;    1,727;   -0,045
948,558; 3905,798;    0,273;   -0,864
949,111; 3823,616;   -0,273;   -0,318
949,665; 3851,980;    1,636;   -0,682
950,219; 3714,980;   -0,091;   -1,045
950,772; 3799,889;   -1,909;    1,864
951,326; 3708,889;    0,545;   -0,955
951,879; 3803,253;    0,727;   -2,318
952,433; 3832,980;    0,000;    2,227
952,986; 3684,616;    2,909;    0,682
953,539; 3628,253;   -0,273;    0,591
954,093; 3558,798;    0,545;   -1,318
954,646; 3675,707;    0,909;    1,318
955,199; 3487,980;    0,000;   -0,500
955,752; 3392,162;   -0,455;    1,773
956,305; 3358,889;   -0,091;    2,955
956,858; 3510,889;    0,818;   -0,318
957,411; 3686,616;   -0,545;    2,136
957,964; 3511,343;    1,364;    2,136
958,517; 3521,525;   -1,545;    3,136
959,070; 3354,162;   -0,455;    1,955
959,623; 3432,162;    1,091;    1,500
960,176; 3202,707;    1,727;    2,045
960,728; 3167,980;   -2,727;    0,773
961,281; 3238,707;    0,545;    0,500
961,834; 3298,343;   -0,909;    0,864
962,386; 3201,071;    1,727;    1,045
962,939; 3121,616;    0,364;   -0,318
963,491; 3252,707;    0,455;    1,136
964,043; 3131,798;    1,182;    2,409
964,596; 3246,707;   -1,000;    2,227
965,148; 3100,434;   -1,000;    1,773
965,700; 3034,162;    1,091;   -0,227
966,253; 3163,707;   -0,636;    0,318
966,805; 3000,616;   -2,273;    0,773
967,357; 3046,980;    1,091;   -1,500
967,909; 3014,253;    0,455;   -1,227
968,461; 3136,980;    0,545;    3,136
969,013; 3065,889;   -0,182;   -0,864
969,565; 3143,071;   -0,455;   -1,136
970,117; 3198,798;   -0,364;    1,045
970,669; 3034,162;    0,182;   -0,136
971,220; 2923,616;   -0,455;   -1,500
971,772; 2842,616;   -0,636;   -0,318
972,324; 2952,525;    0,091;   -0,500
972,876; 2906,707;    0,818;   -0,045
973,427; 3041,798;    1,909;   -1,045
973,979; 3004,343;   -0,727;   -2,500
974,530; 3053,798;    1,818;    1,318
975,082; 3038,707;   -0,545;    1,682
975,633; 2926,162;    1,091;    1,682
976,184; 3082,343;    0,909;    0,773
976,736; 2889,980;    0,091;    0,227
977,287; 2695,071;   -0,909;   -0,500
977,838; 2870,889;    0,909;   -0,318
978,389; 2912,525;   -1,000;   -0,500
978,940; 2786,525;    0,545;   -0,409
979,491; 2828,980;    0,091;   -0,500
980,042; 2792,798;    0,182;    3,045
980,593; 2847,525;   -2,545;    0,227
981,144; 2895,798;    2,545;   -0,500
981,695; 2860,798;    1,455;    1,500
982,246; 2829,889;   -0,273;    1,045
982,797; 2985,343;   -1,727;    0,682
983,347; 3081,707;    0,364;    0,591
983,898; 3238,343;    3,091;    0,409
984,449; 3064,889;    2,182;    0,773
984,999; 2974,707;    1,455;   -1,136
985,550; 2764,162;    0,182;   -0,318
986,100; 2805,343;   -0,455;   -0,318
986,651; 2845,798;   -0,818;    0,045
987,201; 2813,343;   -1,000;   -0,591
987,751; 2900,162;    0,818;    2,864
988,302; 2881,071;    2,636;    1,500
988,852; 2891,071;    0,455;   -1,136
989,402; 2935,343;    0,091;    0,682
989,952; 2860,071;   -2,182;    0,864
990,502; 2974,798;   -0,091;    0,682
991,052; 2936,162;   -0,727;    0,045
991,602; 2824,616;   -2,909;    1,318
992,152; 2799,071;    0,455;    0,682
992,702; 2781,071;    1,364;   -0,045
993,252; 2713,707;   -3,000;   -0,500
993,802; 2778,162;   -0,273;    1,318
994,352; 3005,525;   -1,545;    1,136
994,901; 3091,707;   -0,182;    3,227
995,451; 3026,980;   -0,182;    0,318
996,000; 3125,525;    1,636;    0,318
996,550; 2839,434;    2,273;    0,227
997,100; 2817,798;    1,273;   -0,045
997,649; 3092,253;    2,182;    0,955
998,198; 2753,980;    1,727;   -1,500
998,748; 2951,071;    1,091;   -2,318
999,297; 2848,798;   -0,818;   -0,409
999,846; 2925,616;    1,000;   -0,773
1000,395; 2964,707;   -0,818;    0,500
1000,945; 2925,253;    1,818;   -0,773
1001,494; 3001,253;    2,364;    0,682
1002,043; 2976,707;    4,636;    0,864
1002,592; 2835,343;   -1,091;    1,955
1003,141; 2989,343;   -0,455;   -0,682
1003,690; 2851,162;    1,727;    0,500
1004,238; 2918,525;    1,455;   -0,045
1004,787; 2578,889;    1,364;    1,227
1005,336; 2786,343;    0,364;    0,682
1005,885; 2925,343;    1,364;   -2,773
1006,433; 3064,798;    0,545;    0,955
1006,982; 3124,071;    0,455;    1,682
1007,531; 3037,162;   -1,818;   -0,227
1008,079; 2988,525;   -2,273;    0,500
1008,627; 3128,162;   -1,455;    0,409
1009,176; 2879,889;    0,000;   -1,955
1009,724; 2917,434;    1,091;    0,864
1010,273; 2993,889;    1,273;    0,500
1010,821; 3095,707;    0,091;    1,409
1011,369; 2836,071;   -1,364;    1,318
1011,917; 2812,253;   -1,364;   -0,591
1012,465; 3085,162;    1,273;   -1,591
1013,013; 3194,707;    2,091;   -1,682
1013,561; 3094,525;    0,455;   -0,773
1014,109; 3131,434;   -1,909;    1,682
1014,657; 3014,162;    0,364;    0,591
1015,205; 3144,253;    1,636;   -0,955
1015,753; 3178,162;   -0,545;   -1,409
1016,301; 3192,343;   -2,636;    3,045
1016,848; 3196,889;   -1,273;    0,409
1017,396; 3230,434;    2,545;    0,045
1017,944; 3344,889;    1,182;    1,864
1018,491; 3127,980;    0,273;    1,409
1019,039; 3261,071;    0,455;    0,591
1019,586; 3193,525;   -1,364;    1,682
1020,134; 3299,525;    0,455;    1,500
1020,681; 3320,343;    0,182;   -1,136
1021,228; 3331,889;    2,909;   -2,227
1021,776; 3135,798;    1,182;   -1,136
1022,323; 3374,798;    0,455;    0,773
1022,870; 3319,980;   -1,000;   -0,045
1023,417; 3198,980;    2,636;    1,864
1023,964; 3350,798;    2,636;    1,227
1024,511; 3203,253;    1,000;    0,773
1025,058; 3016,343;    3,182;   -0,045
1025,605; 3064,707;   -2,273;    3,136
1026,152; 3253,434;    1,727;   -0,591
1026,699; 2989,616;    1,818;    1,318
1027,245; 3148,980;   -0,091;    0,318
1027,792; 3365,616;   -1,000;    1,409
1028,339; 3256,162;    2,364;   -0,045
1028,885; 3124,434;    1,000;   -0,227
1029,432; 3051,980;   -0,091;    0,227
1029,978; 3100,253;   -1,000;   -1,591
1030,525; 3027,525;    1,000;    0,409
1031,071; 3273,889;   -1,364;    1,136
1031,618; 3377,707;    0,364;    1,682
1032,164; 3161,434;   -0,091;    3,045
1032,710; 3212,162;    1,636;   -1,500
1033,256; 3132,798;   -0,636;   -0,136
1033,803; 3102,253;   -0,545;    1,500
1034,349; 2847,980;   -1,364;    0,136
1034,895; 3005,162;    0,000;   -0,318
1035,441; 2972,071;   -0,818;    0,318
1035,987; 2977,253;   -2,364;   -0,682
1036,533; 2981,343;   -1,455;   -0,955
1037,078; 3161,889;    1,455;    1,682
1037,624; 2990,798;    2,455;   -0,955
1038,170; 3028,980;    0,455;   -0,318
1038,716; 2949,798;    1,636;   -0,409
1039,261; 2852,707;   -2,273;   -0,773
1039,807; 2778,980;   -0,091;    3,409
1040,352; 2834,071;   -1,909;   -0,318
1040,898; 2879,525;   -1,545;   -0,682
1041,443; 2796,889;   -1,455;   -2,591
1041,989; 2827,889;    1,091;    1,591
1042,534; 2711,798;   -0,364;    2,591
1043,079; 2825,525;    2,909;    0,955
1043,625; 2622,707;    1,818;    0,500
1044,170; 2670,434;   -1,364;    1,045
1044,715; 2908,798;    2,455;    0,955
1045,260; 2734,798;    2,182;   -0,955
1045,805; 2792,434;    1,182;   -0,591
1046,350; 2712,616;    1,364;   -0,409
1046,895; 2672,707;    2,909;    1,591
1047,440; 2629,616;    5,364;    0,409
1047,985; 2515,707;    2,818;   -0,955
1048,530; 2439,162;    1,545;    1,227
1049,074; 2514,889;    0,000;    0,318
1049,619; 2499,707;   -1,364;    1,955
1050,164; 2304,071;    0,455;    0,227
1050,708; 2334,889;   -0,455;    0,045
1051,253; 2694,525;    1,273;   -2,227
1051,797; 2403,616;    0,818;   -1,318
1052,342; 2424,253;   -1,182;    1,045
1052,886; 2423,707;    0,364;   -1,409
1053,430; 2297,798;   -1,364;    0,136
1053,975; 2305,525;   -0,818;   -0,318
1054,519; 2275,889;   -0,727;    3,227
1055,063; 2297,434;    0,909;    1,318
1055,607; 2198,707;   -0,182;    0,227
1056,151; 2209,798;    2,909;    1,682
1056,695; 2146,071;    2,273;   -1,136
1057,239; 2220,707;   -1,727;   -0,682
1057,783; 2229,343;    0,818;   -1,500
1058,327; 2155,616;    0,000;    1,409
1058,871; 2385,071;   -0,545;    1,318
1059,415; 2103,343;   -0,818;   -0,045
1059,958; 2350,525;    1,455;    2,591
1060,502; 2072,343;   -1,000;   -0,773
1061,046; 1994,525;    0,364;   -0,955
1061,589; 1968,253;   -3,000;   -1,136
1062,133; 1857,434;   -1,273;    1,864
1062,676; 1806,071;    1,182;    0,864
1063,220; 1798,798;    1,091;    0,500
1063,763; 1819,798;    0,909;    1,136
1064,306; 1903,253;   -0,909;    1,864
1064,849; 1786,707;   -0,909;    0,591
1065,393; 1791,980;    2,000;   -1,500
1065,936; 1907,253;    0,182;   -0,409
1066,479; 1791,162;   -1,455;    1,318
1067,022; 1805,889;   -0,273;   -0,227
1067,565; 1705,162;   -0,091;   -1,318
1068,108; 1744,525;    0,727;   -0,591
1068,651; 1724,434;   -0,636;    1,409
1069,194; 1642,343;   -0,455;   -1,682
1069,736; 1635,889;   -1,273;    0,955
1070,279; 1634,525;   -1,364;   -0,500
1070,822; 1675,707;   -2,000;   -0,318
1071,364; 1749,162;   -0,364;    1,318
1071,907; 1575,162;   -0,727;    3,227
1072,450; 1489,434;    0,000;   -0,045
1072,992; 1477,525;   -0,273;    3,136
1073,535; 1620,253;    2,091;    2,136
1074,077; 1420,525;   -0,727;    2,045
1074,619; 1377,434;   -1,364;    0,591
1075,161; 1410,707;   -1,091;    1,500
1075,704; 1581,525;    1,545;    1,227
1076,246; 1392,980;   -0,182;    0,682
1076,788; 1311,434;   -0,364;    1,773
1077,330; 1396,616;    1,273;    2,136
1077,872; 1355,343;    0,909;    0,955
1078,414; 1572,798;    2,727;    0,773
1078,956; 1319,071;    1,273;   -0,227
1079,498; 1564,889;    1,636;    0,318
1080,040; 1279,253;    1,909;   -1,318
1080,581; 1217,889;    1,636;   -0,318
1081,123; 1159,525;    0,091;   -0,773
1081,665; 1200,162;   -1,182;   -0,955
1082,206; 1496,162;    1,364;   -0,500
1082,748; 1350,889;    0,727;    2,045
1083,289; 1231,889;   -2,000;    1,318
1083,831; 1145,253;   -0,545;    0,227
1084,372; 1178,707;    0,000;    0,591
1084,913; 1181,071;    1,091;    0,864
1085,455; 1137,889;   -1,909;   -2,045
1085,996; 1118,434;   -2,273;    0,136
1086,537; 1146,162;   -0,091;    0,864
1087,078; 1172,707;   -0,909;   -2,136
1087,619; 1214,525;   -1,273;    0,227
1088,160; 1135,162;    0,000;    1,318
1088,701; 1118,616;   -1,091;    0,682
1089,242; 1060,980;    1,364;   -2,227
1089,783; 1148,343;   -0,273;    1,409
1090,324; 1103,343;    0,455;    0,682
1090,865;  983,980;    2,727;   -0,409
1091,405;  980,616;    0,727;    2,227
1091,946;  988,798;    0,182;   -0,955
1092,487;  916,707;    0,818;   -1,409
1093,027; 1080,343;   -1,364;   -1,500
1093,568;  945,071;   -0,364;    1,227
1094,108; 1036,253;    0,273;    1,773
1094,649;  981,162;   -1,182;    0,136
1095,189;  916,434;   -0,636;   -0,682
1095,729;  858,798;   -0,091;    0,955
1096,269;  867,616;    0,727;   -0,955
1096,810; 1178,798;   -1,364;    0,500
1097,350; 1007,616;    1,364;   -0,773
1097,890;  912,798;    0,364;    1,227
1098,430; 1156,162;    2,364;    2,864
1098,970; 1041,707;    2,182;    1,682
1099,510;  899,162;    0,545;   -2,318
1100,050;  820,253;    1,000;   -1,591
1100,589;  785,616;   -0,727;   -0,318
1101,129;  906,071;    0,818;   -0,955
1101,669; 1053,616;    1,727;    2,136
1102,209;  878,253;   -0,091;    2,227
1102,748;  843,707;    0,000;    0,955
1103,288;  837,343;    1,273;   -1,227
1103,827;  860,616;    3,091;   -2,227
1104,367;  733,253;   -0,091;   -2,409
1104,906;  701,162;    1,364;   -1,136
1105,445;  782,343;    0,636;   -1,136
1105,985;  707,707;   -0,727;    1,500
1106,524;  758,434;   -1,727;   -0,682
1107,063;  729,343;   -2,727;    1,409
1107,602;  718,071;   -1,909;   -1,500
1108,141;  642,434;   -1,909;    1,500
1108,680;  737,071;   -3,455;   -0,591
1109,219;  670,343;   -0,909;   -0,500
1109,758;  677,889;    0,455;    0,682
1110,297;  647,162;    1,000;   -0,682
1110,836;  599,071;   -0,727;    0,955
1111,375;  754,162;   -2,545;    0,409
1111,913;  768,707;   -1,000;    0,773
1112,452;  703,889;   -0,273;    0,136
1112,991;  590,162;    1,091;    1,955
1113,529;  547,253;   -0,818;   -0,045
1114,068;  619,980;   -0,273;    2,955
1114,606;  521,889;   -0,364;   -0,955
1115,144;  685,980;   -1,273;    1,045
1115,683;  610,434;   -0,727;    0,318
1116,221;  661,343;   -0,455;   -0,864
1116,759;  577,798;    0,636;   -0,864
1117,297;  778,707;    0,000;    1,864
1117,836;  579,253;   -2,182;   -1,227
1118,374;  580,889;    0,182;   -0,682
1118,912;  515,707;    0,909;    2,682
1119,450;  502,162;    1,000;    0,864
1119,988;  559,616;    1,545;    2,136
1120,525; 1009,253;    5,091;    3,318
1121,063;  717,162;    1,182;    1,864
1121,601;  531,071;   -0,909;   -1,227
1122,139;  485,071;   -0,727;   -2,045
1122,676;  683,071;   -0,727;    2,773
1123,214;  613,980;   -1,182;    4,409
1123,751;  432,343;    1,727;    2,227
1124,289;  550,253;   -0,091;   -0,409
1124,826;  422,162;    1,727;    0,227
1125,364;  343,343;    1,727;   -0,955
1125,901;  535,162;    1,182;    1,227
1126,438;  647,889;    0,818;    0,955
1126,975;  376,253;   -0,727;   -0,773
1127,513;  443,616;    0,273;    2,136
1128,050;  359,889;    1,636;   -0,682
1128,587;  453,434;    2,000;   -0,227
1129,124;  495,162;    0,091;    1,318
1129,661;  357,889;    0,273;    0,227
1130,198;  519,889;    1,636;    0,773
1130,734;  466,707;    0,182;    1,409
1131,271;  329,616;   -0,909;    0,864
1131,808;  501,889;    2,909;    3,045
1132,345;  376,162;    1,545;    0,318
1132,881;  246,707;   -1,545;   -1,864
1133,418;  383,889;    0,727;   -1,136
1133,954;  319,525;    2,455;   -2,682
1134,491;  397,707;    1,364;   -0,773
1135,027;  301,616;    2,364;    0,864
1135,564;  387,434;    0,273;    2,955
1136,100;  364,525;    0,364;    2,136
1136,636;  262,162;   -1,273;   -1,045
1137,172;  353,162;    0,000;   -1,045
1137,708;  271,253;   -1,364;   -1,045
1138,245;  279,071;    1,273;   -1,227
1138,781;  233,889;    1,091;   -3,318
1139,317;  306,525;    1,273;   -1,409
1139,852;  297,980;    3,091;    0,136
1140,388;  407,162;   -1,182;   -0,409
1140,924;  293,525;   -1,091;   -2,227
1141,460;  226,525;   -1,636;    0,136
1141,996;  161,980;   -1,364;    2,682
1142,531;  206,980;    1,364;    3,318
1143,067;  423,343;    1,182;    1,045
1143,602;  482,071;   -0,091;   -0,318
1144,138;  317,162;   -2,636;    1,045
1144,673;  189,071;   -1,455;    1,409
1145,209;  263,707;   -1,909;   -0,318
1145,744;  184,434;   -0,727;    0,864
1146,279;  308,071;    1,818;   -0,136
1146,815;  224,616;    1,545;   -2,682
1147,350;  269,889;   -1,364;    0,045
1147,885;  180,616;   -0,818;   -1,318
1148,420;  187,798;   -2,273;    0,773
1148,955;  174,162;   -1,727;    1,864
1149,490;  195,434;   -0,909;   -1,591
1150,025;  176,980;    0,455;   -1,773
1150,560;  287,707;    1,091;   -0,955
1151,094;  256,434;    1,455;   -0,591
1151,629;  252,980;    1,636;    0,864
1152,164;  175,798;    1,364;    1,318
1152,698;  141,434;   -0,182;   -0,136
1153,233;  107,253;    0,091;   -0,682
1153,767;  151,616;   -3,000;   -2,318
1154,302;  200,253;   -1,455;    1,773
1154,836;  201,071;   -0,455;   -2,136
1155,371;  248,525;   -1,364;    3,682
1155,905;  209,889;   -0,636;    1,682
1156,439;  163,253;   -0,636;   -0,500
1156,973;  203,071;    0,364;    0,318
1157,507;  136,707;   -0,364;    0,682
1158,042;  162,253;   -0,727;    1,045
1158,576;  204,980;    0,182;    1,773
1159,110;  195,525;   -0,818;    2,409
1159,643;  171,343;    0,636;   -0,045
1160,177;  117,616;   -1,545;    1,500

