
Integration time [ms]:   0,040
Averaging Nr. [scans]: 11
Smoothing Nr. [pixels]: 0
Data measured with spectrometer [name]: 7318044SP
Wave   ;Sample   ;Dark     ;Reference
[nm]   ;[counts] ;[counts] ;[counts] 

186,757;   21,624;   31,551;    1,318
187,357;   48,544;   22,551;    0,955
187,958;   37,062;   15,460;   -1,591
188,558;   78,714;    8,915;   -1,227
189,159;   49,091;    6,733;   -4,500
189,759;   18,878;    7,278;   -3,591
190,360;   11,088;    2,824;   -2,136
190,960;   57,326;    2,915;   -4,136
191,560;   65,828;    3,189;   -6,591
192,161;  301,158;    4,372;   -3,500
192,761;  152,467;    4,010;   -3,227
193,361;  104,119;    1,556;   -3,773
193,962;  150,961;    2,010;   -2,682
194,562;   68,458;    1,189;   -3,955
195,162;  106,100;   -2,448;   -2,227
195,762;  273,630;   -3,176;   -0,045
196,362;  226,639;    1,370;   -2,500
196,963;   96,046;    2,006;   -0,864
197,563;  156,078;    1,551;   -0,955
198,163;  103,590;    0,096;   -0,682
198,763;  118,789;    1,733;   -0,500
199,363;  214,397;    3,096;   -0,500
199,963;  183,513;    0,369;    0,409
200,563;  162,189;    2,823;   -1,409
201,163;  135,596;    3,277;   -0,227
201,763;  232,956;    3,732;    0,318
202,363;  171,568;    1,459;    1,500
202,963;  279,642;    1,459;    1,045
203,563;  390,118;    0,277;    0,500
204,162;  244,303;    2,096;   -1,864
204,762;  223,063;    0,550;    0,591
205,362;  195,201;    3,004;    1,955
205,962;  301,777;    3,096;    1,955
206,562;  302,771;    1,823;    2,318
207,161;  267,586;   -0,087;    0,318
207,761;  425,256;    1,277;    2,409
208,361;  305,396;   -0,268;    1,409
208,960;  398,919;    0,459;    1,500
209,560;  473,156;    1,277;    1,591
210,160;  452,237;    0,550;    1,864
210,759;  421,623;    4,186;    1,227
211,359;  421,804;    1,459;    1,045
211,958;  688,875;    1,277;    2,045
212,558;  774,689;    1,732;    1,864
213,157;  613,880;    1,822;    1,500
213,757; 1060,263;    3,822;   -0,227
214,356;  752,463;    1,277;   -0,409
214,956; 1083,593;    3,095;    0,409
215,555;  715,085;    2,095;    2,136
216,154;  649,297;   -2,723;   -0,591
216,754;  656,387;    0,277;    0,773
217,353;  803,068;   -0,268;   -1,045
217,952;  670,434;   -0,178;    0,318
218,552;  905,617;    1,368;   -0,773
219,151;  801,111;    0,277;    0,955
219,750;  792,277;    0,004;   -0,227
220,349;  922,590;   -0,451;    1,045
220,948;  978,782;   -1,360;    1,136
221,548; 1008,430;    0,913;    1,227
222,147; 1123,730;   -0,087;   -0,409
222,746; 1403,962;   -0,451;   -0,955
223,345; 1284,602;    0,731;    0,500
223,944; 1296,739;   -0,451;    0,773
224,543; 1469,820;    1,004;   -1,409
225,142; 1585,859;    0,094;    0,136
225,741; 1504,259;   -0,814;    1,045
226,340; 1528,203;   -0,451;   -0,955
226,939; 1969,001;   -0,996;   -0,136
227,538; 1942,651;   -0,360;   -0,773
228,137; 2085,601;   -0,814;    0,864
228,735; 2219,055;   -0,541;    1,227
229,334; 1974,689;   -0,905;   -0,227
229,933; 2352,388;    0,459;    0,591
230,532; 2472,743;    1,186;   -0,409
231,131; 2504,495;    1,732;    0,318
231,729; 2669,566;   -2,450;   -2,318
232,328; 2793,261;   -0,723;   -1,500
232,927; 2872,732;    1,004;   -0,500
233,525; 2993,704;    3,640;    0,045
234,124; 3177,803;    2,368;   -1,591
234,723; 3213,718;    0,913;   -1,045
235,321; 3360,427;    2,277;    0,136
235,920; 3602,567;    1,186;   -1,227
236,518; 3858,003;    3,459;    0,318
237,117; 4055,401;    0,004;   -0,227
237,715; 4203,387;    0,640;   -0,500
238,314; 4210,018;   -0,087;   -2,318
238,912; 4310,321;   -0,723;   -1,409
239,510; 4376,409;    0,459;   -1,227
240,109; 4555,939;    0,004;    3,773
240,707; 4599,094;   -0,996;    1,227
241,305; 4958,584;    0,550;    0,136
241,904; 5170,493;   -0,178;   -2,045
242,502; 5113,950;   -0,632;   -0,227
243,100; 5081,567;   -0,087;   -0,955
243,698; 5320,190;    0,732;    1,682
244,297; 5480,508;   -0,632;    0,682
244,895; 5303,426;   -0,269;   -2,318
245,493; 5625,494;    2,186;   -0,591
246,091; 5688,915;    1,368;   -1,318
246,689; 5688,732;    1,004;    0,591
247,287; 5832,428;    0,822;   -1,136
247,885; 6113,716;   -1,451;    1,227
248,483; 6227,579;    1,822;   -0,500
249,081; 6353,882;    0,185;    1,591
249,679; 6511,818;   -0,178;    1,682
250,277; 6760,347;   -1,723;    0,864
250,875; 6718,841;   -1,087;   -1,045
251,473; 6752,795;   -1,178;    0,500
252,071; 6970,942;    1,459;    1,045
252,669; 7114,012;   -1,814;    0,318
253,267; 7379,401;   -0,087;    0,773
253,864; 7308,519;   -0,360;    0,682
254,462; 7198,168;    1,640;    1,591
255,060; 7166,346;   -0,269;    1,318
255,658; 7514,830;    0,822;   -0,136
256,255; 7905,700;    0,186;   -2,045
256,853; 7756,352;   -0,269;    1,409
257,451; 7767,583;    0,822;    1,864
258,048; 8017,034;    1,822;    1,864
258,646; 7775,986;    1,731;   -1,045
259,243; 7961,443;   -0,087;    2,227
259,841; 8032,255;   -0,814;    0,318
260,438; 7929,777;   -0,087;    0,864
261,036; 8636,267;   -1,905;    1,409
261,633; 8571,831;   -0,087;    2,227
262,231; 8311,494;    2,731;   -0,045
262,828; 8379,625;   -0,905;    1,136
263,425; 8421,032;    0,913;   -0,591
264,023; 8698,619;    0,186;    0,045
264,620; 8239,620;   -0,360;   -0,318
265,217; 8562,649;   -2,087;    3,136
265,815; 8701,880;   -1,905;    2,136
266,412; 8441,741;    0,731;    0,136
267,009; 8523,673;   -1,451;    0,773
267,606; 8430,077;    0,822;   -0,955
268,203; 8403,846;   -0,269;   -0,591
268,801; 8683,223;    1,731;    0,591
269,398; 8966,294;   -0,360;    2,500
269,995; 8955,171;    0,277;    1,591
270,592; 8723,720;   -0,632;   -0,500
271,189; 8928,961;    0,186;    0,409
271,786; 9040,973;   -0,632;    1,227
272,383; 8853,814;   -1,087;    0,227
272,980; 9075,099;    0,277;    0,318
273,577; 9548,165;    0,004;    1,227
274,174; 9103,563;    0,822;    2,591
274,771; 9071,830;   -0,814;   -0,773
275,367; 9222,074;    2,277;    1,409
275,964; 9191,962;    0,731;   -0,500
276,561; 9292,741;    1,549;   -1,045
277,158; 9489,455;    0,095;   -1,773
277,755; 9604,154;    2,185;    0,409
278,351; 9017,349;   -0,451;   -1,500
278,948; 9315,941;   -0,815;    0,045
279,545; 9338,508;   -1,360;    2,318
280,141; 9961,580;   -1,723;   -2,045
280,738; 9806,828;   -0,451;   -0,136
281,334;10060,203;   -1,633;    0,591
281,931; 9439,471;   -0,087;   -1,318
282,528; 9560,679;    0,822;   -0,500
283,124;10290,986;   -1,087;   -0,500
283,721;10153,013;   -0,451;    1,409
284,317; 9925,623;    0,185;    2,500
284,913;10464,529;   -1,360;    0,591
285,510;10650,166;    0,640;   -0,318
286,106;10703,398;   -2,269;   -0,955
286,703;10297,272;   -0,360;    1,955
287,299;10507,164;   -1,451;   -0,591
287,895;10732,015;    0,822;   -1,045
288,491;11316,385;    0,186;    2,136
289,088;11032,634;   -2,360;    2,409
289,684;11078,193;   -1,723;    1,500
290,280;11051,214;    0,368;    0,682
290,876;11114,589;    1,822;    5,500
291,472;11064,849;    1,276;    2,227
292,068;11159,763;    1,367;    0,227
292,665;10873,436;    2,095;    0,773
293,261;10505,417;    0,276;    2,136
293,857;10863,304;    2,913;    2,136
294,453;10804,024;    3,550;    0,955
295,049;10699,225;   -0,268;    1,955
295,644;10731,761;    0,095;    0,136
296,240;10637,445;   -0,905;   -0,136
296,836;10666,883;   -0,995;    0,318
297,432;10934,900;    1,096;   -0,500
298,028;10951,325;    0,732;    0,773
298,624;11380,340;    1,459;    1,864
299,220;11612,666;    2,368;    0,591
299,815;11289,373;    1,005;   -0,409
300,411;11080,952;    0,914;    1,773
301,007;11098,504;    1,368;    0,227
301,602;11120,308;   -0,541;   -2,318
302,198;11291,224;    0,732;   -0,773
302,794;11676,360;    1,187;   -0,500
303,389;11794,090;   -1,177;    1,045
303,985;11802,516;    0,550;    1,409
304,580;11762,360;    1,459;    1,591
305,176;11745,467;   -3,086;    0,136
305,771;11694,141;   -1,268;   -1,227
306,367;11516,025;    4,095;    0,136
306,962;11831,399;    0,641;    1,500
307,558;11577,793;   -0,450;    0,136
308,153;11522,559;    1,095;   -1,136
308,748;11752,797;   -0,814;    1,682
309,344;11705,692;   -0,632;   -1,318
309,939;11793,988;   -1,905;   -1,318
310,534;12090,204;   -0,086;   -1,682
311,130;12015,040;    0,459;   -2,500
311,725;11775,046;    1,004;   -0,500
312,320;12074,916;    2,459;    0,045
312,915;11946,023;    1,459;   -1,045
313,510;12025,532;    1,550;   -0,500
314,105;12513,325;    1,096;    1,409
314,700;11944,877;   -3,086;   -1,045
315,295;11548,451;   -0,904;    0,045
315,890;11144,216;    1,277;    0,864
316,485;11497,775;   -0,359;   -0,318
317,080;11629,583;   -3,086;    1,591
317,675;12127,189;    2,005;   -0,682
318,270;11546,409;    5,550;    3,318
318,865;11613,681;    3,278;    3,045
319,460;11444,642;   -0,904;    0,591
320,055;11662,735;   -0,541;   -1,227
320,650;11341,155;   -1,995;   -0,591
321,244;11389,557;   -0,177;   -1,409
321,839;12321,061;   -1,541;   -0,227
322,434;12188,643;   -1,086;   -1,591
323,029;11810,444;    1,732;    1,591
323,623;11644,251;    1,550;    0,773
324,218;11403,529;    2,368;    1,409
324,812;11303,816;    1,096;    1,591
325,407;11097,187;   -0,814;    2,045
326,002;11022,885;    0,277;   -0,409
326,596;11276,147;    0,914;    1,318
327,191;11498,245;    0,823;   -1,045
327,785;11068,784;   -0,813;   -0,227
328,379;11271,367;    1,368;    0,136
328,974;11095,215;    0,914;   -3,955
329,568;11351,574;    0,186;   -2,409
330,163;11130,658;    2,096;    1,045
330,757;11494,201;    2,459;    1,591
331,351;10814,133;    0,459;    0,682
331,945;11131,087;    0,914;    1,409
332,540;10708,315;   -1,723;   -0,591
333,134;10868,081;   -1,086;    0,773
333,728;11135,103;    0,005;    0,318
334,322;11480,396;   -1,177;   -0,864
334,916;10752,423;    0,277;    0,955
335,510;11041,798;   -0,450;   -0,136
336,105;11310,881;   -1,086;    1,591
336,699;11024,590;   -1,086;    0,591
337,293;10966,391;   -1,723;    0,318
337,887;11115,765;   -2,723;    1,955
338,481;11197,527;    0,459;    0,591
339,074;11347,786;   -0,359;    2,682
339,668;11178,297;   -1,632;    1,227
340,262;11428,204;    1,732;    3,227
340,856;10950,673;    1,822;   -0,682
341,450;10365,558;    1,004;    1,864
342,044;11225,573;    1,459;    0,136
342,637;10991,393;    0,913;   -2,136
343,231;10860,371;   -2,360;    0,682
343,825;10819,590;   -1,086;   -0,591
344,419;10805,273;   -1,995;    0,500
345,012;10574,206;    2,459;    4,045
345,606;10574,262;    4,641;    1,591
346,199;10468,737;   -1,813;   -0,227
346,793; 9994,885;    1,914;    2,045
347,386;10175,330;   -0,813;   -1,136
347,980;10172,270;   -0,268;   -0,045
348,573; 9970,863;    2,278;    0,409
349,167; 9634,637;    5,278;    4,773
349,760; 9981,215;    2,914;    2,682
350,354; 9984,210;   -0,813;    1,136
350,947; 9715,438;    1,096;    1,682
351,540; 9396,467;   -0,358;   -1,409
352,134; 9335,973;    1,096;    1,136
352,727; 9414,084;   -0,086;    1,136
353,320; 9217,643;    0,005;    0,591
353,913; 9045,497;   -1,995;    1,864
354,507; 9211,410;    0,823;   -1,227
355,100; 9240,769;    0,460;    0,864
355,693; 8500,650;    2,005;    2,409
356,286; 8547,245;    0,823;    2,773
356,879; 8911,216;   -0,722;    1,227
357,472; 8515,613;   -0,904;    1,500
358,065; 8715,479;   -0,722;    2,500
358,658; 8652,034;   -0,540;    2,318
359,251; 8297,854;   -1,631;   -0,591
359,844; 7790,113;   -1,904;   -1,136
360,437; 7946,376;   -2,995;    0,045
361,030; 8251,278;    1,369;   -0,682
361,623; 7827,560;    2,824;    0,318
362,215; 7872,689;   -0,086;    2,045
362,808; 7725,421;   -2,358;   -1,682
363,401; 7907,887;   -2,449;    0,136
363,994; 7653,214;   -0,631;   -1,500
364,586; 7575,040;    0,824;   -1,500
365,179; 7787,784;   -0,449;   -1,136
365,772; 7281,169;   -1,995;    2,045
366,364; 7583,277;    1,915;   -3,227
366,957; 7780,879;    2,279;   -0,045
367,549; 7788,264;    2,188;   -0,864
368,142; 7454,790;    1,825;   -1,500
368,734; 7640,783;    0,734;   -2,136
369,327; 7600,950;    1,643;   -0,500
369,919; 7525,258;   -1,538;    0,409
370,512; 7312,343;   -1,083;   -0,500
371,104; 7066,338;   -0,901;    1,591
371,696; 7237,382;    1,191;   -0,955
372,289; 7333,667;    0,373;    1,136
372,881; 7485,097;   -2,080;    1,318
373,473; 7376,935;   -2,170;    1,136
374,066; 7199,985;   -0,169;    0,500
374,658; 7039,084;    0,378;    1,136
375,250; 7394,465;    0,653;   -1,409
375,842; 7240,642;    0,473;   -0,045
376,434; 7122,919;   -0,435;   -0,409
377,026; 7701,626;    0,204;   -2,500
377,618; 7587,281;   -0,158;   -0,682
378,210; 7439,413;   -0,338;   -1,955
378,802; 7285,170;    0,754;   -0,591
379,394; 7219,283;    1,846;    0,682
379,986; 7819,815;    1,393;   -0,955
380,578; 7922,127;   -0,153;    0,773
381,170; 7278,413;   -0,972;    0,045
381,762; 7232,783;    0,755;    1,409
382,354; 7410,103;   -0,065;   -1,318
382,945; 7541,183;   -2,976;    0,318
383,537; 7704,612;   -2,705;   -1,955
384,129; 7718,462;   -2,160;   -1,136
384,721; 7883,202;   -0,252;    0,955
385,312; 7812,989;   -0,161;   -0,955
385,904; 7912,936;   -2,706;    1,591
386,496; 7266,910;   -0,979;    1,045
387,087; 7393,228;    1,022;    2,500
387,679; 7468,024;   -1,160;    0,045
388,270; 7623,279;    2,840;    2,045
388,862; 7694,413;    1,295;   -0,318
389,453; 7588,041;   -0,887;    1,045
390,045; 7836,920;   -0,705;   -2,682
390,636; 7799,596;    0,204;   -0,591
391,227; 7661,440;   -0,523;   -0,045
391,819; 7732,271;    0,204;    0,773
392,410; 7788,804;    1,022;    0,045
393,001; 7731,616;   -0,979;   -1,591
393,593; 8013,749;    1,930;   -0,045
394,184; 7889,436;    1,385;   -0,409
394,775; 7806,376;    1,839;    2,136
395,366; 8000,682;    1,385;    0,773
395,957; 7984,473;    0,113;    0,136
396,548; 8304,311;   -0,342;    2,682
397,139; 8578,008;   -2,433;    0,591
397,730; 8315,923;   -1,888;    0,955
398,321; 8391,123;   -1,252;    0,955
398,912; 8466,614;   -0,615;    0,136
399,503; 8538,552;   -3,524;   -1,409
400,094; 7948,231;    0,294;    1,682
400,685; 7818,241;   -0,433;    0,045
401,276; 7932,235;    0,930;   -0,955
401,867; 8219,249;   -0,888;    0,773
402,458; 8309,476;   -2,251;   -2,318
403,048; 8302,891;    1,112;    0,591
403,639; 7924,504;    0,840;    0,864
404,230; 8143,287;    2,476;    0,318
404,821; 8085,825;   -0,615;    0,045
405,411; 8192,505;    1,203;   -2,591
406,002; 7827,650;   -1,252;   -1,136
406,592; 7642,215;    2,294;    0,045
407,183; 7952,089;    0,566;   -1,500
407,774; 7883,230;    3,475;   -0,136
408,364; 8221,011;    0,930;    0,409
408,954; 7844,352;    0,384;    1,227
409,545; 7885,714;    1,021;    1,045
410,135; 7404,644;    1,293;    0,500
410,726; 7536,349;    1,838;    0,318
411,316; 7942,836;    0,111;    0,773
411,906; 7621,611;   -0,253;   -0,409
412,497; 7138,068;   -1,070;   -0,045
413,087; 7741,767;   -1,980;   -0,227
413,677; 8131,107;   -0,707;    3,864
414,267; 7957,891;    0,656;    1,409
414,857; 7948,805;   -2,980;    4,227
415,448; 8248,710;    0,839;    0,500
416,038; 7949,199;    0,020;   -0,591
416,628; 7895,832;   -0,889;    0,409
417,218; 7373,448;    0,565;    3,318
417,808; 7639,725;    0,202;   -0,409
418,398; 8101,666;    0,020;    2,682
418,988; 8110,366;    2,020;    0,591
419,578; 8354,535;   -0,707;    1,409
420,168; 8688,158;   -1,343;   -0,955
420,757; 8273,559;   -1,343;   -1,500
421,347; 7948,201;    0,111;   -0,227
421,937; 8128,411;    2,292;    1,409
422,527; 8079,967;    0,838;   -0,773
423,116; 7885,787;   -0,253;   -0,045
423,706; 8250,948;   -1,889;    0,318
424,296; 8258,492;    1,384;    0,682
424,885; 8669,492;   -0,071;   -3,045
425,475; 8930,048;    1,474;   -2,864
426,065; 8825,805;   -0,980;   -0,318
426,654; 8473,442;   -0,435;   -0,318
427,244; 8565,355;    0,020;    1,409
427,833; 8038,168;    1,383;   -0,500
428,423; 8534,949;   -0,526;    1,136
429,012; 9269,333;   -0,344;   -1,136
429,601; 8760,102;   -1,344;    0,136
430,191; 8978,294;    1,292;    4,318
430,780; 8623,011;   -0,344;   -0,409
431,369; 8543,557;    0,746;   -0,045
431,959; 9194,773;   -1,254;    0,500
432,548; 8988,624;   -1,163;   -0,045
433,137; 9114,088;   -1,254;   -1,318
433,726; 9614,445;    0,292;    0,500
434,315; 9009,694;   -0,526;    2,409
434,905; 9117,845;   -1,254;    1,409
435,494; 8992,952;    0,746;    0,955
436,083; 9472,781;   -0,981;   -0,955
436,672; 9345,609;    0,110;    0,500
437,261; 8913,049;    0,292;   -1,955
437,850; 9034,193;    1,383;    0,682
438,439; 8995,282;    3,291;    1,955
439,027; 8852,379;    3,655;    1,773
439,616; 9202,788;    2,927;    1,227
440,205; 9056,379;    0,200;   -2,136
440,794; 9158,064;    2,109;   -0,045
441,383; 9397,689;   -1,346;   -0,591
441,971; 9287,595;   -2,436;    0,591
442,560; 9113,462;    0,563;   -1,773
443,149; 8846,980;    0,379;   -1,318
443,737; 9036,914;   -0,074;   -2,318
444,326; 9280,646;    0,018;    0,318
444,915; 9325,309;   -1,982;    0,864
445,503; 9696,392;   -2,891;   -0,318
446,092; 8989,671;    0,382;    2,136
446,680; 9529,773;    0,382;    0,318
447,269; 9699,840;   -0,346;   -0,318
447,857; 9491,674;    0,018;   -1,773
448,445; 9616,982;    0,563;    1,318
449,034; 9821,917;   -1,528;   -1,136
449,622; 9952,373;   -1,073;    3,500
450,210; 9178,951;    2,017;    2,227
450,799; 9705,774;    0,290;   -0,591
451,387; 9677,993;    1,381;   -0,591
451,975; 9311,621;    2,654;    0,864
452,563; 9424,486;    3,472;    2,318
453,151; 9501,053;   -0,528;   -1,227
453,739; 9383,508;   -1,347;    0,136
454,328; 9232,195;    2,381;   -2,136
454,916; 8996,056;    2,562;   -0,136
455,504; 9167,621;    1,017;    1,227
456,092; 9343,096;    0,017;   -1,591
456,679; 9339,158;    1,472;    0,682
457,267; 9220,446;    4,017;    1,045
457,855; 9397,152;    1,017;    1,409
458,443; 9209,352;   -0,165;    1,682
459,031; 9300,977;    0,108;    2,409
459,619; 9771,482;   -1,801;    2,864
460,206; 9902,338;    0,835;    2,045
460,794; 9967,288;   -2,983;   -0,227
461,382;10198,160;   -0,529;   -0,864
461,970; 9787,644;    1,198;    1,864
462,557; 9842,946;   -0,711;   -0,682
463,145; 9997,089;   -3,165;   -1,682
463,732;10151,658;    2,016;   -1,045
464,320;10116,980;   -0,075;   -3,045
464,907; 9786,488;    2,743;   -0,773
465,495; 9651,130;    0,743;   -1,227
466,082; 9819,554;   -1,984;   -0,045
466,670; 9724,738;   -2,529;    1,227
467,257;10139,382;   -1,711;    2,045
467,844;10286,420;   -0,075;    0,045
468,432;10323,817;    0,834;    3,500
469,019; 9842,535;    0,925;   -1,773
469,606;10300,947;    0,470;    3,682
470,193;10127,489;   -1,439;    0,227
470,780; 9692,527;   -2,075;    0,864
471,368;10073,572;   -1,257;   -0,773
471,955; 9843,019;    1,379;   -0,682
472,542; 9487,615;    0,652;   -1,136
473,129; 9737,993;   -0,166;    0,136
473,716; 9470,957;    1,470;    0,591
474,303; 9690,595;    0,652;   -0,864
474,890; 9969,207;   -1,439;   -0,500
475,477; 9964,368;   -1,621;    0,409
476,064; 9872,572;    1,106;   -1,591
476,650; 9801,552;    0,288;    0,318
477,237; 9673,098;   -0,258;    0,955
477,824; 9815,951;   -1,076;    0,864
478,411; 9843,312;   -1,894;   -0,318
478,997;10044,147;    0,560;   -0,773
479,584;10115,685;    1,196;   -0,409
480,171;10804,312;   -0,440;   -0,773
480,757;10475,727;    2,651;    0,773
481,344;10776,647;    0,469;    0,409
481,931;10291,496;    1,105;    1,045
482,517;11223,925;   -1,258;    0,318
483,104;11746,291;    1,106;    2,864
483,690;12044,202;   -1,804;    0,045
484,276;12443,431;   -0,895;    0,227
484,863;12171,785;    2,469;    1,136
485,449;12786,990;   -0,077;    0,318
486,035;12804,933;   -1,986;   -0,136
486,622;13216,917;   -0,895;    0,045
487,208;13146,624;    1,378;    1,500
487,794;13029,942;    0,741;    0,318
488,380;13144,403;    0,105;   -1,409
488,967;13208,614;   -1,168;   -0,409
489,553;13238,178;   -1,895;   -1,409
490,139;13398,603;    1,559;    0,773
490,725;12870,335;    0,741;   -0,227
491,311;12464,664;    3,287;    3,045
491,897;11840,030;   -0,986;    1,500
492,483;11652,248;    0,105;    1,227
493,069;11399,366;    3,923;    0,864
493,655;11399,865;    1,650;    0,682
494,241;11344,649;    1,377;   -0,955
494,826;11692,904;    0,287;   -1,045
495,412;11149,480;    2,559;   -0,682
495,998;11344,065;   -0,805;   -0,318
496,584;11483,267;    0,377;    1,045
497,169;11448,609;    1,014;   -0,682
497,755;11420,696;    0,650;    1,227
498,341;11969,881;    0,559;    0,318
498,926;11523,499;    1,832;    1,955
499,512;11730,044;    1,286;    2,955
500,097;11812,200;    0,195;   -0,318
500,683;11805,372;   -0,350;    2,136
501,268;12186,495;   -0,169;   -0,955
501,854;11878,565;   -0,169;    1,227
502,439;11804,313;   -0,624;   -1,773
503,024;12024,177;    0,195;    0,500
503,610;12072,932;   -0,078;   -0,682
504,195;12067,698;    0,558;    1,955
504,780;12160,498;    2,922;    1,227
505,366;12037,948;    3,013;    2,864
505,951;11790,574;    0,740;    1,045
506,536;11801,691;   -3,260;   -3,682
507,121;11795,713;    0,285;   -0,318
507,706;12324,988;    2,376;    1,045
508,291;12693,393;    2,649;    1,136
508,876;12175,102;   -0,988;    2,591
509,461;11621,359;   -0,169;   -0,773
510,046;12010,932;    0,194;    0,318
510,631;12266,919;   -0,351;   -0,773
511,216;11946,263;    2,467;   -0,500
511,801;12304,299;   -0,442;    2,591
512,386;12599,076;    0,740;    0,500
512,971;12571,098;   -2,988;    0,955
513,555;12114,598;   -0,897;   -1,500
514,140;12897,361;   -0,442;   -3,136
514,725;12878,991;   -0,715;   -1,136
515,309;13004,987;   -0,533;    0,318
515,894;12479,410;   -0,624;   -2,227
516,479;12928,508;   -0,624;   -0,955
517,063;12756,865;    0,376;    1,227
517,648;12913,505;    1,012;   -1,136
518,232;12555,936;   -0,261;   -1,409
518,817;12902,452;   -0,079;    1,682
519,401;13145,236;    2,194;    0,591
519,985;12609,411;    1,103;    1,136
520,570;12497,001;    0,830;   -1,955
521,154;12771,890;    2,102;    0,591
521,738;12946,093;   -2,352;    2,409
522,323;13532,249;   -0,170;    1,682
522,907;13277,424;    0,466;   -0,136
523,491;12982,517;    0,557;    0,955
524,075;12940,034;    2,284;    0,591
524,659;13073,688;    1,466;    0,591
525,243;12512,085;    1,739;    0,409
525,827;12765,822;    0,648;   -0,045
526,411;13586,415;   -1,989;   -0,136
526,995;13805,937;   -0,352;    1,409
527,579;13389,693;   -0,443;   -1,045
528,163;13744,644;    0,375;   -1,500
528,747;13622,095;    2,466;   -0,773
529,331;13921,849;   -0,080;   -1,409
529,915;14147,858;    1,738;    0,955
530,499;14083,373;   -0,807;    1,227
531,082;13781,055;   -0,534;    1,591
531,666;13256,149;    1,374;    0,773
532,250;13899,521;    1,284;    2,682
532,833;14264,842;    0,920;    2,773
533,417;14132,965;   -1,807;    0,864
534,001;14097,828;    1,647;   -0,318
534,584;14791,602;    0,374;    0,500
535,168;14642,055;    0,465;    1,409
535,751;14663,726;    0,647;    0,045
536,334;14104,915;   -0,898;   -0,409
536,918;14691,489;    0,011;    1,591
537,501;14798,499;   -0,899;    1,318
538,085;14814,050;   -0,444;    1,045
538,668;14963,748;    0,829;    2,409
539,251;15262,446;    1,829;    3,773
539,834;15294,534;    0,101;    0,773
540,418;15189,313;   -1,990;    4,318
541,001;15311,368;   -0,990;    1,773
541,584;15322,918;    2,101;    2,227
542,167;14986,165;    1,374;    2,955
542,750;15123,112;    1,919;   -0,773
543,333;14727,742;    0,555;    2,136
543,916;15527,029;    0,192;    2,500
544,499;16158,733;   -1,354;    0,227
545,082;16113,978;    1,374;    3,591
545,665;16214,366;    1,919;    1,500
546,248;16604,924;    1,010;   -0,318
546,830;16283,890;   -0,445;    1,955
547,413;16668,240;    1,010;   -0,773
547,996;17161,311;    0,555;    0,500
548,579;16936,748;    0,919;    0,955
549,161;16756,628;    1,828;    2,682
549,744;16548,702;   -0,809;    0,409
550,326;17028,703;   -0,809;   -1,136
550,909;16809,047;    2,737;    0,591
551,492;17264,699;   -0,263;    0,227
552,074;17019,902;   -0,173;   -1,318
552,657;17551,145;    2,373;    0,045
553,239;17343,603;   -0,173;   -0,773
553,821;17280,406;   -1,082;    1,045
554,404;16787,841;    1,282;    1,136
554,986;17157,032;    0,464;    1,045
555,568;17734,672;    1,191;   -0,955
556,151;16943,188;    1,191;   -0,227
556,733;17146,210;   -0,264;   -0,864
557,315;17610,688;    0,100;    0,500
557,897;17399,018;    0,554;   -0,500
558,479;17540,505;   -1,991;    1,318
559,061;17678,801;   -0,719;   -0,864
559,643;18032,668;   -0,264;    0,045
560,225;18369,098;    1,645;    2,864
560,807;18363,032;    0,918;    0,318
561,389;17862,097;    0,554;    2,318
561,971;18575,762;    0,463;    2,136
562,553;18415,923;   -1,628;    1,591
563,135;18552,042;   -0,537;    1,136
563,717;18134,192;    3,372;    1,136
564,298;18832,867;    3,645;   -0,045
564,880;18581,233;    0,645;   -1,409
565,462;18732,778;    0,645;    1,318
566,043;19873,056;   -0,446;    2,318
566,625;19366,692;    1,918;    1,227
567,207;19208,433;    1,099;    1,682
567,788;20346,709;   -1,264;    1,500
568,370;21175,789;    1,917;   -0,500
568,951;20920,775;    0,190;    0,227
569,533;21794,163;   -0,628;   -0,500
570,114;22224,821;   -0,446;    0,682
570,695;22683,396;   -0,174;   -1,318
571,277;23150,587;   -0,265;   -1,682
571,858;23841,883;    2,008;   -1,136
572,439;24743,388;    1,554;   -1,045
573,021;24865,277;    2,099;   -2,773
573,602;25356,903;   -1,265;    0,318
574,183;26203,883;   -2,083;    2,227
574,764;26340,850;   -1,629;    0,409
575,345;26844,040;    0,917;   -0,136
575,926;27458,203;   -0,356;    0,136
576,507;27423,630;    1,099;   -0,227
577,088;28527,963;    3,099;    1,682
577,669;28544,583;    0,735;    1,955
578,250;29241,701;    0,644;   -1,045
578,831;29885,878;   -1,356;   -2,227
579,412;30122,736;   -0,810;    0,955
579,993;31086,162;    1,008;    0,227
580,573;31411,557;   -0,629;   -0,955
581,154;30406,251;    0,735;   -0,591
581,735;31170,552;    0,644;    0,773
582,315;30692,643;   -0,629;    2,136
582,896;30987,032;   -0,174;    1,227
583,477;30488,777;    0,189;    1,227
584,057;30682,404;    0,553;    0,955
584,638;30931,617;    2,553;    2,318
585,218;30968,675;   -0,538;    2,682
585,799;31111,700;    0,281;   -0,227
586,379;31146,145;    0,372;    1,591
586,959;29974,398;    0,735;    0,318
587,540;29329,511;   -0,629;    2,227
588,120;28918,199;    1,007;   -0,045
588,700;27924,849;    2,553;    2,136
589,281;28182,587;    0,462;   -0,955
589,861;28125,077;    0,099;   -1,682
590,441;27935,043;    2,371;   -2,682
591,021;26919,707;   -0,265;   -2,591
591,601;27143,079;   -0,537;    0,500
592,181;27218,106;   -0,719;   -0,773
592,761;26474,581;    0,007;    1,409
593,341;26417,276;   -0,901;    0,045
593,921;26443,932;   -0,265;    1,591
594,501;26305,520;   -0,538;    1,318
595,081;26149,870;    0,917;   -0,318
595,661;26496,212;   -1,447;    0,955
596,240;27038,382;   -0,537;    0,136
596,820;26656,580;    0,372;    1,955
597,400;26801,604;    2,008;    0,773
597,980;27016,043;    2,008;    1,045
598,559;27084,511;    2,735;   -0,227
599,139;26831,697;   -0,174;   -1,227
599,718;26712,788;   -0,174;   -0,409
600,298;27000,814;    0,735;    0,682
600,877;27175,682;    2,917;    1,409
601,457;27435,061;    2,281;    1,136
602,036;27316,533;    0,190;    2,045
602,616;27529,861;    0,644;    1,682
603,195;27912,243;   -0,355;    3,500
603,774;27376,035;   -0,901;    2,045
604,354;27298,733;    0,826;   -0,500
604,933;26810,349;    0,463;    1,864
605,512;26941,159;    3,554;    0,591
606,091;27007,661;   -0,537;    3,773
606,671;27816,395;    0,281;    0,773
607,250;26933,579;    1,644;    3,136
607,829;27174,288;    2,372;    3,227
608,408;27051,266;    1,190;    2,591
608,987;26109,060;    1,281;    3,409
609,566;26406,576;   -1,265;   -2,500
610,145;26455,124;   -1,082;    0,682
610,723;26910,975;    4,372;    6,864
611,302;26200,781;   -0,446;    1,682
611,881;25687,696;    5,008;   11,227
612,460;26560,213;    1,645;    3,955
613,039;26940,228;   -0,082;    2,045
613,617;25702,958;    1,736;    4,773
614,196;25902,425;    1,099;    1,227
614,775;26234,924;    1,009;    2,409
615,353;26176,521;    0,736;    0,864
615,932;25897,765;    0,100;    2,409
616,510;26439,377;    0,554;    0,591
617,089;26002,283;    7,100;   17,591
617,667;25758,130;    2,372;    6,136
618,246;25628,606;   -1,537;    1,318
618,824;25813,396;   -3,355;   -0,955
619,402;25409,579;   -2,900;   -1,773
619,981;25909,842;   -0,173;   -1,045
620,559;25719,986;    0,009;    1,682
621,137;25255,142;   -0,718;    1,864
621,715;25283,448;   -1,173;   -0,682
622,293;25219,293;   -0,537;   -0,773
622,871;25695,688;   -0,718;    0,500
623,450;25304,944;    0,373;   -0,864
624,028;25150,652;    0,191;   -0,955
624,606;24755,493;   -1,718;    1,682
625,183;25201,361;   -1,536;   -1,136
625,761;24826,815;    1,009;    1,136
626,339;25096,284;    1,373;    2,591
626,917;25534,071;   -0,172;   -0,045
627,495;25562,377;   -0,354;    1,318
628,073;24965,669;   -0,263;    2,864
628,650;24681,475;    0,100;    2,136
629,228;25095,608;    0,373;    4,409
629,806;24548,749;    2,282;    1,136
630,383;24827,524;    1,464;   -0,318
630,961;24641,598;    2,555;   -0,955
631,539;24350,764;    2,464;    0,227
632,116;23698,870;   11,373;   15,409
632,694;24244,980;    2,555;    6,500
633,271;24549,168;    0,828;    2,682
633,848;24464,269;    1,828;    2,045
634,426;24528,221;   -1,081;    1,773
635,003;23676,163;    1,101;   -0,409
635,580;23992,705;    1,192;    3,682
636,158;24532,514;    3,737;    1,227
636,735;24532,289;    0,555;   -0,500
637,312;24650,333;   -0,809;   -0,682
637,889;24726,823;   -4,354;   -0,682
638,466;24224,791;   -3,990;   -0,409
639,043;24256,073;    2,101;   -1,136
639,620;24584,496;   -2,262;   -0,955
640,197;24867,270;    1,100;    1,682
640,774;24976,954;   -0,172;    1,136
641,351;25415,274;    0,737;    1,136
641,928;24773,866;   -0,627;    1,409
642,505;24434,368;    0,828;   -0,500
643,082;24639,688;   -1,718;    1,227
643,658;23622,280;   -0,718;    1,500
644,235;24384,600;    1,191;    2,500
644,812;24697,920;    1,918;    0,773
645,388;24457,967;   -0,991;    1,409
645,965;24477,923;   -0,809;    1,682
646,542;24559,516;   -1,445;   -0,227
647,118;24551,290;    1,009;   -0,955
647,695;24852,065;   -0,263;    1,136
648,271;24742,294;   -0,536;    0,500
648,848;24992,977;    0,736;    2,227
649,424;24874,388;    0,827;    1,318
650,000;24642,617;   -0,354;   -1,045
650,577;24492,300;   -0,627;   -0,955
651,153;24906,347;   -1,809;    0,955
651,729;25943,395;    1,191;    0,864
652,305;26057,805;    0,645;    2,773
652,881;29967,671;   -0,082;    1,136
653,458;36447,445;    1,100;    0,227
654,034;40339,129;    0,282;    1,591
654,610;41848,994;    0,554;    0,773
655,186;43161,496;    0,645;    3,045
655,762;42838,361;   -0,991;    0,409
656,338;42900,863;    0,100;    0,136
656,913;43866,546;   -0,082;    0,409
657,489;43158,229;    0,827;   -0,318
658,065;43111,549;   -0,173;   -1,591
658,641;43811,415;   -0,900;   -0,864
659,217;43172,007;   -0,991;    0,409
659,792;42487,873;    0,645;   -0,409
660,368;42754,283;   -2,173;   -0,682
660,944;42579,149;   -2,082;    1,227
661,519;38491,105;   -0,628;    0,409
662,095;32846,879;   -1,719;    0,591
662,670;28192,654;    1,281;   -0,136
663,246;26962,973;    1,009;   -0,409
663,821;26222,111;    0,281;    1,682
664,396;25674,613;    0,009;    1,864
664,972;25945,115;    0,009;   -0,500
665,547;26253,526;    1,372;    0,136
666,122;26292,209;   -1,082;    0,318
666,698;26588,256;   -0,173;    0,318
667,273;25900,485;   -0,173;    0,136
667,848;26700,259;    2,372;    1,500
668,423;26532,488;    2,190;    2,318
668,998;27048,172;    2,827;   -0,682
669,573;27569,128;   -3,264;   -1,500
670,148;27383,993;   -1,446;   -0,682
670,723;27204,404;   -1,810;    0,318
671,298;27559,451;    2,372;    1,045
671,873;27695,953;   -0,082;   -0,136
672,448;27667,182;    0,645;    0,136
673,023;28016,593;   -1,992;   -0,227
673,597;28323,549;    0,827;    2,318
674,172;28100,051;   -0,355;    0,318
674,747;27622,007;    0,372;   -1,045
675,321;27468,236;   -0,628;    3,318
675,896;27028,737;    0,645;    1,045
676,471;28008,512;    2,645;    1,591
677,045;27817,377;   -1,264;    0,682
677,620;27858,606;    0,190;    1,136
678,194;28191,471;   -2,628;    1,136
678,769;27768,609;   -1,083;   -0,318
679,343;27977,656;   -0,628;    1,773
679,917;27833,067;   -1,446;    1,955
680,492;27890,023;    0,826;    3,227
681,066;28038,252;    3,372;    0,409
681,640;28060,754;    1,463;   -0,318
682,214;28879,892;    0,735;    0,500
682,788;28407,848;   -1,356;   -0,773
683,363;28342,623;   -1,810;    1,682
683,937;28053,306;   -1,719;   -0,318
684,511;28788,171;    0,463;   -0,591
685,085;28485,400;   -1,356;    0,318
685,659;28282,629;   -2,538;    0,864
686,232;28526,949;   -0,356;   -0,318
686,806;28258,360;   -0,901;    0,409
687,380;28939,316;   -0,174;    0,591
687,954;29146,454;   -1,174;    1,136
688,528;28789,229;   -0,719;    1,955
689,101;29606,185;   -3,992;    1,045
689,675;29188,777;   -0,356;   -0,136
690,249;28584,097;   -0,719;    0,409
690,822;28892,781;    0,280;    0,318
691,396;28965,555;   -0,265;    1,227
691,969;28392,420;    1,280;    0,136
692,543;28937,831;   -0,447;   -1,955
693,116;28595,151;   -0,265;   -1,409
693,690;28452,289;    0,099;    0,500
694,263;28983,882;   -1,083;    2,955
694,836;28965,292;    1,371;    3,591
695,410;27605,158;   -0,265;    1,773
695,983;28069,750;    0,189;    0,591
696,556;28078,797;   -0,447;   -1,045
697,129;28453,208;   -0,356;    1,409
697,703;28131,801;   -1,629;    1,955
698,276;28138,302;    1,462;   -0,773
698,849;27953,168;    1,280;    1,409
699,422;28295,124;   -1,083;    0,591
699,995;28078,262;    0,007;    0,136
700,568;28536,491;   -0,629;    3,045
701,140;28503,993;   -2,811;    1,682
701,713;28222,312;   -0,174;    2,409
702,286;28021,178;   -0,538;    0,864
702,859;27906,043;   -0,902;   -0,591
703,432;27069,090;    0,825;    0,682
704,004;27569,137;    0,462;    0,318
704,577;27444,366;   -0,629;    0,136
705,150;28007,595;    0,189;    2,500
705,722;27815,097;   -0,356;   -3,227
706,295;27559,871;   -0,175;   -0,591
706,867;27392,827;   -0,175;    1,955
707,440;27624,238;   -1,720;   -0,409
708,012;27902,013;    0,462;    0,591
708,584;27786,242;    2,462;    0,227
709,157;28077,107;    1,825;   -0,591
709,729;27725,881;    2,280;    2,045
710,301;28586,747;    0,734;    0,045
710,874;28551,975;   -1,447;   -0,227
711,446;27424,023;    0,371;    0,864
712,018;27347,979;    0,098;    0,500
712,590;27111,935;   -1,993;    1,682
713,162;27633,891;    0,825;    1,318
713,734;27907,847;    1,825;   -2,045
714,306;27806,622;   -1,902;   -0,409
714,878;26510,578;    0,825;    0,864
715,450;27301,443;    0,643;    0,864
716,022;27549,581;    1,552;    1,318
716,593;27686,810;    0,189;    0,591
717,165;27706,948;   -3,175;   -1,227
717,737;27373,723;    0,280;    0,409
718,309;27034,406;    0,280;   -0,045
718,880;26973,817;   -0,539;   -1,409
719,452;27237,410;   -0,175;   -1,591
720,024;26783,093;    0,734;   -0,591
720,595;27376,413;   -2,902;    0,955
721,167;26899,096;    0,370;   -2,045
721,738;26419,871;   -0,812;   -1,045
722,309;26350,100;   -0,993;   -1,227
722,881;26209,147;   -1,357;    0,773
723,452;26839,376;   -2,630;    2,864
724,023;26979,059;   -0,721;    2,682
724,595;26742,743;    0,007;    0,682
725,166;26512,063;    0,007;   -0,409
725,737;26193,382;    1,734;    0,227
726,308;26276,157;   -0,266;    0,318
726,879;26707,113;   -1,630;    1,227
727,450;26516,251;    0,552;   -0,045
728,021;26540,389;    3,097;    0,682
728,592;26362,618;    0,734;    0,500
729,163;26654,029;    0,643;   -0,136
729,734;26683,440;    0,188;   -0,227
730,305;27035,214;    1,734;    0,136
730,876;27346,988;    0,188;    2,955
731,447;26994,308;    2,188;    2,682
732,017;27140,173;    1,097;    1,864
732,588;26657,584;    0,734;    1,227
733,159;26785,631;    0,643;   -1,045
733,729;26633,497;    0,006;    0,409
734,300;25937,544;    0,915;    0,864
734,870;26347,955;    3,461;    0,591
735,441;26931,547;    0,370;   -0,591
736,011;26708,412;    0,643;   -1,591
736,582;26621,369;   -0,812;    0,045
737,152;26116,598;   -1,721;   -2,045
737,722;26550,190;   -0,267;   -0,682
738,293;26225,510;   -1,358;    1,318
738,863;26155,284;    2,461;    2,318
739,433;25930,786;    5,279;    0,318
740,003;26578,106;   -0,994;   -0,682
740,573;25997,880;    2,097;   -1,591
741,143;25976,291;   -1,085;    0,318
741,713;26749,338;    1,188;   -0,500
742,283;26455,022;    0,915;    1,591
742,853;26260,796;    1,915;    1,591
743,423;25712,298;    1,733;    0,045
743,993;25853,436;   -0,358;    1,500
744,563;25239,847;    0,097;   -0,864
745,133;25201,803;   -0,812;   -0,864
745,702;25877,486;   -0,267;    1,773
746,272;25100,897;   -0,176;    0,591
746,842;24869,853;   -1,358;   -0,591
747,411;25309,991;   -0,267;   -0,318
747,981;25491,220;    0,097;    0,500
748,551;25503,540;    2,278;   -1,045
749,120;25366,224;    0,642;   -0,227
749,690;25723,543;   -0,631;    2,409
750,259;26028,227;    1,369;    2,955
750,828;25935,456;    1,551;   -1,955
751,398;26222,685;    1,278;   -0,045
751,967;25678,732;    2,187;    0,409
752,536;25924,961;   -0,813;   -0,227
753,105;26343,372;    0,096;    0,227
753,675;26192,964;    0,096;    1,773
754,244;26128,557;   -0,904;    3,591
754,813;26145,967;    0,551;    1,227
755,382;25711,015;    0,460;    0,955
755,951;26206,607;    1,551;    3,682
756,520;25805,291;   -0,085;    1,864
757,089;26366,065;    0,278;    0,500
757,658;26468,385;    1,733;    1,227
758,227;26501,250;    1,096;    0,318
758,795;26788,115;    1,187;    1,136
759,364;27049,254;   -0,086;   -0,591
759,933;26093,028;   -1,176;   -0,045
760,501;25637,075;    0,733;   -1,318
761,070;26072,940;   -2,813;   -1,409
761,639;26784,715;   -1,904;    1,318
762,207;26056,035;    1,551;   -0,955
762,776;26026,627;    0,369;    0,864
763,344;26010,765;   -0,995;    0,591
763,913;25172,085;   -0,722;    1,409
764,481;25822,678;    1,005;   -0,136
765,049;25628,270;   -1,358;    1,409
765,618;25572,408;   -0,086;    0,318
766,186;25641,092;    0,278;    0,136
766,754;25761,502;    0,005;    1,864
767,322;24827,368;   -1,995;    0,409
767,890;24872,324;   -0,722;   -1,773
768,459;25232,462;   -2,177;   -0,318
769,027;25437,873;    1,641;    3,409
769,595;24412,465;    3,278;    2,591
770,163;24811,240;    3,823;    2,955
770,730;24609,923;    0,732;   -0,136
771,298;24490,152;    0,187;   -1,409
771,866;24560,836;   -1,541;    4,955
772,434;24905,246;   -0,631;   -1,864
773,002;25063,203;    0,005;    0,682
773,569;24689,795;    0,914;    1,682
774,137;24536,661;   -0,268;   -0,045
774,705;25370,526;    0,278;   -0,136
775,272;24824,118;    0,641;    0,682
775,840;24580,893;   -0,177;    2,682
776,407;24140,576;    0,277;    1,955
776,975;23731,260;   -0,632;    0,318
777,542;24713,034;   -1,086;   -0,045
778,110;24530,081;   -1,268;   -0,045
778,677;24229,674;   -2,359;   -0,864
779,244;23973,630;    2,186;    1,045
779,812;24142,223;    1,823;    0,864
780,379;24003,724;    0,005;    1,136
780,946;24240,953;    1,005;   -0,773
781,513;24602,273;   -1,450;    0,318
782,080;23974,957;   -0,086;    2,864
782,647;24690,913;   -0,268;    3,045
783,214;24267,051;   -0,177;    3,864
783,781;23850,189;   -0,723;   -0,682
784,348;23731,872;   -0,632;    1,500
784,915;24234,192;   -3,177;    0,318
785,482;23949,148;    1,368;    2,591
786,049;24431,105;    0,186;   -0,591
786,615;24538,879;    0,277;   -0,955
787,182;24261,926;    0,186;   -0,682
787,749;23991,791;   -2,814;    1,409
788,315;23301,929;   -1,632;   -0,409
788,882;23606,158;    1,550;   -1,227
789,448;24217,933;    1,732;   -0,955
790,015;24306,434;    1,095;    3,227
790,581;23849,845;    1,459;    0,227
791,148;23727,529;    0,641;    1,045
791,714;24011,485;   -0,541;    3,136
792,280;23674,441;    0,186;    1,591
792,847;23235,034;    0,550;    2,500
793,413;23813,263;   -0,269;   -0,318
793,979;23336,492;    3,459;   -1,318
794,545;23385,084;    4,459;    2,682
795,111;22778,495;    2,186;    1,318
795,678;23019,088;    0,731;   -1,682
796,244;22708,771;    3,368;    0,136
796,810;23209,818;    1,731;    0,773
797,375;22907,229;    0,549;   -2,136
797,941;22952,549;   -0,541;    0,591
798,507;23118,505;   -0,451;   -0,955
799,073;22680,188;   -0,360;    0,591
799,639;22725,236;   -2,632;    3,136
800,205;22796,192;    0,095;    2,682
800,770;22333,966;    0,640;    1,773
801,336;22405,286;    1,368;   -0,955
801,901;22039,606;    4,549;    3,136
802,467;22675,653;   -0,542;    2,045
803,033;22015,427;   -0,087;    0,864
803,598;22232,838;    1,913;   -1,045
804,163;22240,976;    1,095;   -0,318
804,729;22245,751;   -0,178;    1,136
805,294;22650,434;    0,822;    2,227
805,859;22417,572;    0,731;   -0,409
806,425;21902,437;    1,186;    2,682
806,990;21539,030;    2,186;    4,318
807,555;22010,895;   -1,451;    2,591
808,120;21931,942;    0,822;   -0,409
808,685;22025,535;    0,185;   -2,500
809,250;21480,582;    0,004;   -0,500
809,815;21796,356;    1,913;    0,682
810,380;22376,676;   -0,269;    1,591
810,945;22866,269;   -1,087;    2,045
811,510;22021,861;    2,094;    1,591
812,075;21748,272;   -0,633;   -1,409
812,640;21779,319;    2,003;    1,409
813,204;21859,821;    0,822;   -0,227
813,769;22354,504;    2,094;   -0,045
814,334;21729,006;    0,458;    0,864
814,898;21813,326;    0,367;    0,591
815,463;21707,828;    1,276;   -0,773
816,027;21645,420;   -0,724;   -2,318
816,592;21700,195;    0,640;   -2,045
817,156;21200,424;    2,094;    1,136
817,721;21117,743;    4,276;    2,318
818,285;21071,154;    2,912;    1,500
818,849;21715,747;   -1,451;    1,682
819,414;21616,158;   -0,269;    2,955
819,978;21196,659;   -1,269;    1,773
820,542;21751,252;    2,003;    0,500
821,106;21497,208;   -0,815;    0,682
821,670;21620,801;   -0,815;    2,591
822,234;21320,393;   -0,270;    1,409
822,798;20725,986;    0,003;    0,500
823,362;20636,942;   -0,633;    4,227
823,926;19967,444;    0,094;    1,136
824,490;20185,582;   -0,997;   -0,682
825,054;20647,265;   -0,088;   -1,136
825,618;20293,130;   -1,542;   -1,500
826,181;20255,268;    0,458;   -1,318
826,745;20131,497;    1,367;   -1,045
827,309;20465,454;    1,185;    1,318
827,872;19895,319;    1,367;    0,955
828,436;20876,002;    1,185;   -0,773
828,999;20957,050;   -0,997;    1,227
829,563;19791,278;   -0,179;    1,136
830,126;19564,326;   -0,179;   -0,591
830,690;19546,827;   -1,997;    2,864
831,253;19094,602;   -0,543;    2,227
831,816;19226,012;   -1,906;    0,500
832,380;19160,423;    0,185;    0,864
832,943;19379,107;   -1,361;   -0,500
833,506;18850,336;    2,639;   -1,227
834,069;19641,655;    3,912;   -0,955
834,632;19692,157;    1,730;    1,318
835,195;19561,659;    1,003;    0,955
835,758;18846,160;   -0,997;    1,955
836,321;18703,480;    0,730;   -1,045
836,884;18774,527;   -0,725;   -0,955
837,447;18795,938;   -2,816;    1,773
838,010;19089,894;    0,366;    3,227
838,573;19359,487;   -1,179;    0,773
839,135;19305,352;   -1,361;   -0,955
839,698;18806,854;    1,275;    0,409
840,261;18332,719;    1,003;   -0,227
840,823;18149,675;   -0,543;    0,864
841,386;18479,904;   -0,452;   -2,409
841,948;18332,315;   -1,361;    1,773
842,511;18045,180;    0,912;    1,682
843,073;18213,137;    1,912;    0,227
843,636;18016,184;   -0,361;   -0,227
844,198;17933,504;    0,911;    0,591
844,760;18085,005;    1,093;    1,955
845,322;17744,052;    0,548;    1,136
845,885;18178,100;    0,730;    0,591
846,447;18595,510;   -1,998;    0,227
847,009;18159,285;    1,911;   -0,682
847,571;18478,514;    0,820;   -2,045
848,133;18590,561;   -1,089;   -1,864
848,695;18377,881;   -0,543;    1,409
849,257;17954,746;   -1,089;   -1,682
849,819;18133,157;   -0,998;   -0,409
850,381;18178,749;   -0,725;   -0,864
850,942;18514,796;    1,093;   -0,591
851,504;18476,207;    1,184;    0,227
852,066;18527,982;    1,275;   -1,591
852,628;18070,574;   -0,180;    1,955
853,189;17626,348;    1,638;    2,682
853,751;17773,487;   -0,907;    1,409
854,312;17558,079;   -0,453;   -1,682
854,874;18049,490;   -2,089;   -0,773
855,435;18574,537;   -0,907;   -1,682
855,997;18739,948;   -1,816;   -0,136
856,558;18038,995;    0,366;    1,773
857,119;18131,860;    0,820;    2,864
857,681;17852,544;    0,002;    0,318
858,242;17868,954;    1,911;   -2,136
858,803;18288,638;    0,456;   -0,773
859,364;18899,594;    0,184;   -4,773
859,925;18232,096;   -2,453;   -0,955
860,486;18112,143;   -0,453;   -0,955
861,047;17805,008;   -0,544;   -1,227
861,608;17666,510;   -1,089;   -0,773
862,169;17818,284;    0,638;   -0,045
862,730;17571,968;    0,456;    1,409
863,291;17794,742;   -0,635;   -0,500
863,852;18148,153;   -0,635;    1,955
864,412;17650,109;   -0,271;   -0,864
864,973;16245,520;   -0,089;    0,500
865,534;16088,931;   -1,726;    0,227
866,094;17600,432;    1,820;    0,227
866,655;17284,388;    1,274;    3,318
867,215;17525,708;    0,274;    0,136
867,776;17348,028;    0,547;   -0,136
868,336;17457,530;   -1,453;    0,136
868,897;16952,213;    2,638;    1,682
869,457;16667,624;    1,365;    0,318
870,017;16925,671;    0,547;   -1,227
870,578;17406,900;   -0,817;    0,773
871,138;17126,947;   -2,089;   -0,955
871,698;16666,540;   -0,817;   -1,318
872,258;16542,042;   -0,453;   -2,864
872,818;16916,089;    2,729;    0,045
873,378;16895,136;    0,638;    1,045
873,938;16444,637;    0,547;    0,500
874,498;16787,048;    0,274;   -1,955
875,058;16646,004;    2,183;    1,773
875,618;16474,415;    1,910;   -2,682
876,177;16439,099;    1,274;    0,136
876,737;16080,873;   -0,090;    1,955
877,297;16065,738;    0,183;    1,955
877,856;16073,876;   -0,362;    0,318
878,416;15996,378;    1,183;   -0,136
878,976;16252,607;   -1,817;    0,409
879,535;16470,836;    0,092;    3,136
880,095;16158,974;   -0,544;    0,045
880,654;16291,839;   -1,090;    1,318
881,213;16371,523;    2,456;    1,500
881,773;15992,388;    2,637;    2,682
882,332;16329,617;    3,365;    5,136
882,891;16194,391;    3,092;    2,136
883,451;16649,166;   -1,272;    1,682
884,010;16152,304;   -2,908;   -0,409
884,569;16230,896;   -0,999;   -0,045
885,128;16358,489;    2,819;   -1,864
885,687;16390,718;    4,455;    0,682
886,246;16107,310;    1,455;    2,136
886,805;15876,267;    2,455;    2,045
887,364;16194,405;   -0,999;   -0,500
887,922;16552,179;   -1,181;    0,045
888,481;16021,408;   -1,545;    0,591
889,040;16325,728;    1,183;    2,136
889,599;16994,411;    2,455;    1,409
890,157;17075,368;    1,455;    2,409
890,716;16741,960;   -0,090;    0,227
891,274;16569,916;    0,092;   -1,136
891,833;16980,418;    1,546;    0,864
892,391;16856,283;   -0,454;    0,500
892,950;16929,421;    1,819;   -0,773
893,508;17322,014;    0,455;   -0,409
894,067;16641,788;    0,637;    0,136
894,625;16555,563;   -0,636;   -1,500
895,183;16787,883;   -0,363;   -0,682
895,741;16649,930;    1,728;   -1,773
896,299;16486,159;   -0,545;   -2,409
896,858;16698,751;    0,819;   -1,591
897,416;16817,435;    2,728;   -1,318
897,974;16567,573;    1,819;    0,318
898,532;16706,165;    6,091;    2,682
899,089;16636,758;    2,091;   -0,682
899,647;16678,623;   -1,454;    1,318
900,205;16420,125;    1,182;    1,045
900,763;16615,445;   -0,454;    0,227
901,321;16644,219;    2,364;   -1,409
901,878;16061,175;   -1,000;   -0,773
902,436;15971,950;   -1,363;    1,318
902,994;16317,088;    4,728;    3,682
903,551;15789,680;    0,728;    0,409
904,109;16159,637;    0,182;   -1,409
904,666;15748,502;    2,455;    1,045
905,224;15588,913;    0,182;   -0,409
905,781;15328,778;    0,727;   -0,318
906,338;15422,552;   -1,363;    1,045
906,895;15352,599;    0,637;    2,045
907,453;15291,101;    1,727;    1,136
908,010;15310,421;   -0,909;    0,409
908,567;14955,559;    1,273;    0,591
909,124;14531,061;    0,364;   -1,500
909,681;14571,562;   -2,909;    0,682
910,238;14712,973;    0,636;   -1,318
910,795;15033,475;   -0,273;   -1,136
911,352;14701,020;   -2,909;   -2,682
911,909;14104,384;   -1,364;   -0,864
912,466;14600,838;   -3,182;    1,500
913,022;14149,111;   -1,636;    0,500
913,579;14483,566;   -0,909;    2,045
914,136;14192,838;    1,636;    0,955
914,692;14511,838;    0,091;   -1,227
915,249;14116,838;    1,455;    0,409
915,806;14334,929;    0,182;    1,955
916,362;14091,657;    1,909;    1,864
916,918;13668,929;    2,000;    1,045
917,475;13654,111;   -1,182;    0,955
918,031;13729,202;    3,364;   -0,045
918,587;13179,657;   -0,909;   -0,318
919,144;13436,566;   -2,273;    0,227
919,700;13727,384;    1,727;    0,773
920,256;13260,566;    0,727;    0,045
920,812;12921,475;   -0,727;   -1,045
921,368;12926,475;   -1,727;   -1,045
921,924;12579,293;    0,182;   -0,136
922,480;12189,566;   -0,545;    1,227
923,036;12790,020;    1,273;    1,955
923,592;12705,929;    0,455;    0,318
924,148;12629,566;    0,455;   -0,955
924,704;11939,566;   -1,364;   -0,409
925,259;12220,657;   -0,273;    0,591
925,815;11993,293;    1,455;    0,500
926,371;11517,111;    2,909;    1,409
926,926;11368,111;    2,091;    0,591
927,482;11010,111;   -1,364;    0,773
928,037;10933,202;    0,909;    2,045
928,593;11211,747;    1,636;    1,045
929,148;11054,566;   -1,818;   -1,500
929,704;10539,293;   -1,455;   -0,500
930,259;10751,838;    0,091;   -0,136
930,814; 9847,111;   -0,818;    1,955
931,369; 9531,020;    1,091;   -0,773
931,925; 9405,747;   -0,091;    0,136
932,480; 9322,657;   -2,818;   -2,591
933,035; 9207,929;    0,545;   -0,318
933,590; 9001,929;    0,364;   -1,773
934,145; 8676,384;   -1,364;   -0,318
934,700; 9011,657;    0,455;   -0,591
935,255; 8789,475;   -0,091;    0,045
935,809; 8078,475;    3,182;    0,864
936,364; 7260,747;   -0,455;   -0,136
936,919; 7212,020;    0,455;   -1,773
937,474; 7097,929;    1,455;    0,136
938,028; 6875,020;   -1,636;    1,136
938,583; 6364,566;    1,818;    4,682
939,138; 6662,838;    2,091;    2,136
939,692; 6113,111;    1,636;   -1,136
940,247; 5813,202;   -0,727;   -1,045
940,801; 5363,929;   -0,636;    0,227
941,355; 5293,838;   -0,364;    2,591
941,910; 4940,657;   -0,273;   -2,136
942,464; 5023,747;   -0,818;   -0,318
943,018; 4834,293;    1,000;   -0,227
943,572; 4785,838;    2,545;   -0,682
944,126; 4214,111;    0,091;   -0,409
944,681; 4108,566;    3,091;    0,227
945,235; 4090,838;    1,000;   -0,591
945,789; 4034,657;    0,364;   -1,864
946,342; 4105,020;    0,455;   -0,591
946,896; 3933,838;   -2,273;    0,955
947,450; 3709,293;    1,545;   -0,227
948,004; 3898,929;    1,727;   -0,045
948,558; 3894,747;    0,273;   -0,864
949,111; 3811,384;   -0,273;   -0,318
949,665; 3832,475;    1,636;   -0,682
950,219; 3724,020;   -0,091;   -1,045
950,772; 3818,475;   -1,909;    1,864
951,326; 3711,838;    0,545;   -0,955
951,879; 3823,202;    0,727;   -2,318
952,433; 3840,020;    0,000;    2,227
952,986; 3672,838;    2,909;    0,682
953,539; 3635,475;   -0,273;    0,591
954,093; 3575,111;    0,545;   -1,318
954,646; 3715,020;    0,909;    1,318
955,199; 3508,111;    0,000;   -0,500
955,752; 3401,020;   -0,455;    1,773
956,305; 3357,384;   -0,091;    2,955
956,858; 3501,475;    0,818;   -0,318
957,411; 3670,111;   -0,545;    2,136
957,964; 3507,475;    1,364;    2,136
958,517; 3520,475;   -1,545;    3,136
959,070; 3351,747;   -0,455;    1,955
959,623; 3413,020;    1,091;    1,500
960,176; 3199,202;    1,727;    2,045
960,728; 3183,475;   -2,727;    0,773
961,281; 3243,202;    0,545;    0,500
961,834; 3296,475;   -0,909;    0,864
962,386; 3197,384;    1,727;    1,045
962,939; 3119,202;    0,364;   -0,318
963,491; 3259,475;    0,455;    1,136
964,043; 3144,657;    1,182;    2,409
964,596; 3257,293;   -1,000;    2,227
965,148; 3092,566;   -1,000;    1,773
965,700; 3022,747;    1,091;   -0,227
966,253; 3163,020;   -0,636;    0,318
966,805; 3011,838;   -2,273;    0,773
967,357; 3062,747;    1,091;   -1,500
967,909; 3024,384;    0,455;   -1,227
968,461; 3134,020;    0,545;    3,136
969,013; 3070,566;   -0,182;   -0,864
969,565; 3133,657;   -0,455;   -1,136
970,117; 3203,293;   -0,364;    1,045
970,669; 3040,838;    0,182;   -0,136
971,220; 2921,838;   -0,455;   -1,500
971,772; 2823,747;   -0,636;   -0,318
972,324; 2949,657;    0,091;   -0,500
972,876; 2896,566;    0,818;   -0,045
973,427; 3036,111;    1,909;   -1,045
973,979; 3005,838;   -0,727;   -2,500
974,530; 3041,747;    1,818;    1,318
975,082; 3042,747;   -0,545;    1,682
975,633; 2940,111;    1,091;    1,682
976,184; 3087,929;    0,909;    0,773
976,736; 2878,293;    0,091;    0,227
977,287; 2699,020;   -0,909;   -0,500
977,838; 2880,020;    0,909;   -0,318
978,389; 2933,566;   -1,000;   -0,500
978,940; 2793,566;    0,545;   -0,409
979,491; 2835,747;    0,091;   -0,500
980,042; 2786,747;    0,182;    3,045
980,593; 2848,566;   -2,545;    0,227
981,144; 2896,020;    2,545;   -0,500
981,695; 2864,566;    1,455;    1,500
982,246; 2816,657;   -0,273;    1,045
982,797; 2960,475;   -1,727;    0,682
983,347; 3075,384;    0,364;    0,591
983,898; 3224,747;    3,091;    0,409
984,449; 3063,566;    2,182;    0,773
984,999; 2986,838;    1,455;   -1,136
985,550; 2774,384;    0,182;   -0,318
986,100; 2806,020;   -0,455;   -0,318
986,651; 2832,475;   -0,818;    0,045
987,201; 2795,202;   -1,000;   -0,591
987,751; 2873,566;    0,818;    2,864
988,302; 2866,202;    2,636;    1,500
988,852; 2909,657;    0,455;   -1,136
989,402; 2952,747;    0,091;    0,682
989,952; 2869,747;   -2,182;    0,864
990,502; 2972,202;   -0,091;    0,682
991,052; 2947,475;   -0,727;    0,045
991,602; 2812,020;   -2,909;    1,318
992,152; 2792,657;    0,455;    0,682
992,702; 2771,384;    1,364;   -0,045
993,252; 2686,657;   -3,000;   -0,500
993,802; 2781,566;   -0,273;    1,318
994,352; 3027,293;   -1,545;    1,136
994,901; 3121,202;   -0,182;    3,227
995,451; 3034,929;   -0,182;    0,318
996,000; 3113,384;    1,636;    0,318
996,550; 2836,384;    2,273;    0,227
997,100; 2843,202;    1,273;   -0,045
997,649; 3111,202;    2,182;    0,955
998,198; 2764,111;    1,727;   -1,500
998,748; 2969,566;    1,091;   -2,318
999,297; 2869,293;   -0,818;   -0,409
999,846; 2917,929;    1,000;   -0,773
1000,395; 2972,475;   -0,818;    0,500
1000,945; 2925,929;    1,818;   -0,773
1001,494; 3014,929;    2,364;    0,682
1002,043; 2992,111;    4,636;    0,864
1002,592; 2836,657;   -1,091;    1,955
1003,141; 2985,293;   -0,455;   -0,682
1003,690; 2841,384;    1,727;    0,500
1004,238; 2923,929;    1,455;   -0,045
1004,787; 2579,293;    1,364;    1,227
1005,336; 2799,838;    0,364;    0,682
1005,885; 2935,111;    1,364;   -2,773
1006,433; 3067,020;    0,545;    0,955
1006,982; 3127,838;    0,455;    1,682
1007,531; 3033,384;   -1,818;   -0,227
1008,079; 2993,566;   -2,273;    0,500
1008,627; 3142,384;   -1,455;    0,409
1009,176; 2885,293;    0,000;   -1,955
1009,724; 2921,657;    1,091;    0,864
1010,273; 2987,929;    1,273;    0,500
1010,821; 3102,384;    0,091;    1,409
1011,369; 2821,020;   -1,364;    1,318
1011,917; 2823,657;   -1,364;   -0,591
1012,465; 3097,838;    1,273;   -1,591
1013,013; 3199,293;    2,091;   -1,682
1013,561; 3080,020;    0,455;   -0,773
1014,109; 3112,566;   -1,909;    1,682
1014,657; 3010,747;    0,364;    0,591
1015,205; 3131,202;    1,636;   -0,955
1015,753; 3172,020;   -0,545;   -1,409
1016,301; 3208,929;   -2,636;    3,045
1016,848; 3198,747;   -1,273;    0,409
1017,396; 3232,111;    2,545;    0,045
1017,944; 3353,202;    1,182;    1,864
1018,491; 3122,293;    0,273;    1,409
1019,039; 3266,384;    0,455;    0,591
1019,586; 3192,566;   -1,364;    1,682
1020,134; 3297,929;    0,455;    1,500
1020,681; 3301,020;    0,182;   -1,136
1021,228; 3333,475;    2,909;   -2,227
1021,776; 3171,293;    1,182;   -1,136
1022,323; 3370,202;    0,455;    0,773
1022,870; 3296,838;   -1,000;   -0,045
1023,417; 3196,384;    2,636;    1,864
1023,964; 3351,475;    2,636;    1,227
1024,511; 3187,929;    1,000;    0,773
1025,058; 2989,475;    3,182;   -0,045
1025,605; 3050,475;   -2,273;    3,136
1026,152; 3256,929;    1,727;   -0,591
1026,699; 3003,747;    1,818;    1,318
1027,245; 3157,384;   -0,091;    0,318
1027,792; 3369,475;   -1,000;    1,409
1028,339; 3246,202;    2,364;   -0,045
1028,885; 3100,657;    1,000;   -0,227
1029,432; 3051,293;   -0,091;    0,227
1029,978; 3115,020;   -1,000;   -1,591
1030,525; 3021,657;    1,000;    0,409
1031,071; 3263,020;   -1,364;    1,136
1031,618; 3375,657;    0,364;    1,682
1032,164; 3161,384;   -0,091;    3,045
1032,710; 3206,838;    1,636;   -1,500
1033,256; 3136,747;   -0,636;   -0,136
1033,803; 3112,020;   -0,545;    1,500
1034,349; 2839,384;   -1,364;    0,136
1034,895; 2997,020;    0,000;   -0,318
1035,441; 2967,838;   -0,818;    0,318
1035,987; 2974,566;   -2,364;   -0,682
1036,533; 2969,929;   -1,455;   -0,955
1037,078; 3157,475;    1,455;    1,682
1037,624; 2984,020;    2,455;   -0,955
1038,170; 3015,293;    0,455;   -0,318
1038,716; 2914,384;    1,636;   -0,409
1039,261; 2830,929;   -2,273;   -0,773
1039,807; 2783,747;   -0,091;    3,409
1040,352; 2844,747;   -1,909;   -0,318
1040,898; 2894,657;   -1,545;   -0,682
1041,443; 2806,202;   -1,455;   -2,591
1041,989; 2827,202;    1,091;    1,591
1042,534; 2711,111;   -0,364;    2,591
1043,079; 2814,475;    2,909;    0,955
1043,625; 2626,293;    1,818;    0,500
1044,170; 2669,747;   -1,364;    1,045
1044,715; 2911,020;    2,455;    0,955
1045,260; 2735,929;    2,182;   -0,955
1045,805; 2773,838;    1,182;   -0,591
1046,350; 2714,020;    1,364;   -0,409
1046,895; 2656,838;    2,909;    1,591
1047,440; 2615,384;    5,364;    0,409
1047,985; 2534,475;    2,818;   -0,955
1048,530; 2456,202;    1,545;    1,227
1049,074; 2508,475;    0,000;    0,318
1049,619; 2501,293;   -1,364;    1,955
1050,164; 2294,929;    0,455;    0,227
1050,708; 2331,020;   -0,455;    0,045
1051,253; 2682,747;    1,273;   -2,227
1051,797; 2403,202;    0,818;   -1,318
1052,342; 2423,747;   -1,182;    1,045
1052,886; 2411,384;    0,364;   -1,409
1053,430; 2313,202;   -1,364;    0,136
1053,975; 2321,111;   -0,818;   -0,318
1054,519; 2293,293;   -0,727;    3,227
1055,063; 2304,747;    0,909;    1,318
1055,607; 2205,384;   -0,182;    0,227
1056,151; 2224,384;    2,909;    1,682
1056,695; 2153,838;    2,273;   -1,136
1057,239; 2225,657;   -1,727;   -0,682
1057,783; 2234,020;    0,818;   -1,500
1058,327; 2176,202;    0,000;    1,409
1058,871; 2380,566;   -0,545;    1,318
1059,415; 2095,838;   -0,818;   -0,045
1059,958; 2356,020;    1,455;    2,591
1060,502; 2082,384;   -1,000;   -0,773
1061,046; 1994,475;    0,364;   -0,955
1061,589; 1975,657;   -3,000;   -1,136
1062,133; 1860,111;   -1,273;    1,864
1062,676; 1804,293;    1,182;    0,864
1063,220; 1786,293;    1,091;    0,500
1063,763; 1818,384;    0,909;    1,136
1064,306; 1898,293;   -0,909;    1,864
1064,849; 1787,566;   -0,909;    0,591
1065,393; 1792,929;    2,000;   -1,500
1065,936; 1889,293;    0,182;   -0,409
1066,479; 1786,475;   -1,455;    1,318
1067,022; 1803,111;   -0,273;   -0,227
1067,565; 1708,111;   -0,091;   -1,318
1068,108; 1733,929;    0,727;   -0,591
1068,651; 1709,566;   -0,636;    1,409
1069,194; 1643,566;   -0,455;   -1,682
1069,736; 1639,384;   -1,273;    0,955
1070,279; 1626,657;   -1,364;   -0,500
1070,822; 1668,020;   -2,000;   -0,318
1071,364; 1750,202;   -0,364;    1,318
1071,907; 1576,202;   -0,727;    3,227
1072,450; 1481,657;    0,000;   -0,045
1072,992; 1465,384;   -0,273;    3,136
1073,535; 1616,384;    2,091;    2,136
1074,077; 1418,566;   -0,727;    2,045
1074,619; 1395,747;   -1,364;    0,591
1075,161; 1414,566;   -1,091;    1,500
1075,704; 1582,929;    1,545;    1,227
1076,246; 1388,929;   -0,182;    0,682
1076,788; 1318,838;   -0,364;    1,773
1077,330; 1390,566;    1,273;    2,136
1077,872; 1355,747;    0,909;    0,955
1078,414; 1578,657;    2,727;    0,773
1078,956; 1305,475;    1,273;   -0,227
1079,498; 1559,929;    1,636;    0,318
1080,040; 1274,475;    1,909;   -1,318
1080,581; 1224,657;    1,636;   -0,318
1081,123; 1145,111;    0,091;   -0,773
1081,665; 1197,747;   -1,182;   -0,955
1082,206; 1486,657;    1,364;   -0,500
1082,748; 1354,747;    0,727;    2,045
1083,289; 1245,566;   -2,000;    1,318
1083,831; 1136,747;   -0,545;    0,227
1084,372; 1156,202;    0,000;    0,591
1084,913; 1174,020;    1,091;    0,864
1085,455; 1145,111;   -1,909;   -2,045
1085,996; 1124,566;   -2,273;    0,136
1086,537; 1139,475;   -0,091;    0,864
1087,078; 1168,293;   -0,909;   -2,136
1087,619; 1211,384;   -1,273;    0,227
1088,160; 1126,020;    0,000;    1,318
1088,701; 1116,566;   -1,091;    0,682
1089,242; 1062,384;    1,364;   -2,227
1089,783; 1147,202;   -0,273;    1,409
1090,324; 1110,929;    0,455;    0,682
1090,865;  997,475;    2,727;   -0,409
1091,405;  970,111;    0,727;    2,227
1091,946;  996,929;    0,182;   -0,955
1092,487;  920,838;    0,818;   -1,409
1093,027; 1074,020;   -1,364;   -1,500
1093,568;  935,202;   -0,364;    1,227
1094,108; 1022,111;    0,273;    1,773
1094,649;  973,202;   -1,182;    0,136
1095,189;  915,929;   -0,636;   -0,682
1095,729;  868,747;   -0,091;    0,955
1096,269;  867,111;    0,727;   -0,955
1096,810; 1165,020;   -1,364;    0,500
1097,350;  988,657;    1,364;   -0,773
1097,890;  899,202;    0,364;    1,227
1098,430; 1149,475;    2,364;    2,864
1098,970; 1040,566;    2,182;    1,682
1099,510;  907,747;    0,545;   -2,318
1100,050;  822,475;    1,000;   -1,591
1100,589;  779,838;   -0,727;   -0,318
1101,129;  916,657;    0,818;   -0,955
1101,669; 1058,384;    1,727;    2,136
1102,209;  880,384;   -0,091;    2,227
1102,748;  841,657;    0,000;    0,955
1103,288;  829,202;    1,273;   -1,227
1103,827;  854,838;    3,091;   -2,227
1104,367;  733,747;   -0,091;   -2,409
1104,906;  694,475;    1,364;   -1,136
1105,445;  765,202;    0,636;   -1,136
1105,985;  707,202;   -0,727;    1,500
1106,524;  774,202;   -1,727;   -0,682
1107,063;  739,475;   -2,727;    1,409
1107,602;  717,202;   -1,909;   -1,500
1108,141;  637,202;   -1,909;    1,500
1108,680;  744,111;   -3,455;   -0,591
1109,219;  672,929;   -0,909;   -0,500
1109,758;  669,747;    0,455;    0,682
1110,297;  643,202;    1,000;   -0,682
1110,836;  594,293;   -0,727;    0,955
1111,375;  754,747;   -2,545;    0,409
1111,913;  778,566;   -1,000;    0,773
1112,452;  704,202;   -0,273;    0,136
1112,991;  599,929;    1,091;    1,955
1113,529;  554,657;   -0,818;   -0,045
1114,068;  623,202;   -0,273;    2,955
1114,606;  515,566;   -0,364;   -0,955
1115,144;  671,293;   -1,273;    1,045
1115,683;  607,020;   -0,727;    0,318
1116,221;  660,475;   -0,455;   -0,864
1116,759;  584,384;    0,636;   -0,864
1117,297;  763,384;    0,000;    1,864
1117,836;  581,929;   -2,182;   -1,227
1118,374;  582,747;    0,182;   -0,682
1118,912;  519,747;    0,909;    2,682
1119,450;  503,929;    1,000;    0,864
1119,988;  562,384;    1,545;    2,136
1120,525; 1013,111;    5,091;    3,318
1121,063;  721,384;    1,182;    1,864
1121,601;  532,111;   -0,909;   -1,227
1122,139;  474,384;   -0,727;   -2,045
1122,676;  680,838;   -0,727;    2,773
1123,214;  610,293;   -1,182;    4,409
1123,751;  425,020;    1,727;    2,227
1124,289;  560,384;   -0,091;   -0,409
1124,826;  427,657;    1,727;    0,227
1125,364;  355,838;    1,727;   -0,955
1125,901;  535,293;    1,182;    1,227
1126,438;  645,838;    0,818;    0,955
1126,975;  374,566;   -0,727;   -0,773
1127,513;  446,020;    0,273;    2,136
1128,050;  353,384;    1,636;   -0,682
1128,587;  447,293;    2,000;   -0,227
1129,124;  488,202;    0,091;    1,318
1129,661;  352,929;    0,273;    0,227
1130,198;  526,475;    1,636;    0,773
1130,734;  465,566;    0,182;    1,409
1131,271;  323,838;   -0,909;    0,864
1131,808;  497,657;    2,909;    3,045
1132,345;  369,111;    1,545;    0,318
1132,881;  245,293;   -1,545;   -1,864
1133,418;  384,202;    0,727;   -1,136
1133,954;  324,929;    2,455;   -2,682
1134,491;  398,202;    1,364;   -0,773
1135,027;  309,020;    2,364;    0,864
1135,564;  392,566;    0,273;    2,955
1136,100;  370,293;    0,364;    2,136
1136,636;  257,111;   -1,273;   -1,045
1137,172;  345,747;    0,000;   -1,045
1137,708;  275,020;   -1,364;   -1,045
1138,245;  284,020;    1,273;   -1,227
1138,781;  231,384;    1,091;   -3,318
1139,317;  304,657;    1,273;   -1,409
1139,852;  283,020;    3,091;    0,136
1140,388;  401,020;   -1,182;   -0,409
1140,924;  279,838;   -1,091;   -2,227
1141,460;  231,111;   -1,636;    0,136
1141,996;  166,929;   -1,364;    2,682
1142,531;  210,111;    1,364;    3,318
1143,067;  416,202;    1,182;    1,045
1143,602;  476,475;   -0,091;   -0,318
1144,138;  324,293;   -2,636;    1,045
1144,673;  198,384;   -1,455;    1,409
1145,209;  265,293;   -1,909;   -0,318
1145,744;  176,384;   -0,727;    0,864
1146,279;  311,475;    1,818;   -0,136
1146,815;  225,475;    1,545;   -2,682
1147,350;  263,566;   -1,364;    0,045
1147,885;  182,838;   -0,818;   -1,318
1148,420;  181,020;   -2,273;    0,773
1148,955;  164,566;   -1,727;    1,864
1149,490;  179,747;   -0,909;   -1,591
1150,025;  166,202;    0,455;   -1,773
1150,560;  281,384;    1,091;   -0,955
1151,094;  260,747;    1,455;   -0,591
1151,629;  262,747;    1,636;    0,864
1152,164;  182,657;    1,364;    1,318
1152,698;  139,202;   -0,182;   -0,136
1153,233;  112,202;    0,091;   -0,682
1153,767;  163,747;   -3,000;   -2,318
1154,302;  205,020;   -1,455;    1,773
1154,836;  196,929;   -0,455;   -2,136
1155,371;  247,020;   -1,364;    3,682
1155,905;  212,838;   -0,636;    1,682
1156,439;  175,475;   -0,636;   -0,500
1156,973;  195,657;    0,364;    0,318
1157,507;  138,747;   -0,364;    0,682
1158,042;  168,293;   -0,727;    1,045
1158,576;  212,293;    0,182;    1,773
1159,110;  196,929;   -0,818;    2,409
1159,643;  177,111;    0,636;   -0,045
1160,177;  112,475;   -1,545;    1,500

