
Integration time [ms]:   0,040
Averaging Nr. [scans]: 11
Smoothing Nr. [pixels]: 0
Data measured with spectrometer [name]: 7318044SP
Wave   ;Sample   ;Dark     ;Reference
[nm]   ;[counts] ;[counts] ;[counts] 

186,757;   28,142;   31,551;    1,318
187,357;   57,009;   22,551;    0,955
187,958;   31,547;   15,460;   -1,591
188,558;   75,311;    8,915;   -1,227
189,159;   42,027;    6,733;   -4,500
189,759;   13,171;    7,278;   -3,591
190,360;   21,512;    2,824;   -2,136
190,960;   63,600;    2,915;   -4,136
191,560;   66,306;    3,189;   -6,591
192,161;  298,546;    4,372;   -3,500
192,761;  142,463;    4,010;   -3,227
193,361;  102,197;    1,556;   -3,773
193,962;  151,720;    2,010;   -2,682
194,562;   79,500;    1,189;   -3,955
195,162;  117,367;   -2,448;   -2,227
195,762;  278,215;   -3,176;   -0,045
196,362;  214,288;    1,370;   -2,500
196,963;   82,243;    2,006;   -0,864
197,563;  153,499;    1,551;   -0,955
198,163;  102,291;    0,096;   -0,682
198,763;  112,674;    1,733;   -0,500
199,363;  223,660;    3,096;   -0,500
199,963;  185,038;    0,369;    0,409
200,563;  160,513;    2,823;   -1,409
201,163;  130,552;    3,277;   -0,227
201,763;  220,158;    3,732;    0,318
202,363;  167,363;    1,459;    1,500
202,963;  267,252;    1,459;    1,045
203,563;  379,581;    0,277;    0,500
204,162;  228,060;    2,096;   -1,864
204,762;  224,505;    0,550;    0,591
205,362;  194,823;    3,004;    1,955
205,962;  292,728;    3,096;    1,955
206,562;  281,437;    1,823;    2,318
207,161;  249,449;   -0,087;    0,318
207,761;  422,287;    1,277;    2,409
208,361;  297,618;   -0,268;    1,409
208,960;  386,653;    0,459;    1,500
209,560;  460,432;    1,277;    1,591
210,160;  441,438;    0,550;    1,864
210,759;  406,136;    4,186;    1,227
211,359;  411,251;    1,459;    1,045
211,958;  678,910;    1,277;    2,045
212,558;  765,601;    1,732;    1,864
213,157;  597,953;    1,822;    1,500
213,757; 1050,379;    3,822;   -0,227
214,356;  756,677;    1,277;   -0,409
214,956; 1099,831;    3,095;    0,409
215,555;  724,682;    2,095;    2,136
216,154;  664,078;   -2,723;   -0,591
216,754;  670,975;    0,277;    0,773
217,353;  807,996;   -0,268;   -1,045
217,952;  671,778;   -0,178;    0,318
218,552;  913,602;    1,368;   -0,773
219,151;  807,708;    0,277;    0,955
219,750;  807,889;    0,004;   -0,227
220,349;  942,419;   -0,451;    1,045
220,948; 1003,050;   -1,360;    1,136
221,548; 1027,020;    0,913;    1,227
222,147; 1150,749;   -0,087;   -0,409
222,746; 1431,304;   -0,451;   -0,955
223,345; 1320,517;    0,731;    0,500
223,944; 1321,459;   -0,451;    0,773
224,543; 1501,652;    1,004;   -1,409
225,142; 1601,516;    0,094;    0,136
225,741; 1515,651;   -0,814;    1,045
226,340; 1552,532;   -0,451;   -0,955
226,939; 1999,828;   -0,996;   -0,136
227,538; 1980,756;   -0,360;   -0,773
228,137; 2114,201;   -0,814;    0,864
228,735; 2276,195;   -0,541;    1,227
229,334; 2016,547;   -0,905;   -0,227
229,933; 2392,260;    0,459;    0,591
230,532; 2510,368;    1,186;   -0,409
231,131; 2558,897;    1,732;    0,318
231,729; 2716,593;   -2,450;   -2,318
232,328; 2846,724;   -0,723;   -1,500
232,927; 2926,283;    1,004;   -0,500
233,525; 3070,026;    3,640;    0,045
234,124; 3279,972;    2,368;   -1,591
234,723; 3313,294;    0,913;   -1,045
235,321; 3436,632;    2,277;    0,136
235,920; 3684,144;    1,186;   -1,227
236,518; 3950,846;    3,459;    0,318
237,117; 4122,449;    0,004;   -0,227
237,715; 4289,066;    0,640;   -0,500
238,314; 4339,205;   -0,087;   -2,318
238,912; 4440,601;   -0,723;   -1,409
239,510; 4486,940;    0,459;   -1,227
240,109; 4658,539;    0,004;    3,773
240,707; 4700,719;   -0,996;    1,227
241,305; 5073,703;    0,550;    0,136
241,904; 5298,885;   -0,178;   -2,045
242,502; 5269,449;   -0,632;   -0,227
243,100; 5199,054;   -0,087;   -0,955
243,698; 5438,489;    0,732;    1,682
244,297; 5638,462;   -0,632;    0,682
244,895; 5477,620;   -0,269;   -2,318
245,493; 5807,103;    2,186;   -0,591
246,091; 5849,228;    1,368;   -1,318
246,689; 5849,768;    1,004;    0,591
247,287; 6007,547;    0,822;   -1,136
247,885; 6315,761;   -1,451;    1,227
248,483; 6421,691;    1,822;   -0,500
249,081; 6552,663;    0,185;    1,591
249,679; 6708,034;   -0,178;    1,682
250,277; 6983,081;   -1,723;    0,864
250,875; 6986,605;   -1,087;   -1,045
251,473; 6994,760;   -1,178;    0,500
252,071; 7196,691;    1,459;    1,045
252,669; 7368,368;   -1,814;    0,318
253,267; 7656,394;   -0,087;    0,773
253,864; 7617,275;   -0,360;    0,682
254,462; 7451,651;    1,640;    1,591
255,060; 7455,257;   -0,269;    1,318
255,658; 7797,277;    0,822;   -0,136
256,255; 8186,905;    0,186;   -2,045
256,853; 8061,670;   -0,269;    1,409
257,451; 8079,000;    0,822;    1,864
258,048; 8327,242;    1,822;    1,864
258,646; 8081,009;    1,731;   -1,045
259,243; 8274,306;   -0,087;    2,227
259,841; 8325,069;   -0,814;    0,318
260,438; 8212,098;   -0,087;    0,864
261,036; 8978,046;   -1,905;    1,409
261,633; 8869,471;   -0,087;    2,227
262,231; 8630,200;    2,731;   -0,045
262,828; 8722,457;   -0,905;    1,136
263,425; 8767,230;    0,913;   -0,591
264,023; 9053,257;    0,186;    0,045
264,620; 8591,269;   -0,360;   -0,318
265,217; 8924,283;   -2,087;    3,136
265,815; 9076,650;   -1,905;    2,136
266,412; 8825,568;    0,731;    0,136
267,009; 8859,449;   -1,451;    0,773
267,606; 8773,918;    0,822;   -0,955
268,203; 8764,284;   -0,269;   -0,591
268,801; 9084,122;    1,731;    0,591
269,398; 9359,720;   -0,360;    2,500
269,995; 9346,367;    0,277;    1,591
270,592; 9118,943;   -0,632;   -0,500
271,189; 9301,753;    0,186;    0,409
271,786; 9451,359;   -0,632;    1,227
272,383; 9266,785;   -1,087;    0,227
272,980; 9476,338;    0,277;    0,318
273,577; 9963,778;    0,004;    1,227
274,174; 9515,017;    0,822;    2,591
274,771; 9483,004;   -0,814;   -0,773
275,367; 9625,318;    2,277;    1,409
275,964; 9566,547;    0,731;   -0,500
276,561; 9692,205;    1,549;   -1,045
277,158; 9906,034;    0,095;   -1,773
277,755;10031,208;    2,185;    0,409
278,351; 9463,275;   -0,451;   -1,500
278,948; 9773,260;   -0,815;    0,045
279,545; 9750,401;   -1,360;    2,318
280,141;10365,703;   -1,723;   -2,045
280,738;10263,810;   -0,451;   -0,136
281,334;10541,720;   -1,633;    0,591
281,931; 9902,162;   -0,087;   -1,318
282,528; 9998,982;    0,822;   -0,500
283,124;10668,651;   -1,087;   -0,500
283,721;10618,774;   -0,451;    1,409
284,317;10452,415;    0,185;    2,500
284,913;10960,118;   -1,360;    0,591
285,510;11163,482;    0,640;   -0,318
286,106;11180,642;   -2,269;   -0,955
286,703;10801,392;   -0,360;    1,955
287,299;10989,069;   -1,451;   -0,591
287,895;11181,029;    0,822;   -1,045
288,491;11773,357;    0,186;    2,136
289,088;11519,925;   -2,360;    2,409
289,684;11599,277;   -1,723;    1,500
290,280;11590,866;    0,368;    0,682
290,876;11670,322;    1,822;    5,500
291,472;11595,612;    1,276;    2,227
292,068;11709,382;    1,367;    0,227
292,665;11399,796;    2,095;    0,773
293,261;10981,129;    0,276;    2,136
293,857;11394,491;    2,913;    2,136
294,453;11358,617;    3,550;    0,955
295,049;11209,346;   -0,268;    1,955
295,644;11238,848;    0,095;    0,136
296,240;11141,985;   -0,905;   -0,136
296,836;11174,214;   -0,995;    0,318
297,432;11494,682;    1,096;   -0,500
298,028;11475,292;    0,732;    0,773
298,624;11903,869;    1,459;    1,864
299,220;12182,054;    2,368;    0,591
299,815;11859,192;    1,005;   -0,409
300,411;11637,891;    0,914;    1,773
301,007;11674,092;    1,368;    0,227
301,602;11725,466;   -0,541;   -2,318
302,198;11896,485;    0,732;   -0,773
302,794;12252,731;    1,187;   -0,500
303,389;12343,567;   -1,177;    1,045
303,985;12428,371;    0,550;    1,409
304,580;12404,179;    1,459;    1,591
305,176;12377,132;   -3,086;    0,136
305,771;12316,128;   -1,268;   -1,227
306,367;12110,775;    4,095;    0,136
306,962;12496,012;    0,641;    1,500
307,558;12233,311;   -0,450;    0,136
308,153;12143,138;    1,095;   -1,136
308,748;12432,069;   -0,814;    1,682
309,344;12369,716;   -0,632;   -1,318
309,939;12454,330;   -1,905;   -1,318
310,534;12759,932;   -0,086;   -1,682
311,130;12660,594;    0,459;   -2,500
311,725;12417,643;    1,004;   -0,500
312,320;12741,810;    2,459;    0,045
312,915;12570,393;    1,459;   -1,045
313,510;12618,863;    1,550;   -0,500
314,105;13178,207;    1,096;    1,409
314,700;12595,165;   -3,086;   -1,045
315,295;12210,815;   -0,904;    0,045
315,890;11772,545;    1,277;    0,864
316,485;12115,564;   -0,359;   -0,318
317,080;12240,206;   -3,086;    1,591
317,675;12820,271;    2,005;   -0,682
318,270;12186,152;    5,550;    3,318
318,865;12183,055;    3,278;    3,045
319,460;12047,525;   -0,904;    0,591
320,055;12304,968;   -0,541;   -1,227
320,650;11979,359;   -1,995;   -0,591
321,244;12006,271;   -0,177;   -1,409
321,839;12979,820;   -1,541;   -0,227
322,434;12854,628;   -1,086;   -1,591
323,029;12472,306;    1,732;    1,591
323,623;12270,432;    1,550;    0,773
324,218;12028,081;    2,368;    1,409
324,812;11925,555;    1,096;    1,591
325,407;11741,343;   -0,814;    2,045
326,002;11640,232;    0,277;   -0,409
326,596;11989,601;    0,914;    1,318
327,191;12177,474;    0,823;   -1,045
327,785;11747,510;   -0,813;   -0,227
328,379;11985,325;    1,368;    0,136
328,974;11796,539;    0,914;   -3,955
329,568;12009,775;    0,186;   -2,409
330,163;11807,259;    2,096;    1,045
330,757;12182,096;    2,459;    1,591
331,351;11488,515;    0,459;    0,682
331,945;11775,361;    0,914;    1,409
332,540;11392,976;   -1,723;   -0,591
333,134;11547,712;   -1,086;    0,773
333,728;11775,035;    0,005;    0,318
334,322;12091,345;   -1,177;   -0,864
334,916;11390,838;    0,277;    0,955
335,510;11749,899;   -0,450;   -0,136
336,105;11956,383;   -1,086;    1,591
336,699;11668,358;   -1,086;    0,591
337,293;11632,884;   -1,723;    0,318
337,887;11799,570;   -2,723;    1,955
338,481;11873,366;    0,459;    0,591
339,074;12031,468;   -0,359;    2,682
339,668;11858,223;   -1,632;    1,227
340,262;12088,660;    1,732;    3,227
340,856;11596,048;    1,822;   -0,682
341,450;10985,253;    1,004;    1,864
342,044;11900,793;    1,459;    0,136
342,637;11651,266;    0,913;   -2,136
343,231;11521,428;   -2,360;    0,682
343,825;11492,988;   -1,086;   -0,591
344,419;11488,761;   -1,995;    0,500
345,012;11203,557;    2,459;    4,045
345,606;11198,033;    4,641;    1,591
346,199;11070,168;   -1,813;   -0,227
346,793;10576,014;    1,914;    2,045
347,386;10802,062;   -0,813;   -1,136
347,980;10781,700;   -0,268;   -0,045
348,573;10553,115;    2,278;    0,409
349,167;10262,882;    5,278;    4,773
349,760;10590,927;    2,914;    2,682
350,354;10560,853;   -0,813;    1,136
350,947;10312,287;    1,096;    1,682
351,540; 9980,580;   -0,358;   -1,409
352,134; 9939,777;    1,096;    1,136
352,727;10027,306;   -0,086;    1,136
353,320; 9800,295;    0,005;    0,591
353,913; 9632,364;   -1,995;    1,864
354,507; 9857,031;    0,823;   -1,227
355,100; 9859,176;    0,460;    0,864
355,693; 9056,404;    2,005;    2,409
356,286; 9084,680;    0,823;    2,773
356,879; 9488,030;   -0,722;    1,227
357,472; 9089,808;   -0,904;    1,500
358,065; 9307,041;   -0,722;    2,500
358,658; 9217,933;   -0,540;    2,318
359,251; 8851,490;   -1,631;   -0,591
359,844; 8310,114;   -1,904;   -1,136
360,437; 8486,701;   -2,995;    0,045
361,030; 8773,276;    1,369;   -0,682
361,623; 8359,871;    2,824;    0,318
362,215; 8403,510;   -0,086;    2,045
362,808; 8229,365;   -2,358;   -1,682
363,401; 8437,335;   -2,449;    0,136
363,994; 8178,884;   -0,631;   -1,500
364,586; 8095,739;    0,824;   -1,500
365,179; 8308,570;   -0,449;   -1,136
365,772; 7766,772;   -1,995;    2,045
366,364; 8068,937;    1,915;   -3,227
366,957; 8263,383;    2,279;   -0,045
367,549; 8305,705;    2,188;   -0,864
368,142; 7955,916;    1,825;   -1,500
368,734; 8137,734;    0,734;   -2,136
369,327; 8109,436;    1,643;   -0,500
369,919; 8023,202;   -1,538;    0,409
370,512; 7798,668;   -1,083;   -0,500
371,104; 7568,928;   -0,901;    1,591
371,696; 7746,155;    1,191;   -0,955
372,289; 7843,919;    0,373;    1,136
372,881; 7955,559;   -2,080;    1,318
373,473; 7899,718;   -2,170;    1,136
374,066; 7702,109;   -0,169;    0,500
374,658; 7555,442;    0,378;    1,136
375,250; 7938,934;    0,653;   -1,409
375,842; 7750,248;    0,473;   -0,045
376,434; 7613,393;   -0,435;   -0,409
377,026; 8224,767;    0,204;   -2,500
377,618; 8118,603;   -0,158;   -0,682
378,210; 7969,345;   -0,338;   -1,955
378,802; 7806,431;    0,754;   -0,591
379,394; 7751,754;    1,846;    0,682
379,986; 8357,304;    1,393;   -0,955
380,578; 8473,101;   -0,153;    0,773
381,170; 7781,362;   -0,972;    0,045
381,762; 7743,787;    0,755;    1,409
382,354; 7953,627;   -0,065;   -1,318
382,945; 8078,245;   -2,976;    0,318
383,537; 8244,044;   -2,705;   -1,955
384,129; 8215,125;   -2,160;   -1,136
384,721; 8420,805;   -0,252;    0,955
385,312; 8375,712;   -0,161;   -0,955
385,904; 8455,133;   -2,706;    1,591
386,496; 7817,198;   -0,979;    1,045
387,087; 7972,916;    1,022;    2,500
387,679; 8009,284;   -1,160;    0,045
388,270; 8162,325;    2,840;    2,045
388,862; 8245,183;    1,295;   -0,318
389,453; 8150,031;   -0,887;    1,045
390,045; 8407,998;   -0,705;   -2,682
390,636; 8335,801;    0,204;   -0,591
391,227; 8200,918;   -0,523;   -0,045
391,819; 8289,840;    0,204;    0,773
392,410; 8381,863;    1,022;    0,045
393,001; 8314,603;   -0,979;   -1,591
393,593; 8594,454;    1,930;   -0,045
394,184; 8437,706;    1,385;   -0,409
394,775; 8351,381;    1,839;    2,136
395,366; 8557,401;    1,385;    0,773
395,957; 8546,544;    0,113;    0,136
396,548; 8871,885;   -0,342;    2,682
397,139; 9187,186;   -2,433;    0,591
397,730; 8932,538;   -1,888;    0,955
398,321; 8981,867;   -1,252;    0,955
398,912; 9010,039;   -0,615;    0,136
399,503; 9098,695;   -3,524;   -1,409
400,094; 8526,098;    0,294;    1,682
400,685; 8389,965;   -0,433;    0,045
401,276; 8493,189;    0,930;   -0,955
401,867; 8800,851;   -0,888;    0,773
402,458; 8916,236;   -2,251;   -2,318
403,048; 8895,621;    1,112;    0,591
403,639; 8489,613;    0,840;    0,864
404,230; 8706,029;    2,476;    0,318
404,821; 8666,332;   -0,615;    0,045
405,411; 8797,019;    1,203;   -2,591
406,002; 8383,575;   -1,252;   -1,136
406,592; 8214,727;    2,294;    0,045
407,183; 8531,052;    0,566;   -1,500
407,774; 8446,213;    3,475;   -0,136
408,364; 8775,035;    0,930;    0,409
408,954; 8369,161;    0,384;    1,227
409,545; 8407,779;    1,021;    1,045
410,135; 7961,405;    1,293;    0,500
410,726; 8134,834;    1,838;    0,318
411,316; 8526,672;    0,111;    0,773
411,906; 8156,203;   -0,253;   -0,409
412,497; 7678,190;   -1,070;   -0,045
413,087; 8306,176;   -1,980;   -0,227
413,677; 8675,866;   -0,707;    3,864
414,267; 8537,991;    0,656;    1,409
414,857; 8546,664;   -2,980;    4,227
415,448; 8846,512;    0,839;    0,500
416,038; 8512,939;    0,020;   -0,591
416,628; 8465,757;   -0,889;    0,409
417,218; 7902,901;    0,565;    3,318
417,808; 8201,483;    0,202;   -0,409
418,398; 8701,703;    0,020;    2,682
418,988; 8705,247;    2,020;    0,591
419,578; 8929,052;   -0,707;    1,409
420,168; 9279,397;   -1,343;   -0,955
420,757; 8850,090;   -1,343;   -1,500
421,347; 8581,018;    0,111;   -0,227
421,937; 8750,032;    2,292;    1,409
422,527; 8651,748;    0,838;   -0,773
423,116; 8460,639;   -0,253;   -0,045
423,706; 8861,777;   -1,889;    0,318
424,296; 8829,492;    1,384;    0,682
424,885; 9263,673;   -0,071;   -3,045
425,475; 9549,038;    1,474;   -2,864
426,065; 9451,513;   -0,980;   -0,318
426,654; 9082,010;   -0,435;   -0,318
427,244; 9190,458;    0,020;    1,409
427,833; 8622,416;    1,383;   -0,500
428,423; 9131,183;   -0,526;    1,136
429,012; 9917,984;   -0,344;   -1,136
429,601; 9381,102;   -1,344;    0,136
430,191; 9609,067;    1,292;    4,318
430,780; 9262,526;   -0,344;   -0,409
431,369; 9186,836;    0,746;   -0,045
431,959; 9865,899;   -1,254;    0,500
432,548; 9628,222;   -1,163;   -0,045
433,137; 9768,023;   -1,254;   -1,318
433,726;10297,786;    0,292;    0,500
434,315; 9656,990;   -0,526;    2,409
434,905; 9715,904;   -1,254;    1,409
435,494; 9631,723;    0,746;    0,955
436,083;10138,511;   -0,981;   -0,955
436,672;10002,676;    0,110;    0,500
437,261; 9561,414;    0,292;   -1,955
437,850; 9665,684;    1,383;    0,682
438,439; 9626,242;    3,291;    1,955
439,027; 9487,291;    3,655;    1,773
439,616; 9858,627;    2,927;    1,227
440,205; 9705,388;    0,200;   -2,136
440,794; 9820,385;    2,109;   -0,045
441,383;10102,233;   -1,346;   -0,591
441,971; 9986,117;   -2,436;    0,591
442,560; 9847,660;    0,563;   -1,773
443,149; 9570,598;    0,379;   -1,318
443,737; 9686,612;   -0,074;   -2,318
444,326; 9957,678;    0,018;    0,318
444,915;10047,407;   -1,982;    0,864
445,503;10422,431;   -2,891;   -0,318
446,092; 9662,844;    0,382;    2,136
446,680;10205,208;    0,382;    0,318
447,269;10420,049;   -0,346;   -0,318
447,857;10228,444;    0,018;   -1,773
448,445;10300,792;    0,563;    1,318
449,034;10523,606;   -1,528;   -1,136
449,622;10677,975;   -1,073;    3,500
450,210; 9834,602;    2,017;    2,227
450,799;10391,008;    0,290;   -0,591
451,387;10372,817;    1,381;   -0,591
451,975;10003,568;    2,654;    0,864
452,563;10106,244;    3,472;    2,318
453,151;10165,966;   -0,528;   -1,227
453,739;10077,730;   -1,347;    0,136
454,328; 9930,891;    2,381;   -2,136
454,916; 9623,658;    2,562;   -0,136
455,504; 9845,144;    1,017;    1,227
456,092; 9994,551;    0,017;   -1,591
456,679; 9982,810;    1,472;    0,682
457,267; 9886,478;    4,017;    1,045
457,855;10062,064;    1,017;    1,409
458,443; 9851,302;   -0,165;    1,682
459,031; 9947,846;    0,108;    2,409
459,619;10420,734;   -1,801;    2,864
460,206;10599,004;    0,835;    2,045
460,794;10683,394;   -2,983;   -0,227
461,382;10929,701;   -0,529;   -0,864
461,970;10484,818;    1,198;    1,864
462,557;10526,202;   -0,711;   -0,682
463,145;10717,193;   -3,165;   -1,682
463,732;10872,480;    2,016;   -1,045
464,320;10812,841;   -0,075;   -3,045
464,907;10470,571;    2,743;   -0,773
465,495;10315,742;    0,743;   -1,227
466,082;10475,673;   -1,984;   -0,045
466,670;10425,788;   -2,529;    1,227
467,257;10881,486;   -1,711;    2,045
467,844;11022,664;   -0,075;    0,045
468,432;11068,812;    0,834;    3,500
469,019;10536,769;    0,925;   -1,773
469,606;10978,639;    0,470;    3,682
470,193;10786,372;   -1,439;    0,227
470,780;10361,798;   -2,075;    0,864
471,368;10733,123;   -1,257;   -0,773
471,955;10517,068;    1,379;   -0,682
472,542;10151,714;    0,652;   -1,136
473,129;10436,345;   -0,166;    0,136
473,716;10151,633;    1,470;    0,591
474,303;10363,009;    0,652;   -0,864
474,890;10656,147;   -1,439;   -0,500
475,477;10603,012;   -1,621;    0,409
476,064;10521,190;    1,106;   -1,591
476,650;10478,667;    0,288;    0,318
477,237;10319,122;   -0,258;    0,955
477,824;10497,554;   -1,076;    0,864
478,411;10553,075;   -1,894;   -0,318
478,997;10731,034;    0,560;   -0,773
479,584;10799,276;    1,196;   -0,409
480,171;11534,294;   -0,440;   -0,773
480,757;11180,855;    2,651;    0,773
481,344;11458,546;    0,469;    0,409
481,931;11000,100;    1,105;    1,045
482,517;11991,256;   -1,258;    0,318
483,104;12546,698;    1,106;    2,864
483,690;12896,898;   -1,804;    0,045
484,276;13315,338;   -0,895;    0,227
484,863;13055,895;    2,469;    1,136
485,449;13693,812;   -0,077;    0,318
486,035;13689,050;   -1,986;   -0,136
486,622;14124,376;   -0,895;    0,045
487,208;14086,884;    1,378;    1,500
487,794;13935,851;    0,741;    0,318
488,380;14060,263;    0,105;   -1,409
488,967;14120,138;   -1,168;   -0,409
489,553;14165,436;   -1,895;   -1,409
490,139;14335,144;    1,559;    0,773
490,725;13772,356;    0,741;   -0,227
491,311;13336,566;    3,287;    3,045
491,897;12651,675;   -0,986;    1,500
492,483;12444,211;    0,105;    1,227
493,069;12143,394;    3,923;    0,864
493,655;12166,179;    1,650;    0,682
494,241;12061,571;    1,377;   -0,955
494,826;12478,976;    0,287;   -1,045
495,412;11896,644;    2,559;   -0,682
495,998;12067,684;   -0,805;   -0,318
496,584;12223,000;    0,377;    1,045
497,169;12207,217;    1,014;   -0,682
497,755;12172,950;    0,650;    1,227
498,341;12714,574;    0,559;    0,318
498,926;12280,549;    1,832;    1,955
499,512;12499,973;    1,286;    2,955
500,097;12664,129;    0,195;   -0,318
500,683;12601,419;   -0,350;    2,136
501,268;12930,646;   -0,169;   -0,955
501,854;12648,323;   -0,169;    1,227
502,439;12628,767;   -0,624;   -1,773
503,024;12815,703;    0,195;    0,500
503,610;12869,081;   -0,078;   -0,682
504,195;12895,181;    0,558;    1,955
504,780;13002,852;    2,922;    1,227
505,366;12829,997;    3,013;    2,864
505,951;12550,069;    0,740;    1,045
506,536;12567,883;   -3,260;   -3,682
507,121;12591,842;    0,285;   -0,318
507,706;13114,224;    2,376;    1,045
508,291;13485,621;    2,649;    1,136
508,876;12968,717;   -0,988;    2,591
509,461;12417,679;   -0,169;   -0,773
510,046;12828,233;    0,194;    0,318
510,631;13048,856;   -0,351;   -0,773
511,216;12727,546;    2,467;   -0,500
511,801;13085,687;   -0,442;    2,591
512,386;13421,600;    0,740;    0,500
512,971;13332,498;   -2,988;    0,955
513,555;12896,713;   -0,897;   -1,500
514,140;13713,879;   -0,442;   -3,136
514,725;13732,497;   -0,715;   -1,136
515,309;13844,097;   -0,533;    0,318
515,894;13262,149;   -0,624;   -2,227
516,479;13723,574;   -0,624;   -0,955
517,063;13578,883;    0,376;    1,227
517,648;13702,725;    1,012;   -1,136
518,232;13384,421;   -0,261;   -1,409
518,817;13699,855;   -0,079;    1,682
519,401;13908,605;    2,194;    0,591
519,985;13403,283;    1,103;    1,136
520,570;13304,880;    0,830;   -1,955
521,154;13609,660;    2,102;    0,591
521,738;13786,832;   -2,352;    2,409
522,323;14338,260;   -0,170;    1,682
522,907;14108,599;    0,466;   -0,136
523,491;13797,345;    0,557;    0,955
524,075;13788,779;    2,284;    0,591
524,659;13894,253;    1,466;    0,591
525,243;13307,855;    1,739;    0,409
525,827;13587,935;    0,648;   -0,045
526,411;14453,435;   -1,989;   -0,136
526,995;14683,373;   -0,352;    1,409
527,579;14285,690;   -0,443;   -1,045
528,163;14573,729;    0,375;   -1,500
528,747;14458,335;    2,466;   -0,773
529,331;14763,973;   -0,080;   -1,409
529,915;15002,683;    1,738;    0,955
530,499;14906,741;   -0,807;    1,227
531,082;14626,132;   -0,534;    1,591
531,666;14083,739;    1,374;    0,773
532,250;14802,860;    1,284;    2,682
532,833;15137,312;    0,920;    2,773
533,417;14976,266;   -1,807;    0,864
534,001;14943,142;    1,647;   -0,318
534,584;15630,848;    0,374;    0,500
535,168;15511,926;    0,465;    1,409
535,751;15535,050;    0,647;    0,045
536,334;15039,650;   -0,898;   -0,409
536,918;15648,755;    0,011;    1,591
537,501;15764,568;   -0,899;    1,318
538,085;15768,611;   -0,444;    1,045
538,668;15938,954;    0,829;    2,409
539,251;16216,662;    1,829;    3,773
539,834;16224,637;    0,101;    0,773
540,418;16099,932;   -1,990;    4,318
541,001;16248,396;   -0,990;    1,773
541,584;16268,105;    2,101;    2,227
542,167;15893,716;    1,374;    2,955
542,750;16091,894;    1,919;   -0,773
543,333;15701,336;    0,555;    2,136
543,916;16516,507;    0,192;    2,500
544,499;17122,808;   -1,354;    0,227
545,082;17116,794;    1,374;    3,591
545,665;17252,687;    1,919;    1,500
546,248;17619,245;    1,010;   -0,318
546,830;17286,091;   -0,445;    1,955
547,413;17700,836;    1,010;   -0,773
547,996;18228,429;    0,555;    0,500
548,579;17987,864;    0,919;    0,955
549,161;17831,759;    1,828;    2,682
549,744;17607,194;   -0,809;    0,409
550,326;18111,206;   -0,809;   -1,136
550,909;17877,896;    2,737;    0,591
551,492;18304,442;   -0,263;    0,227
552,074;18098,886;   -0,173;   -1,318
552,657;18654,133;    2,373;    0,045
553,239;18399,800;   -0,173;   -0,773
553,821;18314,496;   -1,082;    1,045
554,404;17807,003;    1,282;    1,136
554,986;18178,804;    0,464;    1,045
555,568;18771,471;    1,191;   -0,955
556,151;17946,542;    1,191;   -0,227
556,733;18207,773;   -0,264;   -0,864
557,315;18711,605;    0,100;    0,500
557,897;18491,458;    0,554;   -0,500
558,479;18648,684;   -1,991;    1,318
559,061;18770,322;   -0,719;   -0,864
559,643;19143,841;   -0,264;    0,045
560,225;19440,093;    1,645;    2,864
560,807;19520,568;    0,918;    0,318
561,389;19010,845;    0,554;    2,318
561,971;19709,986;    0,463;    2,136
562,553;19485,270;   -1,628;    1,591
563,135;19625,647;   -0,537;    1,136
563,717;19239,427;    3,372;    1,136
564,298;19968,975;    3,645;   -0,045
564,880;19746,297;    0,645;   -1,409
565,462;19944,387;    0,645;    1,318
566,043;21109,582;   -0,446;    2,318
566,625;20613,030;    1,918;    1,227
567,207;20425,686;    1,099;    1,682
567,788;21595,080;   -1,264;    1,500
568,370;22463,018;    1,917;   -0,500
568,951;22274,181;    0,190;    0,227
569,533;23144,286;   -0,628;   -0,500
570,114;23621,669;   -0,446;    0,682
570,695;24191,089;   -0,174;   -1,318
571,277;24700,526;   -0,265;   -1,682
571,858;25394,407;    2,008;   -1,136
572,439;26375,658;    1,554;   -1,045
573,021;26534,924;    2,099;   -2,773
573,602;27009,026;   -1,265;    0,318
574,183;27999,710;   -2,083;    2,227
574,764;28152,386;   -1,629;    0,409
575,345;28728,272;    0,917;   -0,136
575,926;29349,301;   -0,356;    0,136
576,507;29310,020;    1,099;   -0,227
577,088;30480,079;    3,099;    1,682
577,669;30525,799;    0,735;    1,955
578,250;31216,801;    0,644;   -1,045
578,831;31910,885;   -1,356;   -2,227
579,412;32170,233;   -0,810;    0,955
579,993;33124,674;    1,008;    0,227
580,573;33504,167;   -0,629;   -0,955
581,154;32515,474;    0,735;   -0,591
581,735;33298,942;    0,644;    0,773
582,315;32835,306;   -0,629;    2,136
582,896;33185,477;   -0,174;    1,227
583,477;32625,260;    0,189;    1,227
584,057;32775,551;    0,553;    0,955
584,638;33093,219;    2,553;    2,318
585,218;33058,447;   -0,538;    2,682
585,799;33273,158;    0,281;   -0,227
586,379;33253,715;    0,372;    1,591
586,959;32004,774;    0,735;    0,318
587,540;31300,952;   -0,629;    2,227
588,120;30831,883;    1,007;   -0,045
588,700;29770,320;    2,553;    2,136
589,281;30028,375;    0,462;   -0,955
589,861;29958,353;    0,099;   -1,682
590,441;29826,296;    2,371;   -2,682
591,021;28820,486;   -0,265;   -2,591
591,601;29022,614;   -0,537;    0,500
592,181;29001,894;   -0,719;   -0,773
592,761;28330,999;    0,007;    1,409
593,341;28190,645;   -0,901;    0,045
593,921;28180,955;   -0,265;    1,591
594,501;28084,261;   -0,538;    1,318
595,081;27903,248;    0,917;   -0,318
595,661;28269,465;   -1,447;    0,955
596,240;28804,737;   -0,537;    0,136
596,820;28398,744;    0,372;    1,955
597,400;28614,024;    2,008;    0,773
597,980;28863,357;    2,008;    1,045
598,559;28877,097;    2,735;   -0,227
599,139;28594,952;   -0,174;   -1,227
599,718;28497,588;   -0,174;   -0,409
600,298;28708,038;    0,735;    0,682
600,877;28915,102;    2,917;    1,409
601,457;29226,655;    2,281;    1,136
602,036;29138,608;    0,190;    2,045
602,616;29373,442;    0,644;    1,682
603,195;29685,831;   -0,355;    3,500
603,774;29232,744;   -0,901;    2,045
604,354;29165,633;    0,826;   -0,500
604,933;28593,232;    0,463;    1,864
605,512;28697,892;    3,554;    0,591
606,091;28794,846;   -0,537;    3,773
606,671;29570,629;    0,281;    0,773
607,250;28661,095;    1,644;    3,136
607,829;28930,864;    2,372;    3,227
608,408;28759,802;    1,190;    2,591
608,987;27775,067;    1,281;    3,409
609,566;28096,107;   -1,265;   -2,500
610,145;28171,786;   -1,082;    0,682
610,723;28595,388;    4,372;    6,864
611,302;27824,557;   -0,446;    1,682
611,881;27302,879;    5,008;   11,227
612,460;28205,228;    1,645;    3,955
613,039;28629,139;   -0,082;    2,045
613,617;27339,921;    1,736;    4,773
614,196;27546,261;    1,099;    1,227
614,775;27865,094;    1,009;    2,409
615,353;27762,358;    0,736;    0,864
615,932;27520,253;    0,100;    2,409
616,510;28104,724;    0,554;    0,591
617,089;27625,785;    7,100;   17,591
617,667;27321,532;    2,372;    6,136
618,246;27224,036;   -1,537;    1,318
618,824;27369,392;   -3,355;   -0,955
619,402;26973,671;   -2,900;   -1,773
619,981;27440,864;   -0,173;   -1,045
620,559;27292,595;    0,009;    1,682
621,137;26819,327;   -0,718;    1,864
621,715;26827,202;   -1,173;   -0,682
622,293;26714,106;   -0,537;   -0,773
622,871;27161,242;   -0,718;    0,500
623,450;26784,465;    0,373;   -0,864
624,028;26642,985;    0,191;   -0,955
624,606;26269,677;   -1,718;    1,682
625,183;26697,105;   -1,536;   -1,136
625,761;26262,462;    1,009;    1,136
626,339;26623,403;    1,373;    2,591
626,917;27010,788;   -0,172;   -0,045
627,495;27045,839;   -0,354;    1,318
628,073;26469,416;   -0,263;    2,864
628,650;26168,440;    0,100;    2,136
629,228;26563,018;    0,373;    4,409
629,806;25971,088;    2,282;    1,136
630,383;26246,225;    1,464;   -0,318
630,961;26070,393;    2,555;   -0,955
631,539;25811,816;    2,464;    0,227
632,116;25087,484;   11,373;   15,409
632,694;25676,419;    2,555;    6,500
633,271;26012,892;    0,828;    2,682
633,848;25943,341;    1,828;    2,045
634,426;25999,889;   -1,081;    1,773
635,003;25109,455;    1,101;   -0,409
635,580;25398,521;    1,192;    3,682
636,158;26000,115;    3,737;    1,227
636,735;25918,288;    0,555;   -0,500
637,312;26053,794;   -0,809;   -0,682
637,889;26198,917;   -4,354;   -0,682
638,466;25652,848;   -3,990;   -0,409
639,043;25662,158;    2,101;   -1,136
639,620;26024,847;   -2,262;   -0,955
640,197;26278,497;    1,100;    1,682
640,774;26436,285;   -0,172;    1,136
641,351;26825,527;    0,737;    1,136
641,928;26247,770;   -0,627;    1,409
642,505;25903,376;    0,828;   -0,500
643,082;26022,254;   -1,718;    1,227
643,658;25057,224;   -0,718;    1,500
644,235;25833,466;    1,191;    2,500
644,812;26130,436;    1,918;    0,773
645,388;25848,951;   -0,991;    1,409
645,965;25948,648;   -0,809;    1,682
646,542;26026,890;   -1,445;   -0,227
647,118;25953,860;    1,009;   -0,955
647,695;26235,193;   -0,263;    1,136
648,271;26159,435;   -0,536;    0,500
648,848;26499,678;    0,736;    2,227
649,424;26309,647;    0,827;    1,318
650,000;26104,526;   -0,354;   -1,045
650,577;25951,677;   -0,627;   -0,955
651,153;26430,101;   -1,809;    0,955
651,729;27431,980;    1,191;    0,864
652,305;27617,222;    0,645;    2,773
652,881;32012,919;   -0,082;    1,136
653,458;39029,343;    1,100;    0,227
654,034;43233,949;    0,282;    1,591
654,610;44853,373;    0,554;    0,773
655,186;46230,434;    0,645;    3,045
655,762;45949,222;   -0,991;    0,409
656,338;45937,646;    0,100;    0,136
656,913;46972,252;   -0,082;    0,409
657,489;46285,221;    0,827;   -0,318
658,065;46269,645;   -0,173;   -1,591
658,641;46925,251;   -0,900;   -0,864
659,217;46211,948;   -0,991;    0,409
659,792;45534,827;    0,645;   -0,409
660,368;45816,615;   -2,173;   -0,682
660,944;45474,766;   -2,082;    1,227
661,519;40936,281;   -0,628;    0,409
662,095;34751,251;   -1,719;    0,591
662,670;29821,675;    1,281;   -0,136
663,246;28466,735;    1,009;   -0,409
663,821;27734,341;    0,281;    1,682
664,396;27197,584;    0,009;    1,864
664,972;27456,553;    0,009;   -0,500
665,547;27756,977;    1,372;    0,136
666,122;27782,220;   -1,082;    0,318
666,698;28079,462;   -0,173;    0,318
667,273;27424,068;   -0,173;    0,136
667,848;28224,947;    2,372;    1,500
668,423;27992,643;    2,190;    2,318
668,998;28619,886;    2,827;   -0,682
669,573;29189,310;   -3,264;   -1,500
670,148;29003,825;   -1,446;   -0,682
670,723;28824,795;   -1,810;    0,318
671,298;29259,219;    2,372;    1,045
671,873;29386,734;   -0,082;   -0,136
672,448;29332,249;    0,645;    0,136
673,023;29675,673;   -1,992;   -0,227
673,597;29992,370;    0,827;    2,318
674,172;29764,248;   -0,355;    0,318
674,747;29215,400;    0,372;   -1,045
675,321;29074,188;   -0,628;    3,318
675,896;28645,884;    0,645;    1,045
676,471;29671,490;    2,645;    1,591
677,045;29451,551;   -1,264;    0,682
677,620;29503,157;    0,190;    1,136
678,194;29807,763;   -2,628;    1,136
678,769;29318,732;   -1,083;   -0,318
679,343;29555,247;   -0,628;    1,773
679,917;29452,217;   -1,446;    1,955
680,492;29596,005;    0,826;    3,227
681,066;29693,883;    3,372;    0,409
681,640;29739,671;    1,463;   -0,318
682,214;30542,641;    0,735;    0,500
682,788;30105,701;   -1,356;   -0,773
683,363;30033,944;   -1,810;    1,682
683,937;29716,004;   -1,719;   -0,318
684,511;30503,883;    0,463;   -0,591
685,085;30202,761;   -1,356;    0,318
685,659;29945,731;   -2,538;    0,864
686,232;30181,882;   -0,356;   -0,318
686,806;29926,943;   -0,901;    0,409
687,380;30592,185;   -0,174;    0,591
687,954;30817,337;   -1,174;    1,136
688,528;30511,852;   -0,719;    1,955
689,101;31285,730;   -3,992;    1,045
689,675;30904,973;   -0,356;   -0,136
690,249;30276,851;   -0,719;    0,409
690,822;30550,275;    0,280;    0,318
691,396;30650,700;   -0,265;    1,227
691,969;30090,851;    1,280;    0,136
692,543;30549,002;   -0,447;   -1,955
693,116;30178,063;   -0,265;   -1,409
693,690;30045,033;    0,099;    0,500
694,263;30636,184;   -1,083;    2,955
694,836;30608,699;    1,371;    3,591
695,410;29219,941;   -0,265;    1,773
695,983;29758,093;    0,189;    0,591
696,556;29708,062;   -0,447;   -1,045
697,129;30133,577;   -0,356;    1,409
697,703;29778,183;   -1,629;    1,955
698,276;29754,153;    1,462;   -0,773
698,849;29556,213;    1,280;    1,409
699,422;29954,728;   -1,083;    0,591
699,995;29682,971;    0,007;    0,136
700,568;30124,122;   -0,629;    3,045
701,140;30128,546;   -2,811;    1,682
701,713;29868,879;   -0,174;    2,409
702,286;29612,576;   -0,538;    0,864
702,859;29526,273;   -0,902;   -0,591
703,432;28657,606;    0,825;    0,682
704,004;29144,485;    0,462;    0,318
704,577;29024,818;   -0,629;    0,136
705,150;29673,061;    0,189;    2,500
705,722;29451,848;   -0,356;   -3,227
706,295;29150,091;   -0,175;   -0,591
706,867;29053,606;   -0,175;    1,955
707,440;29265,121;   -1,720;   -0,409
708,012;29473,818;    0,462;    0,591
708,584;29423,787;    2,462;    0,227
709,157;29721,393;    1,825;   -0,591
709,729;29326,181;    2,280;    2,045
710,301;30227,423;    0,734;    0,045
710,874;30252,575;   -1,447;   -0,227
711,446;29103,453;    0,371;    0,864
712,018;28983,968;    0,098;    0,500
712,590;28728,938;   -1,993;    1,682
713,162;29250,817;    0,825;    1,318
713,734;29558,513;    1,825;   -2,045
714,306;29440,392;   -1,902;   -0,409
714,878;28097,998;    0,825;    0,864
715,450;28902,240;    0,643;    0,864
716,022;29142,119;    1,552;    1,318
716,593;29320,543;    0,189;    0,591
717,165;29280,058;   -3,175;   -1,227
717,737;28979,846;    0,280;    0,409
718,309;28610,179;    0,280;   -0,045
718,880;28581,058;   -0,539;   -1,409
719,452;28811,028;   -0,175;   -1,591
720,024;28349,815;    0,734;   -0,591
720,595;28950,239;   -2,902;    0,955
721,167;28524,118;    0,370;   -2,045
721,738;28015,360;   -0,812;   -1,045
722,309;27992,966;   -0,993;   -1,227
722,881;27746,845;   -1,357;    0,773
723,452;28390,724;   -2,630;    2,864
724,023;28531,511;   -0,721;    2,682
724,595;28275,208;    0,007;    0,682
725,166;28070,269;    0,007;   -0,409
725,737;27708,784;    1,734;    0,227
726,308;27867,663;   -0,266;    0,318
726,879;28284,359;   -1,630;    1,227
727,450;28132,147;    0,552;   -0,045
728,021;28132,299;    3,097;    0,682
728,592;27874,723;    0,734;    0,500
729,163;28165,601;    0,643;   -0,136
729,734;28214,480;    0,188;   -0,227
730,305;28547,359;    1,734;    0,136
730,876;28985,965;    0,188;    2,955
731,447;28655,934;    2,188;    2,682
732,017;28785,813;    1,097;    1,864
732,588;28250,964;    0,734;    1,227
733,159;28430,661;    0,643;   -1,045
733,729;28219,358;    0,006;    0,409
734,300;27488,419;    0,915;    0,864
734,870;27898,388;    3,461;    0,591
735,441;28462,812;    0,370;   -0,591
736,011;28258,873;    0,643;   -1,591
736,582;28217,842;   -0,812;    0,045
737,152;27695,812;   -1,721;   -2,045
737,722;28165,145;   -0,267;   -0,682
738,293;27893,751;   -1,358;    1,318
738,863;27739,993;    2,461;    2,318
739,433;27491,236;    5,279;    0,318
740,003;28130,842;   -0,994;   -0,682
740,573;27520,993;    2,097;   -1,591
741,143;27483,781;   -1,085;    0,318
741,713;28271,932;    1,188;   -0,500
742,283;27967,993;    0,915;    1,591
742,853;27796,781;    1,915;    1,591
743,423;27239,023;    1,733;    0,045
743,993;27358,811;   -0,358;    1,500
744,563;26707,689;    0,097;   -0,864
745,133;26681,659;   -0,812;   -0,864
745,702;27370,901;   -0,267;    1,773
746,272;26600,416;   -0,176;    0,591
746,842;26349,204;   -1,358;   -0,591
747,411;26765,355;   -0,267;   -0,318
747,981;27029,416;    0,097;    0,500
748,551;27047,022;    2,278;   -1,045
749,120;26900,719;    0,642;   -0,227
749,690;27243,325;   -0,631;    2,409
750,259;27585,840;    1,369;    2,955
750,828;27525,718;    1,551;   -1,955
751,398;27751,415;    1,278;   -0,045
751,967;27257,476;    2,187;    0,409
752,536;27513,900;   -0,813;   -0,227
753,105;27925,597;    0,096;    0,227
753,675;27693,657;    0,096;    1,773
754,244;27680,809;   -0,904;    3,591
754,813;27664,687;    0,551;    1,227
755,382;27219,202;    0,460;    0,955
755,951;27816,081;    1,551;    3,682
756,520;27361,869;   -0,085;    1,864
757,089;27926,202;    0,278;    0,500
757,658;28092,172;    1,733;    1,227
758,227;28103,959;    1,096;    0,318
758,795;28418,929;    1,187;    1,136
759,364;28645,899;   -0,086;   -0,591
759,933;27657,595;   -1,176;   -0,045
760,501;27150,110;    0,733;   -1,318
761,070;27621,625;   -2,813;   -1,409
761,639;28333,050;   -1,904;    1,318
762,207;27591,383;    1,551;   -0,955
762,776;27558,171;    0,369;    0,864
763,344;27527,231;   -0,995;    0,591
763,913;26713,928;   -0,722;    1,409
764,481;27389,443;    1,005;   -0,136
765,049;27190,503;   -1,358;    1,409
765,618;27102,200;   -0,086;    0,318
766,186;27193,079;    0,278;    0,136
766,754;27372,685;    0,005;    1,864
767,322;26340,109;   -1,995;    0,409
767,890;26389,261;   -0,722;   -1,773
768,459;26810,321;   -2,177;   -0,318
769,027;26939,836;    1,641;    3,409
769,595;25898,442;    3,278;    2,591
770,163;26367,684;    3,823;    2,955
770,730;26139,654;    0,732;   -0,136
771,298;25967,714;    0,187;   -1,409
771,866;26039,048;   -1,541;    4,955
772,434;26364,290;   -0,631;   -1,864
773,002;26498,714;    0,005;    0,682
773,569;26133,229;    0,914;    1,682
774,137;26001,017;   -0,268;   -0,045
774,705;26825,168;    0,278;   -0,136
775,272;26230,956;    0,641;    0,682
775,840;25972,653;   -0,177;    2,682
776,407;25577,713;    0,277;    1,955
776,975;25171,592;   -0,632;    0,318
777,542;26155,562;   -1,086;   -0,045
778,110;26018,531;   -1,268;   -0,045
778,677;25740,683;   -2,359;   -0,864
779,244;25501,561;    2,186;    1,045
779,812;25564,167;    1,823;    0,864
780,379;25392,864;    0,005;    1,136
780,946;25648,834;    1,005;   -0,773
781,513;25956,712;   -1,450;    0,318
782,080;25333,955;   -0,086;    2,864
782,647;26114,197;   -0,268;    3,045
783,214;25673,348;   -0,177;    3,864
783,781;25269,318;   -0,723;   -0,682
784,348;25123,197;   -0,632;    1,500
784,915;25670,439;   -3,177;    0,318
785,482;25409,499;    1,368;    2,591
786,049;25833,833;    0,186;   -0,591
786,615;25954,620;    0,277;   -0,955
787,182;25729,408;    0,186;   -0,682
787,749;25344,741;   -2,814;    1,409
788,315;24652,438;   -1,632;   -0,409
788,882;24981,226;    1,550;   -1,227
789,448;25704,287;    1,732;   -0,955
790,015;25717,802;    1,095;    3,227
790,581;25310,044;    1,459;    0,227
791,148;25179,468;    0,641;    1,045
791,714;25436,983;   -0,541;    3,136
792,280;25089,225;    0,186;    1,591
792,847;24680,468;    0,550;    2,500
793,413;25238,710;   -0,269;   -0,318
793,979;24708,680;    3,459;   -1,318
794,545;24764,649;    4,459;    2,682
795,111;24142,801;    2,186;    1,318
795,678;24386,225;    0,731;   -1,682
796,244;24013,740;    3,368;    0,136
796,810;24604,164;    1,731;    0,773
797,375;24316,770;    0,549;   -2,136
797,941;24342,103;   -0,541;    0,591
798,507;24478,164;   -0,451;   -0,955
799,073;24026,224;   -0,360;    0,591
799,639;24060,739;   -2,632;    3,136
800,205;24163,527;    0,095;    2,682
800,770;23683,315;    0,640;    1,773
801,336;23731,193;    1,368;   -0,955
801,901;23421,981;    4,549;    3,136
802,467;23949,587;   -0,542;    2,045
803,033;23289,920;   -0,087;    0,864
803,598;23528,072;    1,913;   -1,045
804,163;23557,769;    1,095;   -0,318
804,729;23518,011;   -0,178;    1,136
805,294;23938,526;    0,822;    2,227
805,859;23746,041;    0,731;   -0,409
806,425;23190,556;    1,186;    2,682
806,990;22849,980;    2,186;    4,318
807,555;23416,677;   -1,451;    2,591
808,120;23256,192;    0,822;   -0,409
808,685;23286,162;    0,185;   -2,500
809,250;22760,404;    0,004;   -0,500
809,815;23111,646;    1,913;    0,682
810,380;23617,798;   -0,269;    1,591
810,945;24174,131;   -1,087;    2,045
811,510;23341,646;    2,094;    1,591
812,075;22998,888;   -0,633;   -1,409
812,640;23082,494;    2,003;    1,409
813,204;23142,646;    0,822;   -0,227
813,769;23646,070;    2,094;   -0,045
814,334;23034,767;    0,458;    0,864
814,898;23112,918;    0,367;    0,591
815,463;22981,069;    1,276;   -0,773
816,027;22933,403;   -0,724;   -2,318
816,592;23002,827;    0,640;   -2,045
817,156;22485,524;    2,094;    1,136
817,721;22334,220;    4,276;    2,318
818,285;22313,645;    2,912;    1,500
818,849;22997,978;   -1,451;    1,682
819,414;22859,856;   -0,269;    2,955
819,978;22440,190;   -1,269;    1,773
820,542;23012,432;    2,003;    0,500
821,106;22716,947;   -0,815;    0,682
821,670;22818,462;   -0,815;    2,591
822,234;22572,432;   -0,270;    1,409
822,798;21956,765;    0,003;    0,500
823,362;21884,644;   -0,633;    4,227
823,926;21185,522;    0,094;    1,136
824,490;21375,855;   -0,997;   -0,682
825,054;21807,552;   -0,088;   -1,136
825,618;21473,613;   -1,542;   -1,500
826,181;21406,310;    0,458;   -1,318
826,745;21327,097;    1,367;   -1,045
827,309;21634,431;    1,185;    1,318
827,872;21037,128;    1,367;    0,955
828,436;22039,188;    1,185;   -0,773
828,999;22108,158;   -0,997;    1,227
829,563;20905,036;   -0,179;    1,136
830,126;20718,551;   -0,179;   -0,591
830,690;20722,430;   -1,997;    2,864
831,253;20249,036;   -0,543;    2,227
831,816;20367,278;   -1,906;    0,500
832,380;20291,521;    0,185;    0,864
832,943;20504,036;   -1,361;   -0,500
833,506;20001,914;    2,639;   -1,227
834,069;20793,520;    3,912;   -0,955
834,632;20904,581;    1,730;    1,318
835,195;20779,096;    1,003;    0,955
835,758;19937,065;   -0,997;    1,955
836,321;19787,944;    0,730;   -1,045
836,884;19881,823;   -0,725;   -0,955
837,447;19910,429;   -2,816;    1,773
838,010;20193,489;    0,366;    3,227
838,573;20511,186;   -1,179;    0,773
839,135;20427,156;   -1,361;   -0,955
839,698;19882,580;    1,275;    0,409
840,261;19403,458;    1,003;   -0,227
840,823;19243,610;   -0,543;    0,864
841,386;19532,489;   -0,452;   -2,409
841,948;19422,640;   -1,361;    1,773
842,511;19196,610;    0,912;    1,682
843,073;19311,488;    1,912;    0,227
843,636;19098,458;   -0,361;   -0,227
844,198;19028,064;    0,911;    0,591
844,760;19148,306;    1,093;    1,955
845,322;18767,185;    0,548;    1,136
845,885;19226,336;    0,730;    0,591
846,447;19688,578;   -1,998;    0,227
847,009;19201,457;    1,911;   -0,682
847,571;19556,881;    0,820;   -2,045
848,133;19653,305;   -1,089;   -1,864
848,695;19490,820;   -0,543;    1,409
849,257;19023,517;   -1,089;   -1,682
849,819;19191,850;   -0,998;   -0,409
850,381;19253,911;   -0,725;   -0,864
850,942;19616,062;    1,093;   -0,591
851,504;19550,759;    1,184;    0,227
852,066;19612,820;    1,275;   -1,591
852,628;19114,880;   -0,180;    1,955
853,189;18689,213;    1,638;    2,682
853,751;18835,819;   -0,907;    1,409
854,312;18647,880;   -0,453;   -1,682
854,874;19103,940;   -2,089;   -0,773
855,435;19647,910;   -0,907;   -1,682
855,997;19808,516;   -1,816;   -0,136
856,558;19046,486;    0,366;    1,773
857,119;19203,910;    0,820;    2,864
857,681;18920,061;    0,002;    0,318
858,242;18912,758;    1,911;   -2,136
858,803;19379,455;    0,456;   -0,773
859,364;19953,970;    0,184;   -4,773
859,925;19251,303;   -2,453;   -0,955
860,486;19153,364;   -0,453;   -0,955
861,047;18880,060;   -0,544;   -1,227
861,608;18678,212;   -1,089;   -0,773
862,169;18851,454;    0,638;   -0,045
862,730;18636,515;    0,456;    1,409
863,291;18872,393;   -0,635;   -0,500
863,852;19208,908;   -0,635;    1,955
864,412;18672,151;   -0,271;   -0,864
864,973;17225,575;   -0,089;    0,500
865,534;17092,726;   -1,726;    0,227
866,094;18604,968;    1,820;    0,227
866,655;18236,393;    1,274;    3,318
867,215;18534,271;    0,274;    0,136
867,776;18369,605;    0,547;   -0,136
868,336;18486,756;   -1,453;    0,136
868,897;17951,907;    2,638;    1,682
869,457;17670,331;    1,365;    0,318
870,017;17911,392;    0,547;   -1,227
870,578;18451,998;   -0,817;    0,773
871,138;18138,058;   -2,089;   -0,955
871,698;17663,573;   -0,817;   -1,318
872,258;17521,361;   -0,453;   -2,864
872,818;17910,967;    2,729;    0,045
873,378;17852,846;    0,638;    1,045
873,938;17429,634;    0,547;    0,500
874,498;17801,512;    0,274;   -1,955
875,058;17641,664;    2,183;    1,773
875,618;17489,451;    1,910;   -2,682
876,177;17440,603;    1,274;    0,136
876,737;16997,482;   -0,090;    1,955
877,297;17065,724;    0,183;    1,955
877,856;17066,966;   -0,362;    0,318
878,416;17030,208;    1,183;   -0,136
878,976;17256,360;   -1,817;    0,409
879,535;17400,420;    0,092;    3,136
880,095;17080,117;   -0,544;    0,045
880,654;17233,269;   -1,090;    1,318
881,213;17294,420;    2,456;    1,500
881,773;16980,753;    2,637;    2,682
882,332;17303,177;    3,365;    5,136
882,891;17156,874;    3,092;    2,136
883,451;17634,571;   -1,272;    1,682
884,010;17068,995;   -2,908;   -0,409
884,569;17139,328;   -0,999;   -0,045
885,128;17308,753;    2,819;   -1,864
885,687;17409,813;    4,455;    0,682
886,246;17055,964;    1,455;    2,136
886,805;16832,570;    2,455;    2,045
887,364;17115,904;   -0,999;   -0,500
887,922;17464,964;   -1,181;    0,045
888,481;16977,025;   -1,545;    0,591
889,040;17288,631;    1,183;    2,136
889,599;17968,418;    2,455;    1,409
890,157;18036,842;    1,455;    2,409
890,716;17705,358;   -0,090;    0,227
891,274;17543,600;    0,092;   -1,136
891,833;18002,206;    1,546;    0,864
892,391;17882,266;   -0,454;    0,500
892,950;17950,781;    1,819;   -0,773
893,508;18321,751;    0,455;   -0,409
894,067;17624,721;    0,637;    0,136
894,625;17524,599;   -0,636;   -1,500
895,183;17813,387;   -0,363;   -0,682
895,741;17661,538;    1,728;   -1,773
896,299;17537,508;   -0,545;   -2,409
896,858;17728,205;    0,819;   -1,591
897,416;17796,811;    2,728;   -1,318
897,974;17577,689;    1,819;    0,318
898,532;17664,659;    6,091;    2,682
899,089;17562,174;    2,091;   -0,682
899,647;17662,235;   -1,454;    1,318
900,205;17366,750;    1,182;    1,045
900,763;17552,083;   -0,454;    0,227
901,321;17585,143;    2,364;   -1,409
901,878;17013,295;   -1,000;   -0,773
902,436;16855,355;   -1,363;    1,318
902,994;17264,234;    4,728;    3,682
903,551;16685,658;    0,728;    0,409
904,109;17091,355;    0,182;   -1,409
904,666;16689,415;    2,455;    1,045
905,224;16482,021;    0,182;   -0,409
905,781;16197,900;    0,727;   -0,318
906,338;16320,597;   -1,363;    1,045
906,895;16290,294;    0,637;    2,045
907,453;16185,991;    1,727;    1,136
908,010;16218,687;   -0,909;    0,409
908,567;15878,839;    1,273;    0,591
909,124;15395,899;    0,364;   -1,500
909,681;15444,323;   -2,909;    0,682
910,238;15557,475;    0,636;   -1,318
910,795;15882,263;   -0,273;   -1,136
911,352;15535,899;   -2,909;   -2,682
911,909;14941,354;   -1,364;   -0,864
912,466;15420,354;   -3,182;    1,500
913,022;14982,081;   -1,636;    0,500
913,579;15338,081;   -0,909;    2,045
914,136;15017,535;    1,636;    0,955
914,692;15366,808;    0,091;   -1,227
915,249;14924,899;    1,455;    0,409
915,806;15150,444;    0,182;    1,955
916,362;14914,263;    1,909;    1,864
916,918;14466,172;    2,000;    1,045
917,475;14424,263;   -1,182;    0,955
918,031;14518,808;    3,364;   -0,045
918,587;13953,808;   -0,909;   -0,318
919,144;14169,172;   -2,273;    0,227
919,700;14481,899;    1,727;    0,773
920,256;14115,899;    0,727;    0,045
920,812;13702,081;   -0,727;   -1,045
921,368;13708,990;   -1,727;   -1,045
921,924;13335,717;    0,182;   -0,136
922,480;12892,717;   -0,545;    1,227
923,036;13505,717;    1,273;    1,955
923,592;13429,808;    0,455;    0,318
924,148;13361,717;    0,455;   -0,955
924,704;12663,535;   -1,364;   -0,409
925,259;12927,444;   -0,273;    0,591
925,815;12689,354;    1,455;    0,500
926,371;12215,626;    2,909;    1,409
926,926;12081,444;    2,091;    0,591
927,482;11703,172;   -1,364;    0,773
928,037;11584,899;    0,909;    2,045
928,593;11837,626;    1,636;    1,045
929,148;11684,808;   -1,818;   -1,500
929,704;11224,626;   -1,455;   -0,500
930,259;11411,626;    0,091;   -0,136
930,814;10443,990;   -0,818;    1,955
931,369;10121,535;    1,091;   -0,773
931,925; 9984,808;   -0,091;    0,136
932,480; 9890,808;   -2,818;   -2,591
933,035; 9768,808;    0,545;   -0,318
933,590; 9533,535;    0,364;   -1,773
934,145; 9161,899;   -1,364;   -0,318
934,700; 9523,354;    0,455;   -0,591
935,255; 9313,263;   -0,091;    0,045
935,809; 8570,535;    3,182;    0,864
936,364; 7699,535;   -0,455;   -0,136
936,919; 7652,808;    0,455;   -1,773
937,474; 7515,172;    1,455;    0,136
938,028; 7298,172;   -1,636;    1,136
938,583; 6760,444;    1,818;    4,682
939,138; 7029,808;    2,091;    2,136
939,692; 6464,808;    1,636;   -1,136
940,247; 6143,263;   -0,727;   -1,045
940,801; 5676,899;   -0,636;    0,227
941,355; 5563,717;   -0,364;    2,591
941,910; 5232,717;   -0,273;   -2,136
942,464; 5339,990;   -0,818;   -0,318
943,018; 5102,172;    1,000;   -0,227
943,572; 5042,263;    2,545;   -0,682
944,126; 4450,717;    0,091;   -0,409
944,681; 4340,717;    3,091;    0,227
945,235; 4313,808;    1,000;   -0,591
945,789; 4257,899;    0,364;   -1,864
946,342; 4347,535;    0,455;   -0,591
946,896; 4178,444;   -2,273;    0,955
947,450; 3932,263;    1,545;   -0,227
948,004; 4103,990;    1,727;   -0,045
948,558; 4143,081;    0,273;   -0,864
949,111; 4046,354;   -0,273;   -0,318
949,665; 4058,717;    1,636;   -0,682
950,219; 3922,626;   -0,091;   -1,045
950,772; 4003,990;   -1,909;    1,864
951,326; 3915,444;    0,545;   -0,955
951,879; 4032,354;    0,727;   -2,318
952,433; 4052,444;    0,000;    2,227
952,986; 3894,717;    2,909;    0,682
953,539; 3852,263;   -0,273;    0,591
954,093; 3762,444;    0,545;   -1,318
954,646; 3908,899;    0,909;    1,318
955,199; 3726,990;    0,000;   -0,500
955,752; 3603,172;   -0,455;    1,773
956,305; 3556,626;   -0,091;    2,955
956,858; 3744,354;    0,818;   -0,318
957,411; 3899,081;   -0,545;    2,136
957,964; 3726,172;    1,364;    2,136
958,517; 3718,172;   -1,545;    3,136
959,070; 3548,717;   -0,455;    1,955
959,623; 3616,626;    1,091;    1,500
960,176; 3370,263;    1,727;    2,045
960,728; 3347,990;   -2,727;    0,773
961,281; 3402,444;    0,545;    0,500
961,834; 3472,354;   -0,909;    0,864
962,386; 3381,172;    1,727;    1,045
962,939; 3308,354;    0,364;   -0,318
963,491; 3447,808;    0,455;    1,136
964,043; 3322,535;    1,182;    2,409
964,596; 3438,263;   -1,000;    2,227
965,148; 3289,717;   -1,000;    1,773
965,700; 3208,626;    1,091;   -0,227
966,253; 3346,808;   -0,636;    0,318
966,805; 3196,354;   -2,273;    0,773
967,357; 3240,808;    1,091;   -1,500
967,909; 3175,990;    0,455;   -1,227
968,461; 3325,808;    0,545;    3,136
969,013; 3262,535;   -0,182;   -0,864
969,565; 3320,626;   -0,455;   -1,136
970,117; 3362,172;   -0,364;    1,045
970,669; 3208,081;    0,182;   -0,136
971,220; 3074,808;   -0,455;   -1,500
971,772; 2990,626;   -0,636;   -0,318
972,324; 3120,081;    0,091;   -0,500
972,876; 3068,808;    0,818;   -0,045
973,427; 3213,535;    1,909;   -1,045
973,979; 3172,444;   -0,727;   -2,500
974,530; 3222,263;    1,818;    1,318
975,082; 3217,899;   -0,545;    1,682
975,633; 3102,990;    1,091;    1,682
976,184; 3257,717;    0,909;    0,773
976,736; 3032,626;    0,091;    0,227
977,287; 2837,990;   -0,909;   -0,500
977,838; 3015,535;    0,909;   -0,318
978,389; 3085,808;   -1,000;   -0,500
978,940; 2952,263;    0,545;   -0,409
979,491; 2995,626;    0,091;   -0,500
980,042; 2933,535;    0,182;    3,045
980,593; 3014,263;   -2,545;    0,227
981,144; 3064,899;    2,545;   -0,500
981,695; 2996,263;    1,455;    1,500
982,246; 2965,172;   -0,273;    1,045
982,797; 3144,626;   -1,727;    0,682
983,347; 3237,626;    0,364;    0,591
983,898; 3403,263;    3,091;    0,409
984,449; 3218,172;    2,182;    0,773
984,999; 3165,717;    1,455;   -1,136
985,550; 2917,717;    0,182;   -0,318
986,100; 2950,263;   -0,455;   -0,318
986,651; 2984,354;   -0,818;    0,045
987,201; 2969,444;   -1,000;   -0,591
987,751; 3057,354;    0,818;    2,864
988,302; 3041,626;    2,636;    1,500
988,852; 3075,354;    0,455;   -1,136
989,402; 3100,535;    0,091;    0,682
989,952; 2998,444;   -2,182;    0,864
990,502; 3119,626;   -0,091;    0,682
991,052; 3107,899;   -0,727;    0,045
991,602; 2957,626;   -2,909;    1,318
992,152; 2950,808;    0,455;    0,682
992,702; 2941,808;    1,364;   -0,045
993,252; 2856,808;   -3,000;   -0,500
993,802; 2947,808;   -0,273;    1,318
994,352; 3176,990;   -1,545;    1,136
994,901; 3285,263;   -0,182;    3,227
995,451; 3184,626;   -0,182;    0,318
996,000; 3285,808;    1,636;    0,318
996,550; 3007,535;    2,273;    0,227
997,100; 2996,263;    1,273;   -0,045
997,649; 3268,717;    2,182;    0,955
998,198; 2898,899;    1,727;   -1,500
998,748; 3094,626;    1,091;   -2,318
999,297; 3010,808;   -0,818;   -0,409
999,846; 3056,899;    1,000;   -0,773
1000,395; 3112,626;   -0,818;    0,500
1000,945; 3048,263;    1,818;   -0,773
1001,494; 3145,444;    2,364;    0,682
1002,043; 3136,172;    4,636;    0,864
1002,592; 2991,263;   -1,091;    1,955
1003,141; 3144,990;   -0,455;   -0,682
1003,690; 2992,354;    1,727;    0,500
1004,238; 3082,444;    1,455;   -0,045
1004,787; 2719,081;    1,364;    1,227
1005,336; 2936,263;    0,364;    0,682
1005,885; 3100,081;    1,364;   -2,773
1006,433; 3220,808;    0,545;    0,955
1006,982; 3280,717;    0,455;    1,682
1007,531; 3209,263;   -1,818;   -0,227
1008,079; 3169,717;   -2,273;    0,500
1008,627; 3304,263;   -1,455;    0,409
1009,176; 3036,081;    0,000;   -1,955
1009,724; 3089,808;    1,091;    0,864
1010,273; 3119,990;    1,273;    0,500
1010,821; 3256,444;    0,091;    1,409
1011,369; 2993,081;   -1,364;    1,318
1011,917; 2976,081;   -1,364;   -0,591
1012,465; 3252,081;    1,273;   -1,591
1013,013; 3380,172;    2,091;   -1,682
1013,561; 3245,172;    0,455;   -0,773
1014,109; 3287,626;   -1,909;    1,682
1014,657; 3149,535;    0,364;    0,591
1015,205; 3310,626;    1,636;   -0,955
1015,753; 3363,354;   -0,545;   -1,409
1016,301; 3395,899;   -2,636;    3,045
1016,848; 3386,172;   -1,273;    0,409
1017,396; 3424,172;    2,545;    0,045
1017,944; 3544,626;    1,182;    1,864
1018,491; 3285,717;    0,273;    1,409
1019,039; 3445,354;    0,455;    0,591
1019,586; 3383,899;   -1,364;    1,682
1020,134; 3479,354;    0,455;    1,500
1020,681; 3487,444;    0,182;   -1,136
1021,228; 3518,626;    2,909;   -2,227
1021,776; 3331,717;    1,182;   -1,136
1022,323; 3546,263;    0,455;    0,773
1022,870; 3490,626;   -1,000;   -0,045
1023,417; 3378,899;    2,636;    1,864
1023,964; 3540,081;    2,636;    1,227
1024,511; 3374,444;    1,000;    0,773
1025,058; 3164,263;    3,182;   -0,045
1025,605; 3225,899;   -2,273;    3,136
1026,152; 3435,081;    1,727;   -0,591
1026,699; 3180,626;    1,818;    1,318
1027,245; 3339,535;   -0,091;    0,318
1027,792; 3560,535;   -1,000;    1,409
1028,339; 3427,535;    2,364;   -0,045
1028,885; 3274,263;    1,000;   -0,227
1029,432; 3226,081;   -0,091;    0,227
1029,978; 3281,717;   -1,000;   -1,591
1030,525; 3199,263;    1,000;    0,409
1031,071; 3446,808;   -1,364;    1,136
1031,618; 3534,354;    0,364;    1,682
1032,164; 3314,081;   -0,091;    3,045
1032,710; 3365,263;    1,636;   -1,500
1033,256; 3286,717;   -0,636;   -0,136
1033,803; 3285,172;   -0,545;    1,500
1034,349; 2997,081;   -1,364;    0,136
1034,895; 3158,354;    0,000;   -0,318
1035,441; 3144,354;   -0,818;    0,318
1035,987; 3126,081;   -2,364;   -0,682
1036,533; 3116,535;   -1,455;   -0,955
1037,078; 3301,263;    1,455;    1,682
1037,624; 3135,172;    2,455;   -0,955
1038,170; 3176,354;    0,455;   -0,318
1038,716; 3087,899;    1,636;   -0,409
1039,261; 2998,626;   -2,273;   -0,773
1039,807; 2942,081;   -0,091;    3,409
1040,352; 2996,354;   -1,909;   -0,318
1040,898; 3052,899;   -1,545;   -0,682
1041,443; 2954,263;   -1,455;   -2,591
1041,989; 2954,354;    1,091;    1,591
1042,534; 2870,081;   -0,364;    2,591
1043,079; 2982,717;    2,909;    0,955
1043,625; 2748,899;    1,818;    0,500
1044,170; 2805,717;   -1,364;    1,045
1044,715; 3044,626;    2,455;    0,955
1045,260; 2845,808;    2,182;   -0,955
1045,805; 2930,263;    1,182;   -0,591
1046,350; 2863,717;    1,364;   -0,409
1046,895; 2813,263;    2,909;    1,591
1047,440; 2747,717;    5,364;    0,409
1047,985; 2652,263;    2,818;   -0,955
1048,530; 2574,354;    1,545;    1,227
1049,074; 2643,081;    0,000;    0,318
1049,619; 2620,899;   -1,364;    1,955
1050,164; 2409,626;    0,455;    0,227
1050,708; 2446,354;   -0,455;    0,045
1051,253; 2800,354;    1,273;   -2,227
1051,797; 2520,172;    0,818;   -1,318
1052,342; 2541,444;   -1,182;    1,045
1052,886; 2535,172;    0,364;   -1,409
1053,430; 2433,172;   -1,364;    0,136
1053,975; 2438,172;   -0,818;   -0,318
1054,519; 2424,535;   -0,727;    3,227
1055,063; 2416,263;    0,909;    1,318
1055,607; 2293,081;   -0,182;    0,227
1056,151; 2337,354;    2,909;    1,682
1056,695; 2264,081;    2,273;   -1,136
1057,239; 2330,808;   -1,727;   -0,682
1057,783; 2335,444;    0,818;   -1,500
1058,327; 2271,626;    0,000;    1,409
1058,871; 2478,444;   -0,545;    1,318
1059,415; 2187,717;   -0,818;   -0,045
1059,958; 2442,990;    1,455;    2,591
1060,502; 2173,990;   -1,000;   -0,773
1061,046; 2097,081;    0,364;   -0,955
1061,589; 2076,717;   -3,000;   -1,136
1062,133; 1951,717;   -1,273;    1,864
1062,676; 1884,444;    1,182;    0,864
1063,220; 1871,535;    1,091;    0,500
1063,763; 1886,081;    0,909;    1,136
1064,306; 1975,172;   -0,909;    1,864
1064,849; 1867,626;   -0,909;    0,591
1065,393; 1867,081;    2,000;   -1,500
1065,936; 1987,444;    0,182;   -0,409
1066,479; 1884,626;   -1,455;    1,318
1067,022; 1895,535;   -0,273;   -0,227
1067,565; 1790,081;   -0,091;   -1,318
1068,108; 1832,626;    0,727;   -0,591
1068,651; 1806,354;   -0,636;    1,409
1069,194; 1729,808;   -0,455;   -1,682
1069,736; 1722,172;   -1,273;    0,955
1070,279; 1701,172;   -1,364;   -0,500
1070,822; 1728,717;   -2,000;   -0,318
1071,364; 1809,172;   -0,364;    1,318
1071,907; 1637,717;   -0,727;    3,227
1072,450; 1564,535;    0,000;   -0,045
1072,992; 1547,263;   -0,273;    3,136
1073,535; 1695,626;    2,091;    2,136
1074,077; 1488,808;   -0,727;    2,045
1074,619; 1444,354;   -1,364;    0,591
1075,161; 1465,626;   -1,091;    1,500
1075,704; 1640,535;    1,545;    1,227
1076,246; 1449,990;   -0,182;    0,682
1076,788; 1371,444;   -0,364;    1,773
1077,330; 1458,626;    1,273;    2,136
1077,872; 1417,172;    0,909;    0,955
1078,414; 1628,717;    2,727;    0,773
1078,956; 1367,081;    1,273;   -0,227
1079,498; 1615,535;    1,636;    0,318
1080,040; 1330,899;    1,909;   -1,318
1080,581; 1285,263;    1,636;   -0,318
1081,123; 1207,535;    0,091;   -0,773
1081,665; 1265,263;   -1,182;   -0,955
1082,206; 1541,808;    1,364;   -0,500
1082,748; 1397,081;    0,727;    2,045
1083,289; 1290,535;   -2,000;    1,318
1083,831; 1193,172;   -0,545;    0,227
1084,372; 1223,899;    0,000;    0,591
1084,913; 1210,081;    1,091;    0,864
1085,455; 1198,444;   -1,909;   -2,045
1085,996; 1163,535;   -2,273;    0,136
1086,537; 1180,626;   -0,091;    0,864
1087,078; 1232,172;   -0,909;   -2,136
1087,619; 1260,899;   -1,273;    0,227
1088,160; 1183,808;    0,000;    1,318
1088,701; 1161,808;   -1,091;    0,682
1089,242; 1098,081;    1,364;   -2,227
1089,783; 1192,990;   -0,273;    1,409
1090,324; 1164,081;    0,455;    0,682
1090,865; 1041,263;    2,727;   -0,409
1091,405; 1003,808;    0,727;    2,227
1091,946; 1039,990;    0,182;   -0,955
1092,487;  961,717;    0,818;   -1,409
1093,027; 1120,899;   -1,364;   -1,500
1093,568;  978,626;   -0,364;    1,227
1094,108; 1067,990;    0,273;    1,773
1094,649; 1016,354;   -1,182;    0,136
1095,189;  950,081;   -0,636;   -0,682
1095,729;  895,535;   -0,091;    0,955
1096,269;  911,172;    0,727;   -0,955
1096,810; 1225,081;   -1,364;    0,500
1097,350; 1049,535;    1,364;   -0,773
1097,890;  957,535;    0,364;    1,227
1098,430; 1190,717;    2,364;    2,864
1098,970; 1053,081;    2,182;    1,682
1099,510;  936,808;    0,545;   -2,318
1100,050;  863,717;    1,000;   -1,591
1100,589;  838,354;   -0,727;   -0,318
1101,129;  950,717;    0,818;   -0,955
1101,669; 1090,899;    1,727;    2,136
1102,209;  926,808;   -0,091;    2,227
1102,748;  878,990;    0,000;    0,955
1103,288;  860,354;    1,273;   -1,227
1103,827;  899,626;    3,091;   -2,227
1104,367;  771,535;   -0,091;   -2,409
1104,906;  730,263;    1,364;   -1,136
1105,445;  800,990;    0,636;   -1,136
1105,985;  736,717;   -0,727;    1,500
1106,524;  785,626;   -1,727;   -0,682
1107,063;  761,990;   -2,727;    1,409
1107,602;  740,808;   -1,909;   -1,500
1108,141;  661,899;   -1,909;    1,500
1108,680;  756,899;   -3,455;   -0,591
1109,219;  700,444;   -0,909;   -0,500
1109,758;  696,535;    0,455;    0,682
1110,297;  671,899;    1,000;   -0,682
1110,836;  615,899;   -0,727;    0,955
1111,375;  786,263;   -2,545;    0,409
1111,913;  795,626;   -1,000;    0,773
1112,452;  729,626;   -0,273;    0,136
1112,991;  611,172;    1,091;    1,955
1113,529;  573,535;   -0,818;   -0,045
1114,068;  636,444;   -0,273;    2,955
1114,606;  538,354;   -0,364;   -0,955
1115,144;  708,081;   -1,273;    1,045
1115,683;  645,535;   -0,727;    0,318
1116,221;  688,444;   -0,455;   -0,864
1116,759;  590,808;    0,636;   -0,864
1117,297;  786,717;    0,000;    1,864
1117,836;  598,535;   -2,182;   -1,227
1118,374;  608,626;    0,182;   -0,682
1118,912;  552,899;    0,909;    2,682
1119,450;  540,444;    1,000;    0,864
1119,988;  582,535;    1,545;    2,136
1120,525; 1030,444;    5,091;    3,318
1121,063;  734,899;    1,182;    1,864
1121,601;  543,808;   -0,909;   -1,227
1122,139;  509,444;   -0,727;   -2,045
1122,676;  698,081;   -0,727;    2,773
1123,214;  638,626;   -1,182;    4,409
1123,751;  438,808;    1,727;    2,227
1124,289;  572,990;   -0,091;   -0,409
1124,826;  434,354;    1,727;    0,227
1125,364;  362,354;    1,727;   -0,955
1125,901;  548,626;    1,182;    1,227
1126,438;  662,717;    0,818;    0,955
1126,975;  388,444;   -0,727;   -0,773
1127,513;  444,263;    0,273;    2,136
1128,050;  361,354;    1,636;   -0,682
1128,587;  466,172;    2,000;   -0,227
1129,124;  511,717;    0,091;    1,318
1129,661;  374,808;    0,273;    0,227
1130,198;  534,990;    1,636;    0,773
1130,734;  487,172;    0,182;    1,409
1131,271;  339,626;   -0,909;    0,864
1131,808;  512,626;    2,909;    3,045
1132,345;  384,717;    1,545;    0,318
1132,881;  254,081;   -1,545;   -1,864
1133,418;  396,444;    0,727;   -1,136
1133,954;  337,354;    2,455;   -2,682
1134,491;  405,263;    1,364;   -0,773
1135,027;  309,717;    2,364;    0,864
1135,564;  394,081;    0,273;    2,955
1136,100;  378,444;    0,364;    2,136
1136,636;  274,444;   -1,273;   -1,045
1137,172;  367,172;    0,000;   -1,045
1137,708;  286,354;   -1,364;   -1,045
1138,245;  303,172;    1,273;   -1,227
1138,781;  247,808;    1,091;   -3,318
1139,317;  312,899;    1,273;   -1,409
1139,852;  298,354;    3,091;    0,136
1140,388;  412,717;   -1,182;   -0,409
1140,924;  291,808;   -1,091;   -2,227
1141,460;  230,535;   -1,636;    0,136
1141,996;  175,990;   -1,364;    2,682
1142,531;  226,626;    1,364;    3,318
1143,067;  442,990;    1,182;    1,045
1143,602;  490,990;   -0,091;   -0,318
1144,138;  325,990;   -2,636;    1,045
1144,673;  195,354;   -1,455;    1,409
1145,209;  266,899;   -1,909;   -0,318
1145,744;  184,081;   -0,727;    0,864
1146,279;  324,626;    1,818;   -0,136
1146,815;  245,535;    1,545;   -2,682
1147,350;  271,990;   -1,364;    0,045
1147,885;  198,990;   -0,818;   -1,318
1148,420;  195,444;   -2,273;    0,773
1148,955;  170,626;   -1,727;    1,864
1149,490;  199,626;   -0,909;   -1,591
1150,025;  176,535;    0,455;   -1,773
1150,560;  291,808;    1,091;   -0,955
1151,094;  258,899;    1,455;   -0,591
1151,629;  264,717;    1,636;    0,864
1152,164;  194,172;    1,364;    1,318
1152,698;  155,172;   -0,182;   -0,136
1153,233;  111,081;    0,091;   -0,682
1153,767;  158,626;   -3,000;   -2,318
1154,302;  201,535;   -1,455;    1,773
1154,836;  201,444;   -0,455;   -2,136
1155,371;  259,354;   -1,364;    3,682
1155,905;  205,990;   -0,636;    1,682
1156,439;  172,444;   -0,636;   -0,500
1156,973;  209,081;    0,364;    0,318
1157,507;  141,354;   -0,364;    0,682
1158,042;  171,354;   -0,727;    1,045
1158,576;  219,081;    0,182;    1,773
1159,110;  204,808;   -0,818;    2,409
1159,643;  181,990;    0,636;   -0,045
1160,177;  122,172;   -1,545;    1,500

