
Integration time [ms]:   0,040
Averaging Nr. [scans]: 11
Smoothing Nr. [pixels]: 0
Data measured with spectrometer [name]: 7318044SP
Wave   ;Sample   ;Dark     ;Reference
[nm]   ;[counts] ;[counts] ;[counts] 

186,757;   24,282;   31,551;    1,318
187,357;   63,878;   22,551;    0,955
187,958;   33,234;   15,460;   -1,591
188,558;   83,815;    8,915;   -1,227
189,159;   46,806;    6,733;   -4,500
189,759;   12,858;    7,278;   -3,591
190,360;   24,657;    2,824;   -2,136
190,960;   53,749;    2,915;   -4,136
191,560;   66,645;    3,189;   -6,591
192,161;  314,901;    4,372;   -3,500
192,761;  155,015;    4,010;   -3,227
193,361;  103,842;    1,556;   -3,773
193,962;  152,902;    2,010;   -2,682
194,562;   80,660;    1,189;   -3,955
195,162;  111,518;   -2,448;   -2,227
195,762;  278,270;   -3,176;   -0,045
196,362;  226,706;    1,370;   -2,500
196,963;   85,931;    2,006;   -0,864
197,563;  158,912;    1,551;   -0,955
198,163;  103,883;    0,096;   -0,682
198,763;  119,722;    1,733;   -0,500
199,363;  236,253;    3,096;   -0,500
199,963;  192,264;    0,369;    0,409
200,563;  155,466;    2,823;   -1,409
201,163;  141,777;    3,277;   -0,227
201,763;  234,201;    3,732;    0,318
202,363;  180,678;    1,459;    1,500
202,963;  276,566;    1,459;    1,045
203,563;  384,623;    0,277;    0,500
204,162;  233,920;    2,096;   -1,864
204,762;  223,906;    0,550;    0,591
205,362;  186,499;    3,004;    1,955
205,962;  292,316;    3,096;    1,955
206,562;  295,659;    1,823;    2,318
207,161;  261,213;   -0,087;    0,318
207,761;  419,055;    1,277;    2,409
208,361;  298,932;   -0,268;    1,409
208,960;  388,784;    0,459;    1,500
209,560;  459,288;    1,277;    1,591
210,160;  452,658;    0,550;    1,864
210,759;  416,812;    4,186;    1,227
211,359;  421,561;    1,459;    1,045
211,958;  688,040;    1,277;    2,045
212,558;  778,095;    1,732;    1,864
213,157;  605,082;    1,822;    1,500
213,757; 1055,960;    3,822;   -0,227
214,356;  755,169;    1,277;   -0,409
214,956; 1100,416;    3,095;    0,409
215,555;  719,536;    2,095;    2,136
216,154;  663,114;   -2,723;   -0,591
216,754;  676,011;    0,277;    0,773
217,353;  813,488;   -0,268;   -1,045
217,952;  671,721;   -0,178;    0,318
218,552;  908,545;    1,368;   -0,773
219,151;  803,832;    0,277;    0,955
219,750;  819,284;    0,004;   -0,227
220,349;  946,271;   -0,451;    1,045
220,948; 1010,810;   -1,360;    1,136
221,548; 1041,418;    0,913;    1,227
222,147; 1148,693;   -0,087;   -0,409
222,746; 1427,519;   -0,451;   -0,955
223,345; 1322,276;    0,731;    0,500
223,944; 1317,129;   -0,451;    0,773
224,543; 1497,142;    1,004;   -1,409
225,142; 1609,092;    0,094;    0,136
225,741; 1531,412;   -0,814;    1,045
226,340; 1557,474;   -0,451;   -0,955
226,939; 1994,772;   -0,996;   -0,136
227,538; 1995,517;   -0,360;   -0,773
228,137; 2116,692;   -0,814;    0,864
228,735; 2261,867;   -0,541;    1,227
229,334; 2028,128;   -0,905;   -0,227
229,933; 2401,841;    0,459;    0,591
230,532; 2522,314;    1,186;   -0,409
231,131; 2565,934;    1,732;    0,318
231,729; 2720,902;   -2,450;   -2,318
232,328; 2859,306;   -0,723;   -1,500
232,927; 2942,684;    1,004;   -0,500
233,525; 3077,697;    3,640;    0,045
234,124; 3284,554;    2,368;   -1,591
234,723; 3327,421;    0,913;   -1,045
235,321; 3467,394;    2,277;    0,136
235,920; 3692,090;    1,186;   -1,227
236,518; 3937,790;    3,459;    0,318
237,117; 4142,756;    0,004;   -0,227
237,715; 4311,465;    0,640;   -0,500
238,314; 4353,332;   -0,087;   -2,318
238,912; 4438,364;   -0,723;   -1,409
239,510; 4483,886;    0,459;   -1,227
240,109; 4676,123;    0,004;    3,773
240,707; 4720,666;   -0,996;    1,227
241,305; 5078,559;    0,550;    0,136
241,904; 5279,013;   -0,178;   -2,045
242,502; 5266,759;   -0,632;   -0,227
243,100; 5228,090;   -0,087;   -0,955
243,698; 5465,526;    0,732;    1,682
244,297; 5647,679;   -0,632;    0,682
244,895; 5490,109;   -0,269;   -2,318
245,493; 5817,592;    2,186;   -0,591
246,091; 5882,626;    1,368;   -1,318
246,689; 5897,257;    1,004;    0,591
247,287; 6057,400;    0,822;   -1,136
247,885; 6332,976;   -1,451;    1,227
248,483; 6441,907;    1,822;   -0,500
249,081; 6537,512;    0,185;    1,591
249,679; 6683,430;   -0,178;    1,682
250,277; 6966,751;   -1,723;    0,864
250,875; 6963,550;   -1,087;   -1,045
251,473; 6994,885;   -1,178;    0,500
252,071; 7200,544;    1,459;    1,045
252,669; 7342,857;   -1,814;    0,318
253,267; 7628,789;   -0,087;    0,773
253,864; 7599,037;   -0,360;    0,682
254,462; 7441,048;    1,640;    1,591
255,060; 7436,927;   -0,269;    1,318
255,658; 7741,129;    0,822;   -0,136
256,255; 8152,940;    0,186;   -2,045
256,853; 8049,612;   -0,269;    1,409
257,451; 8026,307;    0,822;    1,864
258,048; 8306,641;    1,822;    1,864
258,646; 8076,679;    1,731;   -1,045
259,243; 8256,794;   -0,087;    2,227
259,841; 8337,648;   -0,814;    0,318
260,438; 8240,858;   -0,087;    0,864
261,036; 8967,991;   -1,905;    1,409
261,633; 8867,050;   -0,087;    2,227
262,231; 8598,780;    2,731;   -0,045
262,828; 8708,494;   -0,905;    1,136
263,425; 8752,992;    0,913;   -0,591
264,023; 9003,836;    0,186;    0,045
264,620; 8540,757;   -0,360;   -0,318
265,217; 8918,863;   -2,087;    3,136
265,815; 9070,319;   -1,905;    2,136
266,412; 8817,966;    0,731;    0,136
267,009; 8857,938;   -1,451;    0,773
267,606; 8748,588;    0,822;   -0,955
268,203; 8771,229;   -0,269;   -0,591
268,801; 9080,428;    1,731;    0,591
269,398; 9358,390;   -0,360;    2,500
269,995; 9307,403;    0,277;    1,591
270,592; 9099,433;   -0,632;   -0,500
271,189; 9315,695;    0,186;    0,409
271,786; 9419,303;   -0,632;    1,227
272,383; 9256,730;   -1,087;    0,227
272,980; 9463,463;    0,277;    0,318
273,577; 9949,451;    0,004;    1,227
274,174; 9520,872;    0,822;    2,591
274,771; 9476,947;   -0,814;   -0,773
275,367; 9581,082;    2,277;    1,409
275,964; 9611,673;    0,731;   -0,500
276,561; 9707,693;    1,549;   -1,045
277,158; 9897,611;    0,095;   -1,773
277,755;10049,694;    2,185;    0,409
278,351; 9435,854;   -0,451;   -1,500
278,948; 9759,201;   -0,815;    0,045
279,545; 9784,252;   -1,360;    2,318
280,141;10365,919;   -1,723;   -2,045
280,738;10211,663;   -0,451;   -0,136
281,334;10518,208;   -1,633;    0,591
281,931; 9866,465;   -0,087;   -1,318
282,528; 9988,922;    0,822;   -0,500
283,124;10690,048;   -1,087;   -0,500
283,721;10610,987;   -0,451;    1,409
284,317;10448,354;    0,185;    2,500
284,913;10977,239;   -1,360;    0,591
285,510;11151,603;    0,640;   -0,318
286,106;11176,583;   -2,269;   -0,955
286,703;10803,605;   -0,360;    1,955
287,299;10997,103;   -1,451;   -0,591
287,895;11221,881;    0,822;   -1,045
288,491;11788,753;    0,186;    2,136
289,088;11481,412;   -2,360;    2,409
289,684;11552,766;   -1,723;    1,500
290,280;11556,083;    0,368;    0,682
290,876;11640,992;    1,822;    5,500
291,472;11558,917;    1,276;    2,227
292,068;11663,595;    1,367;    0,227
292,665;11386,376;    2,095;    0,773
293,261;10949,798;    0,276;    2,136
293,857;11360,889;    2,913;    2,136
294,453;11331,835;    3,550;    0,955
295,049;11182,204;   -0,268;    1,955
295,644;11208,159;    0,095;    0,136
296,240;11084,569;   -0,905;   -0,136
296,836;11167,709;   -0,995;    0,318
297,432;11467,542;    1,096;   -0,500
298,028;11485,334;    0,732;    0,773
298,624;11897,637;    1,459;    1,864
299,220;12180,005;    2,368;    0,591
299,815;11816,596;    1,005;   -0,409
300,411;11598,022;    0,914;    1,773
301,007;11650,952;    1,368;    0,227
301,602;11713,053;   -0,541;   -2,318
302,198;11864,710;    0,732;   -0,773
302,794;12207,863;    1,187;   -0,500
303,389;12338,881;   -1,177;    1,045
303,985;12424,867;    0,550;    1,409
304,580;12351,494;    1,459;    1,591
305,176;12327,808;   -3,086;    0,136
305,771;12285,622;   -1,268;   -1,227
306,367;12123,814;    4,095;    0,136
306,962;12461,053;    0,641;    1,500
307,558;12191,806;   -0,450;    0,136
308,153;12141,451;    1,095;   -1,136
308,748;12416,200;   -0,814;    1,682
309,344;12344,573;   -0,632;   -1,318
309,939;12426,733;   -1,905;   -1,318
310,534;12718,699;   -0,086;   -1,682
311,130;12680,362;    0,459;   -2,500
311,725;12405,956;    1,004;   -0,500
312,320;12745,487;    2,459;    0,045
312,915;12562,705;    1,459;   -1,045
313,510;12624,994;    1,550;   -0,500
314,105;13195,522;    1,096;    1,409
314,700;12562,752;   -3,086;   -1,045
315,295;12186,403;   -0,904;    0,045
315,890;11763,495;    1,277;    0,864
316,485;12151,695;   -0,359;   -0,318
317,080;12267,974;   -3,086;    1,591
317,675;12791,766;    2,005;   -0,682
318,270;12175,013;    5,550;    3,318
318,865;12203,734;    3,278;    3,045
319,460;12055,657;   -0,904;    0,591
320,055;12280,466;   -0,541;   -1,227
320,650;11955,585;   -1,995;   -0,591
321,244;12022,860;   -0,177;   -1,409
321,839;12973,497;   -1,541;   -0,227
322,434;12833,578;   -1,086;   -1,591
323,029;12443,348;    1,732;    1,591
323,623;12258,382;    1,550;    0,773
324,218;12024,488;    2,368;    1,409
324,812;11926,778;    1,096;    1,591
325,407;11739,021;   -0,814;    2,045
326,002;11630,091;    0,277;   -0,409
326,596;11950,552;    0,914;    1,318
327,191;12170,152;    0,823;   -1,045
327,785;11778,552;   -0,813;   -0,227
328,379;11952,366;    1,368;    0,136
328,974;11717,489;    0,914;   -3,955
329,568;11975,362;    0,186;   -2,409
330,163;11795,938;    2,096;    1,045
330,757;12164,499;    2,459;    1,591
331,351;11480,737;    0,459;    0,682
331,945;11805,403;    0,914;    1,409
332,540;11387,834;   -1,723;   -0,591
333,134;11535,842;   -1,086;    0,773
333,728;11757,711;    0,005;    0,318
334,322;12125,750;   -1,177;   -0,864
334,916;11421,694;    0,277;    0,955
335,510;11740,212;   -0,450;   -0,136
336,105;11974,606;   -1,086;    1,591
336,699;11653,216;   -1,086;    0,591
337,293;11619,286;   -1,723;    0,318
337,887;11763,701;   -2,723;    1,955
338,481;11906,406;    0,459;    0,591
339,074;12022,052;   -0,359;    2,682
339,668;11831,899;   -1,632;    1,227
340,262;12085,062;    1,732;    3,227
340,856;11600,359;    1,822;   -0,682
341,450;10963,381;    1,004;    1,864
342,044;11845,741;    1,459;    0,136
342,637;11664,850;    0,913;   -2,136
343,231;11507,281;   -2,360;    0,682
343,825;11483,392;   -1,086;   -0,591
344,419;11447,803;   -1,995;    0,500
345,012;11176,690;    2,459;    4,045
345,606;11185,257;    4,641;    1,591
346,199;11078,302;   -1,813;   -0,227
346,793;10574,240;    1,914;    2,045
347,386;10785,285;   -0,813;   -1,136
347,980;10812,472;   -0,268;   -0,045
348,573;10595,980;    2,278;    0,409
349,167;10236,839;    5,278;    4,773
349,760;10591,338;    2,914;    2,682
350,354;10562,359;   -0,813;    1,136
350,947;10310,518;    1,096;    1,682
351,540; 9971,266;   -0,358;   -1,409
352,134; 9933,734;    1,096;    1,136
352,727; 9981,260;   -0,086;    1,136
353,320; 9786,524;    0,005;    0,591
353,913; 9653,047;   -1,995;    1,864
354,507; 9830,895;    0,823;   -1,227
355,100; 9839,950;    0,460;    0,864
355,693; 9054,454;    2,005;    2,409
356,286; 9088,910;    0,823;    2,773
356,879; 9449,350;   -0,722;    1,227
357,472; 9060,400;   -0,904;    1,500
358,065; 9261,181;   -0,722;    2,500
358,658; 9201,253;   -0,540;    2,318
359,251; 8838,265;   -1,631;   -0,591
359,844; 8295,253;   -1,904;   -1,136
360,437; 8469,566;   -2,995;    0,045
361,030; 8740,051;    1,369;   -0,682
361,623; 8339,557;    2,824;    0,318
362,215; 8341,013;   -0,086;    2,045
362,808; 8229,686;   -2,358;   -1,682
363,401; 8433,476;   -2,449;    0,136
363,994; 8141,208;   -0,631;   -1,500
364,586; 8095,610;    0,824;   -1,500
365,179; 8291,443;   -0,449;   -1,136
365,772; 7756,094;   -1,995;    2,045
366,364; 8080,990;    1,915;   -3,227
366,957; 8290,713;    2,279;   -0,045
367,549; 8289,400;    2,188;   -0,864
368,142; 7948,886;    1,825;   -1,500
368,734; 8146,071;    0,734;   -2,136
369,327; 8088,774;    1,643;   -0,500
369,919; 8010,906;   -1,538;    0,409
370,512; 7806,467;   -1,083;   -0,500
371,104; 7580,825;   -0,901;    1,591
371,696; 7751,333;    1,191;   -0,955
372,289; 7828,557;    0,373;    1,136
372,881; 7950,388;   -2,080;    1,318
373,473; 7882,736;   -2,170;    1,136
374,066; 7679,504;   -0,169;    0,500
374,658; 7510,765;    0,378;    1,136
375,250; 7914,637;    0,653;   -1,409
375,842; 7762,062;    0,473;   -0,045
376,434; 7617,132;   -0,435;   -0,409
377,026; 8221,708;    0,204;   -2,500
377,618; 8092,838;   -0,158;   -0,682
378,210; 7952,780;   -0,338;   -1,955
378,802; 7783,243;    0,754;   -0,591
379,394; 7744,939;    1,846;    0,682
379,986; 8333,043;    1,393;   -0,955
380,578; 8462,205;   -0,153;    0,773
381,170; 7770,641;   -0,972;    0,045
381,762; 7725,237;    0,755;    1,409
382,354; 7953,881;   -0,065;   -1,318
382,945; 8064,030;   -2,976;    0,318
383,537; 8212,085;   -2,705;   -1,955
384,129; 8218,153;   -2,160;   -1,136
384,721; 8401,374;   -0,252;    0,955
385,312; 8335,278;   -0,161;   -0,955
385,904; 8412,428;   -2,706;    1,591
386,496; 7833,950;   -0,979;    1,045
387,087; 7957,764;    1,022;    2,500
387,679; 8020,316;   -1,160;    0,045
388,270; 8129,450;    2,840;    2,045
388,862; 8257,670;    1,295;   -0,318
389,453; 8159,519;   -0,887;    1,045
390,045; 8396,577;   -0,705;   -2,682
390,636; 8361,655;    0,204;   -0,591
391,227; 8214,860;   -0,523;   -0,045
391,819; 8304,690;    0,204;    0,773
392,410; 8387,621;    1,022;    0,045
393,001; 8284,354;   -0,979;   -1,591
393,593; 8558,841;    1,930;   -0,045
394,184; 8426,548;    1,385;   -0,409
394,775; 8359,950;    1,839;    2,136
395,366; 8545,973;    1,385;    0,773
395,957; 8550,574;    0,113;    0,136
396,548; 8897,731;   -0,342;    2,682
397,139; 9195,853;   -2,433;    0,591
397,730; 8912,474;   -1,888;    0,955
398,321; 9021,619;   -1,252;    0,955
398,912; 9064,427;   -0,615;    0,136
399,503; 9109,993;   -3,524;   -1,409
400,094; 8538,849;    0,294;    1,682
400,685; 8385,900;   -0,433;    0,045
401,276; 8499,943;    0,930;   -0,955
401,867; 8799,875;   -0,888;    0,773
402,458; 8883,535;   -2,251;   -2,318
403,048; 8864,554;    1,112;    0,591
403,639; 8471,094;    0,840;    0,864
404,230; 8735,144;    2,476;    0,318
404,821; 8664,265;   -0,615;    0,045
405,411; 8791,588;    1,203;   -2,591
406,002; 8376,053;   -1,252;   -1,136
406,592; 8189,295;    2,294;    0,045
407,183; 8529,344;    0,566;   -1,500
407,774; 8462,324;    3,475;   -0,136
408,364; 8778,692;    0,930;    0,409
408,954; 8400,090;    0,384;    1,227
409,545; 8449,617;    1,021;    1,045
410,135; 7975,150;    1,293;    0,500
410,726; 8116,211;    1,838;    0,318
411,316; 8521,235;    0,111;    0,773
411,906; 8204,127;   -0,253;   -0,409
412,497; 7662,118;   -1,070;   -0,045
413,087; 8259,922;   -1,980;   -0,227
413,677; 8702,335;   -0,707;    3,864
414,267; 8539,642;    0,656;    1,409
414,857; 8554,769;   -2,980;    4,227
415,448; 8839,166;    0,839;    0,500
416,038; 8537,774;    0,020;   -0,591
416,628; 8466,316;   -0,889;    0,409
417,218; 7948,005;    0,565;    3,318
417,808; 8190,768;    0,202;   -0,409
418,398; 8680,534;    0,020;    2,682
418,988; 8733,077;    2,020;    0,591
419,578; 8964,066;   -0,707;    1,409
420,168; 9278,230;   -1,343;   -0,955
420,757; 8856,107;   -1,343;   -1,500
421,347; 8546,119;    0,111;   -0,227
421,937; 8740,043;    2,292;    1,409
422,527; 8698,303;    0,838;   -0,773
423,116; 8499,379;   -0,253;   -0,045
423,706; 8882,879;   -1,889;    0,318
424,296; 8863,867;    1,384;    0,682
424,885; 9275,231;   -0,071;   -3,045
425,475; 9558,230;    1,474;   -2,864
426,065; 9485,432;   -0,980;   -0,318
426,654; 9102,654;   -0,435;   -0,318
427,244; 9183,196;    0,020;    1,409
427,833; 8654,881;    1,383;   -0,500
428,423; 9130,282;   -0,526;    1,136
429,012; 9918,900;   -0,344;   -1,136
429,601; 9398,925;   -1,344;    0,136
430,191; 9672,437;    1,292;    4,318
430,780; 9293,171;   -0,344;   -0,409
431,369; 9191,477;    0,746;   -0,045
431,959; 9864,994;   -1,254;    0,500
432,548; 9629,681;   -1,163;   -0,045
433,137; 9763,026;   -1,254;   -1,318
433,726;10319,153;    0,292;    0,500
434,315; 9652,266;   -0,526;    2,409
434,905; 9748,631;   -1,254;    1,409
435,494; 9667,724;    0,746;    0,955
436,083;10144,515;   -0,981;   -0,955
436,672;10008,133;    0,110;    0,500
437,261; 9537,960;    0,292;   -1,955
437,850; 9664,322;    1,383;    0,682
438,439; 9662,241;    3,291;    1,955
439,027; 9481,107;    3,655;    1,773
439,616; 9842,351;    2,927;    1,227
440,205; 9734,749;    0,200;   -2,136
440,794; 9822,836;    2,109;   -0,045
441,383;10093,136;   -1,346;   -0,591
441,971; 9965,657;   -2,436;    0,591
442,560; 9818,198;    0,563;   -1,773
443,149; 9577,841;    0,379;   -1,318
443,737; 9718,689;   -0,074;   -2,318
444,326;10003,580;    0,018;    0,318
444,915;10050,400;   -1,982;    0,864
445,503;10433,879;   -2,891;   -0,318
446,092; 9700,564;    0,382;    2,136
446,680;10248,927;    0,382;    0,318
447,269;10436,131;   -0,346;   -0,318
447,857;10210,797;    0,018;   -1,773
448,445;10326,053;    0,563;    1,318
449,034;10563,868;   -1,528;   -1,136
449,622;10702,147;   -1,073;    3,500
450,210; 9862,042;    2,017;    2,227
450,799;10446,539;    0,290;   -0,591
451,387;10414,711;    1,381;   -0,591
451,975;10000,372;    2,654;    0,864
452,563;10072,685;    3,472;    2,318
453,151;10156,497;   -0,528;   -1,227
453,739;10097,530;   -1,347;    0,136
454,328; 9952,692;    2,381;   -2,136
454,916; 9655,275;    2,562;   -0,136
455,504; 9825,490;    1,017;    1,227
456,092;10006,989;    0,017;   -1,591
456,679;10013,611;    1,472;    0,682
457,267; 9896,550;    4,017;    1,045
457,855;10114,317;    1,017;    1,409
458,443; 9854,462;   -0,165;    1,682
459,031; 9958,008;    0,108;    2,409
459,619;10409,352;   -1,801;    2,864
460,206;10618,620;    0,835;    2,045
460,794;10701,283;   -2,983;   -0,227
461,382;10946,950;   -0,529;   -0,864
461,970;10540,068;    1,198;    1,864
462,557;10579,270;   -0,711;   -0,682
463,145;10716,353;   -3,165;   -1,682
463,732;10868,091;    2,016;   -1,045
464,320;10793,541;   -0,075;   -3,045
464,907;10473,455;    2,743;   -0,773
465,495;10374,621;    0,743;   -1,227
466,082;10541,919;   -1,984;   -0,045
466,670;10473,125;   -2,529;    1,227
467,257;10905,458;   -1,711;    2,045
467,844;11013,999;   -0,075;    0,045
468,432;11040,056;    0,834;    3,500
469,019;10533,829;    0,925;   -1,773
469,606;11017,154;    0,470;    3,682
470,193;10888,430;   -1,439;    0,227
470,780;10385,223;   -2,075;    0,864
471,368;10741,818;   -1,257;   -0,773
471,955;10560,855;    1,379;   -0,682
472,542;10195,226;    0,652;   -1,136
473,129;10430,859;   -0,166;    0,136
473,716;10147,512;    1,470;    0,591
474,303;10377,160;    0,652;   -0,864
474,890;10676,658;   -1,439;   -0,500
475,477;10664,340;   -1,621;    0,409
476,064;10589,606;    1,106;   -1,591
476,650;10536,722;    0,288;    0,318
477,237;10365,631;   -0,258;    0,955
477,824;10540,881;   -1,076;    0,864
478,411;10595,675;   -1,894;   -0,318
478,997;10776,723;    0,560;   -0,773
479,584;10818,054;    1,196;   -0,409
480,171;11537,891;   -0,440;   -0,773
480,757;11181,359;    2,651;    0,773
481,344;11498,961;    0,469;    0,409
481,931;11015,690;    1,105;    1,045
482,517;12029,213;   -1,258;    0,318
483,104;12612,658;    1,106;    2,864
483,690;12940,767;   -1,804;    0,045
484,276;13396,750;   -0,895;    0,227
484,863;13122,490;    2,469;    1,136
485,449;13733,495;   -0,077;    0,318
486,035;13766,552;   -1,986;   -0,136
486,622;14152,970;   -0,895;    0,045
487,208;14134,023;    1,378;    1,500
487,794;13964,351;    0,741;    0,318
488,380;14073,218;    0,105;   -1,409
488,967;14150,817;   -1,168;   -0,409
489,553;14196,389;   -1,895;   -1,409
490,139;14392,732;    1,559;    0,773
490,725;13816,217;    0,741;   -0,227
491,311;13382,700;    3,287;    3,045
491,897;12682,991;   -0,986;    1,500
492,483;12497,162;    0,105;    1,227
493,069;12203,255;    3,923;    0,864
493,655;12163,857;    1,650;    0,682
494,241;12071,885;    1,377;   -0,955
494,826;12504,201;    0,287;   -1,045
495,412;11965,597;    2,559;   -0,682
495,998;12131,632;   -0,805;   -0,318
496,584;12294,495;    0,377;    1,045
497,169;12292,438;    1,014;   -0,682
497,755;12208,623;    0,650;    1,227
498,341;12719,523;    0,559;    0,318
498,926;12283,405;    1,832;    1,955
499,512;12509,096;    1,286;    2,955
500,097;12664,982;    0,195;   -0,318
500,683;12630,637;   -0,350;    2,136
501,268;12975,136;   -0,169;   -0,955
501,854;12690,267;   -0,169;    1,227
502,439;12640,890;   -0,624;   -1,773
503,024;12831,737;    0,195;    0,500
503,610;12910,024;   -0,078;   -0,682
504,195;12932,577;    0,558;    1,955
504,780;13004,614;    2,922;    1,227
505,366;12828,578;    3,013;    2,864
505,951;12550,736;    0,740;    1,045
506,536;12562,096;   -3,260;   -3,682
507,121;12586,510;    0,285;   -0,318
507,706;13098,347;    2,376;    1,045
508,291;13515,288;    2,649;    1,136
508,876;12963,652;   -0,988;    2,591
509,461;12382,980;   -0,169;   -0,773
510,046;12837,897;    0,194;    0,318
510,631;13051,976;   -0,351;   -0,773
511,216;12721,210;    2,467;   -0,500
511,801;13126,991;   -0,442;    2,591
512,386;13444,537;    0,740;    0,500
512,971;13362,616;   -2,988;    0,955
513,555;12874,287;   -0,897;   -1,500
514,140;13680,725;   -0,442;   -3,136
514,725;13688,431;   -0,715;   -1,136
515,309;13832,304;   -0,533;    0,318
515,894;13270,448;   -0,624;   -2,227
516,479;13713,962;   -0,624;   -0,955
517,063;13550,454;    0,376;    1,227
517,648;13706,205;    1,012;   -1,136
518,232;13364,806;   -0,261;   -1,409
518,817;13683,058;   -0,079;    1,682
519,401;13921,808;    2,194;    0,591
519,985;13451,669;    1,103;    1,136
520,570;13298,900;    0,830;   -1,955
521,154;13614,316;    2,102;    0,591
521,738;13750,394;   -2,352;    2,409
522,323;14323,462;   -0,170;    1,682
522,907;14056,344;    0,466;   -0,136
523,491;13792,635;    0,557;    0,955
524,075;13777,978;    2,284;    0,591
524,659;13870,544;    1,466;    0,591
525,243;13326,692;    1,739;    0,409
525,827;13558,315;    0,648;   -0,045
526,411;14452,453;   -1,989;   -0,136
526,995;14687,209;   -0,352;    1,409
527,579;14237,523;   -0,443;   -1,045
528,163;14534,833;    0,375;   -1,500
528,747;14451,440;    2,466;   -0,773
529,331;14819,442;   -0,080;   -1,409
529,915;15028,969;    1,738;    0,955
530,499;14955,391;   -0,807;    1,227
531,082;14648,965;   -0,534;    1,591
531,666;14088,114;    1,374;    0,773
532,250;14743,147;    1,284;    2,682
532,833;15113,324;    0,920;    2,773
533,417;14977,277;   -1,807;    0,864
534,001;14972,061;    1,647;   -0,318
534,584;15669,038;    0,374;    0,500
535,168;15462,026;    0,465;    1,409
535,751;15533,516;    0,647;    0,045
536,334;15006,661;   -0,898;   -0,409
536,918;15634,220;    0,011;    1,591
537,501;15748,487;   -0,899;    1,318
538,085;15726,438;   -0,444;    1,045
538,668;15863,509;    0,829;    2,409
539,251;16194,125;    1,829;    3,773
539,834;16209,192;    0,101;    0,773
540,418;16116,484;   -1,990;    4,318
541,001;16246,858;   -0,990;    1,773
541,584;16229,382;    2,101;    2,227
542,167;15926,086;    1,374;    2,955
542,750;16099,445;    1,919;   -0,773
543,333;15698,885;    0,555;    2,136
543,916;16482,966;    0,192;    2,500
544,499;17107,085;   -1,354;    0,227
545,082;17088,889;    1,374;    3,591
545,665;17263,509;    1,919;    1,500
546,248;17625,885;    1,010;   -0,318
546,830;17284,277;   -0,445;    1,955
547,413;17658,565;    1,010;   -0,773
547,996;18173,429;    0,555;    0,500
548,579;17999,318;    0,919;    0,955
549,161;17795,667;    1,828;    2,682
549,744;17556,283;   -0,809;    0,409
550,326;18092,840;   -0,809;   -1,136
550,909;17865,529;    2,737;    0,591
551,492;18280,441;   -0,263;    0,227
552,074;18074,700;   -0,173;   -1,318
552,657;18618,674;    2,373;    0,045
553,239;18371,977;   -0,173;   -0,773
553,821;18314,584;   -1,082;    1,045
554,404;17816,818;    1,282;    1,136
554,986;18189,526;    0,464;    1,045
555,568;18765,557;    1,191;   -0,955
556,151;17973,900;    1,191;   -0,227
556,733;18240,314;   -0,264;   -0,864
557,315;18704,689;    0,100;    0,500
557,897;18477,542;    0,554;   -0,500
558,479;18623,768;   -1,991;    1,318
559,061;18736,858;   -0,719;   -0,864
559,643;19080,469;   -0,264;    0,045
560,225;19467,906;    1,645;    2,864
560,807;19456,196;    0,918;    0,318
561,389;19000,745;    0,554;    2,318
561,971;19748,247;    0,463;    2,136
562,553;19527,988;   -1,628;    1,591
563,135;19708,365;   -0,537;    1,136
563,717;19282,691;    3,372;    1,136
564,298;19989,783;    3,645;   -0,045
564,880;19746,101;    0,645;   -1,409
565,462;19922,738;    0,645;    1,318
566,043;21091,389;   -0,446;    2,318
566,625;20617,929;    1,918;    1,227
567,207;20489,492;    1,099;    1,682
567,788;21591,795;   -1,264;    1,500
568,370;22394,277;    1,917;   -0,500
568,951;22279,804;    0,190;    0,227
569,533;23112,088;   -0,628;   -0,500
570,114;23559,658;   -0,446;    0,682
570,695;24125,075;   -0,174;   -1,318
571,277;24659,056;   -0,265;   -1,682
571,858;25421,665;    2,008;   -1,136
572,439;26362,281;    1,554;   -1,045
573,021;26526,270;    2,099;   -2,773
573,602;27050,100;   -1,265;    0,318
574,183;27971,783;   -2,083;    2,227
574,764;28118,005;   -1,629;    0,409
575,345;28658,435;    0,917;   -0,136
575,926;29342,011;   -0,356;    0,136
576,507;29325,185;    1,099;   -0,227
577,088;30444,516;    3,099;    1,682
577,669;30453,053;    0,735;    1,955
578,250;31211,692;    0,644;   -1,045
578,831;31883,956;   -1,356;   -2,227
579,412;32139,488;   -0,810;    0,955
579,993;33118,564;    1,008;    0,227
580,573;33529,693;   -0,629;   -0,955
581,154;32490,182;    0,735;   -0,591
581,735;33318,469;    0,644;    0,773
582,315;32771,106;   -0,629;    2,136
582,896;33157,278;   -0,174;    1,227
583,477;32667,513;    0,189;    1,227
584,057;32863,986;    0,553;    0,955
584,638;33108,746;    2,553;    2,318
585,218;33038,429;   -0,538;    2,682
585,799;33170,777;    0,281;   -0,227
586,379;33168,880;    0,372;    1,591
586,959;32006,665;    0,735;    0,318
587,540;31348,295;   -0,629;    2,227
588,120;30835,405;    1,007;   -0,045
588,700;29757,299;    2,553;    2,136
589,281;30014,538;    0,462;   -0,955
589,861;29982,879;    0,099;   -1,682
590,441;29788,368;    2,371;   -2,682
591,021;28749,649;   -0,265;   -2,591
591,601;29027,416;   -0,537;    0,500
592,181;28997,878;   -0,719;   -0,773
592,761;28270,159;    0,007;    1,409
593,341;28164,263;   -0,901;    0,045
593,921;28149,211;   -0,265;    1,591
594,501;28052,334;   -0,538;    1,318
595,081;27902,868;    0,917;   -0,318
595,661;28243,629;   -1,447;    0,955
596,240;28784,630;   -0,537;    0,136
596,820;28422,638;    0,372;    1,955
597,400;28629,007;    2,008;    0,773
597,980;28836,250;    2,008;    1,045
598,559;28861,716;    2,735;   -0,227
599,139;28549,843;   -0,174;   -1,227
599,718;28453,752;   -0,174;   -0,409
600,298;28715,658;    0,735;    0,682
600,877;28898,359;    2,917;    1,409
601,457;29240,731;    2,281;    1,136
602,036;29121,046;    0,190;    2,045
602,616;29305,789;    0,644;    1,682
603,195;29648,271;   -0,355;    3,500
603,774;29147,456;   -0,901;    2,045
604,354;29040,345;    0,826;   -0,500
604,933;28571,397;    0,463;    1,864
605,512;28674,513;    3,554;    0,591
606,091;28737,923;   -0,537;    3,773
606,671;29594,887;    0,281;    0,773
607,250;28664,081;    1,644;    3,136
607,829;28884,760;    2,372;    3,227
608,408;28779,152;    1,190;    2,591
608,987;27736,056;    1,281;    3,409
609,566;28043,453;   -1,265;   -2,500
610,145;28118,047;   -1,082;    0,682
610,723;28559,831;    4,372;    6,864
611,302;27801,819;   -0,446;    1,682
611,881;27304,504;    5,008;   11,227
612,460;28181,217;    1,645;    3,955
613,039;28603,856;   -0,082;    2,045
613,617;27325,271;    1,736;    4,773
614,196;27527,704;    1,099;    1,227
614,775;27833,812;    1,009;    2,409
615,353;27733,349;    0,736;    0,864
615,932;27514,426;    0,100;    2,409
616,510;28103,533;    0,554;    0,591
617,089;27589,685;    7,100;   17,591
617,667;27369,068;    2,372;    6,136
618,246;27227,119;   -1,537;    1,318
618,824;27342,293;   -3,355;   -0,955
619,402;26943,572;   -2,900;   -1,773
619,981;27482,130;   -0,173;   -1,045
620,559;27334,770;    0,009;    1,682
621,137;26823,229;   -0,718;    1,864
621,715;26835,194;   -1,173;   -0,682
622,293;26757,463;   -0,537;   -0,773
622,871;27219,053;   -0,718;    0,500
623,450;26754,550;    0,373;   -0,864
624,028;26629,978;    0,191;   -0,955
624,606;26294,762;   -1,718;    1,682
625,183;26702,646;   -1,536;   -1,136
625,761;26319,640;    1,009;    1,136
626,339;26621,488;    1,373;    2,591
626,917;26983,786;   -0,172;   -0,045
627,495;27000,654;   -0,354;    1,318
628,073;26457,142;   -0,263;    2,864
628,650;26177,436;    0,100;    2,136
629,228;26606,650;    0,373;    4,409
629,806;26017,812;    2,282;    1,136
630,383;26266,222;    1,464;   -0,318
630,961;26027,480;    2,555;   -0,955
631,539;25764,450;    2,464;    0,227
632,116;25034,117;   11,373;   15,409
632,694;25655,780;    2,555;    6,500
633,271;26050,710;    0,828;    2,682
633,848;25916,431;    1,828;    2,045
634,426;25977,435;   -1,081;    1,773
635,003;25035,458;    1,101;   -0,409
635,580;25333,980;    1,192;    3,682
636,158;25901,480;    3,737;    1,227
636,735;25879,833;    0,555;   -0,500
637,312;26033,428;   -0,809;   -0,682
637,889;26161,191;   -4,354;   -0,682
638,466;25625,216;   -3,990;   -0,409
639,043;25641,528;    2,101;   -1,136
639,620;25978,581;   -2,262;   -0,955
640,197;26281,406;    1,100;    1,682
640,774;26438,557;   -0,172;    1,136
641,351;26827,163;    0,737;    1,136
641,928;26234,041;   -0,627;    1,409
642,505;25865,010;    0,828;   -0,500
643,082;26040,525;   -1,718;    1,227
643,658;25086,040;   -0,718;    1,500
644,235;25798,373;    1,191;    2,500
644,812;26114,342;    1,918;    0,773
645,388;25844,766;   -0,991;    1,409
645,965;25933,009;   -0,809;    1,682
646,542;26008,887;   -1,445;   -0,227
647,118;25938,311;    1,009;   -0,955
647,695;26261,099;   -0,263;    1,136
648,271;26182,704;   -0,536;    0,500
648,848;26543,855;    0,736;    2,227
649,424;26325,461;    0,827;    1,318
650,000;26059,249;   -0,354;   -1,045
650,577;25903,036;   -0,627;   -0,955
651,153;26360,460;   -1,809;    0,955
651,729;27392,793;    1,191;    0,864
652,305;27593,217;    0,645;    2,773
652,881;31977,550;   -0,082;    1,136
653,458;39002,247;    1,100;    0,227
654,034;43081,307;    0,282;    1,591
654,610;44701,731;    0,554;    0,773
655,186;46147,610;    0,645;    3,045
655,762;45904,306;   -0,991;    0,409
656,338;45944,821;    0,100;    0,136
656,913;46926,427;   -0,082;    0,409
657,489;46240,487;    0,827;   -0,318
658,065;46164,911;   -0,173;   -1,591
658,641;46787,790;   -0,900;   -0,864
659,217;46158,395;   -0,991;    0,409
659,792;45541,728;    0,645;   -0,409
660,368;45792,789;   -2,173;   -0,682
660,944;45490,213;   -2,082;    1,227
661,519;40896,000;   -0,628;    0,409
662,095;34744,151;   -1,719;    0,591
662,670;29803,757;    1,281;   -0,136
663,246;28492,272;    1,009;   -0,409
663,821;27687,150;    0,281;    1,682
664,396;27119,938;    0,009;    1,864
664,972;27435,089;    0,009;   -0,500
665,547;27733,331;    1,372;    0,136
666,122;27727,573;   -1,082;    0,318
666,698;28016,725;   -0,173;    0,318
667,273;27375,512;   -0,173;    0,136
667,848;28213,391;    2,372;    1,500
668,423;27967,360;    2,190;    2,318
668,998;28584,511;    2,827;   -0,682
669,573;29102,026;   -3,264;   -1,500
670,148;28923,996;   -1,446;   -0,682
670,723;28742,965;   -1,810;    0,318
671,298;29152,843;    2,372;    1,045
671,873;29305,358;   -0,082;   -0,136
672,448;29288,600;    0,645;    0,136
673,023;29606,933;   -1,992;   -0,227
673,597;29902,357;    0,827;    2,318
674,172;29714,872;   -0,355;    0,318
674,747;29185,660;    0,372;   -1,045
675,321;29016,538;   -0,628;    3,318
675,896;28596,508;    0,645;    1,045
676,471;29603,204;    2,645;    1,591
677,045;29354,083;   -1,264;    0,682
677,620;29452,416;    0,190;    1,136
678,194;29814,476;   -2,628;    1,136
678,769;29299,900;   -1,083;   -0,318
679,343;29549,688;   -0,628;    1,773
679,917;29416,475;   -1,446;    1,955
680,492;29551,990;    0,826;    3,227
681,066;29667,505;    3,372;    0,409
681,640;29693,565;    1,463;   -0,318
682,214;30559,807;    0,735;    0,500
682,788;30022,322;   -1,356;   -0,773
683,363;29981,110;   -1,810;    1,682
683,937;29698,715;   -1,719;   -0,318
684,511;30481,776;    0,463;   -0,591
685,085;30192,563;   -1,356;    0,318
685,659;29954,896;   -2,538;    0,864
686,232;30198,411;   -0,356;   -0,318
686,806;29909,926;   -0,901;    0,409
687,380;30585,623;   -0,174;    0,591
687,954;30816,410;   -1,174;    1,136
688,528;30467,016;   -0,719;    1,955
689,101;31251,167;   -3,992;    1,045
689,675;30820,046;   -0,356;   -0,136
690,249;30208,469;   -0,719;    0,409
690,822;30511,984;    0,280;    0,318
691,396;30649,226;   -0,265;    1,227
691,969;30086,469;    1,280;    0,136
692,543;30520,347;   -0,447;   -1,955
693,116;30232,135;   -0,265;   -1,409
693,690;30068,831;    0,099;    0,500
694,263;30602,437;   -1,083;    2,955
694,836;30669,497;    1,371;    3,591
695,410;29288,649;   -0,265;    1,773
695,983;29753,800;    0,189;    0,591
696,556;29733,224;   -0,447;   -1,045
697,129;30099,011;   -0,356;    1,409
697,703;29699,072;   -1,629;    1,955
698,276;29731,223;    1,462;   -0,773
698,849;29513,828;    1,280;    1,409
699,422;29923,616;   -1,083;    0,591
699,995;29618,404;    0,007;    0,136
700,568;30149,282;   -0,629;    3,045
701,140;30147,706;   -2,811;    1,682
701,713;29866,403;   -0,174;    2,409
702,286;29648,372;   -0,538;    0,864
702,859;29530,069;   -0,902;   -0,591
703,432;28627,220;    0,825;    0,682
704,004;29213,826;    0,462;    0,318
704,577;29064,250;   -0,629;    0,136
705,150;29571,310;    0,189;    2,500
705,722;29367,279;   -0,356;   -3,227
706,295;29123,612;   -0,175;   -0,591
706,867;28988,400;   -0,175;    1,955
707,440;29209,097;   -1,720;   -0,409
708,012;29461,430;    0,462;    0,591
708,584;29389,490;    2,462;    0,227
709,157;29712,096;    1,825;   -0,591
709,729;29370,338;    2,280;    2,045
710,301;30226,398;    0,734;    0,045
710,874;30238,004;   -1,447;   -0,227
711,446;29099,155;    0,371;    0,864
712,018;29027,761;    0,098;    0,500
712,590;28713,639;   -1,993;    1,682
713,162;29238,609;    0,825;    1,318
713,734;29504,033;    1,825;   -2,045
714,306;29433,547;   -1,902;   -0,409
714,878;28112,971;    0,825;    0,864
715,450;28962,577;    0,643;    0,864
716,022;29184,092;    1,552;    1,318
716,593;29295,152;    0,189;    0,591
717,165;29285,394;   -3,175;   -1,227
717,737;28930,636;    0,280;    0,409
718,309;28608,151;    0,280;   -0,045
718,880;28548,848;   -0,539;   -1,409
719,452;28814,817;   -0,175;   -1,591
720,024;28365,150;    0,734;   -0,591
720,595;28875,120;   -2,902;    0,955
721,167;28471,998;    0,370;   -2,045
721,738;28006,786;   -0,812;   -1,045
722,309;27980,210;   -0,993;   -1,227
722,881;27713,815;   -1,357;    0,773
723,452;28395,694;   -2,630;    2,864
724,023;28531,481;   -0,721;    2,682
724,595;28270,815;    0,007;    0,682
725,166;28062,420;    0,007;   -0,409
725,737;27752,208;    1,734;    0,227
726,308;27789,814;   -0,266;    0,318
726,879;28226,874;   -1,630;    1,227
727,450;28061,571;    0,552;   -0,045
728,021;28047,449;    3,097;    0,682
728,592;27886,055;    0,734;    0,500
729,163;28124,024;    0,643;   -0,136
729,734;28198,630;    0,188;   -0,227
730,305;28570,327;    1,734;    0,136
730,876;28920,114;    0,188;    2,955
731,447;28601,629;    2,188;    2,682
732,017;28716,962;    1,097;    1,864
732,588;28218,477;    0,734;    1,227
733,159;28404,446;    0,643;   -1,045
733,729;28233,779;    0,006;    0,409
734,300;27509,840;    0,915;    0,864
734,870;27916,082;    3,461;    0,591
735,441;28522,415;    0,370;   -0,591
736,011;28253,293;    0,643;   -1,591
736,582;28204,626;   -0,812;    0,045
737,152;27709,686;   -1,721;   -2,045
737,722;28136,656;   -0,267;   -0,682
738,293;27868,807;   -1,358;    1,318
738,863;27694,958;    2,461;    2,318
739,433;27481,746;    5,279;    0,318
740,003;28135,352;   -0,994;   -0,682
740,573;27553,594;    2,097;   -1,591
741,143;27499,199;   -1,085;    0,318
741,713;28308,623;    1,188;   -0,500
742,283;27957,775;    0,915;    1,591
742,853;27758,108;    1,915;    1,591
743,423;27189,986;    1,733;    0,045
743,993;27381,501;   -0,358;    1,500
744,563;26637,198;    0,097;   -0,864
745,133;26653,985;   -0,812;   -0,864
745,702;27349,136;   -0,267;    1,773
746,272;26562,015;   -0,176;    0,591
746,842;26302,348;   -1,358;   -0,591
747,411;26742,045;   -0,267;   -0,318
747,981;26940,559;    0,097;    0,500
748,551;26980,438;    2,278;   -1,045
749,120;26845,498;    0,642;   -0,227
749,690;27201,922;   -0,631;    2,409
750,259;27534,164;    1,369;    2,955
750,828;27471,406;    1,551;   -1,955
751,398;27726,194;    1,278;   -0,045
751,967;27219,254;    2,187;    0,409
752,536;27449,496;   -0,813;   -0,227
753,105;27856,647;    0,096;    0,227
753,675;27708,253;    0,096;    1,773
754,244;27650,041;   -0,904;    3,591
754,813;27651,101;    0,551;    1,227
755,382;27307,161;    0,460;    0,955
755,951;27842,131;    1,551;    3,682
756,520;27318,918;   -0,085;    1,864
757,089;27891,979;    0,278;    0,500
757,658;28016,948;    1,733;    1,227
758,227;28031,917;    1,096;    0,318
758,795;28342,250;    1,187;    1,136
759,364;28593,129;   -0,086;   -0,591
759,933;27619,462;   -1,176;   -0,045
760,501;27158,977;    0,733;   -1,318
761,070;27655,764;   -2,813;   -1,409
761,639;28333,461;   -1,904;    1,318
762,207;27618,794;    1,551;   -0,955
762,776;27555,673;    0,369;    0,864
763,344;27538,551;   -0,995;    0,591
763,913;26685,520;   -0,722;    1,409
764,481;27376,126;    1,005;   -0,136
765,049;27159,732;   -1,358;    1,409
765,618;27009,519;   -0,086;    0,318
766,186;27145,307;    0,278;    0,136
766,754;27386,276;    0,005;    1,864
767,322;26334,973;   -1,995;    0,409
767,890;26432,306;   -0,722;   -1,773
768,459;26763,366;   -2,177;   -0,318
769,027;26899,790;    1,641;    3,409
769,595;25887,487;    3,278;    2,591
770,163;26335,275;    3,823;    2,955
770,730;26057,789;    0,732;   -0,136
771,298;25952,850;    0,187;   -1,409
771,866;26035,274;   -1,541;    4,955
772,434;26338,061;   -0,631;   -1,864
773,002;26535,394;    0,005;    0,682
773,569;26134,364;    0,914;    1,682
774,137;25976,060;   -0,268;   -0,045
774,705;26831,030;    0,278;   -0,136
775,272;26298,817;    0,641;    0,682
775,840;26055,605;   -0,177;    2,682
776,407;25540,483;    0,277;    1,955
776,975;25131,816;   -0,632;    0,318
777,542;26215,240;   -1,086;   -0,045
778,110;26066,028;   -1,268;   -0,045
778,677;25703,724;   -2,359;   -0,864
779,244;25457,239;    2,186;    1,045
779,812;25537,754;    1,823;    0,864
780,379;25404,269;    0,005;    1,136
780,946;25637,966;    1,005;   -0,773
781,513;25991,571;   -1,450;    0,318
782,080;25293,359;   -0,086;    2,864
782,647;26088,510;   -0,268;    3,045
783,214;25640,025;   -0,177;    3,864
783,781;25256,903;   -0,723;   -0,682
784,348;25156,327;   -0,632;    1,500
784,915;25612,933;   -3,177;    0,318
785,482;25337,539;    1,368;    2,591
786,049;25774,417;    0,186;   -0,591
786,615;25918,659;    0,277;   -0,955
787,182;25699,447;    0,186;   -0,682
787,749;25341,689;   -2,814;    1,409
788,315;24712,931;   -1,632;   -0,409
788,882;25013,264;    1,550;   -1,227
789,448;25682,052;    1,732;   -0,955
790,015;25671,294;    1,095;    3,227
790,581;25209,082;    1,459;    0,227
791,148;25130,505;    0,641;    1,045
791,714;25421,202;   -0,541;    3,136
792,280;25076,444;    0,186;    1,591
792,847;24618,323;    0,550;    2,500
793,413;25156,565;   -0,269;   -0,318
793,979;24669,171;    3,459;   -1,318
794,545;24785,958;    4,459;    2,682
795,111;24186,473;    2,186;    1,318
795,678;24359,988;    0,731;   -1,682
796,244;24018,866;    3,368;    0,136
796,810;24578,290;    1,731;    0,773
797,375;24289,987;    0,549;   -2,136
797,941;24316,865;   -0,541;    0,591
798,507;24442,744;   -0,451;   -0,955
799,073;23963,804;   -0,360;    0,591
799,639;24039,046;   -2,632;    3,136
800,205;24099,925;    0,095;    2,682
800,770;23592,349;    0,640;    1,773
801,336;23685,682;    1,368;   -0,955
801,901;23386,106;    4,549;    3,136
802,467;24008,439;   -0,542;    2,045
803,033;23342,681;   -0,087;    0,864
803,598;23527,468;    1,913;   -1,045
804,163;23505,165;    1,095;   -0,318
804,729;23500,953;   -0,178;    1,136
805,294;23912,922;    0,822;    2,227
805,859;23653,164;    0,731;   -0,409
806,425;23102,224;    1,186;    2,682
806,990;22821,557;    2,186;    4,318
807,555;23300,981;   -1,451;    2,591
808,120;23170,223;    0,822;   -0,409
808,685;23269,738;    0,185;   -2,500
809,250;22753,708;    0,004;   -0,500
809,815;23104,950;    1,913;    0,682
810,380;23623,919;   -0,269;    1,591
810,945;24165,707;   -1,087;    2,045
811,510;23328,403;    2,094;    1,591
812,075;23041,100;   -0,633;   -1,409
812,640;23057,979;    2,003;    1,409
813,204;23110,948;    0,822;   -0,227
813,769;23561,735;    2,094;   -0,045
814,334;22980,523;    0,458;    0,864
814,898;23062,492;    0,367;    0,591
815,463;22901,916;    1,276;   -0,773
816,027;22901,158;   -0,724;   -2,318
816,592;22966,219;    0,640;   -2,045
817,156;22511,097;    2,094;    1,136
817,721;22333,703;    4,276;    2,318
818,285;22291,400;    2,912;    1,500
818,849;22912,369;   -1,451;    1,682
819,414;22865,702;   -0,269;    2,955
819,978;22457,490;   -1,269;    1,773
820,542;23018,823;    2,003;    0,500
821,106;22727,519;   -0,815;    0,682
821,670;22788,580;   -0,815;    2,591
822,234;22592,458;   -0,270;    1,409
822,798;21932,882;    0,003;    0,500
823,362;21824,215;   -0,633;    4,227
823,926;21093,457;    0,094;    1,136
824,490;21376,427;   -0,997;   -0,682
825,054;21841,578;   -0,088;   -1,136
825,618;21440,274;   -1,542;   -1,500
826,181;21384,880;    0,458;   -1,318
826,745;21256,304;    1,367;   -1,045
827,309;21641,001;    1,185;    1,318
827,872;21026,243;    1,367;    0,955
828,436;22012,030;    1,185;   -0,773
828,999;22072,909;   -0,997;    1,227
829,563;20883,333;   -0,179;    1,136
830,126;20681,302;   -0,179;   -0,591
830,690;20684,363;   -1,997;    2,864
831,253;20216,786;   -0,543;    2,227
831,816;20333,938;   -1,906;    0,500
832,380;20290,998;    0,185;    0,864
832,943;20501,967;   -1,361;   -0,500
833,506;19984,028;    2,639;   -1,227
834,069;20789,906;    3,912;   -0,955
834,632;20842,330;    1,730;    1,318
835,195;20717,481;    1,003;    0,955
835,758;19953,542;   -0,997;    1,955
836,321;19796,784;    0,730;   -1,045
836,884;19898,480;   -0,725;   -0,955
837,447;19915,268;   -2,816;    1,773
838,010;20187,692;    0,366;    3,227
838,573;20446,389;   -1,179;    0,773
839,135;20402,903;   -1,361;   -0,955
839,698;19870,873;    1,275;    0,409
840,261;19387,206;    1,003;   -0,227
840,823;19255,357;   -0,543;    0,864
841,386;19537,417;   -0,452;   -2,409
841,948;19359,114;   -1,361;    1,773
842,511;19130,083;    0,912;    1,682
843,073;19240,325;    1,912;    0,227
843,636;19035,113;   -0,361;   -0,227
844,198;18962,991;    0,911;    0,591
844,760;19069,961;    1,093;    1,955
845,322;18805,021;    0,548;    1,136
845,885;19221,991;    0,730;    0,591
846,447;19632,414;   -1,998;    0,227
847,009;19186,111;    1,911;   -0,682
847,571;19546,444;    0,820;   -2,045
848,133;19626,686;   -1,089;   -1,864
848,695;19455,292;   -0,543;    1,409
849,257;18973,625;   -1,089;   -1,682
849,819;19160,776;   -0,998;   -0,409
850,381;19246,837;   -0,725;   -0,864
850,942;19611,351;    1,093;   -0,591
851,504;19591,866;    1,184;    0,227
852,066;19585,472;    1,275;   -1,591
852,628;19082,532;   -0,180;    1,955
853,189;18672,865;    1,638;    2,682
853,751;18753,744;   -0,907;    1,409
854,312;18570,986;   -0,453;   -1,682
854,874;19097,683;   -2,089;   -0,773
855,435;19659,561;   -0,907;   -1,682
855,997;19787,803;   -1,816;   -0,136
856,558;19052,136;    0,366;    1,773
857,119;19186,469;    0,820;    2,864
857,681;18876,802;    0,002;    0,318
858,242;18898,317;    1,911;   -2,136
858,803;19382,468;    0,456;   -0,773
859,364;19943,256;    0,184;   -4,773
859,925;19221,589;   -2,453;   -0,955
860,486;19134,195;   -0,453;   -0,955
861,047;18814,437;   -0,544;   -1,227
861,608;18646,224;   -1,089;   -0,773
862,169;18847,648;    0,638;   -0,045
862,730;18595,072;    0,456;    1,409
863,291;18796,496;   -0,635;   -0,500
863,852;19161,284;   -0,635;    1,955
864,412;18659,344;   -0,271;   -0,864
864,973;17220,768;   -0,089;    0,500
865,534;17064,192;   -1,726;    0,227
866,094;18549,525;    1,820;    0,227
866,655;18209,040;    1,274;    3,318
867,215;18500,282;    0,274;    0,136
867,776;18349,342;    0,547;   -0,136
868,336;18451,402;   -1,453;    0,136
868,897;17915,372;    2,638;    1,682
869,457;17594,159;    1,365;    0,318
870,017;17895,311;    0,547;   -1,227
870,578;18405,734;   -0,817;    0,773
871,138;18085,977;   -2,089;   -0,955
871,698;17655,037;   -0,817;   -1,318
872,258;17531,188;   -0,453;   -2,864
872,818;17892,157;    2,729;    0,045
873,378;17852,672;    0,638;    1,045
873,938;17396,005;    0,547;    0,500
874,498;17728,429;    0,274;   -1,955
875,058;17592,671;    2,183;    1,773
875,618;17470,459;    1,910;   -2,682
876,177;17400,519;    1,274;    0,136
876,737;17015,489;   -0,090;    1,955
877,297;17016,185;    0,183;    1,955
877,856;16985,609;   -0,362;    0,318
878,416;16955,851;    1,183;   -0,136
878,976;17165,548;   -1,817;    0,409
879,535;17362,608;    0,092;    3,136
880,095;17069,214;   -0,544;    0,045
880,654;17197,365;   -1,090;    1,318
881,213;17317,153;    2,456;    1,500
881,773;16982,849;    2,637;    2,682
882,332;17272,001;    3,365;    5,136
882,891;17101,697;    3,092;    2,136
883,451;17604,303;   -1,272;    1,682
884,010;17028,454;   -2,908;   -0,409
884,569;17136,060;   -0,999;   -0,045
885,128;17256,666;    2,819;   -1,864
885,687;17341,544;    4,455;    0,682
886,246;17013,423;    1,455;    2,136
886,805;16803,847;    2,455;    2,045
887,364;17145,725;   -0,999;   -0,500
887,922;17510,604;   -1,181;    0,045
888,481;17013,755;   -1,545;    0,591
889,040;17271,451;    1,183;    2,136
889,599;17981,057;    2,455;    1,409
890,157;18011,663;    1,455;    2,409
890,716;17706,269;   -0,090;    0,227
891,274;17553,238;    0,092;   -1,136
891,833;18000,480;    1,546;    0,864
892,391;17869,450;   -0,454;    0,500
892,950;17923,783;    1,819;   -0,773
893,508;18295,207;    0,455;   -0,409
894,067;17658,994;    0,637;    0,136
894,625;17548,236;   -0,636;   -1,500
895,183;17800,842;   -0,363;   -0,682
895,741;17689,811;    1,728;   -1,773
896,299;17538,690;   -0,545;   -2,409
896,858;17703,659;    0,819;   -1,591
897,416;17840,810;    2,728;   -1,318
897,974;17568,325;    1,819;    0,318
898,532;17680,295;    6,091;    2,682
899,089;17626,082;    2,091;   -0,682
899,647;17670,506;   -1,454;    1,318
900,205;17336,203;    1,182;    1,045
900,763;17539,536;   -0,454;    0,227
901,321;17542,051;    2,364;   -1,409
901,878;17005,566;   -1,000;   -0,773
902,436;16896,535;   -1,363;    1,318
902,994;17243,323;    4,728;    3,682
903,551;16655,656;    0,728;    0,409
904,109;17054,898;    0,182;   -1,409
904,666;16647,503;    2,455;    1,045
905,224;16480,927;    0,182;   -0,409
905,781;16237,079;    0,727;   -0,318
906,338;16299,321;   -1,363;    1,045
906,895;16258,836;    0,637;    2,045
907,453;16180,259;    1,727;    1,136
908,010;16215,774;   -0,909;    0,409
908,567;15864,380;    1,273;    0,591
909,124;15359,622;    0,364;   -1,500
909,681;15428,955;   -2,909;    0,682
910,238;15550,106;    0,636;   -1,318
910,795;15867,258;   -0,273;   -1,136
911,352;15507,803;   -2,909;   -2,682
911,909;14877,894;   -1,364;   -0,864
912,466;15360,439;   -3,182;    1,500
913,022;14942,167;   -1,636;    0,500
913,579;15279,076;   -0,909;    2,045
914,136;14988,985;    1,636;    0,955
914,692;15335,076;    0,091;   -1,227
915,249;14956,621;    1,455;    0,409
915,806;15146,439;    0,182;    1,955
916,362;14876,985;    1,909;    1,864
916,918;14448,167;    2,000;    1,045
917,475;14395,439;   -1,182;    0,955
918,031;14488,621;    3,364;   -0,045
918,587;13942,894;   -0,909;   -0,318
919,144;14152,076;   -2,273;    0,227
919,700;14514,894;    1,727;    0,773
920,256;14096,348;    0,727;    0,045
920,812;13726,258;   -0,727;   -1,045
921,368;13687,348;   -1,727;   -1,045
921,924;13295,076;    0,182;   -0,136
922,480;12891,803;   -0,545;    1,227
923,036;13516,348;    1,273;    1,955
923,592;13456,803;    0,455;    0,318
924,148;13351,621;    0,455;   -0,955
924,704;12635,167;   -1,364;   -0,409
925,259;12934,985;   -0,273;    0,591
925,815;12655,621;    1,455;    0,500
926,371;12214,803;    2,909;    1,409
926,926;12051,985;    2,091;    0,591
927,482;11699,439;   -1,364;    0,773
928,037;11576,894;    0,909;    2,045
928,593;11844,530;    1,636;    1,045
929,148;11651,621;   -1,818;   -1,500
929,704;11153,439;   -1,455;   -0,500
930,259;11376,167;    0,091;   -0,136
930,814;10425,530;   -0,818;    1,955
931,369;10116,803;    1,091;   -0,773
931,925; 9997,076;   -0,091;    0,136
932,480; 9892,894;   -2,818;   -2,591
933,035; 9747,439;    0,545;   -0,318
933,590; 9501,985;    0,364;   -1,773
934,145; 9195,258;   -1,364;   -0,318
934,700; 9535,803;    0,455;   -0,591
935,255; 9324,621;   -0,091;    0,045
935,809; 8540,530;    3,182;    0,864
936,364; 7661,439;   -0,455;   -0,136
936,919; 7639,894;    0,455;   -1,773
937,474; 7527,439;    1,455;    0,136
938,028; 7272,894;   -1,636;    1,136
938,583; 6706,803;    1,818;    4,682
939,138; 7037,167;    2,091;    2,136
939,692; 6469,894;    1,636;   -1,136
940,247; 6180,076;   -0,727;   -1,045
940,801; 5694,803;   -0,636;    0,227
941,355; 5580,167;   -0,364;    2,591
941,910; 5236,348;   -0,273;   -2,136
942,464; 5335,803;   -0,818;   -0,318
943,018; 5110,167;    1,000;   -0,227
943,572; 5049,985;    2,545;   -0,682
944,126; 4459,530;    0,091;   -0,409
944,681; 4344,530;    3,091;    0,227
945,235; 4317,167;    1,000;   -0,591
945,789; 4266,803;    0,364;   -1,864
946,342; 4348,530;    0,455;   -0,591
946,896; 4162,348;   -2,273;    0,955
947,450; 3918,530;    1,545;   -0,227
948,004; 4091,894;    1,727;   -0,045
948,558; 4110,348;    0,273;   -0,864
949,111; 4036,530;   -0,273;   -0,318
949,665; 4045,803;    1,636;   -0,682
950,219; 3941,803;   -0,091;   -1,045
950,772; 4003,076;   -1,909;    1,864
951,326; 3914,530;    0,545;   -0,955
951,879; 4018,530;    0,727;   -2,318
952,433; 4046,439;    0,000;    2,227
952,986; 3888,076;    2,909;    0,682
953,539; 3820,894;   -0,273;    0,591
954,093; 3777,439;    0,545;   -1,318
954,646; 3892,258;    0,909;    1,318
955,199; 3711,076;    0,000;   -0,500
955,752; 3592,258;   -0,455;    1,773
956,305; 3541,712;   -0,091;    2,955
956,858; 3720,167;    0,818;   -0,318
957,411; 3896,348;   -0,545;    2,136
957,964; 3708,803;    1,364;    2,136
958,517; 3712,076;   -1,545;    3,136
959,070; 3541,712;   -0,455;    1,955
959,623; 3596,076;    1,091;    1,500
960,176; 3386,621;    1,727;    2,045
960,728; 3339,439;   -2,727;    0,773
961,281; 3405,712;    0,545;    0,500
961,834; 3459,712;   -0,909;    0,864
962,386; 3364,894;    1,727;    1,045
962,939; 3299,894;    0,364;   -0,318
963,491; 3444,803;    0,455;    1,136
964,043; 3302,894;    1,182;    2,409
964,596; 3451,076;   -1,000;    2,227
965,148; 3277,803;   -1,000;    1,773
965,700; 3188,803;    1,091;   -0,227
966,253; 3346,621;   -0,636;    0,318
966,805; 3194,076;   -2,273;    0,773
967,357; 3252,985;    1,091;   -1,500
967,909; 3203,348;    0,455;   -1,227
968,461; 3319,803;    0,545;    3,136
969,013; 3230,712;   -0,182;   -0,864
969,565; 3306,712;   -0,455;   -1,136
970,117; 3353,258;   -0,364;    1,045
970,669; 3209,985;    0,182;   -0,136
971,220; 3058,076;   -0,455;   -1,500
971,772; 2996,712;   -0,636;   -0,318
972,324; 3125,439;    0,091;   -0,500
972,876; 3078,712;    0,818;   -0,045
973,427; 3197,985;    1,909;   -1,045
973,979; 3167,621;   -0,727;   -2,500
974,530; 3221,985;    1,818;    1,318
975,082; 3219,167;   -0,545;    1,682
975,633; 3104,894;    1,091;    1,682
976,184; 3253,439;    0,909;    0,773
976,736; 3026,530;    0,091;    0,227
977,287; 2837,621;   -0,909;   -0,500
977,838; 3021,076;    0,909;   -0,318
978,389; 3072,985;   -1,000;   -0,500
978,940; 2944,712;    0,545;   -0,409
979,491; 2995,258;    0,091;   -0,500
980,042; 2959,348;    0,182;    3,045
980,593; 3016,348;   -2,545;    0,227
981,144; 3034,076;    2,545;   -0,500
981,695; 3003,803;    1,455;    1,500
982,246; 2957,985;   -0,273;    1,045
982,797; 3144,348;   -1,727;    0,682
983,347; 3249,712;    0,364;    0,591
983,898; 3394,803;    3,091;    0,409
984,449; 3223,348;    2,182;    0,773
984,999; 3134,712;    1,455;   -1,136
985,550; 2901,621;    0,182;   -0,318
986,100; 2963,712;   -0,455;   -0,318
986,651; 3010,530;   -0,818;    0,045
987,201; 2981,803;   -1,000;   -0,591
987,751; 3054,258;    0,818;    2,864
988,302; 3031,439;    2,636;    1,500
988,852; 3053,712;    0,455;   -1,136
989,402; 3103,167;    0,091;    0,682
989,952; 3019,712;   -2,182;    0,864
990,502; 3124,985;   -0,091;    0,682
991,052; 3089,803;   -0,727;    0,045
991,602; 2961,348;   -2,909;    1,318
992,152; 2961,803;    0,455;    0,682
992,702; 2931,258;    1,364;   -0,045
993,252; 2862,167;   -3,000;   -0,500
993,802; 2950,530;   -0,273;    1,318
994,352; 3154,076;   -1,545;    1,136
994,901; 3275,076;   -0,182;    3,227
995,451; 3188,167;   -0,182;    0,318
996,000; 3276,894;    1,636;    0,318
996,550; 3003,803;    2,273;    0,227
997,100; 2982,258;    1,273;   -0,045
997,649; 3258,712;    2,182;    0,955
998,198; 2902,985;    1,727;   -1,500
998,748; 3099,076;    1,091;   -2,318
999,297; 3018,439;   -0,818;   -0,409
999,846; 3064,167;    1,000;   -0,773
1000,395; 3115,258;   -0,818;    0,500
1000,945; 3057,621;    1,818;   -0,773
1001,494; 3146,621;    2,364;    0,682
1002,043; 3150,530;    4,636;    0,864
1002,592; 3001,348;   -1,091;    1,955
1003,141; 3146,712;   -0,455;   -0,682
1003,690; 3000,258;    1,727;    0,500
1004,238; 3083,985;    1,455;   -0,045
1004,787; 2724,258;    1,364;    1,227
1005,336; 2946,076;    0,364;    0,682
1005,885; 3100,439;    1,364;   -2,773
1006,433; 3241,348;    0,545;    0,955
1006,982; 3285,985;    0,455;    1,682
1007,531; 3192,803;   -1,818;   -0,227
1008,079; 3155,348;   -2,273;    0,500
1008,627; 3308,712;   -1,455;    0,409
1009,176; 3028,258;    0,000;   -1,955
1009,724; 3091,530;    1,091;    0,864
1010,273; 3138,803;    1,273;    0,500
1010,821; 3256,530;    0,091;    1,409
1011,369; 2995,530;   -1,364;    1,318
1011,917; 2971,258;   -1,364;   -0,591
1012,465; 3252,258;    1,273;   -1,591
1013,013; 3372,167;    2,091;   -1,682
1013,561; 3226,348;    0,455;   -0,773
1014,109; 3281,348;   -1,909;    1,682
1014,657; 3157,985;    0,364;    0,591
1015,205; 3307,621;    1,636;   -0,955
1015,753; 3327,530;   -0,545;   -1,409
1016,301; 3373,439;   -2,636;    3,045
1016,848; 3387,712;   -1,273;    0,409
1017,396; 3412,167;    2,545;    0,045
1017,944; 3535,985;    1,182;    1,864
1018,491; 3308,530;    0,273;    1,409
1019,039; 3431,076;    0,455;    0,591
1019,586; 3377,985;   -1,364;    1,682
1020,134; 3491,439;    0,455;    1,500
1020,681; 3506,803;    0,182;   -1,136
1021,228; 3492,348;    2,909;   -2,227
1021,776; 3322,439;    1,182;   -1,136
1022,323; 3543,439;    0,455;    0,773
1022,870; 3483,530;   -1,000;   -0,045
1023,417; 3387,803;    2,636;    1,864
1023,964; 3522,439;    2,636;    1,227
1024,511; 3352,803;    1,000;    0,773
1025,058; 3167,530;    3,182;   -0,045
1025,605; 3238,076;   -2,273;    3,136
1026,152; 3427,258;    1,727;   -0,591
1026,699; 3165,167;    1,818;    1,318
1027,245; 3349,439;   -0,091;    0,318
1027,792; 3551,894;   -1,000;    1,409
1028,339; 3416,621;    2,364;   -0,045
1028,885; 3294,621;    1,000;   -0,227
1029,432; 3222,985;   -0,091;    0,227
1029,978; 3260,258;   -1,000;   -1,591
1030,525; 3171,530;    1,000;    0,409
1031,071; 3449,439;   -1,364;    1,136
1031,618; 3520,985;    0,364;    1,682
1032,164; 3315,258;   -0,091;    3,045
1032,710; 3350,621;    1,636;   -1,500
1033,256; 3286,894;   -0,636;   -0,136
1033,803; 3283,985;   -0,545;    1,500
1034,349; 2989,621;   -1,364;    0,136
1034,895; 3151,348;    0,000;   -0,318
1035,441; 3126,894;   -0,818;    0,318
1035,987; 3126,894;   -2,364;   -0,682
1036,533; 3123,076;   -1,455;   -0,955
1037,078; 3314,076;    1,455;    1,682
1037,624; 3157,712;    2,455;   -0,955
1038,170; 3191,348;    0,455;   -0,318
1038,716; 3080,348;    1,636;   -0,409
1039,261; 3014,076;   -2,273;   -0,773
1039,807; 2934,985;   -0,091;    3,409
1040,352; 2973,712;   -1,909;   -0,318
1040,898; 3043,894;   -1,545;   -0,682
1041,443; 2953,803;   -1,455;   -2,591
1041,989; 2952,258;    1,091;    1,591
1042,534; 2849,167;   -0,364;    2,591
1043,079; 2977,894;    2,909;    0,955
1043,625; 2767,894;    1,818;    0,500
1044,170; 2801,348;   -1,364;    1,045
1044,715; 3038,894;    2,455;    0,955
1045,260; 2835,985;    2,182;   -0,955
1045,805; 2916,621;    1,182;   -0,591
1046,350; 2861,348;    1,364;   -0,409
1046,895; 2815,439;    2,909;    1,591
1047,440; 2765,258;    5,364;    0,409
1047,985; 2668,439;    2,818;   -0,955
1048,530; 2581,712;    1,545;    1,227
1049,074; 2637,076;    0,000;    0,318
1049,619; 2618,530;   -1,364;    1,955
1050,164; 2417,894;    0,455;    0,227
1050,708; 2452,985;   -0,455;    0,045
1051,253; 2810,894;    1,273;   -2,227
1051,797; 2536,894;    0,818;   -1,318
1052,342; 2567,076;   -1,182;    1,045
1052,886; 2543,621;    0,364;   -1,409
1053,430; 2431,530;   -1,364;    0,136
1053,975; 2453,258;   -0,818;   -0,318
1054,519; 2434,894;   -0,727;    3,227
1055,063; 2406,985;    0,909;    1,318
1055,607; 2294,894;   -0,182;    0,227
1056,151; 2330,076;    2,909;    1,682
1056,695; 2257,530;    2,273;   -1,136
1057,239; 2323,167;   -1,727;   -0,682
1057,783; 2314,803;    0,818;   -1,500
1058,327; 2251,894;    0,000;    1,409
1058,871; 2485,258;   -0,545;    1,318
1059,415; 2182,439;   -0,818;   -0,045
1059,958; 2446,258;    1,455;    2,591
1060,502; 2168,712;   -1,000;   -0,773
1061,046; 2089,803;    0,364;   -0,955
1061,589; 2079,621;   -3,000;   -1,136
1062,133; 1957,530;   -1,273;    1,864
1062,676; 1893,803;    1,182;    0,864
1063,220; 1878,348;    1,091;    0,500
1063,763; 1907,803;    0,909;    1,136
1064,306; 1981,439;   -0,909;    1,864
1064,849; 1847,621;   -0,909;    0,591
1065,393; 1876,439;    2,000;   -1,500
1065,936; 1984,530;    0,182;   -0,409
1066,479; 1886,167;   -1,455;    1,318
1067,022; 1893,712;   -0,273;   -0,227
1067,565; 1788,258;   -0,091;   -1,318
1068,108; 1824,076;    0,727;   -0,591
1068,651; 1797,894;   -0,636;    1,409
1069,194; 1717,348;   -0,455;   -1,682
1069,736; 1716,439;   -1,273;    0,955
1070,279; 1703,348;   -1,364;   -0,500
1070,822; 1741,985;   -2,000;   -0,318
1071,364; 1811,530;   -0,364;    1,318
1071,907; 1636,803;   -0,727;    3,227
1072,450; 1560,621;    0,000;   -0,045
1072,992; 1544,076;   -0,273;    3,136
1073,535; 1688,803;    2,091;    2,136
1074,077; 1478,167;   -0,727;    2,045
1074,619; 1456,439;   -1,364;    0,591
1075,161; 1479,258;   -1,091;    1,500
1075,704; 1649,803;    1,545;    1,227
1076,246; 1465,803;   -0,182;    0,682
1076,788; 1383,167;   -0,364;    1,773
1077,330; 1466,258;    1,273;    2,136
1077,872; 1425,621;    0,909;    0,955
1078,414; 1632,985;    2,727;    0,773
1078,956; 1370,167;    1,273;   -0,227
1079,498; 1610,621;    1,636;    0,318
1080,040; 1320,258;    1,909;   -1,318
1080,581; 1268,985;    1,636;   -0,318
1081,123; 1203,894;    0,091;   -0,773
1081,665; 1266,985;   -1,182;   -0,955
1082,206; 1553,621;    1,364;   -0,500
1082,748; 1406,712;    0,727;    2,045
1083,289; 1295,985;   -2,000;    1,318
1083,831; 1188,985;   -0,545;    0,227
1084,372; 1225,439;    0,000;    0,591
1084,913; 1231,712;    1,091;    0,864
1085,455; 1208,076;   -1,909;   -2,045
1085,996; 1170,803;   -2,273;    0,136
1086,537; 1179,530;   -0,091;    0,864
1087,078; 1223,894;   -0,909;   -2,136
1087,619; 1241,621;   -1,273;    0,227
1088,160; 1163,167;    0,000;    1,318
1088,701; 1159,985;   -1,091;    0,682
1089,242; 1099,894;    1,364;   -2,227
1089,783; 1194,621;   -0,273;    1,409
1090,324; 1148,621;    0,455;    0,682
1090,865; 1037,076;    2,727;   -0,409
1091,405; 1014,076;    0,727;    2,227
1091,946; 1037,530;    0,182;   -0,955
1092,487;  978,985;    0,818;   -1,409
1093,027; 1124,439;   -1,364;   -1,500
1093,568;  977,894;   -0,364;    1,227
1094,108; 1077,712;    0,273;    1,773
1094,649; 1025,258;   -1,182;    0,136
1095,189;  942,712;   -0,636;   -0,682
1095,729;  896,803;   -0,091;    0,955
1096,269;  909,621;    0,727;   -0,955
1096,810; 1217,712;   -1,364;    0,500
1097,350; 1046,621;    1,364;   -0,773
1097,890;  938,621;    0,364;    1,227
1098,430; 1196,258;    2,364;    2,864
1098,970; 1062,621;    2,182;    1,682
1099,510;  925,530;    0,545;   -2,318
1100,050;  859,167;    1,000;   -1,591
1100,589;  824,348;   -0,727;   -0,318
1101,129;  949,076;    0,818;   -0,955
1101,669; 1085,985;    1,727;    2,136
1102,209;  918,439;   -0,091;    2,227
1102,748;  874,167;    0,000;    0,955
1103,288;  862,348;    1,273;   -1,227
1103,827;  886,621;    3,091;   -2,227
1104,367;  769,167;   -0,091;   -2,409
1104,906;  738,530;    1,364;   -1,136
1105,445;  801,530;    0,636;   -1,136
1105,985;  747,985;   -0,727;    1,500
1106,524;  799,894;   -1,727;   -0,682
1107,063;  763,621;   -2,727;    1,409
1107,602;  741,985;   -1,909;   -1,500
1108,141;  669,803;   -1,909;    1,500
1108,680;  752,894;   -3,455;   -0,591
1109,219;  695,803;   -0,909;   -0,500
1109,758;  706,258;    0,455;    0,682
1110,297;  678,803;    1,000;   -0,682
1110,836;  622,894;   -0,727;    0,955
1111,375;  783,712;   -2,545;    0,409
1111,913;  796,439;   -1,000;    0,773
1112,452;  736,712;   -0,273;    0,136
1112,991;  613,894;    1,091;    1,955
1113,529;  572,076;   -0,818;   -0,045
1114,068;  636,348;   -0,273;    2,955
1114,606;  532,803;   -0,364;   -0,955
1115,144;  696,348;   -1,273;    1,045
1115,683;  642,348;   -0,727;    0,318
1116,221;  683,530;   -0,455;   -0,864
1116,759;  593,894;    0,636;   -0,864
1117,297;  784,894;    0,000;    1,864
1117,836;  596,712;   -2,182;   -1,227
1118,374;  601,985;    0,182;   -0,682
1118,912;  551,258;    0,909;    2,682
1119,450;  541,258;    1,000;    0,864
1119,988;  583,167;    1,545;    2,136
1120,525; 1041,439;    5,091;    3,318
1121,063;  735,258;    1,182;    1,864
1121,601;  550,348;   -0,909;   -1,227
1122,139;  508,348;   -0,727;   -2,045
1122,676;  712,712;   -0,727;    2,773
1123,214;  639,803;   -1,182;    4,409
1123,751;  449,076;    1,727;    2,227
1124,289;  580,439;   -0,091;   -0,409
1124,826;  435,803;    1,727;    0,227
1125,364;  369,167;    1,727;   -0,955
1125,901;  558,803;    1,182;    1,227
1126,438;  661,439;    0,818;    0,955
1126,975;  383,803;   -0,727;   -0,773
1127,513;  455,894;    0,273;    2,136
1128,050;  364,621;    1,636;   -0,682
1128,587;  469,621;    2,000;   -0,227
1129,124;  518,076;    0,091;    1,318
1129,661;  381,894;    0,273;    0,227
1130,198;  542,530;    1,636;    0,773
1130,734;  487,985;    0,182;    1,409
1131,271;  331,985;   -0,909;    0,864
1131,808;  512,985;    2,909;    3,045
1132,345;  388,803;    1,545;    0,318
1132,881;  258,439;   -1,545;   -1,864
1133,418;  405,894;    0,727;   -1,136
1133,954;  336,894;    2,455;   -2,682
1134,491;  419,530;    1,364;   -0,773
1135,027;  315,803;    2,364;    0,864
1135,564;  394,167;    0,273;    2,955
1136,100;  372,712;    0,364;    2,136
1136,636;  278,985;   -1,273;   -1,045
1137,172;  371,076;    0,000;   -1,045
1137,708;  289,621;   -1,364;   -1,045
1138,245;  289,985;    1,273;   -1,227
1138,781;  246,348;    1,091;   -3,318
1139,317;  311,985;    1,273;   -1,409
1139,852;  294,076;    3,091;    0,136
1140,388;  407,258;   -1,182;   -0,409
1140,924;  303,348;   -1,091;   -2,227
1141,460;  237,712;   -1,636;    0,136
1141,996;  176,985;   -1,364;    2,682
1142,531;  219,894;    1,364;    3,318
1143,067;  436,530;    1,182;    1,045
1143,602;  483,530;   -0,091;   -0,318
1144,138;  341,530;   -2,636;    1,045
1144,673;  197,712;   -1,455;    1,409
1145,209;  262,712;   -1,909;   -0,318
1145,744;  191,439;   -0,727;    0,864
1146,279;  328,258;    1,818;   -0,136
1146,815;  242,712;    1,545;   -2,682
1147,350;  278,803;   -1,364;    0,045
1147,885;  188,348;   -0,818;   -1,318
1148,420;  189,258;   -2,273;    0,773
1148,955;  173,621;   -1,727;    1,864
1149,490;  197,530;   -0,909;   -1,591
1150,025;  183,803;    0,455;   -1,773
1150,560;  298,167;    1,091;   -0,955
1151,094;  263,803;    1,455;   -0,591
1151,629;  278,258;    1,636;    0,864
1152,164;  190,076;    1,364;    1,318
1152,698;  149,439;   -0,182;   -0,136
1153,233;  114,712;    0,091;   -0,682
1153,767;  159,258;   -3,000;   -2,318
1154,302;  203,076;   -1,455;    1,773
1154,836;  195,076;   -0,455;   -2,136
1155,371;  255,076;   -1,364;    3,682
1155,905;  203,167;   -0,636;    1,682
1156,439;  172,894;   -0,636;   -0,500
1156,973;  210,894;    0,364;    0,318
1157,507;  148,076;   -0,364;    0,682
1158,042;  172,803;   -0,727;    1,045
1158,576;  216,167;    0,182;    1,773
1159,110;  208,985;   -0,818;    2,409
1159,643;  175,167;    0,636;   -0,045
1160,177;  114,803;   -1,545;    1,500

