
Integration time [ms]:   0,040
Averaging Nr. [scans]: 11
Smoothing Nr. [pixels]: 0
Data measured with spectrometer [name]: 7318044SP
Wave   ;Sample   ;Dark     ;Reference
[nm]   ;[counts] ;[counts] ;[counts] 

186,757;   24,065;   31,551;    1,318
187,357;   53,985;   22,551;    0,955
187,958;   29,048;   15,460;   -1,591
188,558;   76,427;    8,915;   -1,227
189,159;   41,714;    6,733;   -4,500
189,759;    9,137;    7,278;   -3,591
190,360;    8,530;    2,824;   -2,136
190,960;   54,679;    2,915;   -4,136
191,560;   68,273;    3,189;   -6,591
192,161;  297,336;    4,372;   -3,500
192,761;  147,013;    4,010;   -3,227
193,361;   90,302;    1,556;   -3,773
193,962;  146,777;    2,010;   -2,682
194,562;   65,450;    1,189;   -3,955
195,162;  103,635;   -2,448;   -2,227
195,762;  257,436;   -3,176;   -0,045
196,362;  205,627;    1,370;   -2,500
196,963;   76,488;    2,006;   -0,864
197,563;  143,791;    1,551;   -0,955
198,163;   96,393;    0,096;   -0,682
198,763;  115,411;    1,733;   -0,500
199,363;  212,019;    3,096;   -0,500
199,963;  184,316;    0,369;    0,409
200,563;  158,174;    2,823;   -1,409
201,163;  139,125;    3,277;   -0,227
201,763;  227,758;    3,732;    0,318
202,363;  159,098;    1,459;    1,500
202,963;  267,807;    1,459;    1,045
203,563;  368,738;    0,277;    0,500
204,162;  222,923;    2,096;   -1,864
204,762;  214,137;    0,550;    0,591
205,362;  180,275;    3,004;    1,955
205,962;  282,034;    3,096;    1,955
206,562;  276,117;    1,823;    2,318
207,161;  244,205;   -0,087;    0,318
207,761;  402,693;    1,277;    2,409
208,361;  274,016;   -0,268;    1,409
208,960;  375,357;    0,459;    1,500
209,560;  449,139;    1,277;    1,591
210,160;  427,674;    0,550;    1,864
210,759;  394,879;    4,186;    1,227
211,359;  407,604;    1,459;    1,045
211,958;  671,676;    1,277;    2,045
212,558;  742,763;    1,732;    1,864
213,157;  577,772;    1,822;    1,500
213,757; 1021,882;    3,822;   -0,227
214,356;  711,264;    1,277;   -0,409
214,956; 1046,576;    3,095;    0,409
215,555;  688,976;    2,095;    2,136
216,154;  621,188;   -2,723;   -0,591
216,754;  630,187;    0,277;    0,773
217,353;  764,414;   -0,268;   -1,045
217,952;  630,143;   -0,178;    0,318
218,552;  858,325;    1,368;   -0,773
219,151;  751,183;    0,277;    0,955
219,750;  747,985;    0,004;   -0,227
220,349;  863,389;   -0,451;    1,045
220,948;  936,582;   -1,360;    1,136
221,548;  937,685;    0,913;    1,227
222,147; 1050,348;   -0,087;   -0,409
222,746; 1339,852;   -0,451;   -0,955
223,345; 1212,310;    0,731;    0,500
223,944; 1206,993;   -0,451;    0,773
224,543; 1374,983;    1,004;   -1,409
225,142; 1490,294;    0,094;    0,136
225,741; 1403,240;   -0,814;    1,045
226,340; 1419,365;   -0,451;   -0,955
226,939; 1843,892;   -0,996;   -0,136
227,538; 1778,996;   -0,360;   -0,773
228,137; 1928,401;   -0,814;    0,864
228,735; 2043,036;   -0,541;    1,227
229,334; 1805,944;   -0,905;   -0,227
229,933; 2173,916;    0,459;    0,591
230,532; 2287,816;    1,186;   -0,409
231,131; 2342,932;    1,732;    0,318
231,729; 2445,730;   -2,450;   -2,318
232,328; 2534,334;   -0,723;   -1,500
232,927; 2580,624;    1,004;   -0,500
233,525; 2711,504;    3,640;    0,045
234,124; 2908,331;    2,368;   -1,591
234,723; 2934,337;    0,913;   -1,045
235,321; 3047,318;    2,277;    0,136
235,920; 3247,822;    1,186;   -1,227
236,518; 3500,894;    3,459;    0,318
237,117; 3649,655;    0,004;   -0,227
237,715; 3823,278;    0,640;   -0,500
238,314; 3857,364;   -0,087;   -2,318
238,912; 3961,940;   -0,723;   -1,409
239,510; 3996,482;    0,459;   -1,227
240,109; 4156,830;    0,004;    3,773
240,707; 4217,713;   -0,996;    1,227
241,305; 4546,476;    0,550;    0,136
241,904; 4740,930;   -0,178;   -2,045
242,502; 4712,296;   -0,632;   -0,227
243,100; 4701,276;   -0,087;   -0,955
243,698; 4907,081;    0,732;    1,682
244,297; 5066,854;   -0,632;    0,682
244,895; 4926,226;   -0,269;   -2,318
245,493; 5251,839;    2,186;   -0,591
246,091; 5298,351;    1,368;   -1,318
246,689; 5303,895;    1,004;    0,591
247,287; 5469,410;    0,822;   -1,136
247,885; 5744,606;   -1,451;    1,227
248,483; 5854,197;    1,822;   -0,500
249,081; 5970,681;    0,185;    1,591
249,679; 6118,344;   -0,178;    1,682
250,277; 6398,601;   -1,723;    0,864
250,875; 6362,095;   -1,087;   -1,045
251,473; 6389,777;   -1,178;    0,500
252,071; 6603,469;    1,459;    1,045
252,669; 6768,357;   -1,814;    0,318
253,267; 7002,291;   -0,087;    0,773
253,864; 6936,955;   -0,360;    0,682
254,462; 6857,240;    1,640;    1,591
255,060; 6840,055;   -0,269;    1,318
255,658; 7123,811;    0,822;   -0,136
256,255; 7517,773;    0,186;   -2,045
256,853; 7405,788;   -0,269;    1,409
257,451; 7407,928;    0,822;    1,864
258,048; 7647,652;    1,822;    1,864
258,646; 7408,331;    1,731;   -1,045
259,243; 7601,788;   -0,087;    2,227
259,841; 7660,600;   -0,814;    0,318
260,438; 7558,667;   -0,087;    0,864
261,036; 8272,612;   -1,905;    1,409
261,633; 8191,267;   -0,087;    2,227
262,231; 7932,021;    2,731;   -0,045
262,828; 8004,153;   -0,905;    1,136
263,425; 8063,287;    0,913;   -0,591
264,023; 8312,691;    0,186;    0,045
264,620; 7874,147;   -0,360;   -0,318
265,217; 8212,903;   -2,087;    3,136
265,815; 8324,679;   -1,905;    2,136
266,412; 8109,541;    0,731;    0,136
267,009; 8153,837;   -1,451;    0,773
267,606; 8086,421;    0,822;   -0,955
268,203; 8083,100;   -0,269;   -0,591
268,801; 8354,568;    1,731;    0,591
269,398; 8622,275;   -0,360;    2,500
269,995; 8622,062;    0,277;    1,591
270,592; 8393,975;   -0,632;   -0,500
271,189; 8555,669;    0,186;    0,409
271,786; 8681,409;   -0,632;    1,227
272,383; 8519,159;   -1,087;    0,227
272,980; 8687,898;    0,277;    0,318
273,577; 9125,966;    0,004;    1,227
274,174; 8700,545;    0,822;    2,591
274,771; 8707,629;   -0,814;   -0,773
275,367; 8852,692;    2,277;    1,409
275,964; 8814,853;    0,731;   -0,500
276,561; 8940,450;    1,549;   -1,045
277,158; 9138,254;    0,095;   -1,773
277,755; 9262,408;    2,185;    0,409
278,351; 8680,421;   -0,451;   -1,500
278,948; 8973,376;   -0,815;    0,045
279,545; 8977,580;   -1,360;    2,318
280,141; 9559,562;   -1,723;   -2,045
280,738; 9433,901;   -0,451;   -0,136
281,334; 9654,366;   -1,633;    0,591
281,931; 9081,360;   -0,087;   -1,318
282,528; 9210,114;    0,822;   -0,500
283,124; 9916,513;   -1,087;   -0,500
283,721; 9807,902;   -0,451;    1,409
284,317; 9632,604;    0,185;    2,500
284,913;10166,055;   -1,360;    0,591
285,510;10365,782;    0,640;   -0,318
286,106;10408,015;   -2,269;   -0,955
286,703;10040,435;   -0,360;    1,955
287,299;10210,145;   -1,451;   -0,591
287,895;10441,450;    0,822;   -1,045
288,491;11006,821;    0,186;    2,136
289,088;10745,615;   -2,360;    2,409
289,684;10782,538;   -1,723;    1,500
290,280;10777,832;    0,368;    0,682
290,876;10854,661;    1,822;    5,500
291,472;10791,557;    1,276;    2,227
292,068;10883,562;    1,367;    0,227
292,665;10579,872;    2,095;    0,773
293,261;10234,307;    0,276;    2,136
293,857;10629,103;    2,913;    2,136
294,453;10550,460;    3,550;    0,955
295,049;10435,936;   -0,268;    1,955
295,644;10462,017;    0,095;    0,136
296,240;10364,883;   -0,905;   -0,136
296,836;10454,503;   -0,995;    0,318
297,432;10727,338;    1,096;   -0,500
298,028;10737,672;    0,732;    0,773
298,624;11176,050;    1,459;    1,864
299,220;11393,922;    2,368;    0,591
299,815;11090,174;    1,005;   -0,409
300,411;10883,208;    0,914;    1,773
301,007;10902,306;    1,368;    0,227
301,602;10947,565;   -0,541;   -2,318
302,198;11101,117;    0,732;   -0,773
302,794;11441,617;    1,187;   -0,500
303,389;11564,074;   -1,177;    1,045
303,985;11633,773;    0,550;    1,409
304,580;11581,343;    1,459;    1,591
305,176;11523,178;   -3,086;    0,136
305,771;11459,760;   -1,268;   -1,227
306,367;11302,371;    4,095;    0,136
306,962;11662,019;    0,641;    1,500
307,558;11413,776;   -0,450;    0,136
308,153;11330,269;    1,095;   -1,136
308,748;11569,871;   -0,814;    1,682
309,344;11526,493;   -0,632;   -1,318
309,939;11619,153;   -1,905;   -1,318
310,534;11923,823;   -0,086;   -1,682
311,130;11814,387;    0,459;   -2,500
311,725;11515,939;    1,004;   -0,500
312,320;11860,081;    2,459;    0,045
312,915;11702,551;    1,459;   -1,045
313,510;11753,061;    1,550;   -0,500
314,105;12247,582;    1,096;    1,409
314,700;11686,951;   -3,086;   -1,045
315,295;11312,889;   -0,904;    0,045
315,890;10895,109;    1,277;    0,864
316,485;11257,576;   -0,359;   -0,318
317,080;11364,384;   -3,086;    1,591
317,675;11902,173;    2,005;   -0,682
318,270;11306,666;    5,550;    3,318
318,865;11320,120;    3,278;    3,045
319,460;11166,261;   -0,904;    0,591
320,055;11445,810;   -0,541;   -1,227
320,650;11105,412;   -1,995;   -0,591
321,244;11176,268;   -0,177;   -1,409
321,839;12092,772;   -1,541;   -0,227
322,434;11969,263;   -1,086;   -1,591
323,029;11592,246;    1,732;    1,591
323,623;11388,325;    1,550;    0,773
324,218;11189,695;    2,368;    1,409
324,812;11059,618;    1,096;    1,591
325,407;10830,534;   -0,814;    2,045
326,002;10753,414;    0,277;   -0,409
326,596;11073,222;    0,914;    1,318
327,191;11265,774;    0,823;   -1,045
327,785;10853,858;   -0,813;   -0,227
328,379;11077,532;    1,368;    0,136
328,974;10859,290;    0,914;   -3,955
329,568;11095,104;    0,186;   -2,409
330,163;10946,005;    2,096;    1,045
330,757;11288,548;    2,459;    1,591
331,351;10638,116;    0,459;    0,682
331,945;10943,253;    0,914;    1,409
332,540;10536,208;   -1,723;   -0,591
333,134;10672,701;   -1,086;    0,773
333,728;10935,995;    0,005;    0,318
334,322;11290,288;   -1,177;   -0,864
334,916;10561,406;    0,277;    0,955
335,510;10902,781;   -0,450;   -0,136
336,105;11166,138;   -1,086;    1,591
336,699;10867,573;   -1,086;    0,591
337,293;10800,646;   -1,723;    0,318
337,887;10949,475;   -2,723;    1,955
338,481;11080,965;    0,459;    0,591
339,074;11211,314;   -0,359;    2,682
339,668;11064,734;   -1,632;    1,227
340,262;11292,278;    1,732;    3,227
340,856;10825,201;    1,822;   -0,682
341,450;10227,086;    1,004;    1,864
342,044;11086,646;    1,459;    0,136
342,637;10857,921;    0,913;   -2,136
343,231;10709,444;   -2,360;    0,682
343,825;10688,845;   -1,086;   -0,591
344,419;10662,348;   -1,995;    0,500
345,012;10425,735;    2,459;    4,045
345,606;10405,791;    4,641;    1,591
346,199;10310,903;   -1,813;   -0,227
346,793; 9864,778;    1,914;    2,045
347,386;10043,132;   -0,813;   -1,136
347,980;10044,800;   -0,268;   -0,045
348,573; 9842,667;    2,278;    0,409
349,167; 9502,168;    5,278;    4,773
349,760; 9850,655;    2,914;    2,682
350,354; 9833,560;   -0,813;    1,136
350,947; 9567,061;    1,096;    1,682
351,540; 9266,817;   -0,358;   -1,409
352,134; 9224,958;    1,096;    1,136
352,727; 9304,978;   -0,086;    1,136
353,320; 9113,083;    0,005;    0,591
353,913; 8961,391;   -1,995;    1,864
354,507; 9131,576;    0,823;   -1,227
355,100; 9153,118;    0,460;    0,864
355,693; 8383,454;    2,005;    2,409
356,286; 8425,230;    0,823;    2,773
356,879; 8782,475;   -0,722;    1,227
357,472; 8408,416;   -0,904;    1,500
358,065; 8606,647;   -0,722;    2,500
358,658; 8551,565;   -0,540;    2,318
359,251; 8199,839;   -1,631;   -0,591
359,844; 7670,736;   -1,904;   -1,136
360,437; 7840,907;   -2,995;    0,045
361,030; 8124,627;    1,369;   -0,682
361,623; 7733,183;    2,824;    0,318
362,215; 7751,675;   -0,086;    2,045
362,808; 7599,680;   -2,358;   -1,682
363,401; 7767,874;   -2,449;    0,136
363,994; 7567,745;   -0,631;   -1,500
364,586; 7499,482;    0,824;   -1,500
365,179; 7660,681;   -0,449;   -1,136
365,772; 7147,155;   -1,995;    2,045
366,364; 7469,810;    1,915;   -3,227
366,957; 7653,231;    2,279;   -0,045
367,549; 7650,252;    2,188;   -0,864
368,142; 7330,507;    1,825;   -1,500
368,734; 7514,864;    0,734;   -2,136
369,327; 7502,759;    1,643;   -0,500
369,919; 7405,704;   -1,538;    0,409
370,512; 7220,882;   -1,083;   -0,500
371,104; 6941,060;   -0,901;    1,591
371,696; 7121,834;    1,191;   -0,955
372,289; 7216,575;    0,373;    1,136
372,881; 7341,007;   -2,080;    1,318
373,473; 7279,939;   -2,170;    1,136
374,066; 7086,266;   -0,169;    0,500
374,658; 6949,552;    0,378;    1,136
375,250; 7291,484;    0,653;   -1,409
375,842; 7166,667;    0,473;   -0,045
376,434; 7035,493;   -0,435;   -0,409
377,026; 7581,661;    0,204;   -2,500
377,618; 7476,504;   -0,158;   -0,682
378,210; 7328,914;   -0,338;   -1,955
378,802; 7171,040;    0,754;   -0,591
379,394; 7141,610;    1,846;    0,682
379,986; 7715,417;    1,393;   -0,955
380,578; 7792,184;   -0,153;    0,773
381,170; 7166,195;   -0,972;    0,045
381,762; 7119,562;    0,755;    1,409
382,354; 7305,696;   -0,065;   -1,318
382,945; 7411,226;   -2,976;    0,318
383,537; 7558,013;   -2,705;   -1,955
384,129; 7571,769;   -2,160;   -1,136
384,721; 7759,871;   -0,252;    0,955
385,312; 7669,930;   -0,161;   -0,955
385,904; 7764,787;   -2,706;    1,591
386,496; 7144,762;   -0,979;    1,045
387,087; 7258,353;    1,022;    2,500
387,679; 7293,877;   -1,160;    0,045
388,270; 7458,042;    2,840;    2,045
388,862; 7568,812;    1,295;   -0,318
389,453; 7457,259;   -0,887;    1,045
390,045; 7725,592;   -0,705;   -2,682
390,636; 7669,905;    0,204;   -0,591
391,227; 7500,294;   -0,523;   -0,045
391,819; 7582,034;    0,204;    0,773
392,410; 7684,385;    1,022;    0,045
393,001; 7605,376;   -0,979;   -1,591
393,593; 7893,782;    1,930;   -0,045
394,184; 7726,560;    1,385;   -0,409
394,775; 7658,409;    1,839;    2,136
395,366; 7864,261;    1,385;    0,773
395,957; 7851,326;    0,113;    0,136
396,548; 8161,436;   -0,342;    2,682
397,139; 8465,497;   -2,433;    0,591
397,730; 8193,866;   -1,888;    0,955
398,321; 8237,065;   -1,252;    0,955
398,912; 8265,101;   -0,615;    0,136
399,503; 8371,949;   -3,524;   -1,409
400,094; 7774,991;    0,294;    1,682
400,685; 7687,002;   -0,433;    0,045
401,276; 7779,178;    0,930;   -0,955
401,867; 8078,828;   -0,888;    0,773
402,458; 8158,327;   -2,251;   -2,318
403,048; 8143,197;    1,112;    0,591
403,639; 7772,174;    0,840;    0,864
404,230; 8016,502;    2,476;    0,318
404,821; 7943,494;   -0,615;    0,045
405,411; 8062,720;    1,203;   -2,591
406,002; 7630,229;   -1,252;   -1,136
406,592; 7487,702;    2,294;    0,045
407,183; 7795,847;    0,566;   -1,500
407,774; 7732,535;    3,475;   -0,136
408,364; 8040,861;    0,930;    0,409
408,954; 7661,293;    0,384;    1,227
409,545; 7729,382;    1,021;    1,045
410,135; 7270,948;    1,293;    0,500
410,726; 7419,470;    1,838;    0,318
411,316; 7789,413;    0,111;    0,773
411,906; 7475,732;   -0,253;   -0,409
412,497; 6967,826;   -1,070;   -0,045
413,087; 7546,344;   -1,980;   -0,227
413,677; 7926,773;   -0,707;    3,864
414,267; 7765,649;    0,656;    1,409
414,857; 7759,289;   -2,980;    4,227
415,448; 8050,560;    0,839;    0,500
416,038; 7768,048;    0,020;   -0,591
416,628; 7707,953;   -0,889;    0,409
417,218; 7191,205;    0,565;    3,318
417,808; 7450,482;    0,202;   -0,409
418,398; 7911,514;    0,020;    2,682
418,988; 7925,214;    2,020;    0,591
419,578; 8122,383;   -0,707;    1,409
420,168; 8479,825;   -1,343;   -0,955
420,757; 8053,863;   -1,343;   -1,500
421,347; 7710,412;    0,111;   -0,227
421,937; 7839,713;    2,292;    1,409
422,527; 7810,268;    0,838;   -0,773
423,116; 7643,725;   -0,253;   -0,045
423,706; 7998,159;   -1,889;    0,318
424,296; 7942,066;    1,384;    0,682
424,885; 8365,157;   -0,071;   -3,045
425,475; 8631,623;    1,474;   -2,864
426,065; 8542,834;   -0,980;   -0,318
426,654; 8173,925;   -0,435;   -0,318
427,244; 8280,202;    0,020;    1,409
427,833; 7738,469;    1,383;   -0,500
428,423; 8183,341;   -0,526;    1,136
429,012; 8911,724;   -0,344;   -1,136
429,601; 8411,947;   -1,344;    0,136
430,191; 8645,049;    1,292;    4,318
430,780; 8281,585;   -0,344;   -0,409
431,369; 8224,584;    0,746;   -0,045
431,959; 8823,891;   -1,254;    0,500
432,548; 8593,833;   -1,163;   -0,045
433,137; 8745,024;   -1,254;   -1,318
433,726; 9231,199;    0,292;    0,500
434,315; 8614,084;   -0,526;    2,409
434,905; 8706,417;   -1,254;    1,409
435,494; 8601,705;    0,746;    0,955
436,083; 9066,626;   -0,981;   -0,955
436,672; 8915,635;    0,110;    0,500
437,261; 8503,348;    0,292;   -1,955
437,850; 8564,038;    1,383;    0,682
438,439; 8532,307;    3,291;    1,955
439,027; 8401,767;    3,655;    1,773
439,616; 8734,449;    2,927;    1,227
440,205; 8595,859;    0,200;   -2,136
440,794; 8664,544;    2,109;   -0,045
441,383; 8897,531;   -1,346;   -0,591
441,971; 8745,256;   -2,436;    0,591
442,560; 8608,759;    0,563;   -1,773
443,149; 8338,996;    0,379;   -1,318
443,737; 8480,118;   -0,074;   -2,318
444,326; 8713,397;    0,018;    0,318
444,915; 8752,060;   -1,982;    0,864
445,503; 9136,416;   -2,891;   -0,318
446,092; 8420,240;    0,382;    2,136
446,680; 8935,978;    0,382;    0,318
447,269; 9105,591;   -0,346;   -0,318
447,857; 8878,696;    0,018;   -1,773
448,445; 8979,732;    0,563;    1,318
449,034; 9174,758;   -1,528;   -1,136
449,622; 9269,941;   -1,073;    3,500
450,210; 8514,154;    2,017;    2,227
450,799; 9041,523;    0,290;   -0,591
451,387; 9018,832;    1,381;   -0,591
451,975; 8673,733;    2,654;    0,864
452,563; 8755,326;    3,472;    2,318
453,151; 8776,256;   -0,528;   -1,227
453,739; 8684,801;   -1,347;    0,136
454,328; 8518,670;    2,381;   -2,136
454,916; 8281,076;    2,562;   -0,136
455,504; 8460,550;    1,017;    1,227
456,092; 8624,207;    0,017;   -1,591
456,679; 8601,725;    1,472;    0,682
457,267; 8541,103;    4,017;    1,045
457,855; 8697,354;    1,017;    1,409
458,443; 8434,917;   -0,165;    1,682
459,031; 8544,270;    0,108;    2,409
459,619; 8974,684;   -1,801;    2,864
460,206; 9103,539;    0,835;    2,045
460,794; 9199,398;   -2,983;   -0,227
461,382; 9346,906;   -0,529;   -0,864
461,970; 8967,481;    1,198;    1,864
462,557; 9009,783;   -0,711;   -0,682
463,145; 9154,017;   -3,165;   -1,682
463,732; 9301,131;    2,016;   -1,045
464,320; 9246,088;   -0,075;   -3,045
464,907; 8915,960;    2,743;   -0,773
465,495; 8817,147;    0,743;   -1,227
466,082; 8968,117;   -1,984;   -0,045
466,670; 8869,938;   -2,529;    1,227
467,257; 9248,491;   -1,711;    2,045
467,844; 9437,528;   -0,075;    0,045
468,432; 9438,652;    0,834;    3,500
469,019; 8963,097;    0,925;   -1,773
469,606; 9402,418;    0,470;    3,682
470,193; 9210,232;   -1,439;    0,227
470,780; 8795,090;   -2,075;    0,864
471,368; 9121,497;   -1,257;   -0,773
471,955; 8914,854;    1,379;   -0,682
472,542; 8579,085;    0,652;   -1,136
473,129; 8795,191;   -0,166;    0,136
473,716; 8533,610;    1,470;    0,591
474,303; 8737,794;    0,652;   -0,864
474,890; 8992,131;   -1,439;   -0,500
475,477; 9014,929;   -1,621;    0,409
476,064; 8895,768;    1,106;   -1,591
476,650; 8802,749;    0,288;    0,318
477,237; 8611,022;   -0,258;    0,955
477,824; 8762,239;   -1,076;    0,864
478,411; 8795,872;   -1,894;   -0,318
478,997; 8964,434;    0,560;   -0,773
479,584; 9007,699;    1,196;   -0,409
480,171; 9636,235;   -0,440;   -0,773
480,757; 9295,831;    2,651;    0,773
481,344; 9577,115;    0,469;    0,409
481,931; 9092,053;    1,105;    1,045
482,517; 9978,937;   -1,258;    0,318
483,104;10419,941;    1,106;    2,864
483,690;10683,579;   -1,804;    0,045
484,276;11033,990;   -0,895;    0,227
484,863;10797,798;    2,469;    1,136
485,449;11322,457;   -0,077;    0,318
486,035;11306,036;   -1,986;   -0,136
486,622;11722,839;   -0,895;    0,045
487,208;11611,546;    1,378;    1,500
487,794;11503,409;    0,741;    0,318
488,380;11605,778;    0,105;   -1,409
488,967;11673,080;   -1,168;   -0,409
489,553;11745,826;   -1,895;   -1,409
490,139;11922,342;    1,559;    0,773
490,725;11433,982;    0,741;   -0,227
491,311;11059,312;    3,287;    3,045
491,897;10472,223;   -0,986;    1,500
492,483;10368,168;    0,105;    1,227
493,069;10176,286;    3,923;    0,864
493,655;10163,149;    1,650;    0,682
494,241;10137,297;    1,377;   -0,955
494,826;10526,734;    0,287;   -1,045
495,412;10002,037;    2,559;   -0,682
495,998;10202,893;   -0,805;   -0,318
496,584;10369,914;    0,377;    1,045
497,169;10357,346;    1,014;   -0,682
497,755;10363,251;    0,650;    1,227
498,341;10929,073;    0,559;    0,318
498,926;10511,145;    1,832;    1,955
499,512;10726,870;    1,286;    2,955
500,097;10900,481;    0,195;   -0,318
500,683;10890,563;   -0,350;    2,136
501,268;11271,414;   -0,169;   -0,955
501,854;11049,937;   -0,169;    1,227
502,439;11022,412;   -0,624;   -1,773
503,024;11265,094;    0,195;    0,500
503,610;11353,214;   -0,078;   -0,682
504,195;11378,889;    0,558;    1,955
504,780;11537,507;    2,922;    1,227
505,366;11442,958;    3,013;    2,864
505,951;11218,400;    0,740;    1,045
506,536;11237,245;   -3,260;   -3,682
507,121;11263,721;    0,285;   -0,318
507,706;11805,359;    2,376;    1,045
508,291;12218,674;    2,649;    1,136
508,876;11718,381;   -0,988;    2,591
509,461;11249,911;   -0,169;   -0,773
510,046;11683,575;    0,194;    0,318
510,631;11942,653;   -0,351;   -0,773
511,216;11615,451;    2,467;   -0,500
511,801;12016,398;   -0,442;    2,591
512,386;12326,538;    0,740;    0,500
512,971;12296,649;   -2,988;    0,955
513,555;11908,787;   -0,897;   -1,500
514,140;12681,004;   -0,442;   -3,136
514,725;12700,088;   -0,715;   -1,136
515,309;12826,538;   -0,533;    0,318
515,894;12304,598;   -0,624;   -2,227
516,479;12771,605;   -0,624;   -0,955
517,063;12615,053;    0,376;    1,227
517,648;12766,420;    1,012;   -1,136
518,232;12427,304;   -0,261;   -1,409
518,817;12778,457;   -0,079;    1,682
519,401;12993,331;    2,194;    0,591
519,985;12530,689;    1,103;    1,136
520,570;12405,824;    0,830;   -1,955
521,154;12670,804;    2,102;    0,591
521,738;12844,279;   -2,352;    2,409
522,323;13441,981;   -0,170;    1,682
522,907;13201,064;    0,466;   -0,136
523,491;12941,703;    0,557;    0,955
524,075;12933,401;    2,284;    0,591
524,659;13040,055;    1,466;    0,591
525,243;12495,271;    1,739;    0,409
525,827;12752,371;    0,648;   -0,045
526,411;13579,055;   -1,989;   -0,136
526,995;13787,123;   -0,352;    1,409
527,579;13359,877;   -0,443;   -1,045
528,163;13681,738;    0,375;   -1,500
528,747;13607,734;    2,466;   -0,773
529,331;13907,852;   -0,080;   -1,409
529,915;14090,134;    1,738;    0,955
530,499;14057,376;   -0,807;    1,227
531,082;13746,058;   -0,534;    1,591
531,666;13219,060;    1,374;    0,773
532,250;13889,160;    1,284;    2,682
532,833;14201,481;    0,920;    2,773
533,417;14103,058;   -1,807;    0,864
534,001;14082,103;    1,647;   -0,318
534,584;14752,421;    0,374;    0,500
535,168;14594,602;    0,465;    1,409
535,751;14609,546;    0,647;    0,045
536,334;14098,825;   -0,898;   -0,409
536,918;14685,763;    0,011;    1,591
537,501;14782,410;   -0,899;    1,318
538,085;14794,869;   -0,444;    1,045
538,668;14940,931;    0,829;    2,409
539,251;15238,266;    1,829;    3,773
539,834;15273,535;    0,101;    0,773
540,418;15183,768;   -1,990;    4,318
541,001;15301,368;   -0,990;    1,773
541,584;15291,463;    2,101;    2,227
542,167;14967,984;    1,374;    2,955
542,750;15142,294;    1,919;   -0,773
543,333;14730,196;    0,555;    2,136
543,916;15469,756;    0,192;    2,500
544,499;16088,369;   -1,354;    0,227
545,082;16124,250;    1,374;    3,591
545,665;16230,366;    1,919;    1,500
546,248;16569,015;    1,010;   -0,318
546,830;16234,435;   -0,445;    1,955
547,413;16670,603;    1,010;   -0,773
547,996;17181,309;    0,555;    0,500
548,579;16995,564;    0,919;    0,955
549,161;16764,808;    1,828;    2,682
549,744;16562,790;   -0,809;    0,409
550,326;17036,065;   -0,809;   -1,136
550,909;16808,317;    2,737;    0,591
551,492;17243,060;   -0,263;    0,227
552,074;17005,717;   -0,173;   -1,318
552,657;17540,506;    2,373;    0,045
553,239;17357,146;   -0,173;   -0,773
553,821;17286,040;   -1,082;    1,045
554,404;16741,747;    1,282;    1,136
554,986;17115,301;    0,464;    1,045
555,568;17759,487;    1,191;   -0,955
556,151;16957,639;    1,191;   -0,227
556,733;17135,207;   -0,264;   -0,864
557,315;17595,048;    0,100;    0,500
557,897;17400,924;    0,554;   -0,500
558,479;17509,865;   -1,991;    1,318
559,061;17674,523;   -0,719;   -0,864
559,643;17985,574;   -0,264;    0,045
560,225;18368,913;    1,645;    2,864
560,807;18375,846;    0,918;    0,318
561,389;17893,911;    0,554;    2,318
561,971;18567,303;    0,463;    2,136
562,553;18383,464;   -1,628;    1,591
563,135;18514,947;   -0,537;    1,136
563,717;18148,370;    3,372;    1,136
564,298;18823,226;    3,645;   -0,045
564,880;18592,864;    0,645;   -1,409
565,462;18761,591;    0,645;    1,318
566,043;19853,870;   -0,446;    2,318
566,625;19394,596;    1,918;    1,227
567,207;19209,246;    1,099;    1,682
567,788;20291,431;   -1,264;    1,500
568,370;21106,147;    1,917;   -0,500
568,951;20899,406;    0,190;    0,227
569,533;21779,520;   -0,628;   -0,500
570,114;22201,271;   -0,446;    0,682
570,695;22680,299;   -0,174;   -1,318
571,277;23193,126;   -0,265;   -1,682
571,858;23854,968;    2,008;   -1,136
572,439;24716,473;    1,554;   -1,045
573,021;24857,361;    2,099;   -2,773
573,602;25347,442;   -1,265;    0,318
574,183;26253,967;   -2,083;    2,227
574,764;26345,388;   -1,629;    0,409
575,345;26886,669;    0,917;   -0,136
575,926;27459,560;   -0,356;    0,136
576,507;27417,078;    1,099;   -0,227
577,088;28528,774;    3,099;    1,682
577,669;28513,940;    0,735;    1,955
578,250;29250,330;    0,644;   -1,045
578,831;29862,961;   -1,356;   -2,227
579,412;30090,092;   -0,810;    0,955
579,993;31029,791;    1,008;    0,227
580,573;31368,368;   -0,629;   -0,955
581,154;30349,789;    0,735;   -0,591
581,735;31212,545;    0,644;    0,773
582,315;30681,272;   -0,629;    2,136
582,896;31022,752;   -0,174;    1,227
583,477;30543,042;    0,189;    1,227
584,057;30676,579;    0,553;    0,955
584,638;30970,519;    2,553;    2,318
585,218;30971,305;   -0,538;    2,682
585,799;31132,329;    0,281;   -0,227
586,379;31092,047;    0,372;    1,591
586,959;29991,028;    0,735;    0,318
587,540;29380,322;   -0,629;    2,227
588,120;28881,191;    1,007;   -0,045
588,700;27876,750;    2,553;    2,136
589,281;28161,943;    0,462;   -0,955
589,861;28124,160;    0,099;   -1,682
590,441;27907,308;    2,371;   -2,682
591,021;26948,972;   -0,265;   -2,591
591,601;27190,163;   -0,537;    0,500
592,181;27165,100;   -0,719;   -0,773
592,761;26516,573;    0,007;    1,409
593,341;26474,815;   -0,901;    0,045
593,921;26387,198;   -0,265;    1,591
594,501;26325,149;   -0,538;    1,318
595,081;26196,591;    0,917;   -0,318
595,661;26530,114;   -1,447;    0,955
596,240;27009,558;   -0,537;    0,136
596,820;26618,120;    0,372;    1,955
597,400;26835,415;    2,008;    0,773
597,980;27038,491;    2,008;    1,045
598,559;27113,322;    2,735;   -0,227
599,139;26786,872;   -0,174;   -1,227
599,718;26707,054;   -0,174;   -0,409
600,298;26970,989;    0,735;    0,682
600,877;27197,585;    2,917;    1,409
601,457;27479,874;    2,281;    1,136
602,036;27347,435;    0,190;    2,045
602,616;27611,309;    0,644;    1,682
603,195;27887,146;   -0,355;    3,500
603,774;27411,211;   -0,901;    2,045
604,354;27316,272;    0,826;   -0,500
604,933;26820,161;    0,463;    1,864
605,512;26906,608;    3,554;    0,591
606,091;27006,565;   -0,537;    3,773
606,671;27818,844;    0,281;    0,773
607,250;26940,118;    1,644;    3,136
607,829;27164,829;    2,372;    3,227
608,408;27056,805;    1,190;    2,591
608,987;26115,964;    1,281;    3,409
609,566;26452,115;   -1,265;   -2,500
610,145;26513,846;   -1,082;    0,682
610,723;26923,243;    4,372;    6,864
611,302;26152,412;   -0,446;    1,682
611,881;25663,418;    5,008;   11,227
612,460;26520,935;    1,645;    3,955
613,039;26926,133;   -0,082;    2,045
613,617;25680,862;    1,736;    4,773
614,196;25885,420;    1,099;    1,227
614,775;26249,465;    1,009;    2,409
615,353;26170,881;    0,736;    0,864
615,932;25869,489;    0,100;    2,409
616,510;26488,282;    0,554;    0,591
617,089;25988,824;    7,100;   17,591
617,667;25754,671;    2,372;    6,136
618,246;25684,420;   -1,537;    1,318
618,824;25835,120;   -3,355;   -0,955
619,402;25415,302;   -2,900;   -1,773
619,981;25889,747;   -0,173;   -1,045
620,559;25762,074;    0,009;    1,682
621,137;25269,502;   -0,718;    1,864
621,715;25285,717;   -1,173;   -0,682
622,293;25195,562;   -0,537;   -0,773
622,871;25646,503;   -0,718;    0,500
623,450;25244,486;    0,373;   -0,864
624,028;25162,104;    0,191;   -0,955
624,606;24792,853;   -1,718;    1,682
625,183;25179,540;   -1,536;   -1,136
625,761;24828,994;    1,009;    1,136
626,339;25104,008;    1,373;    2,591
626,917;25496,251;   -0,172;   -0,045
627,495;25537,647;   -0,354;    1,318
628,073;25034,394;   -0,263;    2,864
628,650;24682,017;    0,100;    2,136
629,228;25106,695;    0,373;    4,409
629,806;24505,655;    2,282;    1,136
630,383;24799,249;    1,464;   -0,318
630,961;24605,959;    2,555;   -0,955
631,539;24305,489;    2,464;    0,227
632,116;23632,322;   11,373;   15,409
632,694;24213,341;    2,555;    6,500
633,271;24519,166;    0,828;    2,682
633,848;24463,267;    1,828;    2,045
634,426;24504,583;   -1,081;    1,773
635,003;23610,344;    1,101;   -0,409
635,580;23933,614;    1,192;    3,682
636,158;24495,604;    3,737;    1,227
636,735;24520,015;    0,555;   -0,500
637,312;24611,331;   -0,809;   -0,682
637,889;24693,185;   -4,354;   -0,682
638,466;24211,337;   -3,990;   -0,409
639,043;24220,800;    2,101;   -1,136
639,620;24545,133;   -2,262;   -0,955
640,197;24834,541;    1,100;    1,682
640,774;25016,861;   -0,172;    1,136
641,351;25438,726;    0,737;    1,136
641,928;24813,592;   -0,627;    1,409
642,505;24439,366;    0,828;   -0,500
643,082;24581,231;   -1,718;    1,227
643,658;23610,733;   -0,718;    1,500
644,235;24350,325;    1,191;    2,500
644,812;24631,281;    1,918;    0,773
645,388;24370,692;   -0,991;    1,409
645,965;24484,739;   -0,809;    1,682
646,542;24557,059;   -1,445;   -0,227
647,118;24459,833;    1,009;   -0,955
647,695;24813,699;   -0,263;    1,136
648,271;24759,746;   -0,536;    0,500
648,848;25063,520;    0,736;    2,227
649,424;24887,840;    0,827;    1,318
650,000;24680,069;   -0,354;   -1,045
650,577;24463,025;   -0,627;   -0,955
651,153;24881,526;   -1,809;    0,955
651,729;25904,664;    1,191;    0,864
652,305;25996,257;    0,645;    2,773
652,881;30000,940;   -0,082;    1,136
653,458;36466,987;    1,100;    0,227
654,034;40315,489;    0,282;    1,591
654,610;41846,991;    0,554;    0,773
655,186;43122,583;    0,645;    3,045
655,762;42859,630;   -0,991;    0,409
656,338;42919,768;    0,100;    0,136
656,913;43888,906;   -0,082;    0,409
657,489;43166,771;    0,827;   -0,318
658,065;43160,000;   -0,173;   -1,591
658,641;43834,229;   -0,900;   -0,864
659,217;43148,003;   -0,991;    0,409
659,792;42564,505;    0,645;   -0,409
660,368;42789,098;   -2,173;   -0,682
660,944;42545,145;   -2,082;    1,227
661,519;38444,919;   -0,628;    0,409
662,095;32805,966;   -1,719;    0,591
662,670;28150,013;    1,281;   -0,136
663,246;26933,151;    1,009;   -0,409
663,821;26185,562;    0,281;    1,682
664,396;25677,063;    0,009;    1,864
664,972;25945,929;    0,009;   -0,500
665,547;26278,430;    1,372;    0,136
666,122;26284,477;   -1,082;    0,318
666,698;26567,979;   -0,173;    0,318
667,273;25903,026;   -0,173;    0,136
667,848;26746,255;    2,372;    1,500
668,423;26482,029;    2,190;    2,318
668,998;27024,804;    2,827;   -0,682
669,573;27517,305;   -3,264;   -1,500
670,148;27350,079;   -1,446;   -0,682
670,723;27230,036;   -1,810;    0,318
671,298;27644,719;    2,372;    1,045
671,873;27704,584;   -0,082;   -0,136
672,448;27628,177;    0,645;    0,136
673,023;28003,497;   -1,992;   -0,227
673,597;28326,816;    0,827;    2,318
674,172;28126,954;   -0,355;    0,318
674,747;27611,729;    0,372;   -1,045
675,321;27508,776;   -0,628;    3,318
675,896;27077,914;    0,645;    1,045
676,471;28046,143;    2,645;    1,591
677,045;27813,553;   -1,264;    0,682
677,620;27894,328;    0,190;    1,136
678,194;28187,102;   -2,628;    1,136
678,769;27738,785;   -1,083;   -0,318
679,343;27938,923;   -0,628;    1,773
679,917;27817,152;   -1,446;    1,955
680,492;27931,108;    0,826;    3,227
681,066;28079,519;    3,372;    0,409
681,640;28091,839;    1,463;   -0,318
682,214;28896,431;    0,735;    0,500
682,788;28398,388;   -1,356;   -0,773
683,363;28307,162;   -1,810;    1,682
683,937;28050,300;   -1,719;   -0,318
684,511;28834,256;    0,463;   -0,591
685,085;28528,212;   -1,356;    0,318
685,659;28310,168;   -2,538;    0,864
686,232;28513,034;   -0,356;   -0,318
686,806;28302,444;   -0,901;    0,409
687,380;28926,128;   -0,174;    0,591
687,954;29097,084;   -1,174;    1,136
688,528;28826,949;   -0,719;    1,955
689,101;29621,996;   -3,992;    1,045
689,675;29160,770;   -0,356;   -0,136
690,249;28522,908;   -0,719;    0,409
690,822;28856,774;    0,280;    0,318
691,396;28981,366;   -0,265;    1,227
691,969;28464,868;    1,280;    0,136
692,543;28886,551;   -0,447;   -1,955
693,116;28572,235;   -0,265;   -1,409
693,690;28447,373;    0,099;    0,500
694,263;28946,329;   -1,083;    2,955
694,836;28958,739;    1,371;    3,591
695,410;27631,332;   -0,265;    1,773
695,983;28099,561;    0,189;    0,591
696,556;28143,426;   -0,447;   -1,045
697,129;28476,655;   -0,356;    1,409
697,703;28109,248;   -1,629;    1,955
698,276;28098,658;    1,462;   -0,773
698,849;27922,523;    1,280;    1,409
699,422;28345,480;   -1,083;    0,591
699,995;28050,618;    0,007;    0,136
700,568;28524,574;   -0,629;    3,045
701,140;28536,257;   -2,811;    1,682
701,713;28221,941;   -0,174;    2,409
702,286;27998,351;   -0,538;    0,864
702,859;27894,580;   -0,902;   -0,591
703,432;27032,082;    0,825;    0,682
704,004;27555,947;    0,462;    0,318
704,577;27391,085;   -0,629;    0,136
705,150;27989,041;    0,189;    2,500
705,722;27727,543;   -0,356;   -3,227
706,295;27535,135;   -0,175;   -0,591
706,867;27363,819;   -0,175;    1,955
707,440;27570,593;   -1,720;   -0,409
708,012;27859,367;    0,462;    0,591
708,584;27776,414;    2,462;    0,227
709,157;28041,007;    1,825;   -0,591
709,729;27768,781;    2,280;    2,045
710,301;28558,737;    0,734;    0,045
710,874;28585,966;   -1,447;   -0,227
711,446;27426,922;    0,371;    0,864
712,018;27355,151;    0,098;    0,500
712,590;27125,562;   -1,993;    1,682
713,162;27601,064;    0,825;    1,318
713,734;27917,747;    1,825;   -2,045
714,306;27820,067;   -1,902;   -0,409
714,878;26525,659;    0,825;    0,864
715,450;27338,070;    0,643;    0,864
716,022;27575,935;    1,552;    1,318
716,593;27712,619;    0,189;    0,591
717,165;27666,120;   -3,175;   -1,227
717,737;27349,077;    0,280;    0,409
718,309;27004,578;    0,280;   -0,045
718,880;26971,262;   -0,539;   -1,409
719,452;27242,763;   -0,175;   -1,591
720,024;26834,265;    0,734;   -0,591
720,595;27375,494;   -2,902;    0,955
721,167;26929,359;    0,370;   -2,045
721,738;26424,497;   -0,812;   -1,045
722,309;26377,817;   -0,993;   -1,227
722,881;26180,864;   -1,357;    0,773
723,452;26800,911;   -2,630;    2,864
724,023;26978,685;   -0,721;    2,682
724,595;26790,278;    0,007;    0,682
725,166;26540,870;    0,007;   -0,409
725,737;26171,735;    1,734;    0,227
726,308;26283,055;   -0,266;    0,318
726,879;26689,739;   -1,630;    1,227
727,450;26551,604;    0,552;   -0,045
728,021;26536,287;    3,097;    0,682
728,592;26385,880;    0,734;    0,500
729,163;26631,381;    0,643;   -0,136
729,734;26641,610;    0,188;   -0,227
730,305;27032,839;    1,734;    0,136
730,876;27355,613;    0,188;    2,955
731,447;27044,479;    2,188;    2,682
732,017;27112,980;    1,097;    1,864
732,588;26653,027;    0,734;    1,227
733,159;26816,620;    0,643;   -1,045
733,729;26632,758;    0,006;    0,409
734,300;25914,896;    0,915;    0,864
734,870;26373,761;    3,461;    0,591
735,441;26926,899;    0,370;   -0,591
736,011;26706,946;    0,643;   -1,591
736,582;26613,902;   -0,812;    0,045
737,152;26124,222;   -1,721;   -2,045
737,722;26526,451;   -0,267;   -0,682
738,293;26272,862;   -1,358;    1,318
738,863;26130,545;    2,461;    2,318
739,433;25934,319;    5,279;    0,318
740,003;26595,821;   -0,994;   -0,682
740,573;26004,868;    2,097;   -1,591
741,143;25952,552;   -1,085;    0,318
741,713;26724,689;    1,188;   -0,500
742,283;26449,918;    0,915;    1,591
742,853;26249,965;    1,915;    1,591
743,423;25666,649;    1,733;    0,045
743,993;25841,696;   -0,358;    1,500
744,563;25223,925;    0,097;   -0,864
745,133;25201,517;   -0,812;   -0,864
745,702;25880,655;   -0,267;    1,773
746,272;25099,066;   -0,176;    0,591
746,842;24834,840;   -1,358;   -0,591
747,411;25298,342;   -0,267;   -0,318
747,981;25462,298;    0,097;    0,500
748,551;25545,527;    2,278;   -1,045
749,120;25383,483;    0,642;   -0,227
749,690;25734,985;   -0,631;    2,409
750,259;26095,304;    1,369;    2,955
750,828;25958,533;    1,551;   -1,955
751,398;26229,580;    1,278;   -0,045
751,967;25710,264;    2,187;    0,409
752,536;25948,129;   -0,813;   -0,227
753,105;26370,722;    0,096;    0,227
753,675;26149,496;    0,096;    1,773
754,244;26096,361;   -0,904;    3,591
754,813;26162,590;    0,551;    1,227
755,382;25739,183;    0,460;    0,955
755,951;26215,502;    1,551;    3,682
756,520;25764,186;   -0,085;    1,864
757,089;26294,142;    0,278;    0,500
757,658;26434,189;    1,733;    1,227
758,227;26468,418;    1,096;    0,318
758,795;26821,192;    1,187;    1,136
759,364;27025,876;   -0,086;   -0,591
759,933;26031,650;   -1,176;   -0,045
760,501;25582,970;    0,733;   -1,318
761,070;26043,471;   -2,813;   -1,409
761,639;26733,973;   -1,904;    1,318
762,207;26054,111;    1,551;   -0,955
762,776;25974,067;    0,369;    0,864
763,344;25988,023;   -0,995;    0,591
763,913;25138,252;   -0,722;    1,409
764,481;25848,845;    1,005;   -0,136
765,049;25633,710;   -1,358;    1,409
765,618;25512,848;   -0,086;    0,318
766,186;25618,350;    0,278;    0,136
766,754;25822,760;    0,005;    1,864
767,322;24825,080;   -1,995;    0,409
767,890;24881,491;   -0,722;   -1,773
768,459;25238,356;   -2,177;   -0,318
769,027;25365,494;    1,641;    3,409
769,595;24405,177;    3,278;    2,591
770,163;24817,588;    3,823;    2,955
770,730;24611,181;    0,732;   -0,136
771,298;24475,137;    0,187;   -1,409
771,866;24590,002;   -1,541;    4,955
772,434;24898,413;   -0,631;   -1,864
773,002;25053,642;    0,005;    0,682
773,569;24731,325;    0,914;    1,682
774,137;24532,463;   -0,268;   -0,045
774,705;25306,237;    0,278;   -0,136
775,272;24839,830;    0,641;    0,682
775,840;24579,604;   -0,177;    2,682
776,407;24076,288;    0,277;    1,955
776,975;23767,516;   -0,632;    0,318
777,542;24757,291;   -1,086;   -0,045
778,110;24540,611;   -1,268;   -0,045
778,677;24252,749;   -2,359;   -0,864
779,244;24016,977;    2,186;    1,045
779,812;24113,024;    1,823;    0,864
780,379;23989,072;    0,005;    1,136
780,946;24222,028;    1,005;   -0,773
781,513;24574,984;   -1,450;    0,318
782,080;23939,395;   -0,086;    2,864
782,647;24663,532;   -0,268;    3,045
783,214;24254,034;   -0,177;    3,864
783,781;23887,445;   -0,723;   -0,682
784,348;23721,310;   -0,632;    1,500
784,915;24207,539;   -3,177;    0,318
785,482;23978,495;    1,368;    2,591
786,049;24407,178;    0,186;   -0,591
786,615;24548,044;    0,277;   -0,955
787,182;24271,182;    0,186;   -0,682
787,749;23976,774;   -2,814;    1,409
788,315;23308,912;   -1,632;   -0,409
788,882;23541,505;    1,550;   -1,227
789,448;24259,279;    1,732;   -0,955
790,015;24287,599;    1,095;    3,227
790,581;23854,737;    1,459;    0,227
791,148;23742,420;    0,641;    1,045
791,714;23978,467;   -0,541;    3,136
792,280;23636,605;    0,186;    1,591
792,847;23251,834;    0,550;    2,500
793,413;23818,427;   -0,269;   -0,318
793,979;23272,110;    3,459;   -1,318
794,545;23371,430;    4,459;    2,682
795,111;22841,841;    2,186;    1,318
795,678;23010,797;    0,731;   -1,682
796,244;22662,026;    3,368;    0,136
796,810;23197,800;    1,731;    0,773
797,375;22908,665;    0,549;   -2,136
797,941;22961,712;   -0,541;    0,591
798,507;23087,577;   -0,451;   -0,955
799,073;22663,443;   -0,360;    0,591
799,639;22750,853;   -2,632;    3,136
800,205;22810,355;    0,095;    2,682
800,770;22339,038;    0,640;    1,773
801,336;22383,631;    1,368;   -0,955
801,901;22069,042;    4,549;    3,136
802,467;22625,089;   -0,542;    2,045
803,033;22014,772;   -0,087;    0,864
803,598;22218,001;    1,913;   -1,045
804,163;22245,957;    1,095;   -0,318
804,729;22235,277;   -0,178;    1,136
805,294;22615,779;    0,822;    2,227
805,859;22396,826;    0,731;   -0,409
806,425;21877,327;    1,186;    2,682
806,990;21538,738;    2,186;    4,318
807,555;21978,785;   -1,451;    2,591
808,120;21895,832;    0,822;   -0,409
808,685;21983,879;    0,185;   -2,500
809,250;21463,563;    0,004;   -0,500
809,815;21801,701;    1,913;    0,682
810,380;22286,839;   -0,269;    1,591
810,945;22801,249;   -1,087;    2,045
811,510;22042,387;    2,094;    1,591
812,075;21777,798;   -0,633;   -1,409
812,640;21737,754;    2,003;    1,409
813,204;21810,983;    0,822;   -0,227
813,769;22333,757;    2,094;   -0,045
814,334;21734,986;    0,458;    0,864
814,898;21801,579;    0,367;    0,591
815,463;21651,080;    1,276;   -0,773
816,027;21643,127;   -0,724;   -2,318
816,592;21705,447;    0,640;   -2,045
817,156;21247,585;    2,094;    1,136
817,721;21071,087;    4,276;    2,318
818,285;21065,861;    2,912;    1,500
818,849;21715,817;   -1,451;    1,682
819,414;21600,955;   -0,269;    2,955
819,978;21166,820;   -1,269;    1,773
820,542;21732,140;    2,003;    0,500
821,106;21479,915;   -0,815;    0,682
821,670;21571,234;   -0,815;    2,591
822,234;21310,190;   -0,270;    1,409
822,798;20702,692;    0,003;    0,500
823,362;20666,285;   -0,633;    4,227
823,926;19972,786;    0,094;    1,136
824,490;20180,561;   -0,997;   -0,682
825,054;20629,153;   -0,088;   -1,136
825,618;20281,200;   -1,542;   -1,500
826,181;20195,520;    0,458;   -1,318
826,745;20093,749;    1,367;   -1,045
827,309;20474,159;    1,185;    1,318
827,872;19884,297;    1,367;    0,955
828,436;20848,345;    1,185;   -0,773
828,999;20924,755;   -0,997;    1,227
829,563;19732,530;   -0,179;    1,136
830,126;19525,486;   -0,179;   -0,591
830,690;19528,805;   -1,997;    2,864
831,253;19084,034;   -0,543;    2,227
831,816;19208,354;   -1,906;    0,500
832,380;19146,947;    0,185;    0,864
832,943;19317,721;   -1,361;   -0,500
833,506;18843,041;    2,639;   -1,227
834,069;19621,088;    3,912;   -0,955
834,632;19707,044;    1,730;    1,318
835,195;19606,637;    1,003;    0,955
835,758;18854,956;   -0,997;    1,955
836,321;18659,458;    0,730;   -1,045
836,884;18784,869;   -0,725;   -0,955
837,447;18820,188;   -2,816;    1,773
838,010;19047,326;    0,366;    3,227
838,573;19360,283;   -1,179;    0,773
839,135;19301,239;   -1,361;   -0,955
839,698;18789,922;    1,275;    0,409
840,261;18301,696;    1,003;   -0,227
840,823;18164,289;   -0,543;    0,864
841,386;18443,972;   -0,452;   -2,409
841,948;18315,565;   -1,361;    1,773
842,511;18071,976;    0,912;    1,682
843,073;18198,932;    1,912;    0,227
843,636;18022,615;   -0,361;   -0,227
844,198;17928,935;    0,911;    0,591
844,760;18052,255;    1,093;    1,955
845,322;17698,302;    0,548;    1,136
845,885;18137,349;    0,730;    0,591
846,447;18564,850;   -1,998;    0,227
847,009;18158,079;    1,911;   -0,682
847,571;18511,308;    0,820;   -2,045
848,133;18602,083;   -1,089;   -1,864
848,695;18370,493;   -0,543;    1,409
849,257;17960,540;   -1,089;   -1,682
849,819;18111,951;   -0,998;   -0,409
850,381;18212,998;   -0,725;   -0,864
850,942;18554,591;    1,093;   -0,591
851,504;18490,547;    1,184;    0,227
852,066;18545,503;    1,275;   -1,591
852,628;18062,550;   -0,180;    1,955
853,189;17640,324;    1,638;    2,682
853,751;17750,644;   -0,907;    1,409
854,312;17527,418;   -0,453;   -1,682
854,874;18056,102;   -2,089;   -0,773
855,435;18551,240;   -0,907;   -1,682
855,997;18706,014;   -1,816;   -0,136
856,558;18062,334;    0,366;    1,773
857,119;18147,472;    0,820;    2,864
857,681;17859,610;    0,002;    0,318
858,242;17860,384;    1,911;   -2,136
858,803;18332,249;    0,456;   -0,773
859,364;18877,478;    0,184;   -4,773
859,925;18199,071;   -2,453;   -0,955
860,486;18092,300;   -0,453;   -0,955
861,047;17812,074;   -0,544;   -1,227
861,608;17619,394;   -1,089;   -0,773
862,169;17743,168;    0,638;   -0,045
862,730;17555,579;    0,456;    1,409
863,291;17781,808;   -0,635;   -0,500
863,852;18149,219;   -0,635;    1,955
864,412;17651,266;   -0,271;   -0,864
864,973;16209,222;   -0,089;    0,500
865,534;16084,723;   -1,726;    0,227
866,094;17545,407;    1,820;    0,227
866,655;17197,272;    1,274;    3,318
867,215;17519,410;    0,274;    0,136
867,776;17374,093;    0,547;   -0,136
868,336;17479,959;   -1,453;    0,136
868,897;16969,824;    2,638;    1,682
869,457;16683,598;    1,365;    0,318
870,017;16916,463;    0,547;   -1,227
870,578;17423,238;   -0,817;    0,773
871,138;17099,739;   -2,089;   -0,955
871,698;16642,423;   -0,817;   -1,318
872,258;16537,197;   -0,453;   -2,864
872,818;16912,972;    2,729;    0,045
873,378;16882,109;    0,638;    1,045
873,938;16415,247;    0,547;    0,500
874,498;16749,931;    0,274;   -1,955
875,058;16650,614;    2,183;    1,773
875,618;16488,116;    1,910;   -2,682
876,177;16446,981;    1,274;    0,136
876,737;16055,392;   -0,090;    1,955
877,297;16084,075;    0,183;    1,955
877,856;16097,577;   -0,362;    0,318
878,416;16055,078;    1,183;   -0,136
878,976;16236,307;   -1,817;    0,409
879,535;16417,809;    0,092;    3,136
880,095;16153,583;   -0,544;    0,045
880,654;16265,721;   -1,090;    1,318
881,213;16342,950;    2,456;    1,500
881,773;16012,906;    2,637;    2,682
882,332;16322,226;    3,365;    5,136
882,891;16183,728;    3,092;    2,136
883,451;16605,229;   -1,272;    1,682
884,010;16100,004;   -2,908;   -0,409
884,569;16196,233;   -0,999;   -0,045
885,128;16347,280;    2,819;   -1,864
885,687;16386,781;    4,455;    0,682
886,246;16097,556;    1,455;    2,136
886,805;15882,694;    2,455;    2,045
887,364;16175,559;   -0,999;   -0,500
887,922;16524,788;   -1,181;    0,045
888,481;16005,471;   -1,545;    0,591
889,040;16341,336;    1,183;    2,136
889,599;17006,747;    2,455;    1,409
890,157;17094,430;    1,455;    2,409
890,716;16729,477;   -0,090;    0,227
891,274;16559,979;    0,092;   -1,136
891,833;17019,935;    1,546;    0,864
892,391;16885,073;   -0,454;    0,500
892,950;16900,302;    1,819;   -0,773
893,508;17272,440;    0,455;   -0,409
894,067;16643,578;    0,637;    0,136
894,625;16553,443;   -0,636;   -1,500
895,183;16832,218;   -0,363;   -0,682
895,741;16688,174;    1,728;   -1,773
896,299;16534,221;   -0,545;   -2,409
896,858;16712,359;    0,819;   -1,591
897,416;16809,224;    2,728;   -1,318
897,974;16555,089;    1,819;    0,318
898,532;16686,591;    6,091;    2,682
899,089;16624,547;    2,091;   -0,682
899,647;16690,140;   -1,454;    1,318
900,205;16410,278;    1,182;    1,045
900,763;16626,325;   -0,454;    0,227
901,321;16595,735;    2,364;   -1,409
901,878;16046,782;   -1,000;   -0,773
902,436;15966,829;   -1,363;    1,318
902,994;16325,513;    4,728;    3,682
903,551;15781,378;    0,728;    0,409
904,109;16151,516;    0,182;   -1,409
904,666;15720,290;    2,455;    1,045
905,224;15571,247;    0,182;   -0,409
905,781;15291,839;    0,727;   -0,318
906,338;15401,341;   -1,363;    1,045
906,895;15348,115;    0,637;    2,045
907,453;15247,980;    1,727;    1,136
908,010;15310,391;   -0,909;    0,409
908,567;14961,347;    1,273;    0,591
909,124;14513,485;    0,364;   -1,500
909,681;14582,896;   -2,909;    0,682
910,238;14730,761;    0,636;   -1,318
910,795;15045,990;   -0,273;   -1,136
911,352;14713,354;   -2,909;   -2,682
911,909;14096,717;   -1,364;   -0,864
912,466;14577,990;   -3,182;    1,500
913,022;14114,535;   -1,636;    0,500
913,579;14459,535;   -0,909;    2,045
914,136;14146,626;    1,636;    0,955
914,692;14480,535;    0,091;   -1,227
915,249;14115,535;    1,455;    0,409
915,806;14364,626;    0,182;    1,955
916,362;14123,717;    1,909;    1,864
916,918;13687,081;    2,000;    1,045
917,475;13647,899;   -1,182;    0,955
918,031;13743,172;    3,364;   -0,045
918,587;13160,808;   -0,909;   -0,318
919,144;13377,354;   -2,273;    0,227
919,700;13683,535;    1,727;    0,773
920,256;13286,626;    0,727;    0,045
920,812;12929,990;   -0,727;   -1,045
921,368;12959,808;   -1,727;   -1,045
921,924;12587,081;    0,182;   -0,136
922,480;12168,626;   -0,545;    1,227
923,036;12745,535;    1,273;    1,955
923,592;12692,717;    0,455;    0,318
924,148;12637,172;    0,455;   -0,955
924,704;11927,354;   -1,364;   -0,409
925,259;12217,717;   -0,273;    0,591
925,815;11973,263;    1,455;    0,500
926,371;11491,354;    2,909;    1,409
926,926;11377,172;    2,091;    0,591
927,482;11058,263;   -1,364;    0,773
928,037;10953,717;    0,909;    2,045
928,593;11206,535;    1,636;    1,045
929,148;11032,444;   -1,818;   -1,500
929,704;10543,626;   -1,455;   -0,500
930,259;10788,990;    0,091;   -0,136
930,814; 9863,081;   -0,818;    1,955
931,369; 9509,626;    1,091;   -0,773
931,925; 9430,444;   -0,091;    0,136
932,480; 9335,990;   -2,818;   -2,591
933,035; 9216,263;    0,545;   -0,318
933,590; 8996,444;    0,364;   -1,773
934,145; 8651,808;   -1,364;   -0,318
934,700; 9011,081;    0,455;   -0,591
935,255; 8813,535;   -0,091;    0,045
935,809; 8077,172;    3,182;    0,864
936,364; 7232,354;   -0,455;   -0,136
936,919; 7194,808;    0,455;   -1,773
937,474; 7097,808;    1,455;    0,136
938,028; 6880,808;   -1,636;    1,136
938,583; 6361,808;    1,818;    4,682
939,138; 6645,172;    2,091;    2,136
939,692; 6099,717;    1,636;   -1,136
940,247; 5785,263;   -0,727;   -1,045
940,801; 5371,808;   -0,636;    0,227
941,355; 5260,899;   -0,364;    2,591
941,910; 4913,172;   -0,273;   -2,136
942,464; 5042,444;   -0,818;   -0,318
943,018; 4846,535;    1,000;   -0,227
943,572; 4795,172;    2,545;   -0,682
944,126; 4218,354;    0,091;   -0,409
944,681; 4105,354;    3,091;    0,227
945,235; 4089,354;    1,000;   -0,591
945,789; 4046,172;    0,364;   -1,864
946,342; 4124,081;    0,455;   -0,591
946,896; 3935,899;   -2,273;    0,955
947,450; 3692,899;    1,545;   -0,227
948,004; 3880,172;    1,727;   -0,045
948,558; 3894,172;    0,273;   -0,864
949,111; 3808,626;   -0,273;   -0,318
949,665; 3858,354;    1,636;   -0,682
950,219; 3758,081;   -0,091;   -1,045
950,772; 3796,808;   -1,909;    1,864
951,326; 3702,808;    0,545;   -0,955
951,879; 3791,717;    0,727;   -2,318
952,433; 3828,444;    0,000;    2,227
952,986; 3688,899;    2,909;    0,682
953,539; 3631,172;   -0,273;    0,591
954,093; 3559,899;    0,545;   -1,318
954,646; 3682,899;    0,909;    1,318
955,199; 3503,990;    0,000;   -0,500
955,752; 3396,899;   -0,455;    1,773
956,305; 3363,081;   -0,091;    2,955
956,858; 3512,808;    0,818;   -0,318
957,411; 3680,626;   -0,545;    2,136
957,964; 3519,172;    1,364;    2,136
958,517; 3519,990;   -1,545;    3,136
959,070; 3344,172;   -0,455;    1,955
959,623; 3411,354;    1,091;    1,500
960,176; 3202,535;    1,727;    2,045
960,728; 3188,263;   -2,727;    0,773
961,281; 3242,444;    0,545;    0,500
961,834; 3289,444;   -0,909;    0,864
962,386; 3202,172;    1,727;    1,045
962,939; 3120,263;    0,364;   -0,318
963,491; 3244,808;    0,455;    1,136
964,043; 3147,899;    1,182;    2,409
964,596; 3263,899;   -1,000;    2,227
965,148; 3088,444;   -1,000;    1,773
965,700; 3030,172;    1,091;   -0,227
966,253; 3168,172;   -0,636;    0,318
966,805; 3007,444;   -2,273;    0,773
967,357; 3069,717;    1,091;   -1,500
967,909; 3031,354;    0,455;   -1,227
968,461; 3123,263;    0,545;    3,136
969,013; 3063,081;   -0,182;   -0,864
969,565; 3143,444;   -0,455;   -1,136
970,117; 3193,172;   -0,364;    1,045
970,669; 3017,808;    0,182;   -0,136
971,220; 2930,444;   -0,455;   -1,500
971,772; 2845,808;   -0,636;   -0,318
972,324; 2967,990;    0,091;   -0,500
972,876; 2902,717;    0,818;   -0,045
973,427; 3035,535;    1,909;   -1,045
973,979; 3003,626;   -0,727;   -2,500
974,530; 3039,172;    1,818;    1,318
975,082; 3046,535;   -0,545;    1,682
975,633; 2955,626;    1,091;    1,682
976,184; 3081,808;    0,909;    0,773
976,736; 2881,263;    0,091;    0,227
977,287; 2689,717;   -0,909;   -0,500
977,838; 2852,626;    0,909;   -0,318
978,389; 2898,172;   -1,000;   -0,500
978,940; 2797,535;    0,545;   -0,409
979,491; 2828,535;    0,091;   -0,500
980,042; 2793,172;    0,182;    3,045
980,593; 2841,444;   -2,545;    0,227
981,144; 2894,535;    2,545;   -0,500
981,695; 2865,990;    1,455;    1,500
982,246; 2825,717;   -0,273;    1,045
982,797; 2978,354;   -1,727;    0,682
983,347; 3079,626;    0,364;    0,591
983,898; 3255,808;    3,091;    0,409
984,449; 3069,990;    2,182;    0,773
984,999; 2982,263;    1,455;   -1,136
985,550; 2775,808;    0,182;   -0,318
986,100; 2804,717;   -0,455;   -0,318
986,651; 2833,899;   -0,818;    0,045
987,201; 2818,626;   -1,000;   -0,591
987,751; 2887,808;    0,818;    2,864
988,302; 2868,172;    2,636;    1,500
988,852; 2925,263;    0,455;   -1,136
989,402; 2951,626;    0,091;    0,682
989,952; 2857,354;   -2,182;    0,864
990,502; 2961,535;   -0,091;    0,682
991,052; 2918,808;   -0,727;    0,045
991,602; 2813,990;   -2,909;    1,318
992,152; 2808,444;    0,455;    0,682
992,702; 2796,172;    1,364;   -0,045
993,252; 2706,444;   -3,000;   -0,500
993,802; 2786,535;   -0,273;    1,318
994,352; 3005,808;   -1,545;    1,136
994,901; 3101,808;   -0,182;    3,227
995,451; 3024,899;   -0,182;    0,318
996,000; 3116,354;    1,636;    0,318
996,550; 2845,263;    2,273;    0,227
997,100; 2831,444;    1,273;   -0,045
997,649; 3096,717;    2,182;    0,955
998,198; 2756,354;    1,727;   -1,500
998,748; 2948,626;    1,091;   -2,318
999,297; 2866,263;   -0,818;   -0,409
999,846; 2906,081;    1,000;   -0,773
1000,395; 2947,626;   -0,818;    0,500
1000,945; 2901,354;    1,818;   -0,773
1001,494; 3010,990;    2,364;    0,682
1002,043; 2986,626;    4,636;    0,864
1002,592; 2832,535;   -1,091;    1,955
1003,141; 2987,535;   -0,455;   -0,682
1003,690; 2850,808;    1,727;    0,500
1004,238; 2925,354;    1,455;   -0,045
1004,787; 2575,263;    1,364;    1,227
1005,336; 2792,172;    0,364;    0,682
1005,885; 2938,990;    1,364;   -2,773
1006,433; 3081,444;    0,545;    0,955
1006,982; 3143,081;    0,455;    1,682
1007,531; 3061,535;   -1,818;   -0,227
1008,079; 3000,535;   -2,273;    0,500
1008,627; 3130,444;   -1,455;    0,409
1009,176; 2885,717;    0,000;   -1,955
1009,724; 2926,263;    1,091;    0,864
1010,273; 2978,990;    1,273;    0,500
1010,821; 3080,990;    0,091;    1,409
1011,369; 2835,535;   -1,364;    1,318
1011,917; 2811,626;   -1,364;   -0,591
1012,465; 3084,172;    1,273;   -1,591
1013,013; 3196,808;    2,091;   -1,682
1013,561; 3071,990;    0,455;   -0,773
1014,109; 3126,717;   -1,909;    1,682
1014,657; 3001,081;    0,364;    0,591
1015,205; 3118,535;    1,636;   -0,955
1015,753; 3145,626;   -0,545;   -1,409
1016,301; 3188,172;   -2,636;    3,045
1016,848; 3193,444;   -1,273;    0,409
1017,396; 3227,354;    2,545;    0,045
1017,944; 3360,172;    1,182;    1,864
1018,491; 3107,626;    0,273;    1,409
1019,039; 3260,808;    0,455;    0,591
1019,586; 3193,081;   -1,364;    1,682
1020,134; 3312,626;    0,455;    1,500
1020,681; 3316,626;    0,182;   -1,136
1021,228; 3332,081;    2,909;   -2,227
1021,776; 3155,626;    1,182;   -1,136
1022,323; 3359,990;    0,455;    0,773
1022,870; 3303,354;   -1,000;   -0,045
1023,417; 3195,717;    2,636;    1,864
1023,964; 3373,172;    2,636;    1,227
1024,511; 3207,172;    1,000;    0,773
1025,058; 3001,172;    3,182;   -0,045
1025,605; 3049,444;   -2,273;    3,136
1026,152; 3257,081;    1,727;   -0,591
1026,699; 2990,990;    1,818;    1,318
1027,245; 3162,263;   -0,091;    0,318
1027,792; 3380,626;   -1,000;    1,409
1028,339; 3256,990;    2,364;   -0,045
1028,885; 3098,808;    1,000;   -0,227
1029,432; 3055,172;   -0,091;    0,227
1029,978; 3110,717;   -1,000;   -1,591
1030,525; 3026,717;    1,000;    0,409
1031,071; 3270,535;   -1,364;    1,136
1031,618; 3369,717;    0,364;    1,682
1032,164; 3141,263;   -0,091;    3,045
1032,710; 3199,081;    1,636;   -1,500
1033,256; 3126,172;   -0,636;   -0,136
1033,803; 3112,717;   -0,545;    1,500
1034,349; 2840,263;   -1,364;    0,136
1034,895; 2998,354;    0,000;   -0,318
1035,441; 2971,444;   -0,818;    0,318
1035,987; 2965,263;   -2,364;   -0,682
1036,533; 2971,899;   -1,455;   -0,955
1037,078; 3158,263;    1,455;    1,682
1037,624; 2986,990;    2,455;   -0,955
1038,170; 3018,899;    0,455;   -0,318
1038,716; 2925,899;    1,636;   -0,409
1039,261; 2852,717;   -2,273;   -0,773
1039,807; 2801,354;   -0,091;    3,409
1040,352; 2846,172;   -1,909;   -0,318
1040,898; 2891,172;   -1,545;   -0,682
1041,443; 2820,172;   -1,455;   -2,591
1041,989; 2824,263;    1,091;    1,591
1042,534; 2710,081;   -0,364;    2,591
1043,079; 2840,444;    2,909;    0,955
1043,625; 2626,626;    1,818;    0,500
1044,170; 2668,717;   -1,364;    1,045
1044,715; 2917,172;    2,455;    0,955
1045,260; 2739,808;    2,182;   -0,955
1045,805; 2786,444;    1,182;   -0,591
1046,350; 2721,990;    1,364;   -0,409
1046,895; 2663,263;    2,909;    1,591
1047,440; 2620,172;    5,364;    0,409
1047,985; 2526,626;    2,818;   -0,955
1048,530; 2448,808;    1,545;    1,227
1049,074; 2531,354;    0,000;    0,318
1049,619; 2495,172;   -1,364;    1,955
1050,164; 2285,626;    0,455;    0,227
1050,708; 2339,717;   -0,455;    0,045
1051,253; 2707,535;    1,273;   -2,227
1051,797; 2413,081;    0,818;   -1,318
1052,342; 2424,808;   -1,182;    1,045
1052,886; 2402,808;    0,364;   -1,409
1053,430; 2296,626;   -1,364;    0,136
1053,975; 2314,444;   -0,818;   -0,318
1054,519; 2309,263;   -0,727;    3,227
1055,063; 2300,808;    0,909;    1,318
1055,607; 2184,808;   -0,182;    0,227
1056,151; 2229,172;    2,909;    1,682
1056,695; 2143,717;    2,273;   -1,136
1057,239; 2215,899;   -1,727;   -0,682
1057,783; 2227,081;    0,818;   -1,500
1058,327; 2166,808;    0,000;    1,409
1058,871; 2387,990;   -0,545;    1,318
1059,415; 2089,172;   -0,818;   -0,045
1059,958; 2343,899;    1,455;    2,591
1060,502; 2081,899;   -1,000;   -0,773
1061,046; 2005,172;    0,364;   -0,955
1061,589; 1975,535;   -3,000;   -1,136
1062,133; 1856,990;   -1,273;    1,864
1062,676; 1805,990;    1,182;    0,864
1063,220; 1803,444;    1,091;    0,500
1063,763; 1817,172;    0,909;    1,136
1064,306; 1892,535;   -0,909;    1,864
1064,849; 1782,808;   -0,909;    0,591
1065,393; 1789,717;    2,000;   -1,500
1065,936; 1898,626;    0,182;   -0,409
1066,479; 1789,990;   -1,455;    1,318
1067,022; 1807,444;   -0,273;   -0,227
1067,565; 1702,354;   -0,091;   -1,318
1068,108; 1730,081;    0,727;   -0,591
1068,651; 1711,717;   -0,636;    1,409
1069,194; 1639,354;   -0,455;   -1,682
1069,736; 1653,717;   -1,273;    0,955
1070,279; 1637,535;   -1,364;   -0,500
1070,822; 1661,263;   -2,000;   -0,318
1071,364; 1745,444;   -0,364;    1,318
1071,907; 1573,717;   -0,727;    3,227
1072,450; 1477,444;    0,000;   -0,045
1072,992; 1478,263;   -0,273;    3,136
1073,535; 1622,081;    2,091;    2,136
1074,077; 1424,081;   -0,727;    2,045
1074,619; 1380,263;   -1,364;    0,591
1075,161; 1416,354;   -1,091;    1,500
1075,704; 1596,081;    1,545;    1,227
1076,246; 1399,626;   -0,182;    0,682
1076,788; 1312,444;   -0,364;    1,773
1077,330; 1392,172;    1,273;    2,136
1077,872; 1364,172;    0,909;    0,955
1078,414; 1576,081;    2,727;    0,773
1078,956; 1323,717;    1,273;   -0,227
1079,498; 1581,808;    1,636;    0,318
1080,040; 1278,172;    1,909;   -1,318
1080,581; 1228,899;    1,636;   -0,318
1081,123; 1157,444;    0,091;   -0,773
1081,665; 1191,899;   -1,182;   -0,955
1082,206; 1484,899;    1,364;   -0,500
1082,748; 1358,444;    0,727;    2,045
1083,289; 1237,717;   -2,000;    1,318
1083,831; 1134,535;   -0,545;    0,227
1084,372; 1167,899;    0,000;    0,591
1084,913; 1184,354;    1,091;    0,864
1085,455; 1143,172;   -1,909;   -2,045
1085,996; 1120,444;   -2,273;    0,136
1086,537; 1140,354;   -0,091;    0,864
1087,078; 1163,899;   -0,909;   -2,136
1087,619; 1202,808;   -1,273;    0,227
1088,160; 1128,444;    0,000;    1,318
1088,701; 1115,172;   -1,091;    0,682
1089,242; 1058,990;    1,364;   -2,227
1089,783; 1152,354;   -0,273;    1,409
1090,324; 1107,081;    0,455;    0,682
1090,865;  984,990;    2,727;   -0,409
1091,405;  966,899;    0,727;    2,227
1091,946;  996,263;    0,182;   -0,955
1092,487;  918,990;    0,818;   -1,409
1093,027; 1087,354;   -1,364;   -1,500
1093,568;  944,172;   -0,364;    1,227
1094,108; 1035,626;    0,273;    1,773
1094,649;  973,263;   -1,182;    0,136
1095,189;  903,081;   -0,636;   -0,682
1095,729;  859,081;   -0,091;    0,955
1096,269;  869,535;    0,727;   -0,955
1096,810; 1178,444;   -1,364;    0,500
1097,350; 1000,535;    1,364;   -0,773
1097,890;  903,535;    0,364;    1,227
1098,430; 1152,990;    2,364;    2,864
1098,970; 1035,354;    2,182;    1,682
1099,510;  910,717;    0,545;   -2,318
1100,050;  831,535;    1,000;   -1,591
1100,589;  787,899;   -0,727;   -0,318
1101,129;  917,354;    0,818;   -0,955
1101,669; 1056,172;    1,727;    2,136
1102,209;  886,626;   -0,091;    2,227
1102,748;  835,808;    0,000;    0,955
1103,288;  828,172;    1,273;   -1,227
1103,827;  848,081;    3,091;   -2,227
1104,367;  726,263;   -0,091;   -2,409
1104,906;  697,626;    1,364;   -1,136
1105,445;  762,717;    0,636;   -1,136
1105,985;  717,626;   -0,727;    1,500
1106,524;  759,535;   -1,727;   -0,682
1107,063;  729,990;   -2,727;    1,409
1107,602;  708,081;   -1,909;   -1,500
1108,141;  638,899;   -1,909;    1,500
1108,680;  730,535;   -3,455;   -0,591
1109,219;  668,717;   -0,909;   -0,500
1109,758;  673,808;    0,455;    0,682
1110,297;  643,263;    1,000;   -0,682
1110,836;  594,081;   -0,727;    0,955
1111,375;  763,263;   -2,545;    0,409
1111,913;  773,990;   -1,000;    0,773
1112,452;  700,444;   -0,273;    0,136
1112,991;  590,717;    1,091;    1,955
1113,529;  540,444;   -0,818;   -0,045
1114,068;  611,535;   -0,273;    2,955
1114,606;  514,535;   -0,364;   -0,955
1115,144;  681,444;   -1,273;    1,045
1115,683;  617,626;   -0,727;    0,318
1116,221;  667,081;   -0,455;   -0,864
1116,759;  571,263;    0,636;   -0,864
1117,297;  773,535;    0,000;    1,864
1117,836;  581,626;   -2,182;   -1,227
1118,374;  584,899;    0,182;   -0,682
1118,912;  525,626;    0,909;    2,682
1119,450;  510,354;    1,000;    0,864
1119,988;  563,717;    1,545;    2,136
1120,525; 1007,808;    5,091;    3,318
1121,063;  713,717;    1,182;    1,864
1121,601;  526,990;   -0,909;   -1,227
1122,139;  480,626;   -0,727;   -2,045
1122,676;  678,899;   -0,727;    2,773
1123,214;  609,354;   -1,182;    4,409
1123,751;  432,626;    1,727;    2,227
1124,289;  556,444;   -0,091;   -0,409
1124,826;  425,717;    1,727;    0,227
1125,364;  354,263;    1,727;   -0,955
1125,901;  538,081;    1,182;    1,227
1126,438;  649,081;    0,818;    0,955
1126,975;  383,172;   -0,727;   -0,773
1127,513;  449,990;    0,273;    2,136
1128,050;  353,172;    1,636;   -0,682
1128,587;  450,626;    2,000;   -0,227
1129,124;  485,626;    0,091;    1,318
1129,661;  354,899;    0,273;    0,227
1130,198;  522,081;    1,636;    0,773
1130,734;  466,081;    0,182;    1,409
1131,271;  327,444;   -0,909;    0,864
1131,808;  497,444;    2,909;    3,045
1132,345;  369,172;    1,545;    0,318
1132,881;  250,081;   -1,545;   -1,864
1133,418;  389,990;    0,727;   -1,136
1133,954;  325,172;    2,455;   -2,682
1134,491;  395,808;    1,364;   -0,773
1135,027;  300,808;    2,364;    0,864
1135,564;  382,263;    0,273;    2,955
1136,100;  369,899;    0,364;    2,136
1136,636;  255,081;   -1,273;   -1,045
1137,172;  344,444;    0,000;   -1,045
1137,708;  276,444;   -1,364;   -1,045
1138,245;  277,990;    1,273;   -1,227
1138,781;  226,626;    1,091;   -3,318
1139,317;  302,990;    1,273;   -1,409
1139,852;  284,717;    3,091;    0,136
1140,388;  402,626;   -1,182;   -0,409
1140,924;  292,717;   -1,091;   -2,227
1141,460;  228,626;   -1,636;    0,136
1141,996;  158,172;   -1,364;    2,682
1142,531;  208,354;    1,364;    3,318
1143,067;  423,444;    1,182;    1,045
1143,602;  477,081;   -0,091;   -0,318
1144,138;  327,808;   -2,636;    1,045
1144,673;  192,354;   -1,455;    1,409
1145,209;  256,444;   -1,909;   -0,318
1145,744;  182,990;   -0,727;    0,864
1146,279;  313,626;    1,818;   -0,136
1146,815;  219,899;    1,545;   -2,682
1147,350;  264,263;   -1,364;    0,045
1147,885;  186,535;   -0,818;   -1,318
1148,420;  186,535;   -2,273;    0,773
1148,955;  174,354;   -1,727;    1,864
1149,490;  195,535;   -0,909;   -1,591
1150,025;  169,263;    0,455;   -1,773
1150,560;  286,263;    1,091;   -0,955
1151,094;  251,172;    1,455;   -0,591
1151,629;  254,808;    1,636;    0,864
1152,164;  182,535;    1,364;    1,318
1152,698;  141,263;   -0,182;   -0,136
1153,233;   98,263;    0,091;   -0,682
1153,767;  151,990;   -3,000;   -2,318
1154,302;  201,263;   -1,455;    1,773
1154,836;  198,444;   -0,455;   -2,136
1155,371;  251,990;   -1,364;    3,682
1155,905;  202,990;   -0,636;    1,682
1156,439;  162,808;   -0,636;   -0,500
1156,973;  195,808;    0,364;    0,318
1157,507;  139,354;   -0,364;    0,682
1158,042;  168,354;   -0,727;    1,045
1158,576;  212,263;    0,182;    1,773
1159,110;  202,172;   -0,818;    2,409
1159,643;  169,717;    0,636;   -0,045
1160,177;   99,626;   -1,545;    1,500

