
Integration time [ms]:   0,040
Averaging Nr. [scans]: 11
Smoothing Nr. [pixels]: 0
Data measured with spectrometer [name]: 7318044SP
Wave   ;Sample   ;Dark     ;Reference
[nm]   ;[counts] ;[counts] ;[counts] 

186,757;   25,166;   31,551;    1,318
187,357;   50,540;   22,551;    0,955
187,958;   33,603;   15,460;   -1,591
188,558;   73,710;    8,915;   -1,227
189,159;   47,087;    6,733;   -4,500
189,759;   15,056;    7,278;   -3,591
190,360;    9,357;    2,824;   -2,136
190,960;   48,324;    2,915;   -4,136
191,560;   59,918;    3,189;   -6,591
192,161;  290,433;    4,372;   -3,500
192,761;  148,200;    4,010;   -3,227
193,361;  100,489;    1,556;   -3,773
193,962;  150,601;    2,010;   -2,682
194,562;   64,640;    1,189;   -3,955
195,162;   99,007;   -2,448;   -2,227
195,762;  244,718;   -3,176;   -0,045
196,362;  195,000;    1,370;   -2,500
196,963;   73,225;    2,006;   -0,864
197,563;  144,347;    1,551;   -0,955
198,163;   97,403;    0,096;   -0,682
198,763;  106,694;    1,733;   -0,500
199,363;  211,756;    3,096;   -0,500
199,963;  173,326;    0,369;    0,409
200,563;  153,002;    2,823;   -1,409
201,163;  132,317;    3,277;   -0,227
201,763;  219,586;    3,732;    0,318
202,363;  155,108;    1,459;    1,500
202,963;  268,454;    1,459;    1,045
203,563;  380,385;    0,277;    0,500
204,162;  225,661;    2,096;   -1,864
204,762;  219,420;    0,550;    0,591
205,362;  185,013;    3,004;    1,955
205,962;  287,317;    3,096;    1,955
206,562;  284,219;    1,823;    2,318
207,161;  245,761;   -0,087;    0,318
207,761;  396,340;    1,277;    2,409
208,361;  274,572;   -0,268;    1,409
208,960;  372,640;    0,459;    1,500
209,560;  446,786;    1,277;    1,591
210,160;  429,867;    0,550;    1,864
210,759;  394,435;    4,186;    1,227
211,359;  399,343;    1,459;    1,045
211,958;  664,051;    1,277;    2,045
212,558;  734,410;    1,732;    1,864
213,157;  586,874;    1,822;    1,500
213,757; 1023,256;    3,822;   -0,227
214,356;  723,002;    1,277;   -0,409
214,956; 1063,586;    3,095;    0,409
215,555;  683,260;    2,095;    2,136
216,154;  627,472;   -2,723;   -0,591
216,754;  627,380;    0,277;    0,773
217,353;  760,152;   -0,268;   -1,045
217,952;  620,154;   -0,178;    0,318
218,552;  839,973;    1,368;   -0,773
219,151;  739,649;    0,277;    0,955
219,750;  742,724;    0,004;   -0,227
220,349;  869,492;   -0,451;    1,045
220,948;  948,775;   -1,360;    1,136
221,548;  954,150;    0,913;    1,227
222,147; 1057,268;   -0,087;   -0,409
222,746; 1327,318;   -0,451;   -0,955
223,345; 1203,594;    0,731;    0,500
223,944; 1212,004;   -0,451;    0,773
224,543; 1363,904;    1,004;   -1,409
225,142; 1479,488;    0,094;    0,136
225,741; 1384,161;   -0,814;    1,045
226,340; 1407,559;   -0,451;   -0,955
226,939; 1842,358;   -0,996;   -0,136
227,538; 1791,462;   -0,360;   -0,773
228,137; 1941,503;   -0,814;    0,864
228,735; 2072,320;   -0,541;    1,227
229,334; 1820,955;   -0,905;   -0,227
229,933; 2174,109;    0,459;    0,591
230,532; 2287,827;    1,186;   -0,409
231,131; 2339,124;    1,732;    0,318
231,729; 2431,559;   -2,450;   -2,318
232,328; 2530,527;   -0,723;   -1,500
232,927; 2612,180;    1,004;   -0,500
233,525; 2726,424;    3,640;    0,045
234,124; 2893,978;    2,368;   -1,591
234,723; 2912,893;    0,913;   -1,045
235,321; 3042,420;    2,277;    0,136
235,920; 3264,924;    1,186;   -1,227
236,518; 3502,360;    3,459;    0,318
237,117; 3667,575;    0,004;   -0,227
237,715; 3826,562;    0,640;   -0,500
238,314; 3840,738;   -0,087;   -2,318
238,912; 3954,496;   -0,723;   -1,409
239,510; 3984,675;    0,459;   -1,227
240,109; 4160,205;    0,004;    3,773
240,707; 4203,269;   -0,996;    1,227
241,305; 4544,577;    0,550;    0,136
241,904; 4749,668;   -0,178;   -2,045
242,502; 4715,761;   -0,632;   -0,227
243,100; 4681,378;   -0,087;   -0,955
243,698; 4925,729;    0,732;    1,682
244,297; 5104,683;   -0,632;    0,682
244,895; 4952,237;   -0,269;   -2,318
245,493; 5254,214;    2,186;   -0,591
246,091; 5295,817;    1,368;   -1,318
246,689; 5298,179;    1,004;    0,591
247,287; 5466,875;    0,822;   -1,136
247,885; 5735,618;   -1,451;    1,227
248,483; 5852,026;    1,822;   -0,500
249,081; 5988,056;    0,185;    1,591
249,679; 6117,810;   -0,178;    1,682
250,277; 6384,612;   -1,723;    0,864
250,875; 6393,379;   -1,087;   -1,045
251,473; 6420,697;   -1,178;    0,500
252,071; 6606,571;    1,459;    1,045
252,669; 6760,368;   -1,814;    0,318
253,267; 6993,666;   -0,087;    0,773
253,864; 6954,239;   -0,360;    0,682
254,462; 6807,524;    1,640;    1,591
255,060; 6829,066;   -0,269;    1,318
255,658; 7172,459;    0,822;   -0,136
256,255; 7550,056;    0,186;   -2,045
256,853; 7411,527;   -0,269;    1,409
257,451; 7378,485;    0,822;    1,864
258,048; 7660,299;    1,822;    1,864
258,646; 7437,433;    1,731;   -1,045
259,243; 7642,981;   -0,087;    2,227
259,841; 7700,338;   -0,814;    0,318
260,438; 7578,315;   -0,087;    0,864
261,036; 8299,896;   -1,905;    1,409
261,633; 8185,369;   -0,087;    2,227
262,231; 7944,124;    2,731;   -0,045
262,828; 8011,437;   -0,905;    1,136
263,425; 8068,025;    0,913;   -0,591
264,023; 8328,612;    0,186;    0,045
264,620; 7873,886;   -0,360;   -0,318
265,217; 8224,187;   -2,087;    3,136
265,815; 8328,600;   -1,905;    2,136
266,412; 8128,552;    0,731;    0,136
267,009; 8172,666;   -1,451;    0,773
267,606; 8077,978;    0,822;   -0,955
268,203; 8050,839;   -0,269;   -0,591
268,801; 8329,670;    1,731;    0,591
269,398; 8652,650;   -0,360;    2,500
269,995; 8593,982;    0,277;    1,591
270,592; 8393,804;   -0,632;   -0,500
271,189; 8582,681;    0,186;    0,409
271,786; 8703,875;   -0,632;    1,227
272,383; 8554,807;   -1,087;    0,227
272,980; 8730,273;    0,277;    0,318
273,577; 9180,613;    0,004;    1,227
274,174; 8722,919;    0,822;    2,591
274,771; 8700,822;   -0,814;   -0,773
275,367; 8873,976;    2,277;    1,409
275,964; 8820,137;    0,731;   -0,500
276,561; 8966,279;    1,549;   -1,045
277,158; 9154,810;    0,095;   -1,773
277,755; 9273,874;    2,185;    0,409
278,351; 8717,977;   -0,451;   -1,500
278,948; 8987,388;   -0,815;    0,045
279,545; 8997,955;   -1,360;    2,318
280,141; 9611,118;   -1,723;   -2,045
280,738; 9470,730;   -0,451;   -0,136
281,334; 9704,832;   -1,633;    0,591
281,931; 9104,099;   -0,087;   -1,318
282,528; 9216,126;    0,822;   -0,500
283,124; 9933,161;   -1,087;   -0,500
283,721; 9837,187;   -0,451;    1,409
284,317; 9658,433;    0,185;    2,500
284,913;10208,340;   -1,360;    0,591
285,510;10393,976;    0,640;   -0,318
286,106;10413,027;   -2,269;   -0,955
286,703;10002,173;   -0,360;    1,955
287,299;10207,156;   -1,451;   -0,591
287,895;10385,007;    0,822;   -1,045
288,491;10983,832;    0,186;    2,136
289,088;10744,445;   -2,360;    2,409
289,684;10802,732;   -1,723;    1,500
290,280;10797,752;    0,368;    0,682
290,876;10881,400;    1,822;    5,500
291,472;10808,568;    1,276;    2,227
292,068;10904,574;    1,367;    0,227
292,665;10613,793;    2,095;    0,773
293,261;10257,319;    0,276;    2,136
293,857;10642,751;    2,913;    2,136
294,453;10593,744;    3,550;    0,955
295,049;10466,674;   -0,268;    1,955
295,644;10486,209;    0,095;    0,136
296,240;10425,166;   -0,905;   -0,136
296,836;10443,695;   -0,995;    0,318
297,432;10736,531;    1,096;   -0,500
298,028;10764,046;    0,732;    0,773
298,624;11165,243;    1,459;    1,864
299,220;11415,751;    2,368;    0,591
299,815;11097,003;    1,005;   -0,409
300,411;10901,855;    0,914;    1,773
301,007;10925,862;    1,368;    0,227
301,602;10968,939;   -0,541;   -2,318
302,198;11117,582;    0,732;   -0,773
302,794;11473,264;    1,187;   -0,500
303,389;11593,902;   -1,177;    1,045
303,985;11648,510;    0,550;    1,409
304,580;11626,445;    1,459;    1,591
305,176;11588,279;   -3,086;    0,136
305,771;11496,953;   -1,268;   -1,227
306,367;11329,382;    4,095;    0,136
306,962;11696,030;    0,641;    1,500
307,558;11398,787;   -0,450;    0,136
308,153;11320,553;    1,095;   -1,136
308,748;11564,972;   -0,814;    1,682
309,344;11522,322;   -0,632;   -1,318
309,939;11574,073;   -1,905;   -1,318
310,534;11870,743;   -0,086;   -1,682
311,130;11819,671;    0,459;   -2,500
311,725;11568,677;    1,004;   -0,500
312,320;11861,455;    2,459;    0,045
312,915;11736,471;    1,459;   -1,045
313,510;11779,071;    1,550;   -0,500
314,105;12282,501;    1,096;    1,409
314,700;11711,326;   -3,086;   -1,045
315,295;11349,536;   -0,904;    0,045
315,890;10932,574;    1,277;    0,864
316,485;11261,678;   -0,359;   -0,318
317,080;11355,304;   -3,086;    1,591
317,675;11925,092;    2,005;   -0,682
318,270;11331,313;    5,550;    3,318
318,865;11373,858;    3,278;    3,045
319,460;11204,999;   -0,904;    0,591
320,055;11429,093;   -0,541;   -1,227
320,650;11125,150;   -1,995;   -0,591
321,244;11179,006;   -0,177;   -1,409
321,839;12109,691;   -1,541;   -0,227
322,434;11956,001;   -1,086;   -1,591
323,029;11557,256;    1,732;    1,591
323,623;11377,518;    1,550;    0,773
324,218;11164,433;    2,368;    1,409
324,812;11060,083;    1,096;    1,591
325,407;10878,181;   -0,814;    2,045
326,002;10794,243;    0,277;   -0,409
326,596;11114,505;    0,914;    1,318
327,191;11299,966;    0,823;   -1,045
327,785;10904,778;   -0,813;   -0,227
328,379;11108,906;    1,368;    0,136
328,974;10873,300;    0,914;   -3,955
329,568;11111,750;    0,186;   -2,409
330,163;10953,016;    2,096;    1,045
330,757;11326,468;    2,459;    1,591
331,351;10635,490;    0,459;    0,682
331,945;10928,172;    0,914;    1,409
332,540;10548,673;   -1,723;   -0,591
333,134;10707,984;   -1,086;    0,773
333,728;10952,824;    0,005;    0,318
334,322;11263,662;   -1,177;   -0,864
334,916;10573,598;    0,277;    0,955
335,510;10936,519;   -0,450;   -0,136
336,105;11149,512;   -1,086;    1,591
336,699;10835,584;   -1,086;    0,591
337,293;10796,839;   -1,723;    0,318
337,887;10924,395;   -2,723;    1,955
338,481;11058,975;    0,459;    0,591
339,074;11234,598;   -0,359;    2,682
339,668;11077,109;   -1,632;    1,227
340,262;11317,652;    1,732;    3,227
340,856;10815,393;    1,822;   -0,682
341,450;10230,460;    1,004;    1,864
342,044;11100,021;    1,459;    0,136
342,637;10887,296;    0,913;   -2,136
343,231;10720,182;   -2,360;    0,682
343,825;10673,492;   -1,086;   -0,591
344,419;10675,267;   -1,995;    0,500
345,012;10446,928;    2,459;    4,045
345,606;10443,893;    4,641;    1,591
346,199;10301,005;   -1,813;   -0,227
346,793; 9859,243;    1,914;    2,045
347,386;10068,597;   -0,813;   -1,136
347,980;10034,174;   -0,268;   -0,045
348,573; 9835,495;    2,278;    0,409
349,167; 9540,087;    5,278;    4,773
349,760; 9864,119;    2,914;    2,682
350,354; 9847,388;   -0,813;    1,136
350,947; 9593,707;    1,096;    1,682
351,540; 9262,736;   -0,358;   -1,409
352,134; 9226,423;    1,096;    1,136
352,727; 9269,079;   -0,086;    1,136
353,320; 9116,002;    0,005;    0,591
353,913; 8969,583;   -1,995;    1,864
354,507; 9137,223;    0,823;   -1,227
355,100; 9159,218;    0,460;    0,864
355,693; 8387,555;    2,005;    2,409
356,286; 8423,786;    0,823;    2,773
356,879; 8794,666;   -0,722;    1,227
357,472; 8430,608;   -0,904;    1,500
358,065; 8622,111;   -0,722;    2,500
358,658; 8537,029;   -0,540;    2,318
359,251; 8206,667;   -1,631;   -0,591
359,844; 7703,563;   -1,904;   -1,136
360,437; 7839,189;   -2,995;    0,045
361,030; 8130,182;    1,369;   -0,682
361,623; 7720,374;    2,824;    0,318
362,215; 7793,776;   -0,086;    2,045
362,808; 7605,508;   -2,358;   -1,682
363,401; 7811,974;   -2,449;    0,136
363,994; 7552,482;   -0,631;   -1,500
364,586; 7481,491;    0,824;   -1,500
365,179; 7683,054;   -0,449;   -1,136
365,772; 7167,983;   -1,995;    2,045
366,364; 7450,728;    1,915;   -3,227
366,957; 7664,512;    2,279;   -0,045
367,549; 7681,807;    2,188;   -0,864
368,142; 7347,424;    1,825;   -1,500
368,734; 7545,691;    0,734;   -2,136
369,327; 7494,404;    1,643;   -0,500
369,919; 7414,712;   -1,538;    0,409
370,512; 7222,980;   -1,083;   -0,500
371,104; 6973,067;   -0,901;    1,591
371,696; 7131,567;    1,191;   -0,955
372,289; 7204,945;    0,373;    1,136
372,881; 7354,921;   -2,080;    1,318
373,473; 7274,034;   -2,170;    1,136
374,066; 7093,450;   -0,169;    0,500
374,658; 6937,917;    0,378;    1,136
375,250; 7286,392;    0,653;   -1,409
375,842; 7126,663;    0,473;   -0,045
376,434; 7011,489;   -0,435;   -0,409
377,026; 7583,291;    0,204;   -2,500
377,618; 7490,041;   -0,158;   -0,682
378,210; 7347,449;   -0,338;   -1,955
378,802; 7188,028;    0,754;   -0,591
379,394; 7129,779;    1,846;    0,682
379,986; 7713,221;    1,393;   -0,955
380,578; 7798,170;   -0,153;    0,773
381,170; 7156,454;   -0,972;    0,045
381,762; 7122,095;    0,755;    1,409
382,354; 7320,140;   -0,065;   -1,318
382,945; 7431,672;   -2,976;    0,318
383,537; 7589,642;   -2,705;   -1,955
384,129; 7596,672;   -2,160;   -1,136
384,721; 7761,865;   -0,252;    0,955
385,312; 7690,107;   -0,161;   -0,955
385,904; 7757,417;   -2,706;    1,591
386,496; 7148,392;   -0,979;    1,045
387,087; 7306,619;    1,022;    2,500
387,679; 7327,689;   -1,160;    0,045
388,270; 7467,490;    2,840;    2,045
388,862; 7561,169;    1,295;   -0,318
389,453; 7460,070;   -0,887;    1,045
390,045; 7725,585;   -0,705;   -2,682
390,636; 7673,535;    0,204;   -0,591
391,227; 7526,651;   -0,523;   -0,045
391,819; 7637,209;    0,204;    0,773
392,410; 7704,469;    1,022;    0,045
393,001; 7628,643;   -0,979;   -1,591
393,593; 7913,049;    1,930;   -0,045
394,184; 7761,008;    1,385;   -0,409
394,775; 7694,949;    1,839;    2,136
395,366; 7898,891;    1,385;    0,773
395,957; 7861,592;    0,113;    0,136
396,548; 8164,248;   -0,342;    2,682
397,139; 8480,400;   -2,433;    0,591
397,730; 8237,950;   -1,888;    0,955
398,321; 8275,786;   -1,252;    0,955
398,912; 8318,005;   -0,615;    0,136
399,503; 8403,306;   -3,524;   -1,409
400,094; 7837,349;    0,294;    1,682
400,685; 7703,632;   -0,433;    0,045
401,276; 7773,172;    0,930;   -0,955
401,867; 8082,731;   -0,888;    0,773
402,458; 8153,958;   -2,251;   -2,318
403,048; 8142,009;    1,112;    0,591
403,639; 7789,259;    0,840;    0,864
404,230; 8026,041;    2,476;    0,318
404,821; 7943,397;   -0,615;    0,045
405,411; 8053,441;    1,203;   -2,591
406,002; 7685,041;   -1,252;   -1,136
406,592; 7535,878;    2,294;    0,045
407,183; 7830,478;    0,566;   -1,500
407,774; 7759,075;    3,475;   -0,136
408,364; 8079,583;    0,930;    0,409
408,954; 7675,924;    0,384;    1,227
409,545; 7737,467;    1,021;    1,045
410,135; 7282,852;    1,293;    0,500
410,726; 7435,738;    1,838;    0,318
411,316; 7814,044;    0,111;    0,773
411,906; 7479,727;   -0,253;   -0,409
412,497; 6966,276;   -1,070;   -0,045
413,087; 7573,338;   -1,980;   -0,227
413,677; 7961,586;   -0,707;    3,864
414,267; 7781,098;    0,656;    1,409
414,857; 7799,194;   -2,980;    4,227
415,448; 8077,100;    0,839;    0,500
416,038; 7770,861;    0,020;   -0,591
416,628; 7720,857;   -0,889;    0,409
417,218; 7211,382;    0,565;    3,318
417,808; 7458,932;    0,202;   -0,409
418,398; 7880,418;    0,020;    2,682
418,988; 7878,755;    2,020;    0,591
419,578; 8140,015;   -0,707;    1,409
420,168; 8462,092;   -1,343;   -0,955
420,757; 8046,130;   -1,343;   -1,500
421,347; 7746,771;    0,111;   -0,227
421,937; 7880,527;    2,292;    1,409
422,527; 7831,536;    0,838;   -0,773
423,116; 7671,266;   -0,253;   -0,045
423,706; 8001,518;   -1,889;    0,318
424,296; 7950,062;    1,384;    0,682
424,885; 8354,880;   -0,071;   -3,045
425,475; 8649,073;    1,474;   -2,864
426,065; 8578,284;   -0,980;   -0,318
426,654; 8183,284;   -0,435;   -0,318
427,244; 8301,288;    0,020;    1,409
427,833; 7768,738;    1,383;   -0,500
428,423; 8183,882;   -0,526;    1,136
429,012; 8912,811;   -0,344;   -1,136
429,601; 8443,307;   -1,344;    0,136
430,191; 8671,227;    1,292;    4,318
430,780; 8296,307;   -0,344;   -0,409
431,369; 8253,944;    0,746;   -0,045
431,959; 8870,978;   -1,254;    0,500
432,548; 8644,465;   -1,163;   -0,045
433,137; 8763,565;   -1,254;   -1,318
433,726; 9254,195;    0,292;    0,500
434,315; 8621,626;   -0,526;    2,409
434,905; 8710,322;   -1,254;    1,409
435,494; 8625,429;    0,746;    0,955
436,083; 9069,350;   -0,981;   -0,955
436,672; 8940,450;    0,110;    0,500
437,261; 8524,890;    0,292;   -1,955
437,850; 8618,670;    1,383;    0,682
438,439; 8562,394;    3,291;    1,955
439,027; 8396,764;    3,655;    1,773
439,616; 8754,082;    2,927;    1,227
440,205; 8583,856;    0,200;   -2,136
440,794; 8659,268;    2,109;   -0,045
441,383; 8884,892;   -1,346;   -0,591
441,971; 8765,344;   -2,436;    0,591
442,560; 8613,028;    0,563;   -1,773
443,149; 8384,632;    0,379;   -1,318
443,737; 8522,934;   -0,074;   -2,318
444,326; 8755,031;    0,018;    0,318
444,915; 8757,967;   -1,982;    0,864
445,503; 9122,322;   -2,891;   -0,318
446,092; 8449,692;    0,382;    2,136
446,680; 8942,066;    0,382;    0,318
447,269; 9104,133;   -0,346;   -0,318
447,857; 8872,239;    0,018;   -1,773
448,445; 8988,820;    0,563;    1,318
449,034; 9220,119;   -1,528;   -1,136
449,622; 9336,120;   -1,073;    3,500
450,210; 8567,970;    2,017;    2,227
450,799; 9056,430;    0,290;   -0,591
451,387; 9005,921;    1,381;   -0,591
451,975; 8661,913;    2,654;    0,864
452,563; 8765,960;    3,472;    2,318
453,151; 8799,799;   -0,528;   -1,227
453,739; 8704,890;   -1,347;    0,136
454,328; 8519,396;    2,381;   -2,136
454,916; 8277,529;    2,562;   -0,136
455,504; 8494,276;    1,017;    1,227
456,092; 8642,296;    0,017;   -1,591
456,679; 8589,541;    1,472;    0,682
457,267; 8507,556;    4,017;    1,045
457,855; 8650,625;    1,017;    1,409
458,443; 8414,916;   -0,165;    1,682
459,031; 8554,995;    0,108;    2,409
459,619; 8997,682;   -1,801;    2,864
460,206; 9127,720;    0,835;    2,045
460,794; 9190,852;   -2,983;   -0,227
461,382; 9381,904;   -0,529;   -0,864
461,970; 8995,571;    1,198;    1,864
462,557; 9061,509;   -0,711;   -0,682
463,145; 9174,015;   -3,165;   -1,682
463,732; 9296,039;    2,016;   -1,045
464,320; 9256,269;   -0,075;   -3,045
464,907; 8929,232;    2,743;   -0,773
465,495; 8805,601;    0,743;   -1,227
466,082; 8945,843;   -1,984;   -0,045
466,670; 8838,664;   -2,529;    1,227
467,257; 9289,581;   -1,711;    2,045
467,844; 9430,800;   -0,075;    0,045
468,432; 9424,015;    0,834;    3,500
469,019; 8955,278;    0,925;   -1,773
469,606; 9397,145;    0,470;    3,682
470,193; 9221,141;   -1,439;    0,227
470,780; 8814,271;   -2,075;    0,864
471,368; 9140,224;   -1,257;   -0,773
471,955; 8932,581;    1,379;   -0,682
472,542; 8596,085;    0,652;   -1,136
473,129; 8806,918;   -0,166;    0,136
473,716; 8549,519;    1,470;    0,591
474,303; 8710,520;    0,652;   -0,864
474,890; 8975,586;   -1,439;   -0,500
475,477; 8957,474;   -1,621;    0,409
476,064; 8834,859;    1,106;   -1,591
476,650; 8726,204;    0,288;    0,318
477,237; 8596,022;   -0,258;    0,955
477,824; 8758,784;   -1,076;    0,864
478,411; 8769,872;   -1,894;   -0,318
478,997; 8946,707;    0,560;   -0,773
479,584; 8984,335;    1,196;   -0,409
480,171; 9616,327;   -0,440;   -0,773
480,757; 9273,104;    2,651;    0,773
481,344; 9567,661;    0,469;    0,409
481,931; 9058,691;    1,105;    1,045
482,517; 9918,029;   -1,258;    0,318
483,104;10392,396;    1,106;    2,864
483,690;10647,398;   -1,804;    0,045
484,276;10962,899;   -0,895;    0,227
484,863;10668,708;    2,469;    1,136
485,449;11255,822;   -0,077;    0,318
486,035;11244,765;   -1,986;   -0,136
486,622;11656,840;   -0,895;    0,045
487,208;11583,183;    1,378;    1,500
487,794;11429,319;    0,741;    0,318
488,380;11535,052;    0,105;   -1,409
488,967;11577,717;   -1,168;   -0,409
489,553;11643,100;   -1,895;   -1,409
490,139;11863,071;    1,559;    0,773
490,725;11374,802;    0,741;   -0,227
491,311;11002,677;    3,287;    3,045
491,897;10383,133;   -0,986;    1,500
492,483;10271,261;    0,105;    1,227
493,069;10111,378;    3,923;    0,864
493,655;10080,605;    1,650;    0,682
494,241;10018,934;    1,377;   -0,955
494,826;10426,099;    0,287;   -1,045
495,412; 9941,857;    2,559;   -0,682
495,998;10117,713;   -0,805;   -0,318
496,584;10262,552;    0,377;    1,045
497,169;10265,711;    1,014;   -0,682
497,755;10280,980;    0,650;    1,227
498,341;10855,256;    0,559;    0,318
498,926;10442,056;    1,832;    1,955
499,512;10685,418;    1,286;    2,955
500,097;10813,847;    0,195;   -0,318
500,683;10837,929;   -0,350;    2,136
501,268;11210,416;   -0,169;   -0,955
501,854;11000,394;   -0,169;    1,227
502,439;10980,051;   -0,624;   -1,773
503,024;11203,551;    0,195;    0,500
503,610;11314,579;   -0,078;   -0,682
504,195;11351,982;    0,558;    1,955
504,780;11502,509;    2,922;    1,227
505,366;11403,960;    3,013;    2,864
505,951;11142,948;    0,740;    1,045
506,536;11239,338;   -3,260;   -3,682
507,121;11241,632;    0,285;   -0,318
507,706;11795,453;    2,376;    1,045
508,291;12191,858;    2,649;    1,136
508,876;11704,202;   -0,988;    2,591
509,461;11239,914;   -0,169;   -0,773
510,046;11676,669;    0,194;    0,318
510,631;11928,747;   -0,351;   -0,773
511,216;11639,545;    2,467;   -0,500
511,801;12029,491;   -0,442;    2,591
512,386;12352,450;    0,740;    0,500
512,971;12308,016;   -2,988;    0,955
513,555;11864,971;   -0,897;   -1,500
514,140;12660,916;   -0,442;   -3,136
514,725;12698,364;   -0,715;   -1,136
515,309;12813,087;   -0,533;    0,318
515,894;12300,237;   -0,624;   -2,227
516,479;12760,336;   -0,624;   -0,955
517,063;12640,874;    0,376;    1,227
517,648;12779,059;    1,012;   -1,136
518,232;12422,217;   -0,261;   -1,409
518,817;12788,188;   -0,079;    1,682
519,401;13011,062;    2,194;    0,591
519,985;12530,238;    1,103;    1,136
520,570;12437,555;    0,830;   -1,955
521,154;12731,989;    2,102;    0,591
521,738;12865,919;   -2,352;    2,409
522,323;13464,439;   -0,170;    1,682
522,907;13199,250;    0,466;   -0,136
523,491;12937,616;    0,557;    0,955
524,075;12936,223;    2,284;    0,591
524,659;13014,877;    1,466;    0,591
525,243;12452,183;    1,739;    0,409
525,827;12741,284;    0,648;   -0,045
526,411;13567,786;   -1,989;   -0,136
526,995;13797,763;   -0,352;    1,409
527,579;13387,972;   -0,443;   -1,045
528,163;13713,560;    0,375;   -1,500
528,747;13638,466;    2,466;   -0,773
529,331;13903,674;   -0,080;   -1,409
529,915;14114,956;    1,738;    0,955
530,499;14051,562;   -0,807;    1,227
531,082;13773,062;   -0,534;    1,591
531,666;13232,247;    1,374;    0,773
532,250;13897,800;    1,284;    2,682
532,833;14245,576;    0,920;    2,773
533,417;14162,063;   -1,807;    0,864
534,001;14073,925;    1,647;   -0,318
534,584;14751,062;    0,374;    0,500
535,168;14593,970;    0,465;    1,409
535,751;14591,914;    0,647;    0,045
536,334;14087,466;   -0,898;   -0,409
536,918;14682,677;    0,011;    1,591
537,501;14780,869;   -0,899;    1,318
538,085;14815,419;   -0,444;    1,045
538,668;14953,481;    0,829;    2,409
539,251;15237,089;    1,829;    3,773
539,834;15240,631;    0,101;    0,773
540,418;15193,773;   -1,990;    4,318
541,001;15316,010;   -0,990;    1,773
541,584;15298,468;    2,101;    2,227
542,167;14974,534;    1,374;    2,955
542,750;15165,299;    1,919;   -0,773
543,333;14744,656;    0,555;    2,136
543,916;15511,034;    0,192;    2,500
544,499;16127,556;   -1,354;    0,227
545,082;16128,164;    1,374;    3,591
545,665;16251,916;    1,919;    1,500
546,248;16568,838;    1,010;   -0,318
546,830;16262,986;   -0,445;    1,955
547,413;16638,972;    1,010;   -0,773
547,996;17157,769;    0,555;    0,500
548,579;16918,388;    0,919;    0,955
549,161;16754,087;    1,828;    2,682
549,744;16550,705;   -0,809;    0,409
550,326;17079,889;   -0,809;   -1,136
550,909;16835,505;    2,737;    0,591
551,492;17222,248;   -0,263;    0,227
552,074;17022,541;   -0,173;   -1,318
552,657;17528,784;    2,373;    0,045
553,239;17330,697;   -0,173;   -0,773
553,821;17263,228;   -1,082;    1,045
554,404;16758,207;    1,282;    1,136
554,986;17160,671;    0,464;    1,045
555,568;17713,038;    1,191;   -0,955
556,151;16941,464;    1,191;   -0,227
556,733;17152,758;   -0,264;   -0,864
557,315;17611,146;    0,100;    0,500
557,897;17397,567;    0,554;   -0,500
558,479;17562,690;   -1,991;    1,318
559,061;17650,894;   -0,719;   -0,864
559,643;17949,671;   -0,264;    0,045
560,225;18308,919;    1,645;    2,864
560,807;18383,398;    0,918;    0,318
561,389;17919,827;    0,554;    2,318
561,971;18596,855;    0,463;    2,136
562,553;18394,834;   -1,628;    1,591
563,135;18511,226;   -0,537;    1,136
563,717;18131,195;    3,372;    1,136
564,298;18830,596;    3,645;   -0,045
564,880;18544,598;    0,645;   -1,409
565,462;18734,416;    0,645;    1,318
566,043;19857,058;   -0,446;    2,318
566,625;19373,603;    1,918;    1,227
567,207;19203,162;    1,099;    1,682
567,788;20281,529;   -1,264;    1,500
568,370;21105,972;    1,917;   -0,500
568,951;20886,231;    0,190;    0,227
569,533;21721,619;   -0,628;   -0,500
570,114;22160,005;   -0,446;    0,682
570,695;22659,579;   -0,174;   -1,318
571,277;23122,679;   -0,265;   -1,682
571,858;23827,338;    2,008;   -1,136
572,439;24753,207;    1,554;   -1,045
573,021;24874,186;    2,099;   -2,773
573,602;25332,177;   -1,265;    0,318
574,183;26232,792;   -2,083;    2,227
574,764;26367,487;   -1,629;    0,409
575,345;26869,131;    0,917;   -0,136
575,926;27485,203;   -0,356;    0,136
576,507;27462,812;    1,099;   -0,227
577,088;28559,600;    3,099;    1,682
577,669;28541,220;    0,735;    1,955
578,250;29224,338;    0,644;   -1,045
578,831;29804,514;   -1,356;   -2,227
579,412;30072,373;   -0,810;    0,955
579,993;31046,344;    1,008;    0,227
580,573;31391,557;   -0,629;   -0,955
581,154;30334,887;    0,735;   -0,591
581,735;31156,279;    0,644;    0,773
582,315;30694,461;   -0,629;    2,136
582,896;30980,305;   -0,174;    1,227
583,477;30484,595;    0,189;    1,227
584,057;30701,768;    0,553;    0,955
584,638;31017,617;    2,553;    2,318
585,218;30954,312;   -0,538;    2,682
585,799;31148,791;    0,281;   -0,227
586,379;31159,873;    0,372;    1,591
586,959;29932,126;    0,735;    0,318
587,540;29321,238;   -0,629;    2,227
588,120;28883,926;    1,007;   -0,045
588,700;27889,485;    2,553;    2,136
589,281;28169,678;    0,462;   -0,955
589,861;28128,804;    0,099;   -1,682
590,441;27951,407;    2,371;   -2,682
591,021;26931,525;   -0,265;   -2,591
591,601;27227,352;   -0,537;    0,500
592,181;27188,107;   -0,719;   -0,773
592,761;26515,308;    0,007;    1,409
593,341;26451,549;   -0,901;    0,045
593,921;26470,387;   -0,265;    1,591
594,501;26301,520;   -0,538;    1,318
595,081;26182,780;    0,917;   -0,318
595,661;26530,212;   -1,447;    0,955
596,240;27010,292;   -0,537;    0,136
596,820;26620,399;    0,372;    1,955
597,400;26820,513;    2,008;    0,773
597,980;27051,044;    2,008;    1,045
598,559;27079,329;    2,735;   -0,227
599,139;26811,243;   -0,174;   -1,227
599,718;26684,970;   -0,174;   -0,409
600,298;26967,724;    0,735;    0,682
600,877;27147,137;    2,917;    1,409
601,457;27413,517;    2,281;    1,136
602,036;27341,806;    0,190;    2,045
602,616;27569,771;    0,644;    1,682
603,195;27881,607;   -0,355;    3,500
603,774;27478,218;   -0,901;    2,045
604,354;27359,643;    0,826;   -0,500
604,933;26810,532;    0,463;    1,864
605,512;26939,342;    3,554;    0,591
606,091;27028,481;   -0,537;    3,773
606,671;27799,124;    0,281;    0,773
607,250;26909,943;    1,644;    3,136
607,829;27164,926;    2,372;    3,227
608,408;27033,267;    1,190;    2,591
608,987;26062,698;    1,281;    3,409
609,566;26381,759;   -1,265;   -2,500
610,145;26473,398;   -1,082;    0,682
610,723;26904,522;    4,372;    6,864
611,302;26154,237;   -0,446;    1,682
611,881;25691,334;    5,008;   11,227
612,460;26485,124;    1,645;    3,955
613,039;26909,140;   -0,082;    2,045
613,617;25667,142;    1,736;    4,773
614,196;25890,518;    1,099;    1,227
614,775;26198,017;    1,009;    2,409
615,353;26128,614;    0,736;    0,864
615,932;25853,859;    0,100;    2,409
616,510;26475,652;    0,554;    0,591
617,089;26039,467;    7,100;   17,591
617,667;25786,223;    2,372;    6,136
618,246;25659,972;   -1,537;    1,318
618,824;25832,399;   -3,355;   -0,955
619,402;25390,854;   -2,900;   -1,773
619,981;25883,935;   -0,173;   -1,045
620,559;25762,807;    0,009;    1,682
621,137;25287,690;   -0,718;    1,864
621,715;25294,178;   -1,173;   -0,682
622,293;25218,841;   -0,537;   -0,773
622,871;25686,873;   -0,718;    0,500
623,450;25259,947;    0,373;   -0,864
624,028;25146,019;    0,191;   -0,955
624,606;24802,769;   -1,718;    1,682
625,183;25206,818;   -1,536;   -1,136
625,761;24813,090;    1,009;    1,136
626,339;25100,287;    1,373;    2,591
626,917;25514,348;   -0,172;   -0,045
627,495;25513,562;   -0,354;    1,318
628,073;24972,763;   -0,263;    2,864
628,650;24638,387;    0,100;    2,136
629,228;25123,974;    0,373;    4,409
629,806;24524,389;    2,282;    1,136
630,383;24830,709;    1,464;   -0,318
630,961;24614,965;    2,555;   -0,955
631,539;24344,586;    2,464;    0,227
632,116;23666,601;   11,373;   15,409
632,694;24217,347;    2,555;    6,500
633,271;24533,626;    0,828;    2,682
633,848;24436,909;    1,828;    2,045
634,426;24473,043;   -1,081;    1,773
635,003;23661,804;    1,101;   -0,409
635,580;23913,710;    1,192;    3,682
636,158;24480,609;    3,737;    1,227
636,735;24485,384;    0,555;   -0,500
637,312;24603,246;   -0,809;   -0,682
637,889;24706,190;   -4,354;   -0,682
638,466;24161,705;   -3,990;   -0,409
639,043;24215,987;    2,101;   -1,136
639,620;24582,047;   -2,262;   -0,955
640,197;24815,002;    1,100;    1,682
640,774;25032,503;   -0,172;    1,136
641,351;25395,005;    0,737;    1,136
641,928;24766,052;   -0,627;    1,409
642,505;24447,735;    0,828;   -0,500
643,082;24566,328;   -1,718;    1,227
643,658;23613,829;   -0,718;    1,500
644,235;24389,786;    1,191;    2,500
644,812;24656,742;    1,918;    0,773
645,388;24412,153;   -0,991;    1,409
645,965;24546,654;   -0,809;    1,682
646,542;24524,247;   -1,445;   -0,227
647,118;24507,021;    1,009;   -0,955
647,695;24808,159;   -0,263;    1,136
648,271;24757,752;   -0,536;    0,500
648,848;25085,980;    0,736;    2,227
649,424;24868,118;    0,827;    1,318
650,000;24689,075;   -0,354;   -1,045
650,577;24467,394;   -0,627;   -0,955
651,153;24906,714;   -1,809;    0,955
651,729;25926,034;    1,191;    0,864
652,305;26053,172;    0,645;    2,773
652,881;29989,855;   -0,082;    1,136
653,458;36463,357;    1,100;    0,227
654,034;40263,041;    0,282;    1,591
654,610;41838,451;    0,554;    0,773
655,186;43158,953;    0,645;    3,045
655,762;42909,636;   -0,991;    0,409
656,338;42947,593;    0,100;    0,136
656,913;43855,185;   -0,082;    0,409
657,489;43132,323;    0,827;   -0,318
658,065;43099,007;   -0,173;   -1,591
658,641;43798,963;   -0,900;   -0,864
659,217;43131,192;   -0,991;    0,409
659,792;42485,966;    0,645;   -0,409
660,368;42761,468;   -2,173;   -0,682
660,944;42567,969;   -2,082;    1,227
661,519;38444,198;   -0,628;    0,409
662,095;32826,154;   -1,719;    0,591
662,670;28189,201;    1,281;   -0,136
663,246;26906,703;    1,009;   -0,409
663,821;26195,205;    0,281;    1,682
664,396;25682,252;    0,009;    1,864
664,972;25932,481;    0,009;   -0,500
665,547;26239,164;    1,372;    0,136
666,122;26245,302;   -1,082;    0,318
666,698;26541,167;   -0,173;    0,318
667,273;25848,578;   -0,173;    0,136
667,848;26664,716;    2,372;    1,500
668,423;26447,945;    2,190;    2,318
668,998;27052,719;    2,827;   -0,682
669,573;27573,948;   -3,264;   -1,500
670,148;27388,813;   -1,446;   -0,682
670,723;27205,770;   -1,810;    0,318
671,298;27601,544;    2,372;    1,045
671,873;27755,227;   -0,082;   -0,136
672,448;27667,002;    0,645;    0,136
673,023;28077,049;   -1,992;   -0,227
673,597;28356,823;    0,827;    2,318
674,172;28078,961;   -0,355;    0,318
674,747;27615,736;    0,372;   -1,045
675,321;27458,783;   -0,628;    3,318
675,896;27038,284;    0,645;    1,045
676,471;28010,968;    2,645;    1,591
677,045;27802,378;   -1,264;    0,682
677,620;27845,244;    0,190;    1,136
678,194;28133,745;   -2,628;    1,136
678,769;27739,611;   -1,083;   -0,318
679,343;27946,567;   -0,628;    1,773
679,917;27828,614;   -1,446;    1,955
680,492;27952,479;    0,826;    3,227
681,066;28062,799;    3,372;    0,409
681,640;28099,300;    1,463;   -0,318
682,214;28894,529;    0,735;    0,500
682,788;28378,758;   -1,356;   -0,773
683,363;28315,714;   -1,810;    1,682
683,937;28024,125;   -1,719;   -0,318
684,511;28792,536;    0,463;   -0,591
685,085;28490,947;   -1,356;    0,318
685,659;28270,721;   -2,538;    0,864
686,232;28542,404;   -0,356;   -0,318
686,806;28260,179;   -0,901;    0,409
687,380;28962,044;   -0,174;    0,591
687,954;29183,727;   -1,174;    1,136
688,528;28780,320;   -0,719;    1,955
689,101;29595,367;   -3,992;    1,045
689,675;29151,778;   -0,356;   -0,136
690,249;28496,734;   -0,719;    0,409
690,822;28878,781;    0,280;    0,318
691,396;28968,828;   -0,265;    1,227
691,969;28447,603;    1,280;    0,136
692,543;28869,468;   -0,447;   -1,955
693,116;28509,969;   -0,265;   -1,409
693,690;28411,016;    0,099;    0,500
694,263;29008,882;   -1,083;    2,955
694,836;28987,565;    1,371;    3,591
695,410;27678,067;   -0,265;    1,773
695,983;28106,205;    0,189;    0,591
696,556;28130,434;   -0,447;   -1,045
697,129;28491,754;   -0,356;    1,409
697,703;28134,982;   -1,629;    1,955
698,276;28138,120;    1,462;   -0,773
698,849;27948,258;    1,280;    1,409
699,422;28297,396;   -1,083;    0,591
699,995;28015,080;    0,007;    0,136
700,568;28538,854;   -0,629;    3,045
701,140;28541,538;   -2,811;    1,682
701,713;28236,857;   -0,174;    2,409
702,286;28025,359;   -0,538;    0,864
702,859;27895,861;   -0,902;   -0,591
703,432;27052,271;    0,825;    0,682
704,004;27579,137;    0,462;    0,318
704,577;27444,729;   -0,629;    0,136
705,150;28012,594;    0,189;    2,500
705,722;27787,460;   -0,356;   -3,227
706,295;27558,052;   -0,175;   -0,591
706,867;27398,554;   -0,175;    1,955
707,440;27613,601;   -1,720;   -0,409
708,012;27844,375;    0,462;    0,591
708,584;27798,150;    2,462;    0,227
709,157;28080,197;    1,825;   -0,591
709,729;27726,971;    2,280;    2,045
710,301;28588,473;    0,734;    0,045
710,874;28601,702;   -1,447;   -0,227
711,446;27441,203;    0,371;    0,864
712,018;27340,069;    0,098;    0,500
712,590;27142,207;   -1,993;    1,682
713,162;27663,072;    0,825;    1,318
713,734;27878,573;    1,825;   -2,045
714,306;27789,984;   -1,902;   -0,409
714,878;26515,122;    0,825;    0,864
715,450;27380,442;    0,643;    0,864
716,022;27626,762;    1,552;    1,318
716,593;27776,536;    0,189;    0,591
717,165;27688,856;   -3,175;   -1,227
717,737;27379,903;    0,280;    0,409
718,309;27053,677;    0,280;   -0,045
718,880;26995,997;   -0,539;   -1,409
719,452;27209,226;   -0,175;   -1,591
720,024;26770,455;    0,734;   -0,591
720,595;27372,957;   -2,902;    0,955
721,167;26932,458;    0,370;   -2,045
721,738;26429,687;   -0,812;   -1,045
722,309;26423,371;   -0,993;   -1,227
722,881;26182,054;   -1,357;    0,773
723,452;26830,737;   -2,630;    2,864
724,023;27019,330;   -0,721;    2,682
724,595;26794,013;    0,007;    0,682
725,166;26491,970;    0,007;   -0,409
725,737;26185,108;    1,734;    0,227
726,308;26271,882;   -0,266;    0,318
726,879;26740,111;   -1,630;    1,227
727,450;26572,794;    0,552;   -0,045
728,021;26490,841;    3,097;    0,682
728,592;26318,070;    0,734;    0,500
729,163;26674,390;    0,643;   -0,136
729,734;26627,164;    0,188;   -0,227
730,305;26965,575;    1,734;    0,136
730,876;27326,895;    0,188;    2,955
731,447;27008,215;    2,188;    2,682
732,017;27091,989;    1,097;    1,864
732,588;26626,945;    0,734;    1,227
733,159;26799,992;    0,643;   -1,045
733,729;26676,494;    0,006;    0,409
734,300;25955,723;    0,915;    0,864
734,870;26380,952;    3,461;    0,591
735,441;26890,908;    0,370;   -0,591
736,011;26673,228;    0,643;   -1,591
736,582;26653,366;   -0,812;    0,045
737,152;26115,504;   -1,721;   -2,045
737,722;26545,551;   -0,267;   -0,682
738,293;26265,143;   -1,358;    1,318
738,863;26148,281;    2,461;    2,318
739,433;25942,692;    5,279;    0,318
740,003;26557,012;   -0,994;   -0,682
740,573;25979,241;    2,097;   -1,591
741,143;25992,015;   -1,085;    0,318
741,713;26707,608;    1,188;   -0,500
742,283;26482,473;    0,915;    1,591
742,853;26259,247;    1,915;    1,591
743,423;25749,658;    1,733;    0,045
743,993;25834,432;   -0,358;    1,500
744,563;25218,116;    0,097;   -0,864
745,133;25181,618;   -0,812;   -0,864
745,702;25879,483;   -0,267;    1,773
746,272;25101,257;   -0,176;    0,591
746,842;24851,577;   -1,358;   -0,591
747,411;25266,169;   -0,267;   -0,318
747,981;25478,217;    0,097;    0,500
748,551;25548,264;    2,278;   -1,045
749,120;25320,311;    0,642;   -0,227
749,690;25757,267;   -0,631;    2,409
750,259;26075,950;    1,369;    2,955
750,828;25955,816;    1,551;   -1,955
751,398;26286,499;    1,278;   -0,045
751,967;25701,637;    2,187;    0,409
752,536;25990,957;   -0,813;   -0,227
753,105;26378,731;    0,096;    0,227
753,675;26162,324;    0,096;    1,773
754,244;26125,371;   -0,904;    3,591
754,813;26111,963;    0,551;    1,227
755,382;25710,101;    0,460;    0,955
755,951;26260,330;    1,551;    3,682
756,520;25822,105;   -0,085;    1,864
757,089;26365,061;    0,278;    0,500
757,658;26491,381;    1,733;    1,227
758,227;26491,791;    1,096;    0,318
758,795;26833,475;    1,187;    1,136
759,364;27047,704;   -0,086;   -0,591
759,933;26040,205;   -1,176;   -0,045
760,501;25590,980;    0,733;   -1,318
761,070;26003,390;   -2,813;   -1,409
761,639;26713,347;   -1,904;    1,318
762,207;26039,121;    1,551;   -0,955
762,776;25979,622;    0,369;    0,864
763,344;25949,397;   -0,995;    0,591
763,913;25071,808;   -0,722;    1,409
764,481;25900,855;    1,005;   -0,136
765,049;25636,720;   -1,358;    1,409
765,618;25499,040;   -0,086;    0,318
766,186;25624,360;    0,278;    0,136
766,754;25821,952;    0,005;    1,864
767,322;24822,545;   -1,995;    0,409
767,890;24900,046;   -0,722;   -1,773
768,459;25253,275;   -2,177;   -0,318
769,027;25418,140;    1,641;    3,409
769,595;24422,733;    3,278;    2,591
770,163;24865,871;    3,823;    2,955
770,730;24638,009;    0,732;   -0,136
771,298;24473,329;    0,187;   -1,409
771,866;24565,467;   -1,541;    4,955
772,434;24865,696;   -0,631;   -1,864
773,002;25048,834;    0,005;    0,682
773,569;24723,244;    0,914;    1,682
774,137;24539,019;   -0,268;   -0,045
774,705;25344,157;    0,278;   -0,136
775,272;24844,022;    0,641;    0,682
775,840;24568,796;   -0,177;    2,682
776,407;24104,752;    0,277;    1,955
776,975;23730,981;   -0,632;    0,318
777,542;24706,301;   -1,086;   -0,045
778,110;24563,803;   -1,268;   -0,045
778,677;24260,032;   -2,359;   -0,864
779,244;23997,624;    2,186;    1,045
779,812;24115,944;    1,823;    0,864
780,379;24004,809;    0,005;    1,136
780,946;24223,311;    1,005;   -0,773
781,513;24583,813;   -1,450;    0,318
782,080;23939,769;   -0,086;    2,864
782,647;24669,634;   -0,268;    3,045
783,214;24262,045;   -0,177;    3,864
783,781;23896,728;   -0,723;   -0,682
784,348;23719,866;   -0,632;    1,500
784,915;24191,641;   -3,177;    0,318
785,482;23971,415;    1,368;    2,591
786,049;24429,189;    0,186;   -0,591
786,615;24517,782;    0,277;   -0,955
787,182;24266,647;    0,186;   -0,682
787,749;23929,512;   -2,814;    1,409
788,315;23263,923;   -1,632;   -0,409
788,882;23590,606;    1,550;   -1,227
789,448;24255,835;    1,732;   -0,955
790,015;24323,973;    1,095;    3,227
790,581;23887,475;    1,459;    0,227
791,148;23752,795;    0,641;    1,045
791,714;24027,569;   -0,541;    3,136
792,280;23622,798;    0,186;    1,591
792,847;23246,572;    0,550;    2,500
793,413;23845,892;   -0,269;   -0,318
793,979;23338,303;    3,459;   -1,318
794,545;23435,714;    4,459;    2,682
795,111;22827,033;    2,186;    1,318
795,678;23000,535;    0,731;   -1,682
796,244;22637,764;    3,368;    0,136
796,810;23197,538;    1,731;    0,773
797,375;22908,858;    0,549;   -2,136
797,941;22922,542;   -0,541;    0,591
798,507;23097,952;   -0,451;   -0,955
799,073;22649,090;   -0,360;    0,591
799,639;22696,774;   -2,632;    3,136
800,205;22799,730;    0,095;    2,682
800,770;22371,777;    0,640;    1,773
801,336;22443,551;    1,368;   -0,955
801,901;22107,326;    4,549;    3,136
802,467;22643,555;   -0,542;    2,045
803,033;22038,874;   -0,087;    0,864
803,598;22244,649;    1,913;   -1,045
804,163;22224,969;    1,095;   -0,318
804,729;22207,743;   -0,178;    1,136
805,294;22636,063;    0,822;    2,227
805,859;22440,928;    0,731;   -0,409
806,425;21872,702;    1,186;    2,682
806,990;21535,113;    2,186;    4,318
807,555;22022,342;   -1,451;    2,591
808,120;21886,571;    0,822;   -0,409
808,685;21978,709;    0,185;   -2,500
809,250;21496,665;    0,004;   -0,500
809,815;21797,803;    1,913;    0,682
810,380;22280,396;   -0,269;    1,591
810,945;22823,624;   -1,087;    2,045
811,510;22068,672;    2,094;    1,591
812,075;21769,264;   -0,633;   -1,409
812,640;21781,402;    2,003;    1,409
813,204;21838,449;    0,822;   -0,227
813,769;22301,042;    2,094;   -0,045
814,334;21719,452;    0,458;    0,864
814,898;21811,318;    0,367;    0,591
815,463;21648,001;    1,276;   -0,773
816,027;21647,139;   -0,724;   -2,318
816,592;21716,641;    0,640;   -2,045
817,156;21236,324;    2,094;    1,136
817,721;21079,099;    4,276;    2,318
818,285;21017,055;    2,912;    1,500
818,849;21701,920;   -1,451;    1,682
819,414;21595,331;   -0,269;    2,955
819,978;21185,196;   -1,269;    1,773
820,542;21774,879;    2,003;    0,500
821,106;21519,563;   -0,815;    0,682
821,670;21579,246;   -0,815;    2,591
822,234;21308,475;   -0,270;    1,409
822,798;20713,159;    0,003;    0,500
823,362;20662,569;   -0,633;    4,227
823,926;19984,707;    0,094;    1,136
824,490;20199,845;   -0,997;   -0,682
825,054;20624,802;   -0,088;   -1,136
825,618;20232,849;   -1,542;   -1,500
826,181;20187,350;    0,458;   -1,318
826,745;20129,125;    1,367;   -1,045
827,309;20456,899;    1,185;    1,318
827,872;19859,855;    1,367;    0,955
828,436;20842,084;    1,185;   -0,773
828,999;20878,040;   -0,997;    1,227
829,563;19720,905;   -0,179;    1,136
830,126;19526,953;   -0,179;   -0,591
830,690;19601,454;   -1,997;    2,864
831,253;19096,229;   -0,543;    2,227
831,816;19221,457;   -1,906;    0,500
832,380;19169,777;    0,185;    0,864
832,943;19353,824;   -1,361;   -0,500
833,506;18823,962;    2,639;   -1,227
834,069;19627,646;    3,912;   -0,955
834,632;19712,875;    1,730;    1,318
835,195;19599,467;    1,003;    0,955
835,758;18813,332;   -0,997;    1,955
836,321;18691,925;    0,730;   -1,045
836,884;18780,518;   -0,725;   -0,955
837,447;18853,292;   -2,816;    1,773
838,010;19080,248;    0,366;    3,227
838,573;19326,477;   -1,179;    0,773
839,135;19288,342;   -1,361;   -0,955
839,698;18780,935;    1,275;    0,409
840,261;18335,891;    1,003;   -0,227
840,823;18153,393;   -0,543;    0,864
841,386;18482,167;   -0,452;   -2,409
841,948;18340,578;   -1,361;    1,773
842,511;18097,625;    0,912;    1,682
843,073;18175,217;    1,912;    0,227
843,636;17979,082;   -0,361;   -0,227
844,198;17934,584;    0,911;    0,591
844,760;18073,086;    1,093;    1,955
845,322;17724,406;    0,548;    1,136
845,885;18163,271;    0,730;    0,591
846,447;18580,954;   -1,998;    0,227
847,009;18111,456;    1,911;   -0,682
847,571;18488,412;    0,820;   -2,045
848,133;18588,914;   -1,089;   -1,864
848,695;18409,870;   -0,543;    1,409
849,257;17955,553;   -1,089;   -1,682
849,819;18137,873;   -0,998;   -0,409
850,381;18186,466;   -0,725;   -0,864
850,942;18561,604;    1,093;   -0,591
851,504;18494,833;    1,184;    0,227
852,066;18520,789;    1,275;   -1,591
852,628;18086,109;   -0,180;    1,955
853,189;17617,519;    1,638;    2,682
853,751;17724,475;   -0,907;    1,409
854,312;17542,977;   -0,453;   -1,682
854,874;18060,660;   -2,089;   -0,773
855,435;18548,344;   -0,907;   -1,682
855,997;18714,209;   -1,816;   -0,136
856,558;18020,438;    0,366;    1,773
857,119;18139,212;    0,820;    2,864
857,681;17843,896;    0,002;    0,318
858,242;17882,488;    1,911;   -2,136
858,803;18293,717;    0,456;   -0,773
859,364;18897,764;    0,184;   -4,773
859,925;18181,266;   -2,453;   -0,955
860,486;18107,495;   -0,453;   -0,955
861,047;17826,269;   -0,544;   -1,227
861,608;17631,225;   -1,089;   -0,773
862,169;17774,273;    0,638;   -0,045
862,730;17541,047;    0,456;    1,409
863,291;17792,730;   -0,635;   -0,500
863,852;18172,414;   -0,635;    1,955
864,412;17653,097;   -0,271;   -0,864
864,973;16213,872;   -0,089;    0,500
865,534;16071,373;   -1,726;    0,227
866,094;17642,875;    1,820;    0,227
866,655;17255,740;    1,274;    3,318
867,215;17541,878;    0,274;    0,136
867,776;17378,380;    0,547;   -0,136
868,336;17471,609;   -1,453;    0,136
868,897;16907,747;    2,638;    1,682
869,457;16631,794;    1,365;    0,318
870,017;16934,841;    0,547;   -1,227
870,578;17462,888;   -0,817;    0,773
871,138;17124,390;   -2,089;   -0,955
871,698;16674,709;   -0,817;   -1,318
872,258;16529,938;   -0,453;   -2,864
872,818;16887,713;    2,729;    0,045
873,378;16862,851;    0,638;    1,045
873,938;16427,625;    0,547;    0,500
874,498;16771,581;    0,274;   -1,955
875,058;16638,174;    2,183;    1,773
875,618;16504,584;    1,910;   -2,682
876,177;16416,450;    1,274;    0,136
876,737;16038,497;   -0,090;    1,955
877,297;16074,453;    0,183;    1,955
877,856;16060,136;   -0,362;    0,318
878,416;16017,820;    1,183;   -0,136
878,976;16246,412;   -1,817;    0,409
879,535;16412,914;    0,092;    3,136
880,095;16137,416;   -0,544;    0,045
880,654;16297,554;   -1,090;    1,318
881,213;16364,328;    2,456;    1,500
881,773;15978,011;    2,637;    2,682
882,332;16270,968;    3,365;    5,136
882,891;16162,651;    3,092;    2,136
883,451;16637,516;   -1,272;    1,682
884,010;16121,654;   -2,908;   -0,409
884,569;16213,519;   -0,999;   -0,045
885,128;16349,657;    2,819;   -1,864
885,687;16372,886;    4,455;    0,682
886,246;16064,297;    1,455;    2,136
886,805;15870,890;    2,455;    2,045
887,364;16159,119;   -0,999;   -0,500
887,922;16545,529;   -1,181;    0,045
888,481;15999,940;   -1,545;    0,591
889,040;16319,805;    1,183;    2,136
889,599;17051,489;    2,455;    1,409
890,157;17083,808;    1,455;    2,409
890,716;16750,310;   -0,090;    0,227
891,274;16526,812;    0,092;   -1,136
891,833;16990,041;    1,546;    0,864
892,391;16879,451;   -0,454;    0,500
892,950;16932,044;    1,819;   -0,773
893,508;17324,727;    0,455;   -0,409
894,067;16674,047;    0,637;    0,136
894,625;16552,549;   -0,636;   -1,500
895,183;16742,414;   -0,363;   -0,682
895,741;16694,825;    1,728;   -1,773
896,299;16538,872;   -0,545;   -2,409
896,858;16720,919;    0,819;   -1,591
897,416;16825,966;    2,728;   -1,318
897,974;16582,649;    1,819;    0,318
898,532;16698,515;    6,091;    2,682
899,089;16603,289;    2,091;   -0,682
899,647;16649,609;   -1,454;    1,318
900,205;16367,838;    1,182;    1,045
900,763;16562,521;   -0,454;    0,227
901,321;16591,568;    2,364;   -1,409
901,878;16051,524;   -1,000;   -0,773
902,436;15918,572;   -1,363;    1,318
902,994;16334,891;    4,728;    3,682
903,551;15791,029;    0,728;    0,409
904,109;16141,713;    0,182;   -1,409
904,666;15732,124;    2,455;    1,045
905,224;15586,080;    0,182;   -0,409
905,781;15318,399;    0,727;   -0,318
906,338;15415,356;   -1,363;    1,045
906,895;15358,039;    0,637;    2,045
907,453;15257,450;    1,727;    1,136
908,010;15317,315;   -0,909;    0,409
908,567;14965,544;    1,273;    0,591
909,124;14464,318;    0,364;   -1,500
909,681;14528,275;   -2,909;    0,682
910,238;14716,503;    0,636;   -1,318
910,795;15037,096;   -0,273;   -1,136
911,352;14673,369;   -2,909;   -2,682
911,909;14066,914;   -1,364;   -0,864
912,466;14594,187;   -3,182;    1,500
913,022;14149,732;   -1,636;    0,500
913,579;14522,187;   -0,909;    2,045
914,136;14202,914;    1,636;    0,955
914,692;14523,641;    0,091;   -1,227
915,249;14107,369;    1,455;    0,409
915,806;14347,369;    0,182;    1,955
916,362;14106,823;    1,909;    1,864
916,918;13674,005;    2,000;    1,045
917,475;13638,732;   -1,182;    0,955
918,031;13700,278;    3,364;   -0,045
918,587;13188,551;   -0,909;   -0,318
919,144;13413,278;   -2,273;    0,227
919,700;13713,641;    1,727;    0,773
920,256;13306,278;    0,727;    0,045
920,812;12937,551;   -0,727;   -1,045
921,368;12948,096;   -1,727;   -1,045
921,924;12594,641;    0,182;   -0,136
922,480;12135,096;   -0,545;    1,227
923,036;12754,732;    1,273;    1,955
923,592;12711,460;    0,455;    0,318
924,148;12611,369;    0,455;   -0,955
924,704;11908,551;   -1,364;   -0,409
925,259;12250,823;   -0,273;    0,591
925,815;11999,823;    1,455;    0,500
926,371;11513,914;    2,909;    1,409
926,926;11412,460;    2,091;    0,591
927,482;11046,460;   -1,364;    0,773
928,037;10924,732;    0,909;    2,045
928,593;11205,005;    1,636;    1,045
929,148;11051,823;   -1,818;   -1,500
929,704;10545,096;   -1,455;   -0,500
930,259;10769,460;    0,091;   -0,136
930,814; 9844,732;   -0,818;    1,955
931,369; 9510,187;    1,091;   -0,773
931,925; 9424,187;   -0,091;    0,136
932,480; 9323,278;   -2,818;   -2,591
933,035; 9206,823;    0,545;   -0,318
933,590; 8994,551;    0,364;   -1,773
934,145; 8641,005;   -1,364;   -0,318
934,700; 9033,641;    0,455;   -0,591
935,255; 8794,641;   -0,091;    0,045
935,809; 8060,096;    3,182;    0,864
936,364; 7234,369;   -0,455;   -0,136
936,919; 7228,278;    0,455;   -1,773
937,474; 7118,278;    1,455;    0,136
938,028; 6868,732;   -1,636;    1,136
938,583; 6350,551;    1,818;    4,682
939,138; 6649,460;    2,091;    2,136
939,692; 6106,732;    1,636;   -1,136
940,247; 5784,732;   -0,727;   -1,045
940,801; 5367,187;   -0,636;    0,227
941,355; 5280,187;   -0,364;    2,591
941,910; 4951,369;   -0,273;   -2,136
942,464; 5054,823;   -0,818;   -0,318
943,018; 4838,641;    1,000;   -0,227
943,572; 4796,641;    2,545;   -0,682
944,126; 4231,823;    0,091;   -0,409
944,681; 4101,096;    3,091;    0,227
945,235; 4074,641;    1,000;   -0,591
945,789; 4008,460;    0,364;   -1,864
946,342; 4128,096;    0,455;   -0,591
946,896; 3931,187;   -2,273;    0,955
947,450; 3684,005;    1,545;   -0,227
948,004; 3894,278;    1,727;   -0,045
948,558; 3895,823;    0,273;   -0,864
949,111; 3815,187;   -0,273;   -0,318
949,665; 3854,460;    1,636;   -0,682
950,219; 3746,732;   -0,091;   -1,045
950,772; 3821,641;   -1,909;    1,864
951,326; 3698,096;    0,545;   -0,955
951,879; 3815,641;    0,727;   -2,318
952,433; 3827,551;    0,000;    2,227
952,986; 3683,369;    2,909;    0,682
953,539; 3617,732;   -0,273;    0,591
954,093; 3564,005;    0,545;   -1,318
954,646; 3694,732;    0,909;    1,318
955,199; 3514,551;    0,000;   -0,500
955,752; 3397,551;   -0,455;    1,773
956,305; 3356,823;   -0,091;    2,955
956,858; 3514,005;    0,818;   -0,318
957,411; 3669,369;   -0,545;    2,136
957,964; 3522,823;    1,364;    2,136
958,517; 3523,096;   -1,545;    3,136
959,070; 3341,551;   -0,455;    1,955
959,623; 3418,551;    1,091;    1,500
960,176; 3205,460;    1,727;    2,045
960,728; 3176,914;   -2,727;    0,773
961,281; 3235,278;    0,545;    0,500
961,834; 3263,278;   -0,909;    0,864
962,386; 3210,914;    1,727;    1,045
962,939; 3133,914;    0,364;   -0,318
963,491; 3285,641;    0,455;    1,136
964,043; 3140,369;    1,182;    2,409
964,596; 3261,278;   -1,000;    2,227
965,148; 3095,914;   -1,000;    1,773
965,700; 3025,005;    1,091;   -0,227
966,253; 3174,369;   -0,636;    0,318
966,805; 3017,914;   -2,273;    0,773
967,357; 3064,005;    1,091;   -1,500
967,909; 3017,823;    0,455;   -1,227
968,461; 3148,005;    0,545;    3,136
969,013; 3076,914;   -0,182;   -0,864
969,565; 3150,460;   -0,455;   -1,136
970,117; 3203,096;   -0,364;    1,045
970,669; 3029,278;    0,182;   -0,136
971,220; 2905,732;   -0,455;   -1,500
971,772; 2841,005;   -0,636;   -0,318
972,324; 2965,096;    0,091;   -0,500
972,876; 2907,551;    0,818;   -0,045
973,427; 3043,914;    1,909;   -1,045
973,979; 3007,005;   -0,727;   -2,500
974,530; 3042,641;    1,818;    1,318
975,082; 3043,187;   -0,545;    1,682
975,633; 2942,187;    1,091;    1,682
976,184; 3084,823;    0,909;    0,773
976,736; 2893,369;    0,091;    0,227
977,287; 2700,914;   -0,909;   -0,500
977,838; 2868,914;    0,909;   -0,318
978,389; 2921,369;   -1,000;   -0,500
978,940; 2800,732;    0,545;   -0,409
979,491; 2821,187;    0,091;   -0,500
980,042; 2790,732;    0,182;    3,045
980,593; 2842,732;   -2,545;    0,227
981,144; 2905,460;    2,545;   -0,500
981,695; 2869,460;    1,455;    1,500
982,246; 2829,369;   -0,273;    1,045
982,797; 2980,278;   -1,727;    0,682
983,347; 3076,278;    0,364;    0,591
983,898; 3234,096;    3,091;    0,409
984,449; 3058,369;    2,182;    0,773
984,999; 2997,823;    1,455;   -1,136
985,550; 2792,732;    0,182;   -0,318
986,100; 2795,551;   -0,455;   -0,318
986,651; 2827,005;   -0,818;    0,045
987,201; 2806,187;   -1,000;   -0,591
987,751; 2884,551;    0,818;    2,864
988,302; 2875,369;    2,636;    1,500
988,852; 2903,278;    0,455;   -1,136
989,402; 2950,641;    0,091;    0,682
989,952; 2863,369;   -2,182;    0,864
990,502; 2960,732;   -0,091;    0,682
991,052; 2934,187;   -0,727;    0,045
991,602; 2803,641;   -2,909;    1,318
992,152; 2806,641;    0,455;    0,682
992,702; 2790,096;    1,364;   -0,045
993,252; 2717,005;   -3,000;   -0,500
993,802; 2796,187;   -0,273;    1,318
994,352; 3010,914;   -1,545;    1,136
994,901; 3105,551;   -0,182;    3,227
995,451; 3027,096;   -0,182;    0,318
996,000; 3099,823;    1,636;    0,318
996,550; 2828,551;    2,273;    0,227
997,100; 2828,005;    1,273;   -0,045
997,649; 3100,460;    2,182;    0,955
998,198; 2763,005;    1,727;   -1,500
998,748; 2950,460;    1,091;   -2,318
999,297; 2855,823;   -0,818;   -0,409
999,846; 2912,641;    1,000;   -0,773
1000,395; 2960,278;   -0,818;    0,500
1000,945; 2912,187;    1,818;   -0,773
1001,494; 3005,732;    2,364;    0,682
1002,043; 2992,005;    4,636;    0,864
1002,592; 2827,005;   -1,091;    1,955
1003,141; 2986,005;   -0,455;   -0,682
1003,690; 2858,278;    1,727;    0,500
1004,238; 2926,187;    1,455;   -0,045
1004,787; 2567,732;    1,364;    1,227
1005,336; 2795,823;    0,364;    0,682
1005,885; 2942,278;    1,364;   -2,773
1006,433; 3075,005;    0,545;    0,955
1006,982; 3126,187;    0,455;    1,682
1007,531; 3025,187;   -1,818;   -0,227
1008,079; 2993,187;   -2,273;    0,500
1008,627; 3138,187;   -1,455;    0,409
1009,176; 2882,369;    0,000;   -1,955
1009,724; 2932,369;    1,091;    0,864
1010,273; 2959,278;    1,273;    0,500
1010,821; 3089,551;    0,091;    1,409
1011,369; 2823,005;   -1,364;    1,318
1011,917; 2798,187;   -1,364;   -0,591
1012,465; 3094,732;    1,273;   -1,591
1013,013; 3200,460;    2,091;   -1,682
1013,561; 3080,551;    0,455;   -0,773
1014,109; 3127,641;   -1,909;    1,682
1014,657; 3002,823;    0,364;    0,591
1015,205; 3128,732;    1,636;   -0,955
1015,753; 3174,005;   -0,545;   -1,409
1016,301; 3220,096;   -2,636;    3,045
1016,848; 3202,823;   -1,273;    0,409
1017,396; 3228,278;    2,545;    0,045
1017,944; 3351,823;    1,182;    1,864
1018,491; 3128,732;    0,273;    1,409
1019,039; 3265,369;    0,455;    0,591
1019,586; 3209,551;   -1,364;    1,682
1020,134; 3300,914;    0,455;    1,500
1020,681; 3317,551;    0,182;   -1,136
1021,228; 3315,823;    2,909;   -2,227
1021,776; 3173,460;    1,182;   -1,136
1022,323; 3385,369;    0,455;    0,773
1022,870; 3308,914;   -1,000;   -0,045
1023,417; 3215,641;    2,636;    1,864
1023,964; 3359,551;    2,636;    1,227
1024,511; 3205,823;    1,000;    0,773
1025,058; 2990,823;    3,182;   -0,045
1025,605; 3051,005;   -2,273;    3,136
1026,152; 3260,732;    1,727;   -0,591
1026,699; 3004,278;    1,818;    1,318
1027,245; 3153,005;   -0,091;    0,318
1027,792; 3381,369;   -1,000;    1,409
1028,339; 3262,187;    2,364;   -0,045
1028,885; 3117,187;    1,000;   -0,227
1029,432; 3045,187;   -0,091;    0,227
1029,978; 3103,369;   -1,000;   -1,591
1030,525; 3040,460;    1,000;    0,409
1031,071; 3253,732;   -1,364;    1,136
1031,618; 3359,551;    0,364;    1,682
1032,164; 3162,187;   -0,091;    3,045
1032,710; 3201,914;    1,636;   -1,500
1033,256; 3119,278;   -0,636;   -0,136
1033,803; 3085,551;   -0,545;    1,500
1034,349; 2820,187;   -1,364;    0,136
1034,895; 2988,369;    0,000;   -0,318
1035,441; 2969,096;   -0,818;    0,318
1035,987; 2972,914;   -2,364;   -0,682
1036,533; 2968,732;   -1,455;   -0,955
1037,078; 3159,551;    1,455;    1,682
1037,624; 2996,460;    2,455;   -0,955
1038,170; 3026,641;    0,455;   -0,318
1038,716; 2921,187;    1,636;   -0,409
1039,261; 2836,187;   -2,273;   -0,773
1039,807; 2785,732;   -0,091;    3,409
1040,352; 2829,369;   -1,909;   -0,318
1040,898; 2865,187;   -1,545;   -0,682
1041,443; 2789,551;   -1,455;   -2,591
1041,989; 2815,278;    1,091;    1,591
1042,534; 2697,823;   -0,364;    2,591
1043,079; 2823,005;    2,909;    0,955
1043,625; 2622,460;    1,818;    0,500
1044,170; 2664,369;   -1,364;    1,045
1044,715; 2906,641;    2,455;    0,955
1045,260; 2731,641;    2,182;   -0,955
1045,805; 2804,823;    1,182;   -0,591
1046,350; 2713,551;    1,364;   -0,409
1046,895; 2666,187;    2,909;    1,591
1047,440; 2613,914;    5,364;    0,409
1047,985; 2520,005;    2,818;   -0,955
1048,530; 2454,914;    1,545;    1,227
1049,074; 2519,641;    0,000;    0,318
1049,619; 2484,278;   -1,364;    1,955
1050,164; 2299,732;    0,455;    0,227
1050,708; 2336,096;   -0,455;    0,045
1051,253; 2703,005;    1,273;   -2,227
1051,797; 2422,551;    0,818;   -1,318
1052,342; 2427,187;   -1,182;    1,045
1052,886; 2418,278;    0,364;   -1,409
1053,430; 2312,096;   -1,364;    0,136
1053,975; 2317,187;   -0,818;   -0,318
1054,519; 2298,823;   -0,727;    3,227
1055,063; 2325,460;    0,909;    1,318
1055,607; 2191,278;   -0,182;    0,227
1056,151; 2212,551;    2,909;    1,682
1056,695; 2143,187;    2,273;   -1,136
1057,239; 2207,732;   -1,727;   -0,682
1057,783; 2223,096;    0,818;   -1,500
1058,327; 2162,823;    0,000;    1,409
1058,871; 2385,369;   -0,545;    1,318
1059,415; 2091,369;   -0,818;   -0,045
1059,958; 2345,641;    1,455;    2,591
1060,502; 2075,551;   -1,000;   -0,773
1061,046; 2009,278;    0,364;   -0,955
1061,589; 1991,187;   -3,000;   -1,136
1062,133; 1869,551;   -1,273;    1,864
1062,676; 1788,551;    1,182;    0,864
1063,220; 1791,732;    1,091;    0,500
1063,763; 1813,096;    0,909;    1,136
1064,306; 1896,096;   -0,909;    1,864
1064,849; 1792,096;   -0,909;    0,591
1065,393; 1797,005;    2,000;   -1,500
1065,936; 1906,641;    0,182;   -0,409
1066,479; 1787,551;   -1,455;    1,318
1067,022; 1804,551;   -0,273;   -0,227
1067,565; 1705,823;   -0,091;   -1,318
1068,108; 1730,187;    0,727;   -0,591
1068,651; 1704,641;   -0,636;    1,409
1069,194; 1645,641;   -0,455;   -1,682
1069,736; 1619,278;   -1,273;    0,955
1070,279; 1618,369;   -1,364;   -0,500
1070,822; 1668,551;   -2,000;   -0,318
1071,364; 1751,823;   -0,364;    1,318
1071,907; 1572,278;   -0,727;    3,227
1072,450; 1482,005;    0,000;   -0,045
1072,992; 1469,278;   -0,273;    3,136
1073,535; 1625,732;    2,091;    2,136
1074,077; 1410,005;   -0,727;    2,045
1074,619; 1371,096;   -1,364;    0,591
1075,161; 1413,823;   -1,091;    1,500
1075,704; 1586,732;    1,545;    1,227
1076,246; 1396,823;   -0,182;    0,682
1076,788; 1327,005;   -0,364;    1,773
1077,330; 1392,096;    1,273;    2,136
1077,872; 1345,551;    0,909;    0,955
1078,414; 1580,641;    2,727;    0,773
1078,956; 1313,278;    1,273;   -0,227
1079,498; 1556,005;    1,636;    0,318
1080,040; 1277,187;    1,909;   -1,318
1080,581; 1221,187;    1,636;   -0,318
1081,123; 1146,005;    0,091;   -0,773
1081,665; 1196,096;   -1,182;   -0,955
1082,206; 1481,096;    1,364;   -0,500
1082,748; 1342,096;    0,727;    2,045
1083,289; 1224,551;   -2,000;    1,318
1083,831; 1138,369;   -0,545;    0,227
1084,372; 1163,551;    0,000;    0,591
1084,913; 1167,460;    1,091;    0,864
1085,455; 1133,187;   -1,909;   -2,045
1085,996; 1112,732;   -2,273;    0,136
1086,537; 1132,278;   -0,091;    0,864
1087,078; 1164,369;   -0,909;   -2,136
1087,619; 1204,005;   -1,273;    0,227
1088,160; 1124,460;    0,000;    1,318
1088,701; 1110,551;   -1,091;    0,682
1089,242; 1048,641;    1,364;   -2,227
1089,783; 1138,278;   -0,273;    1,409
1090,324; 1110,096;    0,455;    0,682
1090,865;  988,005;    2,727;   -0,409
1091,405;  973,823;    0,727;    2,227
1091,946;  993,278;    0,182;   -0,955
1092,487;  917,460;    0,818;   -1,409
1093,027; 1079,914;   -1,364;   -1,500
1093,568;  934,641;   -0,364;    1,227
1094,108; 1022,096;    0,273;    1,773
1094,649;  971,187;   -1,182;    0,136
1095,189;  909,823;   -0,636;   -0,682
1095,729;  855,914;   -0,091;    0,955
1096,269;  862,732;    0,727;   -0,955
1096,810; 1180,369;   -1,364;    0,500
1097,350; 1004,460;    1,364;   -0,773
1097,890;  909,369;    0,364;    1,227
1098,430; 1150,914;    2,364;    2,864
1098,970; 1025,096;    2,182;    1,682
1099,510;  890,005;    0,545;   -2,318
1100,050;  824,096;    1,000;   -1,591
1100,589;  794,823;   -0,727;   -0,318
1101,129;  904,551;    0,818;   -0,955
1101,669; 1053,187;    1,727;    2,136
1102,209;  882,551;   -0,091;    2,227
1102,748;  834,823;    0,000;    0,955
1103,288;  829,278;    1,273;   -1,227
1103,827;  856,369;    3,091;   -2,227
1104,367;  738,005;   -0,091;   -2,409
1104,906;  702,551;    1,364;   -1,136
1105,445;  771,460;    0,636;   -1,136
1105,985;  708,732;   -0,727;    1,500
1106,524;  760,460;   -1,727;   -0,682
1107,063;  729,732;   -2,727;    1,409
1107,602;  704,641;   -1,909;   -1,500
1108,141;  644,005;   -1,909;    1,500
1108,680;  739,823;   -3,455;   -0,591
1109,219;  662,096;   -0,909;   -0,500
1109,758;  676,823;    0,455;    0,682
1110,297;  648,369;    1,000;   -0,682
1110,836;  594,823;   -0,727;    0,955
1111,375;  756,369;   -2,545;    0,409
1111,913;  762,369;   -1,000;    0,773
1112,452;  706,641;   -0,273;    0,136
1112,991;  586,187;    1,091;    1,955
1113,529;  547,278;   -0,818;   -0,045
1114,068;  611,278;   -0,273;    2,955
1114,606;  520,187;   -0,364;   -0,955
1115,144;  683,551;   -1,273;    1,045
1115,683;  607,096;   -0,727;    0,318
1116,221;  665,187;   -0,455;   -0,864
1116,759;  574,187;    0,636;   -0,864
1117,297;  772,914;    0,000;    1,864
1117,836;  580,369;   -2,182;   -1,227
1118,374;  588,823;    0,182;   -0,682
1118,912;  530,823;    0,909;    2,682
1119,450;  519,005;    1,000;    0,864
1119,988;  564,369;    1,545;    2,136
1120,525; 1011,914;    5,091;    3,318
1121,063;  711,460;    1,182;    1,864
1121,601;  518,187;   -0,909;   -1,227
1122,139;  481,096;   -0,727;   -2,045
1122,676;  684,187;   -0,727;    2,773
1123,214;  611,369;   -1,182;    4,409
1123,751;  423,551;    1,727;    2,227
1124,289;  558,823;   -0,091;   -0,409
1124,826;  423,460;    1,727;    0,227
1125,364;  357,551;    1,727;   -0,955
1125,901;  534,641;    1,182;    1,227
1126,438;  644,460;    0,818;    0,955
1126,975;  380,914;   -0,727;   -0,773
1127,513;  437,914;    0,273;    2,136
1128,050;  345,732;    1,636;   -0,682
1128,587;  454,278;    2,000;   -0,227
1129,124;  482,005;    0,091;    1,318
1129,661;  352,551;    0,273;    0,227
1130,198;  529,641;    1,636;    0,773
1130,734;  472,551;    0,182;    1,409
1131,271;  330,641;   -0,909;    0,864
1131,808;  497,823;    2,909;    3,045
1132,345;  377,460;    1,545;    0,318
1132,881;  251,369;   -1,545;   -1,864
1133,418;  391,187;    0,727;   -1,136
1133,954;  319,005;    2,455;   -2,682
1134,491;  392,369;    1,364;   -0,773
1135,027;  297,641;    2,364;    0,864
1135,564;  384,278;    0,273;    2,955
1136,100;  367,096;    0,364;    2,136
1136,636;  264,641;   -1,273;   -1,045
1137,172;  353,823;    0,000;   -1,045
1137,708;  274,914;   -1,364;   -1,045
1138,245;  283,005;    1,273;   -1,227
1138,781;  232,460;    1,091;   -3,318
1139,317;  301,823;    1,273;   -1,409
1139,852;  280,187;    3,091;    0,136
1140,388;  398,823;   -1,182;   -0,409
1140,924;  285,369;   -1,091;   -2,227
1141,460;  228,914;   -1,636;    0,136
1141,996;  169,187;   -1,364;    2,682
1142,531;  203,732;    1,364;    3,318
1143,067;  424,914;    1,182;    1,045
1143,602;  476,914;   -0,091;   -0,318
1144,138;  317,187;   -2,636;    1,045
1144,673;  187,369;   -1,455;    1,409
1145,209;  262,460;   -1,909;   -0,318
1145,744;  176,732;   -0,727;    0,864
1146,279;  309,369;    1,818;   -0,136
1146,815;  220,096;    1,545;   -2,682
1147,350;  272,460;   -1,364;    0,045
1147,885;  186,732;   -0,818;   -1,318
1148,420;  186,369;   -2,273;    0,773
1148,955;  160,369;   -1,727;    1,864
1149,490;  178,096;   -0,909;   -1,591
1150,025;  169,278;    0,455;   -1,773
1150,560;  287,005;    1,091;   -0,955
1151,094;  248,732;    1,455;   -0,591
1151,629;  262,187;    1,636;    0,864
1152,164;  191,005;    1,364;    1,318
1152,698;  140,914;   -0,182;   -0,136
1153,233;  106,551;    0,091;   -0,682
1153,767;  149,096;   -3,000;   -2,318
1154,302;  204,641;   -1,455;    1,773
1154,836;  190,914;   -0,455;   -2,136
1155,371;  246,732;   -1,364;    3,682
1155,905;  200,823;   -0,636;    1,682
1156,439;  164,551;   -0,636;   -0,500
1156,973;  193,005;    0,364;    0,318
1157,507;  139,369;   -0,364;    0,682
1158,042;  165,823;   -0,727;    1,045
1158,576;  214,641;    0,182;    1,773
1159,110;  201,551;   -0,818;    2,409
1159,643;  170,369;    0,636;   -0,045
1160,177;  108,551;   -1,545;    1,500

