
Integration time [ms]:   0,040
Averaging Nr. [scans]: 11
Smoothing Nr. [pixels]: 0
Data measured with spectrometer [name]: 7318044SP
Wave   ;Sample   ;Dark     ;Reference
[nm]   ;[counts] ;[counts] ;[counts] 

186,757;   32,148;   31,551;    1,318
187,357;   58,703;   22,551;    0,955
187,958;   35,312;   15,460;   -1,591
188,558;   78,419;    8,915;   -1,227
189,159;   49,251;    6,733;   -4,500
189,759;   16,219;    7,278;   -3,591
190,360;   10,973;    2,824;   -2,136
190,960;   46,392;    2,915;   -4,136
191,560;   60,709;    3,189;   -6,591
192,161;  297,487;    4,372;   -3,500
192,761;  134,789;    4,010;   -3,227
193,361;   87,714;    1,556;   -3,773
193,962;  144,195;    2,010;   -2,682
194,562;   66,156;    1,189;   -3,955
195,162;   99,347;   -2,448;   -2,227
195,762;  260,333;   -3,176;   -0,045
196,362;  214,070;    1,370;   -2,500
196,963;   81,569;    2,006;   -0,864
197,563;  145,602;    1,551;   -0,955
198,163;   96,115;    0,096;   -0,682
198,763;  119,041;    1,733;   -0,500
199,363;  220,286;    3,096;   -0,500
199,963;  171,038;    0,369;    0,409
200,563;  150,624;    2,823;   -1,409
201,163;  129,213;    3,277;   -0,227
201,763;  229,755;    3,732;    0,318
202,363;  156,368;    1,459;    1,500
202,963;  258,259;    1,459;    1,045
203,563;  372,190;    0,277;    0,500
204,162;  221,557;    2,096;   -1,864
204,762;  205,864;    0,550;    0,591
205,362;  184,729;    3,004;    1,955
205,962;  285,667;    3,096;    1,955
206,562;  282,934;    1,823;    2,318
207,161;  247,569;   -0,087;    0,318
207,761;  400,874;    1,277;    2,409
208,361;  287,832;   -0,268;    1,409
208,960;  384,628;    0,459;    1,500
209,560;  446,594;    1,277;    1,591
210,160;  430,855;    0,550;    1,864
210,759;  396,151;    4,186;    1,227
211,359;  407,969;    1,459;    1,045
211,958;  671,039;    1,277;    2,045
212,558;  741,944;    1,732;    1,864
213,157;  588,045;    1,822;    1,500
213,757; 1021,974;    3,822;   -0,227
214,356;  719,901;    1,277;   -0,409
214,956; 1054,120;    3,095;    0,409
215,555;  690,251;    2,095;    2,136
216,154;  625,918;   -2,723;   -0,591
216,754;  632,007;    0,277;    0,773
217,353;  760,960;   -0,268;   -1,045
217,952;  625,055;   -0,178;    0,318
218,552;  858,510;    1,368;   -0,773
219,151;  755,096;    0,277;    0,955
219,750;  750,445;    0,004;   -0,227
220,349;  869,484;   -0,451;    1,045
220,948;  945,586;   -1,360;    1,136
221,548;  958,142;    0,913;    1,227
222,147; 1054,714;   -0,087;   -0,409
222,746; 1351,583;   -0,451;   -0,955
223,345; 1219,496;    0,731;    0,500
223,944; 1230,178;   -0,451;    0,773
224,543; 1392,440;    1,004;   -1,409
225,142; 1509,027;    0,094;    0,136
225,741; 1401,335;   -0,814;    1,045
226,340; 1423,551;   -0,451;   -0,955
226,939; 1883,076;   -0,996;   -0,136
227,538; 1821,181;   -0,360;   -0,773
228,137; 1955,857;   -0,814;    0,864
228,735; 2096,675;   -0,541;    1,227
229,334; 1854,673;   -0,905;   -0,227
229,933; 2207,190;    0,459;    0,591
230,532; 2302,544;    1,186;   -0,409
231,131; 2366,387;    1,732;    0,318
231,729; 2479,095;   -2,450;   -2,318
232,328; 2583,153;   -0,723;   -1,500
232,927; 2641,261;    1,004;   -0,500
233,525; 2755,324;    3,640;    0,045
234,124; 2959,514;    2,368;   -1,591
234,723; 2989,520;    0,913;   -1,045
235,321; 3116,502;    2,277;    0,136
235,920; 3308,187;    1,186;   -1,227
236,518; 3559,442;    3,459;    0,318
237,117; 3720,476;    0,004;   -0,227
237,715; 3879,098;    0,640;   -0,500
238,314; 3923,638;   -0,087;   -2,318
238,912; 4029,305;   -0,723;   -1,409
239,510; 4091,938;    0,459;   -1,227
240,109; 4260,194;    0,004;    3,773
240,707; 4282,531;   -0,996;    1,227
241,305; 4626,931;    0,550;    0,136
241,904; 4833,022;   -0,178;   -2,045
242,502; 4779,751;   -0,632;   -0,227
243,100; 4767,460;   -0,087;   -0,955
243,698; 4990,173;    0,732;    1,682
244,297; 5163,583;   -0,632;    0,682
244,895; 5024,137;   -0,269;   -2,318
245,493; 5353,660;    2,186;   -0,591
246,091; 5388,990;    1,368;   -1,318
246,689; 5363,625;    1,004;    0,591
247,287; 5526,594;    0,822;   -1,136
247,885; 5827,337;   -1,451;    1,227
248,483; 5943,017;    1,822;   -0,500
249,081; 6046,594;    0,185;    1,591
249,679; 6185,258;   -0,178;    1,682
250,277; 6435,695;   -1,723;    0,864
250,875; 6442,279;   -1,087;   -1,045
251,473; 6462,325;   -1,178;    0,500
252,071; 6658,744;    1,459;    1,045
252,669; 6812,996;   -1,814;    0,318
253,267; 7058,659;   -0,087;    0,773
253,864; 7011,139;   -0,360;    0,682
254,462; 6907,062;    1,640;    1,591
255,060; 6881,603;   -0,269;    1,318
255,658; 7185,087;    0,822;   -0,136
256,255; 7603,411;    0,186;   -2,045
256,853; 7468,519;   -0,269;    1,409
257,451; 7436,386;    0,822;    1,864
258,048; 7719,927;    1,822;    1,864
258,646; 7499,061;    1,731;   -1,045
259,243; 7666,882;   -0,087;    2,227
259,841; 7754,239;   -0,814;    0,318
260,438; 7639,216;   -0,087;    0,864
261,036; 8328,705;   -1,905;    1,409
261,633; 8219,816;   -0,087;    2,227
262,231; 8011,024;    2,731;   -0,045
262,828; 8097,791;   -0,905;    1,136
263,425; 8141,471;    0,913;   -0,591
264,023; 8362,331;    0,186;    0,045
264,620; 7938,060;   -0,360;   -0,318
265,217; 8297,179;   -2,087;    3,136
265,815; 8407,774;   -1,905;    2,136
266,412; 8204,817;    0,731;    0,136
267,009; 8222,930;   -1,451;    0,773
267,606; 8120,425;    0,822;   -0,955
268,203; 8099,739;   -0,269;   -0,591
268,801; 8374,844;    1,731;    0,591
269,398; 8664,097;   -0,360;    2,500
269,995; 8666,972;    0,277;    1,591
270,592; 8451,794;   -0,632;   -0,500
271,189; 8642,491;    0,186;    0,409
271,786; 8753,775;   -0,632;    1,227
272,383; 8599,525;   -1,087;    0,227
272,980; 8797,447;    0,277;    0,318
273,577; 9229,967;    0,004;    1,227
274,174; 8814,455;    0,822;    2,591
274,771; 8801,905;   -0,814;   -0,773
275,367; 8944,057;    2,277;    1,409
275,964; 8888,309;    0,731;   -0,500
276,561; 8982,998;    1,549;   -1,045
277,158; 9194,622;    0,095;   -1,773
277,755; 9320,594;    2,185;    0,409
278,351; 8733,969;   -0,451;   -1,500
278,948; 9066,836;   -0,815;    0,045
279,545; 9082,675;   -1,360;    2,318
280,141; 9683,746;   -1,723;   -2,045
280,738; 9541,722;   -0,451;   -0,136
281,334; 9776,825;   -1,633;    0,591
281,931; 9171,093;   -0,087;   -1,318
282,528; 9269,665;    0,822;   -0,500
283,124; 9937,426;   -1,087;   -0,500
283,721; 9889,999;   -0,451;    1,409
284,317; 9710,609;    0,185;    2,500
284,913;10219,697;   -1,360;    0,591
285,510;10428,788;    0,640;   -0,318
286,106;10450,202;   -2,269;   -0,955
286,703;10064,621;   -0,360;    1,955
287,299;10272,784;   -1,451;   -0,591
287,895;10487,545;    0,822;   -1,045
288,491;11047,915;    0,186;    2,136
289,088;10763,256;   -2,360;    2,409
289,684;10821,542;   -1,723;    1,500
290,280;10840,016;    0,368;    0,682
290,876;10906,392;    1,822;    5,500
291,472;10829,652;    1,276;    2,227
292,068;10935,658;    1,367;    0,227
292,665;10709,603;    2,095;    0,773
293,261;10310,493;    0,276;    2,136
293,857;10664,833;    2,913;    2,136
294,453;10641,644;    3,550;    0,955
295,049;10508,207;   -0,268;    1,955
295,644;10524,380;    0,095;    0,136
296,240;10446,700;   -0,905;   -0,136
296,836;10521,774;   -0,995;    0,318
297,432;10797,608;    1,096;   -0,500
298,028;10818,215;    0,732;    0,773
298,624;11196,685;    1,459;    1,864
299,220;11447,284;    2,368;    0,591
299,815;11136,263;    1,005;   -0,409
300,411;10944,207;    0,914;    1,773
301,007;10940,212;    1,368;    0,227
301,602;11012,563;   -0,541;   -2,318
302,198;11174,932;    0,732;   -0,773
302,794;11506,705;    1,187;   -0,500
303,389;11605,708;   -1,177;    1,045
303,985;11655,134;    0,550;    1,409
304,580;11608,614;    1,459;    1,591
305,176;11620,267;   -3,086;    0,136
305,771;11535,851;   -1,268;   -1,227
306,367;11360,553;    4,095;    0,136
306,962;11682,199;    0,641;    1,500
307,558;11436,683;   -0,450;    0,136
308,153;11346,450;    1,095;   -1,136
308,748;11613,233;   -0,814;    1,682
309,344;11567,674;   -0,632;   -1,318
309,939;11643,243;   -1,905;   -1,318
310,534;11956,004;   -0,086;   -1,682
311,130;11857,295;    0,459;   -2,500
311,725;11600,119;    1,004;   -0,500
312,320;11942,261;    2,459;    0,045
312,915;11756,369;    1,459;   -1,045
313,510;11792,605;    1,550;   -0,500
314,105;12307,670;    1,096;    1,409
314,700;11736,676;   -3,086;   -1,045
315,295;11380,705;   -0,904;    0,045
315,890;10968,198;    1,277;    0,864
316,485;11326,848;   -0,359;   -0,318
317,080;11430,019;   -3,086;    1,591
317,675;11965,989;    2,005;   -0,682
318,270;11375,481;    5,550;    3,318
318,865;11385,117;    3,278;    3,045
319,460;11242,623;   -0,904;    0,591
320,055;11478,443;   -0,541;   -1,227
320,650;11134,863;   -1,995;   -0,591
321,244;11216,537;   -0,177;   -1,409
321,839;12104,042;   -1,541;   -0,227
322,434;11996,534;   -1,086;   -1,591
323,029;11636,879;    1,732;    1,591
323,623;11463,597;    1,550;    0,773
324,218;11273,146;    2,368;    1,409
324,812;11117,524;    1,096;    1,591
325,407;10916,623;   -0,814;    2,045
326,002;10779,140;    0,277;   -0,409
326,596;11126,219;    0,914;    1,318
327,191;11319,590;    0,823;   -1,045
327,785;10930,129;   -0,813;   -0,227
328,379;11141,348;    1,368;    0,136
328,974;10921,470;    0,914;   -3,955
329,568;11160,919;    0,186;   -2,409
330,163;10969,639;    2,096;    1,045
330,757;11343,184;    2,459;    1,591
331,351;10708,024;    0,459;    0,682
331,945;10985,523;    0,914;    1,409
332,540;10575,752;   -1,723;   -0,591
333,134;10709,609;   -1,086;    0,773
333,728;10970,721;    0,005;    0,318
334,322;11346,377;   -1,177;   -0,864
334,916;10589,769;    0,277;    0,955
335,510;10917,871;   -0,450;   -0,136
336,105;11204,045;   -1,086;    1,591
336,699;10927,936;   -1,086;    0,591
337,293;10862,737;   -1,723;    0,318
337,887;11023,110;   -2,723;    1,955
338,481;11092,600;    0,459;    0,591
339,074;11246,223;   -0,359;    2,682
339,668;11107,643;   -1,632;    1,227
340,262;11332,459;    1,732;    3,227
340,856;10865,292;    1,822;   -0,682
341,450;10253,087;    1,004;    1,864
342,044;11126,646;    1,459;    0,136
342,637;10911,103;    0,913;   -2,136
343,231;10767,992;   -2,360;    0,682
343,825;10738,299;   -1,086;   -0,591
344,419;10710,800;   -1,995;    0,500
345,012;10466,551;    2,459;    4,045
345,606;10482,607;    4,641;    1,591
346,199;10309,990;   -1,813;   -0,227
346,793; 9878,229;    1,914;    2,045
347,386;10061,038;   -0,813;   -1,136
347,980;10078,432;   -0,268;   -0,045
348,573; 9872,388;    2,278;    0,409
349,167; 9547,071;    5,278;    4,773
349,760; 9886,467;    2,914;    2,682
350,354; 9853,551;   -0,813;    1,136
350,947; 9627,780;    1,096;    1,682
351,540; 9295,809;   -0,358;   -1,409
352,134; 9256,679;    1,096;    1,136
352,727; 9323,882;   -0,086;    1,136
353,320; 9136,986;    0,005;    0,591
353,913; 8994,476;   -1,995;    1,864
354,507; 9135,753;    0,823;   -1,227
355,100; 9187,021;    0,460;    0,864
355,693; 8402,082;    2,005;    2,409
356,286; 8466,315;    0,823;    2,773
356,879; 8823,377;   -0,722;    1,227
357,472; 8451,774;   -0,904;    1,500
358,065; 8611,731;   -0,722;    2,500
358,658; 8546,286;   -0,540;    2,318
359,251; 8207,923;   -1,631;   -0,591
359,844; 7715,637;   -1,904;   -1,136
360,437; 7870,901;   -2,995;    0,045
361,030; 8155,529;    1,369;   -0,682
361,623; 7768,902;    2,824;    0,318
362,215; 7777,850;   -0,086;    2,045
362,808; 7614,218;   -2,358;   -1,682
363,401; 7827,229;   -2,449;    0,136
363,994; 7573,828;   -0,631;   -1,500
364,586; 7505,290;    0,824;   -1,500
365,179; 7717,670;   -0,449;   -1,136
365,772; 7210,420;   -1,995;    2,045
366,364; 7483,345;    1,915;   -3,227
366,957; 7673,035;    2,279;   -0,045
367,549; 7693,420;    2,188;   -0,864
368,142; 7333,946;    1,825;   -1,500
368,734; 7524,664;    0,734;   -2,136
369,327; 7497,922;    1,643;   -0,500
369,919; 7415,865;   -1,538;    0,409
370,512; 7237,767;   -1,083;   -0,500
371,104; 6993,305;   -0,901;    1,591
371,696; 7153,891;    1,191;   -0,955
372,289; 7242,992;    0,373;    1,136
372,881; 7380,781;   -2,080;    1,318
373,473; 7305,435;   -2,170;    1,136
374,066; 7104,934;   -0,169;    0,500
374,658; 6959,844;    0,378;    1,136
375,250; 7336,491;    0,653;   -1,409
375,842; 7185,751;    0,473;   -0,045
376,434; 7047,476;   -0,435;   -0,409
377,026; 7586,720;    0,204;   -2,500
377,618; 7480,458;   -0,158;   -0,682
378,210; 7361,309;   -0,338;   -1,955
378,802; 7214,608;    0,754;   -0,591
379,394; 7167,262;    1,846;    0,682
379,986; 7742,336;    1,393;   -0,955
380,578; 7817,646;   -0,153;    0,773
381,170; 7180,845;   -0,972;    0,045
381,762; 7130,401;    0,755;    1,409
382,354; 7327,000;   -0,065;   -1,318
382,945; 7444,540;   -2,976;    0,318
383,537; 7603,612;   -2,705;   -1,955
384,129; 7617,103;   -2,160;   -1,136
384,721; 7760,573;   -0,252;    0,955
385,312; 7687,998;   -0,161;   -0,955
385,904; 7815,580;   -2,706;    1,591
386,496; 7190,280;   -0,979;    1,045
387,087; 7314,959;    1,022;    2,500
387,679; 7348,482;   -1,160;    0,045
388,270; 7507,736;    2,840;    2,045
388,862; 7621,870;    1,295;   -0,318
389,453; 7478,226;   -0,887;    1,045
390,045; 7738,650;   -0,705;   -2,682
390,636; 7674,689;    0,204;   -0,591
391,227; 7548,807;   -0,523;   -0,045
391,819; 7658,820;    0,204;    0,773
392,410; 7707,627;    1,022;    0,045
393,001; 7645,532;   -0,979;   -1,591
393,593; 7938,574;    1,930;   -0,045
394,184; 7797,261;    1,385;   -0,409
394,775; 7680,383;    1,839;    2,136
395,366; 7865,142;    1,385;    0,773
395,957; 7885,386;    0,113;    0,136
396,548; 8185,861;   -0,342;    2,682
397,139; 8474,921;   -2,433;    0,591
397,730; 8227,655;   -1,888;    0,955
398,321; 8298,038;   -1,252;    0,955
398,912; 8296,802;   -0,615;    0,136
399,503; 8409,831;   -3,524;   -1,409
400,094; 7868,874;    0,294;    1,682
400,685; 7726,338;   -0,433;    0,045
401,276; 7782,968;    0,930;   -0,955
401,867; 8089,347;   -0,888;    0,773
402,458; 8171,118;   -2,251;   -2,318
403,048; 8162,625;    1,112;    0,591
403,639; 7774,782;    0,840;    0,864
404,230; 8032,203;    2,476;    0,318
404,821; 7960,286;   -0,615;    0,045
405,411; 8051,785;    1,203;   -2,591
406,002; 7659,930;   -1,252;   -1,136
406,592; 7524,677;    2,294;    0,045
407,183; 7856,188;    0,566;   -1,500
407,774; 7781,056;    3,475;   -0,136
408,364; 8070,655;    0,930;    0,409
408,954; 7694,906;    0,384;    1,227
409,545; 7760,994;    1,021;    1,045
410,135; 7288,653;    1,293;    0,500
410,726; 7447,632;    1,838;    0,318
411,316; 7809,391;    0,111;    0,773
411,906; 7490,803;   -0,253;   -0,409
412,497; 7003,259;   -1,070;   -0,045
413,087; 7584,776;   -1,980;   -0,227
413,677; 7968,117;   -0,707;    3,864
414,267; 7828,811;    0,656;    1,409
414,857; 7810,543;   -2,980;    4,227
415,448; 8089,629;    0,839;    0,500
416,038; 7788,754;    0,020;   -0,591
416,628; 7753,206;   -0,889;    0,409
417,218; 7225,277;    0,565;    3,318
417,808; 7486,646;    0,202;   -0,409
418,398; 7932,586;    0,020;    2,682
418,988; 7930,559;    2,020;    0,591
419,578; 8160,637;   -0,707;    1,409
420,168; 8493,986;   -1,343;   -0,955
420,757; 8079,932;   -1,343;   -1,500
421,347; 7767,213;    0,111;   -0,227
421,937; 7929,605;    2,292;    1,409
422,527; 7881,252;    0,838;   -0,773
423,116; 7679,525;   -0,253;   -0,045
423,706; 8039,323;   -1,889;    0,318
424,296; 8032,321;    1,384;    0,682
424,885; 8392,958;   -0,071;   -3,045
425,475; 8681,515;    1,474;   -2,864
426,065; 8615,089;   -0,980;   -0,318
426,654; 8226,274;   -0,435;   -0,318
427,244; 8325,458;    0,020;    1,409
427,833; 7807,543;    1,383;   -0,500
428,423; 8262,416;   -0,526;    1,136
429,012; 8980,983;   -0,344;   -1,136
429,601; 8473,388;   -1,344;    0,136
430,191; 8723,580;    1,292;    4,318
430,780; 8358,842;   -0,344;   -0,409
431,369; 8303,389;    0,746;   -0,045
431,959; 8905,606;   -1,254;    0,500
432,548; 8689,002;   -1,163;   -0,045
433,137; 8802,557;   -1,254;   -1,318
433,726; 9285,095;    0,292;    0,500
434,315; 8691,617;   -0,526;    2,409
434,905; 8783,862;   -1,254;    1,409
435,494; 8703,785;    0,746;    0,955
436,083; 9140,342;   -0,981;   -0,955
436,672; 9040,533;    0,110;    0,500
437,261; 8580,520;    0,292;   -1,955
437,850; 8681,118;    1,383;    0,682
438,439; 8669,753;    3,291;    1,955
439,027; 8482,123;    3,655;    1,773
439,616; 8804,805;    2,927;    1,227
440,205; 8672,033;    0,200;   -2,136
440,794; 8732,446;    2,109;   -0,045
441,383; 8979,253;   -1,346;   -0,591
441,971; 8845,250;   -2,436;    0,591
442,560; 8705,936;    0,563;   -1,773
443,149; 8439,644;    0,379;   -1,318
443,737; 8592,663;   -0,074;   -2,318
444,326; 8846,938;    0,018;    0,318
444,915; 8872,238;   -1,982;    0,864
445,503; 9211,502;   -2,891;   -0,318
446,092; 8516,417;    0,382;    2,136
446,680; 9045,429;    0,382;    0,318
447,269; 9179,951;   -0,346;   -0,318
447,857; 8989,149;    0,018;   -1,773
448,445; 9100,548;    0,563;    1,318
449,034; 9317,574;   -1,528;   -1,136
449,622; 9406,666;   -1,073;    3,500
450,210; 8659,700;    2,017;    2,227
450,799; 9165,069;    0,290;   -0,591
451,387; 9120,288;    1,381;   -0,591
451,975; 8801,552;    2,654;    0,864
452,563; 8849,325;    3,472;    2,318
453,151; 8902,257;   -0,528;   -1,227
453,739; 8817,623;   -1,347;    0,136
454,328; 8679,945;    2,381;   -2,136
454,916; 8408,807;    2,562;   -0,136
455,504; 8613,644;    1,017;    1,227
456,092; 8767,482;    0,017;   -1,591
456,679; 8722,909;    1,472;    0,682
457,267; 8644,015;    4,017;    1,045
457,855; 8799,631;    1,017;    1,409
458,443; 8548,740;   -0,165;    1,682
459,031; 8680,001;    0,108;    2,409
459,619; 9119,142;   -1,801;    2,864
460,206; 9254,362;    0,835;    2,045
460,794; 9313,403;   -2,983;   -0,227
461,382; 9529,276;   -0,529;   -0,864
461,970; 9127,397;    1,198;    1,864
462,557; 9175,335;   -0,711;   -0,682
463,145; 9347,114;   -3,165;   -1,682
463,732; 9485,593;    2,016;   -1,045
464,320; 9435,098;   -0,075;   -3,045
464,907; 9106,333;    2,743;   -0,773
465,495; 8973,431;    0,743;   -1,227
466,082; 9102,762;   -1,984;   -0,045
466,670; 9016,402;   -2,529;    1,227
467,257; 9446,955;   -1,711;    2,045
467,844; 9573,629;   -0,075;    0,045
468,432; 9579,936;    0,834;    3,500
469,019; 9140,836;    0,925;   -1,773
469,606; 9571,702;    0,470;    3,682
470,193; 9390,791;   -1,439;    0,227
470,780; 8971,919;   -2,075;    0,864
471,368; 9318,509;   -1,257;   -0,773
471,955; 9125,775;    1,379;   -0,682
472,542; 8758,644;    0,652;   -1,136
473,129; 8991,386;   -0,166;    0,136
473,716; 8697,895;    1,470;    0,591
474,303; 8880,806;    0,652;   -0,864
474,890; 9155,692;   -1,439;   -0,500
475,477; 9168,853;   -1,621;    0,409
476,064; 9077,512;    1,106;   -1,591
476,650; 9010,855;    0,288;    0,318
477,237; 8846,765;   -0,258;    0,955
477,824; 8972,345;   -1,076;    0,864
478,411; 8994,706;   -1,894;   -0,318
478,997; 9120,088;    0,560;   -0,773
479,584; 9189,990;    1,196;   -0,409
480,171; 9842,162;   -0,440;   -0,773
480,757; 9517,305;    2,651;    0,773
481,344; 9760,497;    0,469;    0,409
481,931; 9290,530;    1,105;    1,045
482,517;10200,504;   -1,258;    0,318
483,104;10658,050;    1,106;    2,864
483,690;10916,962;   -1,804;    0,045
484,276;11283,919;   -0,895;    0,227
484,863;11010,636;    2,469;    1,136
485,449;11575,751;   -0,077;    0,318
486,035;11536,512;   -1,986;   -0,136
486,622;11983,587;   -0,895;    0,045
487,208;11910,476;    1,378;    1,500
487,794;11773,067;    0,741;    0,318
488,380;11899,983;    0,105;   -1,409
488,967;11935,832;   -1,168;   -0,409
489,553;11988,031;   -1,895;   -1,409
490,139;12169,275;    1,559;    0,773
490,725;11697,461;    0,741;   -0,227
491,311;11321,063;    3,287;    3,045
491,897;10721,520;   -0,986;    1,500
492,483;10619,193;    0,105;    1,227
493,069;10429,583;    3,923;    0,864
493,655;10410,629;    1,650;    0,682
494,241;10306,049;    1,377;   -0,955
494,826;10691,031;    0,287;   -1,045
495,412;10210,243;    2,559;   -0,682
495,998;10393,920;   -0,805;   -0,318
496,584;10545,485;    0,377;    1,045
497,169;10547,918;    1,014;   -0,682
497,755;10574,916;    0,650;    1,227
498,341;11137,735;    0,559;    0,318
498,926;10709,445;    1,832;    1,955
499,512;10910,356;    1,286;    2,955
500,097;11065,147;    0,195;   -0,318
500,683;11055,774;   -0,350;    2,136
501,268;11439,988;   -0,169;   -0,955
501,854;11218,967;   -0,169;    1,227
502,439;11206,717;   -0,624;   -1,773
503,024;11415,125;    0,195;    0,500
503,610;11473,971;   -0,078;   -0,682
504,195;11514,738;    0,558;    1,955
504,780;11668,900;    2,922;    1,227
505,366;11544,714;    3,013;    2,864
505,951;11300,978;    0,740;    1,045
506,536;11359,004;   -3,260;   -3,682
507,121;11377,389;    0,285;   -0,318
507,706;11966,391;    2,376;    1,045
508,291;12372,161;    2,649;    1,136
508,876;11835,781;   -0,988;    2,591
509,461;11287,582;   -0,169;   -0,773
510,046;11756,519;    0,194;    0,318
510,631;11998,687;   -0,351;   -0,773
511,216;11699,486;    2,467;   -0,500
511,801;12104,158;   -0,442;    2,591
512,386;12394,845;    0,740;    0,500
512,971;12357,321;   -2,988;    0,955
513,555;11932,003;   -0,897;   -1,500
514,140;12743,221;   -0,442;   -3,136
514,725;12786,034;   -0,715;   -1,136
515,309;12919,665;   -0,533;    0,318
515,894;12375,634;   -0,624;   -2,227
516,479;12828,006;   -0,624;   -0,955
517,063;12682,089;    0,376;    1,227
517,648;12829,274;    1,012;   -1,136
518,232;12472,344;   -0,261;   -1,409
518,817;12807,133;   -0,079;    1,682
519,401;12995,734;    2,194;    0,591
519,985;12545,455;    1,103;    1,136
520,570;12447,318;    0,830;   -1,955
521,154;12726,935;    2,102;    0,591
521,738;12881,502;   -2,352;    2,409
522,323;13479,203;   -0,170;    1,682
522,907;13227,288;    0,466;   -0,136
523,491;12957,290;    0,557;    0,955
524,075;12913,079;    2,284;    0,591
524,659;13013,733;    1,466;    0,591
525,243;12501,585;    1,739;    0,409
525,827;12776,322;    0,648;   -0,045
526,411;13595,187;   -1,989;   -0,136
526,995;13796,619;   -0,352;    1,409
527,579;13424,921;   -0,443;   -1,045
528,163;13719,328;    0,375;   -1,500
528,747;13648,688;    2,466;   -0,773
529,331;13915,896;   -0,080;   -1,409
529,915;14134,633;    1,738;    0,955
530,499;14113,148;   -0,807;    1,227
531,082;13811,738;   -0,534;    1,591
531,666;13246,743;    1,374;    0,773
532,250;13900,022;    1,284;    2,682
532,833;14269,345;    0,920;    2,773
533,417;14145,922;   -1,807;    0,864
534,001;14113,331;    1,647;   -0,318
534,584;14762,379;    0,374;    0,500
535,168;14614,195;    0,465;    1,409
535,751;14660,047;    0,647;    0,045
536,334;14111,599;   -0,898;   -0,409
536,918;14696,991;    0,011;    1,591
537,501;14816,730;   -0,899;    1,318
538,085;14778,099;   -0,444;    1,045
538,668;14959,615;    0,829;    2,409
539,251;15240,859;    1,829;    3,773
539,834;15245,856;    0,101;    0,773
540,418;15181,181;   -1,990;    4,318
541,001;15303,235;   -0,990;    1,773
541,584;15312,515;    2,101;    2,227
542,167;15023,760;    1,374;    2,955
542,750;15151,435;    1,919;   -0,773
543,333;14728,521;    0,555;    2,136
543,916;15545,352;    0,192;    2,500
544,499;16098,875;   -1,354;    0,227
545,082;16133,574;    1,374;    3,591
545,665;16290,144;    1,919;    1,500
546,248;16624,976;    1,010;   -0,318
546,830;16276,305;   -0,445;    1,955
547,413;16673,656;    1,010;   -0,773
547,996;17182,727;    0,555;    0,500
548,579;16946,164;    0,919;    0,955
549,161;16768,045;    1,828;    2,682
549,744;16588,028;   -0,809;    0,409
550,326;17064,393;   -0,809;   -1,136
550,909;16851,010;    2,737;    0,591
551,492;17256,025;   -0,263;    0,227
552,074;17024,683;   -0,173;   -1,318
552,657;17532,017;    2,373;    0,045
553,239;17326,294;   -0,173;   -0,773
553,821;17289,005;   -1,082;    1,045
554,404;16767,440;    1,282;    1,136
554,986;17166,995;    0,464;    1,045
555,568;17737,999;    1,191;   -0,955
556,151;16925,697;    1,191;   -0,227
556,733;17172,628;   -0,264;   -0,864
557,315;17604,744;    0,100;    0,500
557,897;17426,346;    0,554;   -0,500
558,479;17517,379;   -1,991;    1,318
559,061;17678,584;   -0,719;   -0,864
559,643;17991,724;   -0,264;    0,045
560,225;18355,607;    1,645;    2,864
560,807;18368,906;    0,918;    0,318
561,389;17898,971;    0,554;    2,318
561,971;18586,092;    0,463;    2,136
562,553;18413,252;   -1,628;    1,591
563,135;18570,371;   -0,537;    1,136
563,717;18135,885;    3,372;    1,136
564,298;18856,560;    3,645;   -0,045
564,880;18555,654;    0,645;   -1,409
565,462;18731,200;    0,645;    1,318
566,043;19851,022;   -0,446;    2,318
566,625;19360,931;    1,918;    1,227
567,207;19226,581;    1,099;    1,682
567,788;20324,585;   -1,264;    1,500
568,370;21107,574;    1,917;   -0,500
568,951;20957,742;    0,190;    0,227
569,533;21813,767;   -0,628;   -0,500
570,114;22254,878;   -0,446;    0,682
570,695;22683,454;   -0,174;   -1,318
571,277;23158,919;   -0,265;   -1,682
571,858;23870,759;    2,008;   -1,136
572,439;24740,809;    1,554;   -1,045
573,021;24910,791;    2,099;   -2,773
573,602;25359,690;   -1,265;    0,318
574,183;26218,306;   -2,083;    2,227
574,764;26388,727;   -1,629;    0,409
575,345;26856,736;    0,917;   -0,136
575,926;27491,535;   -0,356;    0,136
576,507;27500,416;    1,099;   -0,227
577,088;28521,840;    3,099;    1,682
577,669;28513,097;    0,735;    1,955
578,250;29266,306;    0,644;   -1,045
578,831;29913,666;   -1,356;   -2,227
579,412;30116,978;   -0,810;    0,955
579,993;31066,040;    1,008;    0,227
580,573;31437,435;   -0,629;   -0,955
581,154;30385,129;    0,735;   -0,591
581,735;31241,157;    0,644;    0,773
582,315;30697,521;   -0,629;    2,136
582,896;31032,727;   -0,174;    1,227
583,477;30545,019;    0,189;    1,227
584,057;30727,737;    0,553;    0,955
584,638;30988,495;    2,553;    2,318
585,218;31009,099;   -0,538;    2,682
585,799;31187,305;    0,281;   -0,227
586,379;31172,022;    0,372;    1,591
586,959;29983,912;    0,735;    0,318
587,540;29376,299;   -0,629;    2,227
588,120;28905,897;    1,007;   -0,045
588,700;27898,091;    2,553;    2,136
589,281;28194,738;    0,462;   -0,955
589,861;28138,682;    0,099;   -1,682
590,441;27973,558;    2,371;   -2,682
591,021;26954,585;   -0,265;   -2,591
591,601;27221,593;   -0,537;    0,500
592,181;27216,438;   -0,719;   -0,773
592,761;26527,370;    0,007;    1,409
593,341;26447,336;   -0,901;    0,045
593,921;26449,082;   -0,265;    1,591
594,501;26285,852;   -0,538;    1,318
595,081;26197,020;    0,917;   -0,318
595,661;26542,635;   -1,447;    0,955
596,240;27043,805;   -0,537;    0,136
596,820;26677,184;    0,372;    1,955
597,400;26832,209;    2,008;    0,773
597,980;27075,193;    2,008;    1,045
598,559;27046,297;    2,735;   -0,227
599,139;26827,211;   -0,174;   -1,227
599,718;26727,575;   -0,174;   -0,409
600,298;27000,237;    0,735;    0,682
600,877;27217,832;    2,917;    1,409
601,457;27489,483;    2,281;    1,136
602,036;27382,410;    0,190;    2,045
602,616;27582,010;    0,644;    1,682
603,195;27891,755;   -0,355;    3,500
603,774;27445,457;   -0,901;    2,045
604,354;27293,155;    0,826;   -0,500
604,933;26875,863;    0,463;    1,864
605,512;26963,400;    3,554;    0,591
606,091;26995,810;   -0,537;    3,773
606,671;27804,545;    0,281;    0,773
607,250;26954,637;    1,644;    3,136
607,829;27165,346;    2,372;    3,227
608,408;27041,687;    1,190;    2,591
608,987;26078,026;    1,281;    3,409
609,566;26405,999;   -1,265;   -2,500
610,145;26512,908;   -1,082;    0,682
610,723;26908,123;    4,372;    6,864
611,302;26168,474;   -0,446;    1,682
611,881;25708,571;    5,008;   11,227
612,460;26544,725;    1,645;    3,955
613,039;26977,103;   -0,082;    2,045
613,617;25695,198;    1,736;    4,773
614,196;25918,937;    1,099;    1,227
614,775;26182,071;    1,009;    2,409
615,353;26155,122;    0,736;    0,864
615,932;25909,549;    0,100;    2,409
616,510;26483,343;    0,554;    0,591
617,089;26006,793;    7,100;   17,591
617,667;25772,550;    2,372;    6,136
618,246;25653,480;   -1,537;    1,318
618,824;25811,361;   -3,355;   -0,955
619,402;25386,908;   -2,900;   -1,773
619,981;25889,897;   -0,173;   -1,045
620,559;25760,223;    0,009;    1,682
621,137;25306,834;   -0,718;    1,864
621,715;25306,049;   -1,173;   -0,682
622,293;25284,984;   -0,537;   -0,773
622,871;25733,653;   -0,718;    0,500
623,450;25335,998;    0,373;   -0,864
624,028;25156,435;    0,191;   -0,955
624,606;24774,002;   -1,718;    1,682
625,183;25234,779;   -1,536;   -1,136
625,761;24874,323;    1,009;    1,136
626,339;25120,794;    1,373;    2,591
626,917;25511,398;   -0,172;   -0,045
627,495;25609,885;   -0,354;    1,318
628,073;25022,904;   -0,263;    2,864
628,650;24663,256;    0,100;    2,136
629,228;25127,207;    0,373;    4,409
629,806;24536,894;    2,282;    1,136
630,383;24814,577;    1,464;   -0,318
630,961;24644,197;    2,555;   -0,955
631,539;24385,909;    2,464;    0,227
632,116;23662,106;   11,373;   15,409
632,694;24219,579;    2,555;    6,500
633,271;24556,584;    0,828;    2,682
633,848;24477,868;    1,828;    2,045
634,426;24550,909;   -1,081;    1,773
635,003;23711,123;    1,101;   -0,409
635,580;23968,301;    1,192;    3,682
636,158;24543,111;    3,737;    1,227
636,735;24524,796;    0,555;   -0,500
637,312;24635,932;   -0,809;   -0,682
637,889;24769,238;   -4,354;   -0,682
638,466;24246,660;   -3,990;   -0,409
639,043;24244,941;    2,101;   -1,136
639,620;24597,728;   -2,262;   -0,955
640,197;24846,596;    1,100;    1,682
640,774;25037,007;   -0,172;    1,136
641,351;25381,872;    0,737;    1,136
641,928;24790,010;   -0,627;    1,409
642,505;24423,785;    0,828;   -0,500
643,082;24621,105;   -1,718;    1,227
643,658;23640,606;   -0,718;    1,500
644,235;24411,472;    1,191;    2,500
644,812;24692,883;    1,918;    0,773
645,388;24420,657;   -0,991;    1,409
645,965;24479,068;   -0,809;    1,682
646,542;24566,297;   -1,445;   -0,227
647,118;24565,890;    1,009;   -0,955
647,695;24803,391;   -0,263;    1,136
648,271;24770,620;   -0,536;    0,500
648,848;25089,304;    0,736;    2,227
649,424;24920,806;    0,827;    1,318
650,000;24683,398;   -0,354;   -1,045
650,577;24463,900;   -0,627;   -0,955
651,153;24923,856;   -1,809;    0,955
651,729;25915,449;    1,191;    0,864
652,305;26033,042;    0,645;    2,773
652,881;29941,544;   -0,082;    1,136
653,458;36486,682;    1,100;    0,227
654,034;40296,638;    0,282;    1,591
654,610;41897,958;    0,554;    0,773
655,186;43145,732;    0,645;    3,045
655,762;42932,870;   -0,991;    0,409
656,338;42928,463;    0,100;    0,136
656,913;43920,510;   -0,082;    0,409
657,489;43154,376;    0,827;   -0,318
658,065;43108,150;   -0,173;   -1,591
658,641;43867,197;   -0,900;   -0,864
659,217;43231,881;   -0,991;    0,409
659,792;42549,110;    0,645;   -0,409
660,368;42830,975;   -2,173;   -0,682
660,944;42582,477;   -2,082;    1,227
661,519;38460,615;   -0,628;    0,409
662,095;32779,208;   -1,719;    0,591
662,670;28207,528;    1,281;   -0,136
663,246;26976,302;    1,009;   -0,409
663,821;26236,077;    0,281;    1,682
664,396;25681,578;    0,009;    1,864
664,972;25977,626;    0,009;   -0,500
665,547;26255,764;    1,372;    0,136
666,122;26250,902;   -1,082;    0,318
666,698;26568,495;   -0,173;    0,318
667,273;25898,905;   -0,173;    0,136
667,848;26741,589;    2,372;    1,500
668,423;26469,909;    2,190;    2,318
668,998;27064,683;    2,827;   -0,682
669,573;27594,821;   -3,264;   -1,500
670,148;27388,414;   -1,446;   -0,682
670,723;27191,734;   -1,810;    0,318
671,298;27603,781;    2,372;    1,045
671,873;27737,556;   -0,082;   -0,136
672,448;27667,785;    0,645;    0,136
673,023;28025,377;   -1,992;   -0,227
673,597;28361,425;    0,827;    2,318
674,172;28098,563;   -0,355;    0,318
674,747;27599,792;    0,372;   -1,045
675,321;27477,475;   -0,628;    3,318
675,896;27047,341;    0,645;    1,045
676,471;28025,933;    2,645;    1,591
677,045;27822,344;   -1,264;    0,682
677,620;27872,028;    0,190;    1,136
678,194;28196,348;   -2,628;    1,136
678,769;27759,940;   -1,083;   -0,318
679,343;27966,624;   -0,628;    1,773
679,917;27804,580;   -1,446;    1,955
680,492;27937,900;    0,826;    3,227
681,066;28015,220;    3,372;    0,409
681,640;28019,358;    1,463;   -0,318
682,214;28843,587;    0,735;    0,500
682,788;28385,543;   -1,356;   -0,773
683,363;28355,954;   -1,810;    1,682
683,937;28085,183;   -1,719;   -0,318
684,511;28814,958;    0,463;   -0,591
685,085;28511,550;   -1,356;    0,318
685,659;28326,416;   -2,538;    0,864
686,232;28600,372;   -0,356;   -0,318
686,806;28317,056;   -0,901;    0,409
687,380;28930,103;   -0,174;    0,591
687,954;29190,150;   -1,174;    1,136
688,528;28830,106;   -0,719;    1,955
689,101;29577,426;   -3,992;    1,045
689,675;29192,473;   -0,356;   -0,136
690,249;28539,975;   -0,719;    0,409
690,822;28854,750;    0,280;    0,318
691,396;28962,615;   -0,265;    1,227
691,969;28371,390;    1,280;    0,136
692,543;28854,164;   -0,447;   -1,955
693,116;28538,393;   -0,265;   -1,409
693,690;28395,986;    0,099;    0,500
694,263;28952,487;   -1,083;    2,955
694,836;28999,080;    1,371;    3,591
695,410;27636,855;   -0,265;    1,773
695,983;28173,447;    0,189;    0,591
696,556;28144,676;   -0,447;   -1,045
697,129;28473,451;   -0,356;    1,409
697,703;28115,680;   -1,629;    1,955
698,276;28120,363;    1,462;   -0,773
698,849;27951,411;    1,280;    1,409
699,422;28314,276;   -1,083;    0,591
699,995;27984,869;    0,007;    0,136
700,568;28528,552;   -0,629;    3,045
701,140;28549,508;   -2,811;    1,682
701,713;28235,010;   -0,174;    2,409
702,286;27977,694;   -0,538;    0,864
702,859;27925,014;   -0,902;   -0,591
703,432;27120,970;    0,825;    0,682
704,004;27569,654;    0,462;    0,318
704,577;27450,973;   -0,629;    0,136
705,150;27977,384;    0,189;    2,500
705,722;27765,795;   -0,356;   -3,227
706,295;27560,842;   -0,175;   -0,591
706,867;27378,071;   -0,175;    1,955
707,440;27613,209;   -1,720;   -0,409
708,012;27885,620;    0,462;    0,591
708,584;27760,031;    2,462;    0,227
709,157;28107,351;    1,825;   -0,591
709,729;27784,853;    2,280;    2,045
710,301;28606,173;    0,734;    0,045
710,874;28651,402;   -1,447;   -0,227
711,446;27478,449;    0,371;    0,864
712,018;27336,314;    0,098;    0,500
712,590;27075,998;   -1,993;    1,682
713,162;27622,318;    0,825;    1,318
713,734;27888,365;    1,825;   -2,045
714,306;27839,685;   -1,902;   -0,409
714,878;26554,278;    0,825;    0,864
715,450;27349,143;    0,643;    0,864
716,022;27602,827;    1,552;    1,318
716,593;27732,328;    0,189;    0,591
717,165;27685,194;   -3,175;   -1,227
717,737;27395,423;    0,280;    0,409
718,309;27031,197;    0,280;   -0,045
718,880;26999,335;   -0,539;   -1,409
719,452;27219,655;   -0,175;   -1,591
720,024;26738,157;    0,734;   -0,591
720,595;27315,295;   -2,902;    0,955
721,167;26927,706;    0,370;   -2,045
721,738;26457,208;   -0,812;   -1,045
722,309;26443,891;   -0,993;   -1,227
722,881;26230,757;   -1,357;    0,773
723,452;26813,713;   -2,630;    2,864
724,023;26999,942;   -0,721;    2,682
724,595;26799,716;    0,007;    0,682
725,166;26612,855;    0,007;   -0,409
725,737;26194,629;    1,734;    0,227
726,308;26308,494;   -0,266;    0,318
726,879;26743,542;   -1,630;    1,227
727,450;26561,771;    0,552;   -0,045
728,021;26541,363;    3,097;    0,682
728,592;26373,501;    0,734;    0,500
729,163;26690,912;    0,643;   -0,136
729,734;26680,323;    0,188;   -0,227
730,305;26989,007;    1,734;    0,136
730,876;27353,327;    0,188;    2,955
731,447;27053,556;    2,188;    2,682
732,017;27168,057;    1,097;    1,864
732,588;26659,286;    0,734;    1,227
733,159;26824,243;    0,643;   -1,045
733,729;26632,017;    0,006;    0,409
734,300;25974,882;    0,915;    0,864
734,870;26359,293;    3,461;    0,591
735,441;26921,250;    0,370;   -0,591
736,011;26689,933;    0,643;   -1,591
736,582;26654,799;   -0,812;    0,045
737,152;26136,300;   -1,721;   -2,045
737,722;26569,984;   -0,267;   -0,682
738,293;26248,940;   -1,358;    1,318
738,863;26191,987;    2,461;    2,318
739,433;25973,671;    5,279;    0,318
740,003;26603,900;   -0,994;   -0,682
740,573;25993,765;    2,097;   -1,591
741,143;25973,540;   -1,085;    0,318
741,713;26676,042;    1,188;   -0,500
742,283;26459,543;    0,915;    1,591
742,853;26239,681;    1,915;    1,591
743,423;25735,547;    1,733;    0,045
743,993;25852,503;   -0,358;    1,500
744,563;25182,914;    0,097;   -0,864
745,133;25166,507;   -0,812;   -0,864
745,702;25875,099;   -0,267;    1,773
746,272;25099,965;   -0,176;    0,591
746,842;24828,557;   -1,358;   -0,591
747,411;25271,695;   -0,267;   -0,318
747,981;25461,197;    0,097;    0,500
748,551;25535,244;    2,278;   -1,045
749,120;25365,292;    0,642;   -0,227
749,690;25730,157;   -0,631;    2,409
750,259;26066,295;    1,369;    2,955
750,828;25972,251;    1,551;   -1,955
751,398;26263,480;    1,278;   -0,045
751,967;25739,255;    2,187;    0,409
752,536;25981,575;   -0,813;   -0,227
753,105;26345,258;    0,096;    0,227
753,675;26176,851;    0,096;    1,773
754,244;26128,625;   -0,904;    3,591
754,813;26160,764;    0,551;    1,227
755,382;25747,174;    0,460;    0,955
755,951;26345,131;    1,551;    3,682
756,520;25858,814;   -0,085;    1,864
757,089;26408,225;    0,278;    0,500
757,658;26487,818;    1,733;    1,227
758,227;26505,319;    1,096;    0,318
758,795;26821,912;    1,187;    1,136
759,364;27015,505;   -0,086;   -0,591
759,933;26063,097;   -1,176;   -0,045
760,501;25594,781;    0,733;   -1,318
761,070;26083,192;   -2,813;   -1,409
761,639;26720,421;   -1,904;    1,318
762,207;26056,923;    1,551;   -0,955
762,776;26025,333;    0,369;    0,864
763,344;26037,926;   -0,995;    0,591
763,913;25155,882;   -0,722;    1,409
764,481;25850,930;    1,005;   -0,136
765,049;25678,340;   -1,358;    1,409
765,618;25532,297;   -0,086;    0,318
766,186;25637,980;    0,278;    0,136
766,754;25820,391;    0,005;    1,864
767,322;24804,438;   -1,995;    0,409
767,890;24852,122;   -0,722;   -1,773
768,459;25256,896;   -2,177;   -0,318
769,027;25407,125;    1,641;    3,409
769,595;24407,264;    3,278;    2,591
770,163;24886,674;    3,823;    2,955
770,730;24626,358;    0,732;   -0,136
771,298;24484,496;    0,187;   -1,409
771,866;24571,361;   -1,541;    4,955
772,434;24905,136;   -0,631;   -1,864
773,002;25035,910;    0,005;    0,682
773,569;24748,230;    0,914;    1,682
774,137;24506,914;   -0,268;   -0,045
774,705;25329,688;    0,278;   -0,136
775,272;24833,008;    0,641;    0,682
775,840;24605,237;   -0,177;    2,682
776,407;24108,012;    0,277;    1,955
776,975;23719,514;   -0,632;    0,318
777,542;24737,379;   -1,086;   -0,045
778,110;24576,608;   -1,268;   -0,045
778,677;24261,837;   -2,359;   -0,864
779,244;24039,248;    2,186;    1,045
779,812;24099,750;    1,823;    0,864
780,379;24015,524;    0,005;    1,136
780,946;24263,298;    1,005;   -0,773
781,513;24558,891;   -1,450;    0,318
782,080;23926,666;   -0,086;    2,864
782,647;24651,804;   -0,268;    3,045
783,214;24284,669;   -0,177;    3,864
783,781;23904,534;   -0,723;   -0,682
784,348;23781,673;   -0,632;    1,500
784,915;24223,902;   -3,177;    0,318
785,482;23961,585;    1,368;    2,591
786,049;24370,723;    0,186;   -0,591
786,615;24536,498;    0,277;   -0,955
787,182;24283,454;    0,186;   -0,682
787,749;23956,865;   -2,814;    1,409
788,315;23300,639;   -1,632;   -0,409
788,882;23588,414;    1,550;   -1,227
789,448;24296,097;    1,732;   -0,955
790,015;24320,145;    1,095;    3,227
790,581;23859,555;    1,459;    0,227
791,148;23740,330;    0,641;    1,045
791,714;24032,923;   -0,541;    3,136
792,280;23709,515;    0,186;    1,591
792,847;23281,199;    0,550;    2,500
793,413;23813,701;   -0,269;   -0,318
793,979;23318,293;    3,459;   -1,318
794,545;23433,977;    4,459;    2,682
795,111;22829,297;    2,186;    1,318
795,678;23052,162;    0,731;   -1,682
796,244;22682,664;    3,368;    0,136
796,810;23228,438;    1,731;    0,773
797,375;22922,122;    0,549;   -2,136
797,941;22938,715;   -0,541;    0,591
798,507;23085,671;   -0,451;   -0,955
799,073;22667,173;   -0,360;    0,591
799,639;22755,038;   -2,632;    3,136
800,205;22806,176;    0,095;    2,682
800,770;22344,951;    0,640;    1,773
801,336;22493,543;    1,368;   -0,955
801,901;22127,863;    4,549;    3,136
802,467;22640,910;   -0,542;    2,045
803,033;22036,139;   -0,087;    0,864
803,598;22250,096;    1,913;   -1,045
804,163;22230,325;    1,095;   -0,318
804,729;22202,826;   -0,178;    1,136
805,294;22717,964;    0,822;    2,227
805,859;22449,375;    0,731;   -0,409
806,425;21866,786;    1,186;    2,682
806,990;21545,106;    2,186;    4,318
807,555;22033,335;   -1,451;    2,591
808,120;21919,291;    0,822;   -0,409
808,685;21981,520;    0,185;   -2,500
809,250;21514,477;    0,004;   -0,500
809,815;21835,888;    1,913;    0,682
810,380;22346,844;   -0,269;    1,591
810,945;22819,527;   -1,087;    2,045
811,510;22002,029;    2,094;    1,591
812,075;21745,713;   -0,633;   -1,409
812,640;21767,214;    2,003;    1,409
813,204;21850,353;    0,822;   -0,227
813,769;22362,036;    2,094;   -0,045
814,334;21756,720;    0,458;    0,864
814,898;21865,131;    0,367;    0,591
815,463;21675,541;    1,276;   -0,773
816,027;21665,043;   -0,724;   -2,318
816,592;21737,727;    0,640;   -2,045
817,156;21197,228;    2,094;    1,136
817,721;21092,730;    4,276;    2,318
818,285;21086,414;    2,912;    1,500
818,849;21717,279;   -1,451;    1,682
819,414;21606,054;   -0,269;    2,955
819,978;21174,555;   -1,269;    1,773
820,542;21808,421;    2,003;    0,500
821,106;21518,377;   -0,815;    0,682
821,670;21598,788;   -0,815;    2,591
822,234;21370,835;   -0,270;    1,409
822,798;20755,246;    0,003;    0,500
823,362;20704,384;   -0,633;    4,227
823,926;20044,068;    0,094;    1,136
824,490;20218,478;   -0,997;   -0,682
825,054;20641,162;   -0,088;   -1,136
825,618;20275,846;   -1,542;   -1,500
826,181;20262,620;    0,458;   -1,318
826,745;20130,031;    1,367;   -1,045
827,309;20448,169;    1,185;    1,318
827,872;19878,671;    1,367;    0,955
828,436;20821,536;    1,185;   -0,773
828,999;20902,765;   -0,997;    1,227
829,563;19749,721;   -0,179;    1,136
830,126;19580,405;   -0,179;   -0,591
830,690;19574,634;   -1,997;    2,864
831,253;19145,863;   -0,543;    2,227
831,816;19254,638;   -1,906;    0,500
832,380;19144,867;    0,185;    0,864
832,943;19327,368;   -1,361;   -0,500
833,506;18836,506;    2,639;   -1,227
834,069;19655,917;    3,912;   -0,955
834,632;19732,692;    1,730;    1,318
835,195;19624,921;    1,003;    0,955
835,758;18838,241;   -0,997;    1,955
836,321;18670,379;    0,730;   -1,045
836,884;18785,790;   -0,725;   -0,955
837,447;18796,382;   -2,816;    1,773
838,010;19030,793;    0,366;    3,227
838,573;19371,658;   -1,179;    0,773
839,135;19351,797;   -1,361;   -0,955
839,698;18799,026;    1,275;    0,409
840,261;18333,164;    1,003;   -0,227
840,823;18186,756;   -0,543;    0,864
841,386;18473,985;   -0,452;   -2,409
841,948;18292,124;   -1,361;    1,773
842,511;18087,080;    0,912;    1,682
843,073;18245,945;    1,912;    0,227
843,636;18011,356;   -0,361;   -0,227
844,198;17923,949;    0,911;    0,591
844,760;18054,996;    1,093;    1,955
845,322;17716,952;    0,548;    1,136
845,885;18147,545;    0,730;    0,591
846,447;18608,592;   -1,998;    0,227
847,009;18159,912;    1,911;   -0,682
847,571;18475,959;    0,820;   -2,045
848,133;18582,006;   -1,089;   -1,864
848,695;18446,872;   -0,543;    1,409
849,257;17988,010;   -1,089;   -1,682
849,819;18144,966;   -0,998;   -0,409
850,381;18199,741;   -0,725;   -0,864
850,942;18533,061;    1,093;   -0,591
851,504;18516,926;    1,184;    0,227
852,066;18550,973;    1,275;   -1,591
852,628;18061,293;   -0,180;    1,955
853,189;17645,886;    1,638;    2,682
853,751;17761,387;   -0,907;    1,409
854,312;17569,980;   -0,453;   -1,682
854,874;18071,846;   -2,089;   -0,773
855,435;18593,802;   -0,907;   -1,682
855,997;18786,849;   -1,816;   -0,136
856,558;18025,078;    0,366;    1,773
857,119;18144,398;    0,820;    2,864
857,681;17856,991;    0,002;    0,318
858,242;17867,311;    1,911;   -2,136
858,803;18285,994;    0,456;   -0,773
859,364;18873,678;    0,184;   -4,773
859,925;18220,088;   -2,453;   -0,955
860,486;18106,318;   -0,453;   -0,955
861,047;17817,819;   -0,544;   -1,227
861,608;17650,321;   -1,089;   -0,773
862,169;17774,005;    0,638;   -0,045
862,730;17559,961;    0,456;    1,409
863,291;17812,644;   -0,635;   -0,500
863,852;18140,873;   -0,635;    1,955
864,412;17670,193;   -0,271;   -0,864
864,973;16254,786;   -0,089;    0,500
865,534;16121,561;   -1,726;    0,227
866,094;17606,062;    1,820;    0,227
866,655;17271,382;    1,274;    3,318
867,215;17560,338;    0,274;    0,136
867,776;17417,386;    0,547;   -0,136
868,336;17492,342;   -1,453;    0,136
868,897;16901,116;    2,638;    1,682
869,457;16659,164;    1,365;    0,318
870,017;16933,120;    0,547;   -1,227
870,578;17428,622;   -0,817;    0,773
871,138;17151,214;   -2,089;   -0,955
871,698;16666,716;   -0,817;   -1,318
872,258;16509,763;   -0,453;   -2,864
872,818;16882,720;    2,729;    0,045
873,378;16875,130;    0,638;    1,045
873,938;16446,178;    0,547;    0,500
874,498;16784,679;    0,274;   -1,955
875,058;16682,636;    2,183;    1,773
875,618;16530,137;    1,910;   -2,682
876,177;16444,457;    1,274;    0,136
876,737;16043,868;   -0,090;    1,955
877,297;16041,006;    0,183;    1,955
877,856;16060,508;   -0,362;    0,318
878,416;16054,555;    1,183;   -0,136
878,976;16254,602;   -1,817;    0,409
879,535;16412,741;    0,092;    3,136
880,095;16176,424;   -0,544;    0,045
880,654;16263,108;   -1,090;    1,318
881,213;16363,246;    2,456;    1,500
881,773;15986,748;    2,637;    2,682
882,332;16326,795;    3,365;    5,136
882,891;16194,387;    3,092;    2,136
883,451;16667,253;   -1,272;    1,682
884,010;16112,845;   -2,908;   -0,409
884,569;16227,620;   -0,999;   -0,045
885,128;16335,122;    2,819;   -1,864
885,687;16382,987;    4,455;    0,682
886,246;16103,489;    1,455;    2,136
886,805;15870,172;    2,455;    2,045
887,364;16177,674;   -0,999;   -0,500
887,922;16533,358;   -1,181;    0,045
888,481;16053,496;   -1,545;    0,591
889,040;16359,270;    1,183;    2,136
889,599;17050,772;    2,455;    1,409
890,157;17119,546;    1,455;    2,409
890,716;16772,321;   -0,090;    0,227
891,274;16552,914;    0,092;   -1,136
891,833;16975,415;    1,546;    0,864
892,391;16866,644;   -0,454;    0,500
892,950;16934,328;    1,819;   -0,773
893,508;17307,557;    0,455;   -0,409
894,067;16666,604;    0,637;    0,136
894,625;16555,470;   -0,636;   -1,500
895,183;16801,789;   -0,363;   -0,682
895,741;16667,837;    1,728;   -1,773
896,299;16545,884;   -0,545;   -2,409
896,858;16705,204;    0,819;   -1,591
897,416;16839,160;    2,728;   -1,318
897,974;16570,480;    1,819;    0,318
898,532;16721,982;    6,091;    2,682
899,089;16646,756;    2,091;   -0,682
899,647;16712,258;   -1,454;    1,318
900,205;16385,305;    1,182;    1,045
900,763;16612,625;   -0,454;    0,227
901,321;16625,672;    2,364;   -1,409
901,878;16083,810;   -1,000;   -0,773
902,436;15984,312;   -1,363;    1,318
902,994;16354,541;    4,728;    3,682
903,551;15764,225;    0,728;    0,409
904,109;16174,999;    0,182;   -1,409
904,666;15752,410;    2,455;    1,045
905,224;15574,912;    0,182;   -0,409
905,781;15335,414;    0,727;   -0,318
906,338;15396,552;   -1,363;    1,045
906,895;15331,508;    0,637;    2,045
907,453;15270,010;    1,727;    1,136
908,010;15297,057;   -0,909;    0,409
908,567;14956,922;    1,273;    0,591
909,124;14507,424;    0,364;   -1,500
909,681;14582,471;   -2,909;    0,682
910,238;14689,428;    0,636;   -1,318
910,795;15039,384;   -0,273;   -1,136
911,352;14666,566;   -2,909;   -2,682
911,909;14088,747;   -1,364;   -0,864
912,466;14594,475;   -3,182;    1,500
913,022;14135,657;   -1,636;    0,500
913,579;14502,747;   -0,909;    2,045
914,136;14207,384;    1,636;    0,955
914,692;14513,202;    0,091;   -1,227
915,249;14119,929;    1,455;    0,409
915,806;14356,747;    0,182;    1,955
916,362;14100,929;    1,909;    1,864
916,918;13702,475;    2,000;    1,045
917,475;13639,657;   -1,182;    0,955
918,031;13719,747;    3,364;   -0,045
918,587;13163,747;   -0,909;   -0,318
919,144;13390,566;   -2,273;    0,227
919,700;13720,293;    1,727;    0,773
920,256;13312,838;    0,727;    0,045
920,812;12965,747;   -0,727;   -1,045
921,368;12952,838;   -1,727;   -1,045
921,924;12584,202;    0,182;   -0,136
922,480;12156,747;   -0,545;    1,227
923,036;12743,384;    1,273;    1,955
923,592;12709,566;    0,455;    0,318
924,148;12604,747;    0,455;   -0,955
924,704;11960,747;   -1,364;   -0,409
925,259;12247,475;   -0,273;    0,591
925,815;11993,838;    1,455;    0,500
926,371;11543,657;    2,909;    1,409
926,926;11404,566;    2,091;    0,591
927,482;11047,838;   -1,364;    0,773
928,037;10933,747;    0,909;    2,045
928,593;11199,202;    1,636;    1,045
929,148;11032,566;   -1,818;   -1,500
929,704;10560,566;   -1,455;   -0,500
930,259;10740,384;    0,091;   -0,136
930,814; 9857,020;   -0,818;    1,955
931,369; 9536,657;    1,091;   -0,773
931,925; 9430,475;   -0,091;    0,136
932,480; 9320,475;   -2,818;   -2,591
933,035; 9222,838;    0,545;   -0,318
933,590; 9006,293;    0,364;   -1,773
934,145; 8667,929;   -1,364;   -0,318
934,700; 9005,475;    0,455;   -0,591
935,255; 8789,020;   -0,091;    0,045
935,809; 8068,475;    3,182;    0,864
936,364; 7252,111;   -0,455;   -0,136
936,919; 7228,475;    0,455;   -1,773
937,474; 7110,111;    1,455;    0,136
938,028; 6861,384;   -1,636;    1,136
938,583; 6366,838;    1,818;    4,682
939,138; 6678,657;    2,091;    2,136
939,692; 6112,747;    1,636;   -1,136
940,247; 5794,020;   -0,727;   -1,045
940,801; 5369,566;   -0,636;    0,227
941,355; 5255,020;   -0,364;    2,591
941,910; 4938,384;   -0,273;   -2,136
942,464; 5028,747;   -0,818;   -0,318
943,018; 4833,838;    1,000;   -0,227
943,572; 4805,111;    2,545;   -0,682
944,126; 4232,747;    0,091;   -0,409
944,681; 4119,657;    3,091;    0,227
945,235; 4090,929;    1,000;   -0,591
945,789; 4040,475;    0,364;   -1,864
946,342; 4123,111;    0,455;   -0,591
946,896; 3937,566;   -2,273;    0,955
947,450; 3708,475;    1,545;   -0,227
948,004; 3889,020;    1,727;   -0,045
948,558; 3901,202;    0,273;   -0,864
949,111; 3794,475;   -0,273;   -0,318
949,665; 3862,566;    1,636;   -0,682
950,219; 3746,747;   -0,091;   -1,045
950,772; 3798,747;   -1,909;    1,864
951,326; 3719,657;    0,545;   -0,955
951,879; 3817,020;    0,727;   -2,318
952,433; 3863,475;    0,000;    2,227
952,986; 3687,747;    2,909;    0,682
953,539; 3632,657;   -0,273;    0,591
954,093; 3593,293;    0,545;   -1,318
954,646; 3698,566;    0,909;    1,318
955,199; 3511,657;    0,000;   -0,500
955,752; 3397,929;   -0,455;    1,773
956,305; 3373,747;   -0,091;    2,955
956,858; 3528,747;    0,818;   -0,318
957,411; 3693,838;   -0,545;    2,136
957,964; 3517,020;    1,364;    2,136
958,517; 3508,747;   -1,545;    3,136
959,070; 3357,293;   -0,455;    1,955
959,623; 3421,111;    1,091;    1,500
960,176; 3208,111;    1,727;    2,045
960,728; 3193,111;   -2,727;    0,773
961,281; 3236,657;    0,545;    0,500
961,834; 3287,929;   -0,909;    0,864
962,386; 3213,747;    1,727;    1,045
962,939; 3123,293;    0,364;   -0,318
963,491; 3269,838;    0,455;    1,136
964,043; 3135,747;    1,182;    2,409
964,596; 3247,384;   -1,000;    2,227
965,148; 3098,111;   -1,000;    1,773
965,700; 3046,020;    1,091;   -0,227
966,253; 3178,838;   -0,636;    0,318
966,805; 3011,566;   -2,273;    0,773
967,357; 3065,111;    1,091;   -1,500
967,909; 3037,475;    0,455;   -1,227
968,461; 3158,929;    0,545;    3,136
969,013; 3086,929;   -0,182;   -0,864
969,565; 3150,111;   -0,455;   -1,136
970,117; 3211,838;   -0,364;    1,045
970,669; 3061,929;    0,182;   -0,136
971,220; 2904,475;   -0,455;   -1,500
971,772; 2835,111;   -0,636;   -0,318
972,324; 2951,202;    0,091;   -0,500
972,876; 2902,202;    0,818;   -0,045
973,427; 3031,657;    1,909;   -1,045
973,979; 3013,475;   -0,727;   -2,500
974,530; 3049,111;    1,818;    1,318
975,082; 3042,293;   -0,545;    1,682
975,633; 2946,475;    1,091;    1,682
976,184; 3089,657;    0,909;    0,773
976,736; 2870,566;    0,091;    0,227
977,287; 2681,202;   -0,909;   -0,500
977,838; 2864,747;    0,909;   -0,318
978,389; 2921,384;   -1,000;   -0,500
978,940; 2805,566;    0,545;   -0,409
979,491; 2831,020;    0,091;   -0,500
980,042; 2801,838;    0,182;    3,045
980,593; 2854,838;   -2,545;    0,227
981,144; 2878,838;    2,545;   -0,500
981,695; 2848,838;    1,455;    1,500
982,246; 2827,747;   -0,273;    1,045
982,797; 2979,747;   -1,727;    0,682
983,347; 3057,929;    0,364;    0,591
983,898; 3231,384;    3,091;    0,409
984,449; 3058,384;    2,182;    0,773
984,999; 2980,838;    1,455;   -1,136
985,550; 2759,384;    0,182;   -0,318
986,100; 2796,384;   -0,455;   -0,318
986,651; 2828,838;   -0,818;    0,045
987,201; 2817,020;   -1,000;   -0,591
987,751; 2895,202;    0,818;    2,864
988,302; 2899,566;    2,636;    1,500
988,852; 2905,020;    0,455;   -1,136
989,402; 2968,020;    0,091;    0,682
989,952; 2875,020;   -2,182;    0,864
990,502; 2976,475;   -0,091;    0,682
991,052; 2914,838;   -0,727;    0,045
991,602; 2792,657;   -2,909;    1,318
992,152; 2794,475;    0,455;    0,682
992,702; 2764,384;    1,364;   -0,045
993,252; 2686,566;   -3,000;   -0,500
993,802; 2800,293;   -0,273;    1,318
994,352; 3029,929;   -1,545;    1,136
994,901; 3122,838;   -0,182;    3,227
995,451; 3034,747;   -0,182;    0,318
996,000; 3111,475;    1,636;    0,318
996,550; 2833,384;    2,273;    0,227
997,100; 2826,929;    1,273;   -0,045
997,649; 3089,929;    2,182;    0,955
998,198; 2747,202;    1,727;   -1,500
998,748; 2955,747;    1,091;   -2,318
999,297; 2862,566;   -0,818;   -0,409
999,846; 2920,293;    1,000;   -0,773
1000,395; 2966,566;   -0,818;    0,500
1000,945; 2918,020;    1,818;   -0,773
1001,494; 3000,657;    2,364;    0,682
1002,043; 2971,838;    4,636;    0,864
1002,592; 2822,747;   -1,091;    1,955
1003,141; 3005,020;   -0,455;   -0,682
1003,690; 2852,293;    1,727;    0,500
1004,238; 2907,566;    1,455;   -0,045
1004,787; 2549,293;    1,364;    1,227
1005,336; 2799,747;    0,364;    0,682
1005,885; 2936,111;    1,364;   -2,773
1006,433; 3082,747;    0,545;    0,955
1006,982; 3128,020;    0,455;    1,682
1007,531; 3033,202;   -1,818;   -0,227
1008,079; 2971,202;   -2,273;    0,500
1008,627; 3131,747;   -1,455;    0,409
1009,176; 2884,657;    0,000;   -1,955
1009,724; 2925,293;    1,091;    0,864
1010,273; 2973,566;    1,273;    0,500
1010,821; 3102,929;    0,091;    1,409
1011,369; 2846,747;   -1,364;    1,318
1011,917; 2814,475;   -1,364;   -0,591
1012,465; 3094,838;    1,273;   -1,591
1013,013; 3205,020;    2,091;   -1,682
1013,561; 3076,020;    0,455;   -0,773
1014,109; 3115,293;   -1,909;    1,682
1014,657; 3001,111;    0,364;    0,591
1015,205; 3134,111;    1,636;   -0,955
1015,753; 3187,475;   -0,545;   -1,409
1016,301; 3213,111;   -2,636;    3,045
1016,848; 3212,475;   -1,273;    0,409
1017,396; 3244,929;    2,545;    0,045
1017,944; 3358,293;    1,182;    1,864
1018,491; 3133,566;    0,273;    1,409
1019,039; 3266,384;    0,455;    0,591
1019,586; 3206,929;   -1,364;    1,682
1020,134; 3304,111;    0,455;    1,500
1020,681; 3320,657;    0,182;   -1,136
1021,228; 3332,747;    2,909;   -2,227
1021,776; 3153,657;    1,182;   -1,136
1022,323; 3383,111;    0,455;    0,773
1022,870; 3316,838;   -1,000;   -0,045
1023,417; 3212,475;    2,636;    1,864
1023,964; 3360,020;    2,636;    1,227
1024,511; 3203,384;    1,000;    0,773
1025,058; 3004,475;    3,182;   -0,045
1025,605; 3063,657;   -2,273;    3,136
1026,152; 3267,020;    1,727;   -0,591
1026,699; 2995,475;    1,818;    1,318
1027,245; 3167,111;   -0,091;    0,318
1027,792; 3385,202;   -1,000;    1,409
1028,339; 3258,838;    2,364;   -0,045
1028,885; 3103,657;    1,000;   -0,227
1029,432; 3053,566;   -0,091;    0,227
1029,978; 3111,929;   -1,000;   -1,591
1030,525; 3022,657;    1,000;    0,409
1031,071; 3260,566;   -1,364;    1,136
1031,618; 3371,020;    0,364;    1,682
1032,164; 3173,293;   -0,091;    3,045
1032,710; 3200,384;    1,636;   -1,500
1033,256; 3128,475;   -0,636;   -0,136
1033,803; 3110,111;   -0,545;    1,500
1034,349; 2845,566;   -1,364;    0,136
1034,895; 2998,657;    0,000;   -0,318
1035,441; 2982,475;   -0,818;    0,318
1035,987; 2983,202;   -2,364;   -0,682
1036,533; 2985,202;   -1,455;   -0,955
1037,078; 3161,475;    1,455;    1,682
1037,624; 2996,384;    2,455;   -0,955
1038,170; 3029,929;    0,455;   -0,318
1038,716; 2933,838;    1,636;   -0,409
1039,261; 2838,657;   -2,273;   -0,773
1039,807; 2771,566;   -0,091;    3,409
1040,352; 2832,566;   -1,909;   -0,318
1040,898; 2902,384;   -1,545;   -0,682
1041,443; 2803,202;   -1,455;   -2,591
1041,989; 2821,475;    1,091;    1,591
1042,534; 2709,838;   -0,364;    2,591
1043,079; 2822,384;    2,909;    0,955
1043,625; 2596,384;    1,818;    0,500
1044,170; 2643,020;   -1,364;    1,045
1044,715; 2901,020;    2,455;    0,955
1045,260; 2731,202;    2,182;   -0,955
1045,805; 2764,293;    1,182;   -0,591
1046,350; 2710,111;    1,364;   -0,409
1046,895; 2667,747;    2,909;    1,591
1047,440; 2627,202;    5,364;    0,409
1047,985; 2540,020;    2,818;   -0,955
1048,530; 2448,657;    1,545;    1,227
1049,074; 2510,475;    0,000;    0,318
1049,619; 2496,838;   -1,364;    1,955
1050,164; 2293,566;    0,455;    0,227
1050,708; 2341,657;   -0,455;    0,045
1051,253; 2695,475;    1,273;   -2,227
1051,797; 2413,020;    0,818;   -1,318
1052,342; 2425,747;   -1,182;    1,045
1052,886; 2426,747;    0,364;   -1,409
1053,430; 2324,566;   -1,364;    0,136
1053,975; 2315,929;   -0,818;   -0,318
1054,519; 2311,293;   -0,727;    3,227
1055,063; 2305,020;    0,909;    1,318
1055,607; 2190,475;   -0,182;    0,227
1056,151; 2221,020;    2,909;    1,682
1056,695; 2155,020;    2,273;   -1,136
1057,239; 2224,020;   -1,727;   -0,682
1057,783; 2216,657;    0,818;   -1,500
1058,327; 2165,020;    0,000;    1,409
1058,871; 2384,657;   -0,545;    1,318
1059,415; 2106,566;   -0,818;   -0,045
1059,958; 2349,838;    1,455;    2,591
1060,502; 2071,202;   -1,000;   -0,773
1061,046; 1983,293;    0,364;   -0,955
1061,589; 1963,384;   -3,000;   -1,136
1062,133; 1848,020;   -1,273;    1,864
1062,676; 1801,293;    1,182;    0,864
1063,220; 1805,657;    1,091;    0,500
1063,763; 1814,202;    0,909;    1,136
1064,306; 1892,929;   -0,909;    1,864
1064,849; 1779,202;   -0,909;    0,591
1065,393; 1792,838;    2,000;   -1,500
1065,936; 1903,475;    0,182;   -0,409
1066,479; 1778,384;   -1,455;    1,318
1067,022; 1803,929;   -0,273;   -0,227
1067,565; 1695,838;   -0,091;   -1,318
1068,108; 1727,747;    0,727;   -0,591
1068,651; 1712,838;   -0,636;    1,409
1069,194; 1643,475;   -0,455;   -1,682
1069,736; 1642,293;   -1,273;    0,955
1070,279; 1626,929;   -1,364;   -0,500
1070,822; 1671,657;   -2,000;   -0,318
1071,364; 1756,111;   -0,364;    1,318
1071,907; 1572,202;   -0,727;    3,227
1072,450; 1485,929;    0,000;   -0,045
1072,992; 1465,111;   -0,273;    3,136
1073,535; 1626,384;    2,091;    2,136
1074,077; 1411,657;   -0,727;    2,045
1074,619; 1372,111;   -1,364;    0,591
1075,161; 1424,657;   -1,091;    1,500
1075,704; 1596,929;    1,545;    1,227
1076,246; 1384,293;   -0,182;    0,682
1076,788; 1318,566;   -0,364;    1,773
1077,330; 1396,111;    1,273;    2,136
1077,872; 1357,020;    0,909;    0,955
1078,414; 1568,838;    2,727;    0,773
1078,956; 1319,111;    1,273;   -0,227
1079,498; 1568,929;    1,636;    0,318
1080,040; 1276,020;    1,909;   -1,318
1080,581; 1229,111;    1,636;   -0,318
1081,123; 1164,293;    0,091;   -0,773
1081,665; 1192,747;   -1,182;   -0,955
1082,206; 1486,020;    1,364;   -0,500
1082,748; 1348,929;    0,727;    2,045
1083,289; 1223,293;   -2,000;    1,318
1083,831; 1136,657;   -0,545;    0,227
1084,372; 1169,747;    0,000;    0,591
1084,913; 1169,657;    1,091;    0,864
1085,455; 1148,838;   -1,909;   -2,045
1085,996; 1127,566;   -2,273;    0,136
1086,537; 1141,020;   -0,091;    0,864
1087,078; 1174,657;   -0,909;   -2,136
1087,619; 1214,202;   -1,273;    0,227
1088,160; 1126,202;    0,000;    1,318
1088,701; 1116,566;   -1,091;    0,682
1089,242; 1039,929;    1,364;   -2,227
1089,783; 1140,475;   -0,273;    1,409
1090,324; 1118,111;    0,455;    0,682
1090,865; 1005,657;    2,727;   -0,409
1091,405;  960,020;    0,727;    2,227
1091,946;  990,838;    0,182;   -0,955
1092,487;  914,657;    0,818;   -1,409
1093,027; 1078,475;   -1,364;   -1,500
1093,568;  940,838;   -0,364;    1,227
1094,108; 1034,747;    0,273;    1,773
1094,649;  965,293;   -1,182;    0,136
1095,189;  904,566;   -0,636;   -0,682
1095,729;  855,111;   -0,091;    0,955
1096,269;  863,384;    0,727;   -0,955
1096,810; 1182,111;   -1,364;    0,500
1097,350;  997,657;    1,364;   -0,773
1097,890;  901,838;    0,364;    1,227
1098,430; 1155,929;    2,364;    2,864
1098,970; 1026,566;    2,182;    1,682
1099,510;  890,475;    0,545;   -2,318
1100,050;  829,202;    1,000;   -1,591
1100,589;  789,475;   -0,727;   -0,318
1101,129;  913,202;    0,818;   -0,955
1101,669; 1056,747;    1,727;    2,136
1102,209;  877,202;   -0,091;    2,227
1102,748;  833,929;    0,000;    0,955
1103,288;  826,566;    1,273;   -1,227
1103,827;  856,020;    3,091;   -2,227
1104,367;  747,566;   -0,091;   -2,409
1104,906;  707,020;    1,364;   -1,136
1105,445;  775,384;    0,636;   -1,136
1105,985;  714,929;   -0,727;    1,500
1106,524;  761,747;   -1,727;   -0,682
1107,063;  735,838;   -2,727;    1,409
1107,602;  711,475;   -1,909;   -1,500
1108,141;  629,566;   -1,909;    1,500
1108,680;  728,566;   -3,455;   -0,591
1109,219;  678,020;   -0,909;   -0,500
1109,758;  668,384;    0,455;    0,682
1110,297;  641,657;    1,000;   -0,682
1110,836;  598,475;   -0,727;    0,955
1111,375;  751,929;   -2,545;    0,409
1111,913;  760,566;   -1,000;    0,773
1112,452;  691,838;   -0,273;    0,136
1112,991;  584,293;    1,091;    1,955
1113,529;  549,475;   -0,818;   -0,045
1114,068;  614,929;   -0,273;    2,955
1114,606;  530,202;   -0,364;   -0,955
1115,144;  685,475;   -1,273;    1,045
1115,683;  616,384;   -0,727;    0,318
1116,221;  659,202;   -0,455;   -0,864
1116,759;  572,475;    0,636;   -0,864
1117,297;  755,202;    0,000;    1,864
1117,836;  566,657;   -2,182;   -1,227
1118,374;  573,475;    0,182;   -0,682
1118,912;  518,657;    0,909;    2,682
1119,450;  513,475;    1,000;    0,864
1119,988;  561,929;    1,545;    2,136
1120,525; 1017,838;    5,091;    3,318
1121,063;  718,202;    1,182;    1,864
1121,601;  518,202;   -0,909;   -1,227
1122,139;  481,566;   -0,727;   -2,045
1122,676;  674,020;   -0,727;    2,773
1123,214;  612,475;   -1,182;    4,409
1123,751;  430,293;    1,727;    2,227
1124,289;  555,566;   -0,091;   -0,409
1124,826;  426,020;    1,727;    0,227
1125,364;  357,020;    1,727;   -0,955
1125,901;  538,838;    1,182;    1,227
1126,438;  647,657;    0,818;    0,955
1126,975;  368,747;   -0,727;   -0,773
1127,513;  442,020;    0,273;    2,136
1128,050;  341,838;    1,636;   -0,682
1128,587;  443,111;    2,000;   -0,227
1129,124;  485,293;    0,091;    1,318
1129,661;  352,111;    0,273;    0,227
1130,198;  517,566;    1,636;    0,773
1130,734;  465,475;    0,182;    1,409
1131,271;  326,838;   -0,909;    0,864
1131,808;  499,929;    2,909;    3,045
1132,345;  372,202;    1,545;    0,318
1132,881;  249,475;   -1,545;   -1,864
1133,418;  392,566;    0,727;   -1,136
1133,954;  329,111;    2,455;   -2,682
1134,491;  389,838;    1,364;   -0,773
1135,027;  298,747;    2,364;    0,864
1135,564;  383,020;    0,273;    2,955
1136,100;  357,384;    0,364;    2,136
1136,636;  248,384;   -1,273;   -1,045
1137,172;  348,202;    0,000;   -1,045
1137,708;  270,838;   -1,364;   -1,045
1138,245;  274,747;    1,273;   -1,227
1138,781;  223,838;    1,091;   -3,318
1139,317;  299,475;    1,273;   -1,409
1139,852;  292,929;    3,091;    0,136
1140,388;  403,202;   -1,182;   -0,409
1140,924;  278,747;   -1,091;   -2,227
1141,460;  217,929;   -1,636;    0,136
1141,996;  156,566;   -1,364;    2,682
1142,531;  209,657;    1,364;    3,318
1143,067;  425,566;    1,182;    1,045
1143,602;  477,111;   -0,091;   -0,318
1144,138;  322,202;   -2,636;    1,045
1144,673;  196,747;   -1,455;    1,409
1145,209;  264,747;   -1,909;   -0,318
1145,744;  188,020;   -0,727;    0,864
1146,279;  314,020;    1,818;   -0,136
1146,815;  230,384;    1,545;   -2,682
1147,350;  266,020;   -1,364;    0,045
1147,885;  183,384;   -0,818;   -1,318
1148,420;  185,838;   -2,273;    0,773
1148,955;  166,475;   -1,727;    1,864
1149,490;  184,566;   -0,909;   -1,591
1150,025;  178,566;    0,455;   -1,773
1150,560;  278,929;    1,091;   -0,955
1151,094;  255,475;    1,455;   -0,591
1151,629;  252,475;    1,636;    0,864
1152,164;  184,293;    1,364;    1,318
1152,698;  145,020;   -0,182;   -0,136
1153,233;  101,202;    0,091;   -0,682
1153,767;  148,293;   -3,000;   -2,318
1154,302;  200,293;   -1,455;    1,773
1154,836;  191,111;   -0,455;   -2,136
1155,371;  247,293;   -1,364;    3,682
1155,905;  200,838;   -0,636;    1,682
1156,439;  171,111;   -0,636;   -0,500
1156,973;  194,929;    0,364;    0,318
1157,507;  136,111;   -0,364;    0,682
1158,042;  162,384;   -0,727;    1,045
1158,576;  213,202;    0,182;    1,773
1159,110;  200,838;   -0,818;    2,409
1159,643;  169,111;    0,636;   -0,045
1160,177;  112,475;   -1,545;    1,500

