
Integration time [ms]:   0,040
Averaging Nr. [scans]: 11
Smoothing Nr. [pixels]: 0
Data measured with spectrometer [name]: 7318044SP
Wave   ;Sample   ;Dark     ;Reference
[nm]   ;[counts] ;[counts] ;[counts] 

186,757;   32,073;   31,551;    1,318
187,357;   56,991;   22,551;    0,955
187,958;   22,691;   15,460;   -1,591
188,558;   74,617;    8,915;   -1,227
189,159;   48,176;    6,733;   -4,500
189,759;   14,599;    7,278;   -3,591
190,360;   15,716;    2,824;   -2,136
190,960;   46,863;    2,915;   -4,136
191,560;   61,180;    3,189;   -6,591
192,161;  284,687;    4,372;   -3,500
192,761;  136,901;    4,010;   -3,227
193,361;   98,189;    1,556;   -3,773
193,962;  152,033;    2,010;   -2,682
194,562;   73,628;    1,189;   -3,955
195,162;   97,909;   -2,448;   -2,227
195,762;  253,168;   -3,176;   -0,045
196,362;  202,268;    1,370;   -2,500
196,963;   77,312;    2,006;   -0,864
197,563;  141,890;    1,551;   -0,955
198,163;   86,130;    0,096;   -0,682
198,763;  108,238;    1,733;   -0,500
199,363;  201,846;    3,096;   -0,500
199,963;  172,417;    0,369;    0,409
200,563;  144,912;    2,823;   -1,409
201,163;  121,864;    3,277;   -0,227
201,763;  199,224;    3,732;    0,318
202,363;  141,746;    1,459;    1,500
202,963;  246,820;    1,459;    1,045
203,563;  366,114;    0,277;    0,500
204,162;  207,845;    2,096;   -1,864
204,762;  209,060;    0,550;    0,591
205,362;  181,380;    3,004;    1,955
205,962;  263,500;    3,096;    1,955
206,562;  271,131;    1,823;    2,318
207,161;  242,220;   -0,087;    0,318
207,761;  398,161;    1,277;    2,409
208,361;  267,937;   -0,268;    1,409
208,960;  364,188;    0,459;    1,500
209,560;  422,790;    1,277;    1,591
210,160;  408,961;    0,550;    1,864
210,759;  373,711;    4,186;    1,227
211,359;  394,256;    1,459;    1,045
211,958;  648,599;    1,277;    2,045
212,558;  718,049;    1,732;    1,864
213,157;  567,241;    1,822;    1,500
213,757;  996,897;    3,822;   -0,227
214,356;  694,188;    1,277;   -0,409
214,956; 1024,680;    3,095;    0,409
215,555;  665,537;    2,095;    2,136
216,154;  604,659;   -2,723;   -0,591
216,754;  610,021;    0,277;    0,773
217,353;  725,519;   -0,268;   -1,045
217,952;  593,614;   -0,178;    0,318
218,552;  829,433;    1,368;   -0,773
219,151;  721,473;    0,277;    0,955
219,750;  716,731;    0,004;   -0,227
220,349;  832,770;   -0,451;    1,045
220,948;  909,054;   -1,360;    1,136
221,548;  918,519;    0,913;    1,227
222,147; 1020,819;   -0,087;   -0,409
222,746; 1294,052;   -0,451;   -0,955
223,345; 1157,874;    0,731;    0,500
223,944; 1165,283;   -0,451;    0,773
224,543; 1328,636;    1,004;   -1,409
225,142; 1427,859;    0,094;    0,136
225,741; 1330,712;   -0,814;    1,045
226,340; 1343,383;   -0,451;   -0,955
226,939; 1762,817;   -0,996;   -0,136
227,538; 1695,922;   -0,360;   -0,773
228,137; 1831,962;   -0,814;    0,864
228,735; 1936,871;   -0,541;    1,227
229,334; 1705,869;   -0,905;   -0,227
229,933; 2072,750;    0,459;    0,591
230,532; 2172,559;    1,186;   -0,409
231,131; 2216,037;    1,732;    0,318
231,729; 2319,473;   -2,450;   -2,318
232,328; 2390,258;   -0,723;   -1,500
232,927; 2439,275;    1,004;   -0,500
233,525; 2529,157;    3,640;    0,045
234,124; 2741,801;    2,368;   -1,591
234,723; 2742,262;    0,913;   -1,045
235,321; 2861,062;    2,277;    0,136
235,920; 3046,292;    1,186;   -1,227
236,518; 3304,547;    3,459;    0,318
237,117; 3449,581;    0,004;   -0,227
237,715; 3600,657;    0,640;   -0,500
238,314; 3629,016;   -0,087;   -2,318
238,912; 3735,228;   -0,723;   -1,409
239,510; 3763,679;    0,459;   -1,227
240,109; 3934,027;    0,004;    3,773
240,707; 3975,000;   -0,996;    1,227
241,305; 4289,763;    0,550;    0,136
241,904; 4518,036;   -0,178;   -2,045
242,502; 4505,675;   -0,632;   -0,227
243,100; 4450,565;   -0,087;   -0,955
243,698; 4699,278;    0,732;    1,682
244,297; 4865,506;   -0,632;    0,682
244,895; 4725,697;   -0,269;   -2,318
245,493; 5041,947;    2,186;   -0,591
246,091; 5070,367;    1,368;   -1,318
246,689; 5051,367;    1,004;    0,591
247,287; 5232,517;    0,822;   -1,136
247,885; 5513,896;   -1,451;    1,227
248,483; 5624,668;    1,822;   -0,500
249,081; 5761,244;    0,185;    1,591
249,679; 5894,545;   -0,178;    1,682
250,277; 6153,891;   -1,723;    0,864
250,875; 6142,293;   -1,087;   -1,045
251,473; 6194,794;   -1,178;    0,500
252,071; 6388,577;    1,459;    1,045
252,669; 6515,465;   -1,814;    0,318
253,267; 6756,582;   -0,087;    0,773
253,864; 6715,153;   -0,360;    0,682
254,462; 6607,894;    1,640;    1,591
255,060; 6576,345;   -0,269;    1,318
255,658; 6895,556;    0,822;   -0,136
256,255; 7300,516;    0,186;   -2,045
256,853; 7195,442;   -0,269;    1,409
257,451; 7170,127;    0,822;    1,864
258,048; 7457,850;    1,822;    1,864
258,646; 7207,257;    1,731;   -1,045
259,243; 7380,533;   -0,087;    2,227
259,841; 7458,980;   -0,814;    0,318
260,438; 7343,594;   -0,087;    0,864
261,036; 8028,083;   -1,905;    1,409
261,633; 7947,466;   -0,087;    2,227
262,231; 7674,856;    2,731;   -0,045
262,828; 7798,896;   -0,905;    1,136
263,425; 7857,849;    0,913;   -0,591
264,023; 8092,254;    0,186;    0,045
264,620; 7660,528;   -0,360;   -0,318
265,217; 7986,374;   -2,087;    3,136
265,815; 8129,243;   -1,905;    2,136
266,412; 7900,558;    0,731;    0,136
267,009; 7934,853;   -1,451;    0,773
267,606; 7856,984;    0,822;   -0,955
268,203; 7853,026;   -0,269;   -0,591
268,801; 8091,949;    1,731;    0,591
269,398; 8395,838;   -0,360;    2,500
269,995; 8392,987;    0,277;    1,591
270,592; 8150,354;   -0,632;   -0,500
271,189; 8322,778;    0,186;    0,409
271,786; 8475,062;   -0,632;    1,227
272,383; 8278,448;   -1,087;    0,227
272,980; 8460,642;    0,277;    0,318
273,577; 8926,799;    0,004;    1,227
274,174; 8476,924;    0,822;    2,591
274,771; 8449,828;   -0,814;   -0,773
275,367; 8618,526;    2,277;    1,409
275,964; 8583,596;    0,731;   -0,500
276,561; 8706,285;    1,549;   -1,045
277,158; 8923,272;    0,095;   -1,773
277,755; 9046,972;    2,185;    0,409
278,351; 8452,256;   -0,451;   -1,500
278,948; 8741,849;   -0,815;    0,045
279,545; 8757,689;   -1,360;    2,318
280,141; 9367,760;   -1,723;   -2,045
280,738; 9216,827;   -0,451;   -0,136
281,334; 9469,384;   -1,633;    0,591
281,931; 8860,197;   -0,087;   -1,318
282,528; 8998,951;    0,822;   -0,500
283,124; 9685,894;   -1,087;   -0,500
283,721; 9605,921;   -0,451;    1,409
284,317; 9445,168;    0,185;    2,500
284,913;10008,529;   -1,360;    0,591
285,510;10177,802;    0,640;   -0,318
286,106;10188,215;   -2,269;   -0,955
286,703; 9843,544;   -0,360;    1,955
287,299;10026,798;   -1,451;   -0,591
287,895;10253,650;    0,822;   -1,045
288,491;10817,020;    0,186;    2,136
289,088;10547,451;   -2,360;    2,409
289,684;10621,828;   -1,723;    1,500
290,280;10607,667;    0,368;    0,682
290,876;10724,679;    1,822;    5,500
291,472;10624,211;    1,276;    2,227
292,068;10743,308;    1,367;    0,227
292,665;10470,435;    2,095;    0,773
293,261;10089,143;    0,276;    2,136
293,857;10473,120;    2,913;    2,136
294,453;10418,204;    3,550;    0,955
295,049;10318,585;   -0,268;    1,955
295,644;10334,759;    0,095;    0,136
296,240;10250,533;   -0,905;   -0,136
296,836;10290,152;   -0,995;    0,318
297,432;10572,714;    1,096;   -0,500
298,028;10595,139;    0,732;    0,773
298,624;11006,972;    1,459;    1,864
299,220;11257,753;    2,368;    0,591
299,815;10939,278;    1,005;   -0,409
300,411;10747,858;    0,914;    1,773
301,007;10792,954;    1,368;    0,227
301,602;10822,850;   -0,541;   -2,318
302,198;10977,401;    0,732;   -0,773
302,794;11328,447;    1,187;   -0,500
303,389;11425,450;   -1,177;    1,045
303,985;11533,876;    0,550;    1,409
304,580;11466,810;    1,459;    1,591
305,176;11462,918;   -3,086;    0,136
305,771;11385,956;   -1,268;   -1,227
306,367;11219,385;    4,095;    0,136
306,962;11516,668;    0,641;    1,500
307,558;11244,153;   -0,450;    0,136
308,153;11193,646;    1,095;   -1,136
308,748;11421,066;   -0,814;    1,682
309,344;11390,689;   -0,632;   -1,318
309,939;11476,076;   -1,905;   -1,318
310,534;11785,928;   -0,086;   -1,682
311,130;11666,764;    0,459;   -2,500
311,725;11384,952;    1,004;   -0,500
312,320;11730,367;    2,459;    0,045
312,915;11572,747;    1,459;   -1,045
313,510;11636,711;    1,550;   -0,500
314,105;12120,412;    1,096;    1,409
314,700;11551,873;   -3,086;   -1,045
315,295;11209,265;   -0,904;    0,045
315,890;10803,667;    1,277;    0,864
316,485;11115,499;   -0,359;   -0,318
317,080;11265,215;   -3,086;    1,591
317,675;11778,549;    2,005;   -0,682
318,270;11170,860;    5,550;    3,318
318,865;11210,313;    3,278;    3,045
319,460;11055,274;   -0,904;    0,591
320,055;11314,639;   -0,541;   -1,227
320,650;10947,696;   -1,995;   -0,591
321,244;10998,371;   -0,177;   -1,409
321,839;11950,693;   -1,541;   -0,227
322,434;11841,367;   -1,086;   -1,591
323,029;11485,167;    1,732;    1,591
323,623;11282,429;    1,550;    0,773
324,218;11005,434;    2,368;    1,409
324,812;10936,266;    1,096;    1,591
325,407;10740,274;   -0,814;    2,045
326,002;10667,063;    0,277;   -0,409
326,596;10933,507;    0,914;    1,318
327,191;11163,605;    0,823;   -1,045
327,785;10777,689;   -0,813;   -0,227
328,379;10982,454;    1,368;    0,136
328,974;10780,030;    0,914;   -3,955
329,568;11002,661;    0,186;   -2,409
330,163;10823,744;    2,096;    1,045
330,757;11193,107;    2,459;    1,591
331,351;10536,947;    0,459;    0,682
331,945;10840,901;    0,914;    1,409
332,540;10441,312;   -1,723;   -0,591
333,134;10604,624;   -1,086;    0,773
333,728;10818,190;    0,005;    0,318
334,322;11146,392;   -1,177;   -0,864
334,916;10476,056;    0,277;    0,955
335,510;10804,522;   -0,450;   -0,136
336,105;11032,332;   -1,086;    1,591
336,699;10764,678;   -1,086;    0,591
337,293;10691,842;   -1,723;    0,318
337,887;10852,125;   -2,723;    1,955
338,481;10962,887;    0,459;    0,591
339,074;11119,601;   -0,359;    2,682
339,668;10959,021;   -1,632;    1,227
340,262;11222,291;    1,732;    3,227
340,856;10742,670;    1,822;   -0,682
341,450;10097,828;    1,004;    1,864
342,044;11012,751;    1,459;    0,136
342,637;10785,208;    0,913;   -2,136
343,231;10640,006;   -2,360;    0,682
343,825;10586,586;   -1,086;   -0,591
344,419;10609,088;   -1,995;    0,500
345,012;10404,202;    2,459;    4,045
345,606;10374,530;    4,641;    1,591
346,199;10247,460;   -1,813;   -0,227
346,793; 9783,698;    1,914;    2,045
347,386; 9972,962;   -0,813;   -1,136
347,980; 9966,174;   -0,268;   -0,045
348,573; 9754,858;    2,278;    0,409
349,167; 9453,268;    5,278;    4,773
349,760; 9774,300;    2,914;    2,682
350,354; 9776,294;   -0,813;    1,136
350,947; 9521,705;    1,096;    1,682
351,540; 9228,461;   -0,358;   -1,409
352,134; 9150,149;    1,096;    1,136
352,727; 9226,988;   -0,086;    1,136
353,320; 9035,729;    0,005;    0,591
353,913; 8894,855;   -1,995;    1,864
354,507; 9073,950;    0,823;   -1,227
355,100; 9095,581;    0,460;    0,864
355,693; 8349,007;    2,005;    2,409
356,286; 8354,966;    0,823;    2,773
356,879; 8721,120;   -0,722;    1,227
357,472; 8357,971;   -0,904;    1,500
358,065; 8530,655;   -0,722;    2,500
358,658; 8460,119;   -0,540;    2,318
359,251; 8121,030;   -1,631;   -0,591
359,844; 7617,926;   -1,904;   -1,136
360,437; 7798,916;   -2,995;    0,045
361,030; 8060,090;    1,369;   -0,682
361,623; 7656,827;    2,824;    0,318
362,215; 7714,411;   -0,086;    2,045
362,808; 7553,597;   -2,358;   -1,682
363,401; 7708,517;   -2,449;    0,136
363,994; 7475,389;   -0,631;   -1,500
364,586; 7402,669;    0,824;   -1,500
365,179; 7610,868;   -0,449;   -1,136
365,772; 7090,345;   -1,995;    2,045
366,364; 7403,906;    1,915;   -3,227
366,957; 7602,052;    2,279;   -0,045
367,549; 7607,891;    2,188;   -0,864
368,142; 7273,144;    1,825;   -1,500
368,734; 7473,045;    0,734;   -2,136
369,327; 7414,212;    1,643;   -0,500
369,919; 7332,973;   -1,538;    0,409
370,512; 7164,421;   -1,083;   -0,500
371,104; 6901,778;   -0,901;    1,591
371,696; 7062,274;    1,191;   -0,955
372,289; 7120,467;    0,373;    1,136
372,881; 7264,347;   -2,080;    1,318
373,473; 7219,638;   -2,170;    1,136
374,066; 7004,684;   -0,169;    0,500
374,658; 6893,414;    0,378;    1,136
375,250; 7233,972;    0,653;   -1,409
375,842; 7069,870;    0,473;   -0,045
376,434; 6934,415;   -0,435;   -0,409
377,026; 7516,843;    0,204;   -2,500
377,618; 7377,128;   -0,158;   -0,682
378,210; 7252,254;   -0,338;   -1,955
378,802; 7086,099;    0,754;   -0,591
379,394; 7048,664;    1,846;    0,682
379,986; 7618,284;    1,393;   -0,955
380,578; 7718,958;   -0,153;    0,773
381,170; 7088,792;   -0,972;    0,045
381,762; 7032,621;    0,755;    1,409
382,354; 7218,218;   -0,065;   -1,318
382,945; 7321,120;   -2,976;    0,318
383,537; 7477,372;   -2,705;   -1,955
384,129; 7493,226;   -2,160;   -1,136
384,721; 7661,240;   -0,252;    0,955
385,312; 7610,028;   -0,161;   -0,955
385,904; 7704,883;   -2,706;    1,591
386,496; 7074,675;   -0,979;    1,045
387,087; 7198,809;    1,022;    2,500
387,679; 7248,241;   -1,160;    0,045
388,270; 7394,041;    2,840;    2,045
388,862; 7494,811;    1,295;   -0,318
389,453; 7373,349;   -0,887;    1,045
390,045; 7649,500;   -0,705;   -2,682
390,636; 7580,812;    0,204;   -0,591
391,227; 7426,202;   -0,523;   -0,045
391,819; 7533,034;    0,204;    0,773
392,410; 7598,204;    1,022;    0,045
393,001; 7545,836;   -0,979;   -1,591
393,593; 7790,696;    1,930;   -0,045
394,184; 7652,292;    1,385;   -0,409
394,775; 7576,505;    1,839;    2,136
395,366; 7788,810;    1,385;    0,773
395,957; 7729,872;    0,113;    0,136
396,548; 8090,256;   -0,342;    2,682
397,139; 8341,589;   -2,433;    0,591
397,730; 8105,959;   -1,888;    0,955
398,321; 8171,524;   -1,252;    0,955
398,912; 8183,742;   -0,615;    0,136
399,503; 8259,680;   -3,524;   -1,409
400,094; 7740,087;    0,294;    1,682
400,685; 7595,824;   -0,433;    0,045
401,276; 7649,454;    0,930;   -0,955
401,867; 7976,832;   -0,888;    0,773
402,458; 8078,240;   -2,251;   -2,318
403,048; 8052,929;    1,112;    0,591
403,639; 7692,450;    0,840;    0,864
404,230; 7900,597;    2,476;    0,318
404,821; 7839,044;   -0,615;    0,045
405,411; 7958,089;    1,203;   -2,591
406,002; 7563,506;   -1,252;   -1,136
406,592; 7429,435;    2,294;    0,045
407,183; 7718,401;    0,566;   -1,500
407,774; 7653,360;    3,475;   -0,136
408,364; 7959,686;    0,930;    0,409
408,954; 7560,300;    0,384;    1,227
409,545; 7598,934;    1,021;    1,045
410,135; 7159,774;    1,293;    0,500
410,726; 7308,117;    1,838;    0,318
411,316; 7696,876;    0,111;    0,773
411,906; 7374,379;   -0,253;   -0,409
412,497; 6876,471;   -1,070;   -0,045
413,087; 7453,716;   -1,980;   -0,227
413,677; 7827,875;   -0,707;    3,864
414,267; 7630,387;    0,656;    1,409
414,857; 7650,573;   -2,980;    4,227
415,448; 7939,932;    0,839;    0,500
416,038; 7619,330;    0,020;   -0,591
416,628; 7561,327;   -0,889;    0,409
417,218; 7083,853;    0,565;    3,318
417,808; 7296,585;    0,202;   -0,409
418,398; 7748,525;    0,020;    2,682
418,988; 7751,589;    2,020;    0,591
419,578; 7961,031;   -0,707;    1,409
420,168; 8293,017;   -1,343;   -0,955
420,757; 7877,690;   -1,343;   -1,500
421,347; 7557,425;    0,111;   -0,227
421,937; 7711,544;    2,292;    1,409
422,527; 7648,281;    0,838;   -0,773
423,116; 7473,100;   -0,253;   -0,045
423,706; 7789,626;   -1,889;    0,318
424,296; 7775,715;    1,384;    0,682
424,885; 8160,624;   -0,071;   -3,045
425,475; 8434,817;    1,474;   -2,864
426,065; 8330,846;   -0,980;   -0,318
426,654; 7987,122;   -0,435;   -0,318
427,244; 8059,215;    0,020;    1,409
427,833; 7554,209;    1,383;   -0,500
428,423; 7987,901;   -0,526;    1,136
429,012; 8715,467;   -0,344;   -1,136
429,601; 8228,691;   -1,344;    0,136
430,191; 8430,246;    1,292;    4,318
430,780; 8058,508;   -0,344;   -0,409
431,369; 7980,782;    0,746;   -0,045
431,959; 8590,362;   -1,254;    0,500
432,548; 8379,395;   -1,163;   -0,045
433,137; 8486,404;   -1,254;   -1,318
433,726; 8961,852;    0,292;    0,500
434,315; 8357,556;   -0,526;    2,409
434,905; 8458,618;   -1,254;    1,409
435,494; 8358,723;    0,746;    0,955
436,083; 8791,007;   -0,981;   -0,955
436,672; 8655,562;    0,110;    0,500
437,261; 8245,458;    0,292;   -1,955
437,850; 8324,874;    1,383;    0,682
438,439; 8288,872;    3,291;    1,955
439,027; 8134,515;    3,655;    1,773
439,616; 8449,288;    2,927;    1,227
440,205; 8292,607;    0,200;   -2,136
440,794; 8310,383;    2,109;   -0,045
441,383; 8589,918;   -1,346;   -0,591
441,971; 8434,460;   -2,436;    0,591
442,560; 8275,691;    0,563;   -1,773
443,149; 8025,943;    0,379;   -1,318
443,737; 8121,690;   -0,074;   -2,318
444,326; 8332,239;    0,018;    0,318
444,915; 8365,811;   -1,982;    0,864
445,503; 8718,257;   -2,891;   -0,318
446,092; 8034,263;    0,382;    2,136
446,680; 8555,184;    0,382;    0,318
447,269; 8691,797;   -0,346;   -0,318
447,857; 8447,085;    0,018;   -1,773
448,445; 8543,394;    0,563;    1,318
449,034; 8740,693;   -1,528;   -1,136
449,622; 8827,239;   -1,073;    3,500
450,210; 8109,454;    2,017;    2,227
450,799; 8611,642;    0,290;   -0,591
451,387; 8543,951;    1,381;   -0,591
451,975; 8203,034;    2,654;    0,864
452,563; 8313,534;    3,472;    2,318
453,151; 8344,103;   -0,528;   -1,227
453,739; 8247,013;   -1,347;    0,136
454,328; 8109,336;    2,381;   -2,136
454,916; 7854,016;    2,562;   -0,136
455,504; 8023,671;    1,017;    1,227
456,092; 8170,964;    0,017;   -1,591
456,679; 8124,299;    1,472;    0,682
457,267; 8064,951;    4,017;    1,045
457,855; 8180,748;    1,017;    1,409
458,443; 7956,585;   -0,165;    1,682
459,031; 8115,483;    0,108;    2,409
459,619; 8488,442;   -1,801;    2,864
460,206; 8594,661;    0,835;    2,045
460,794; 8694,521;   -2,983;   -0,227
461,382; 8865,121;   -0,529;   -0,864
461,970; 8469,332;    1,198;    1,864
462,557; 8507,998;   -0,711;   -0,682
463,145; 8652,231;   -3,165;   -1,682
463,732; 8802,983;    2,016;   -1,045
464,320; 8718,306;   -0,075;   -3,045
464,907; 8403,268;    2,743;   -0,773
465,495; 8305,275;    0,743;   -1,227
466,082; 8432,697;   -1,984;   -0,045
466,670; 8337,337;   -2,529;    1,227
467,257; 8744,981;   -1,711;    2,045
467,844; 8878,382;   -0,075;    0,045
468,432; 8925,780;    0,834;    3,500
469,019; 8423,771;    0,925;   -1,773
469,606; 8842,273;    0,470;    3,682
470,193; 8679,271;   -1,439;    0,227
470,780; 8276,581;   -2,075;    0,864
471,368; 8581,990;   -1,257;   -0,773
471,955; 8391,983;    1,379;   -0,682
472,542; 8049,579;    0,652;   -1,136
473,129; 8283,593;   -0,166;    0,136
473,716; 8024,012;    1,470;    0,591
474,303; 8149,650;    0,652;   -0,864
474,890; 8392,717;   -1,439;   -0,500
475,477; 8399,515;   -1,621;    0,409
476,064; 8281,537;    1,106;   -1,591
476,650; 8192,972;    0,288;    0,318
477,237; 8014,244;   -0,258;    0,955
477,824; 8140,370;   -1,076;    0,864
478,411; 8139,913;   -1,894;   -0,318
478,997; 8325,294;    0,560;   -0,773
479,584; 8370,015;    1,196;   -0,409
480,171; 8975,005;   -0,440;   -0,773
480,757; 8626,148;    2,651;    0,773
481,344; 8883,431;    0,469;    0,409
481,931; 8378,009;    1,105;    1,045
482,517; 9246,528;   -1,258;    0,318
483,104; 9673,711;    1,106;    2,864
483,690; 9889,896;   -1,804;    0,045
484,276;10167,398;   -0,895;    0,227
484,863; 9906,660;    2,469;    1,136
485,449;10426,776;   -0,077;    0,318
486,035;10409,355;   -1,986;   -0,136
486,622;10799,338;   -0,895;    0,045
487,208;10767,410;    1,378;    1,500
487,794;10614,728;    0,741;    0,318
488,380;10729,643;    0,105;   -1,409
488,967;10782,219;   -1,168;   -0,409
489,553;10835,692;   -1,895;   -1,409
490,139;11015,117;    1,559;    0,773
490,725;10546,030;    0,741;   -0,227
491,311;10254,269;    3,287;    3,045
491,897; 9724,635;   -0,986;    1,500
492,483; 9615,580;    0,105;    1,227
493,069; 9510,516;    3,923;    0,864
493,655; 9456,834;    1,650;    0,682
494,241; 9413,164;    1,377;   -0,955
494,826; 9803,509;    0,287;   -1,045
495,412; 9342,722;    2,559;   -0,682
495,998; 9564,761;   -0,805;   -0,318
496,584; 9690,055;    0,377;    1,045
497,169; 9731,851;    1,014;   -0,682
497,755; 9741,485;    0,650;    1,227
498,341;10287,577;    0,559;    0,318
498,926; 9940,832;    1,832;    1,955
499,512;10167,561;    1,286;    2,955
500,097;10335,080;    0,195;   -0,318
500,683;10312,797;   -0,350;    2,136
501,268;10748,648;   -0,169;   -0,955
501,854;10551,445;   -0,169;    1,227
502,439;10552,921;   -0,624;   -1,773
503,024;10776,421;    0,195;    0,500
503,610;10900,903;   -0,078;   -0,682
504,195;10953,306;    0,558;    1,955
504,780;11118,196;    2,922;    1,227
505,366;11048,373;    3,013;    2,864
505,951;10868,728;    0,740;    1,045
506,536;10942,754;   -3,260;   -3,682
507,121;11003,139;    0,285;   -0,318
507,706;11545,323;    2,376;    1,045
508,291;11937,002;    2,649;    1,136
508,876;11450,530;   -0,988;    2,591
509,461;11001,150;   -0,169;   -0,773
510,046;11465,450;    0,194;    0,318
510,631;11746,891;   -0,351;   -0,773
511,216;11447,236;    2,467;   -0,500
511,801;11853,090;   -0,442;    2,591
512,386;12192,594;    0,740;    0,500
512,971;12167,798;   -2,988;    0,955
513,555;11745,298;   -0,897;   -1,500
514,140;12563,971;   -0,442;   -3,136
514,725;12563,783;   -0,715;   -1,136
515,309;12752,233;   -0,533;    0,318
515,894;12237,747;   -0,624;   -2,227
516,479;12699,028;   -0,624;   -0,955
517,063;12524,294;    0,376;    1,227
517,648;12677,115;    1,012;   -1,136
518,232;12331,275;   -0,261;   -1,409
518,817;12686,973;   -0,079;    1,682
519,401;12926,756;    2,194;    0,591
519,985;12466,477;    1,103;    1,136
520,570;12366,431;    0,830;   -1,955
521,154;12655,502;    2,102;    0,591
521,738;12823,342;   -2,352;    2,409
522,323;13396,497;   -0,170;    1,682
522,907;13172,582;    0,466;   -0,136
523,491;12893,130;    0,557;    0,955
524,075;12893,464;    2,284;    0,591
524,659;12992,209;    1,466;    0,591
525,243;12480,152;    1,739;    0,409
525,827;12704,707;    0,648;   -0,045
526,411;13522,209;   -1,989;   -0,136
526,995;13753,186;   -0,352;    1,409
527,579;13359,033;   -0,443;   -1,045
528,163;13650,167;    0,375;   -1,500
528,747;13605,800;    2,466;   -0,773
529,331;13928,735;   -0,080;   -1,409
529,915;14118,108;    1,738;    0,955
530,499;14074,623;   -0,807;    1,227
531,082;13759,759;   -0,534;    1,591
531,666;13221,945;    1,374;    0,773
532,250;13901,862;    1,284;    2,682
532,833;14196,911;    0,920;    2,773
533,417;14077,216;   -1,807;    0,864
534,001;14075,807;    1,647;   -0,318
534,584;14725,126;    0,374;    0,500
535,168;14581,216;    0,465;    1,409
535,751;14623,704;    0,647;    0,045
536,334;14114,075;   -0,898;   -0,409
536,918;14708,467;    0,011;    1,591
537,501;14784,387;   -0,899;    1,318
538,085;14811,756;   -0,444;    1,045
538,668;14953,545;    0,829;    2,409
539,251;15234,607;    1,829;    3,773
539,834;15281,695;    0,101;    0,773
540,418;15207,565;   -1,990;    4,318
541,001;15302,619;   -0,990;    1,773
541,584;15294,444;    2,101;    2,227
542,167;15002,054;    1,374;    2,955
542,750;15177,818;    1,919;   -0,773
543,333;14768,541;    0,555;    2,136
543,916;15499,554;    0,192;    2,500
544,499;16103,441;   -1,354;    0,227
545,082;16113,685;    1,374;    3,591
545,665;16226,437;    1,919;    1,500
546,248;16540,450;    1,010;   -0,318
546,830;16240,779;   -0,445;    1,955
547,413;16659,130;    1,010;   -0,773
547,996;17200,383;    0,555;    0,500
548,579;16966,365;    0,919;    0,955
549,161;16784,246;    1,828;    2,682
549,744;16574,502;   -0,809;    0,409
550,326;17065,685;   -0,809;   -1,136
550,909;16808,484;    2,737;    0,591
551,492;17254,499;   -0,263;    0,227
552,074;17059,066;   -0,173;   -1,318
552,657;17593,218;    2,373;    0,045
553,239;17361,313;   -0,173;   -0,773
553,821;17266,025;   -1,082;    1,045
554,404;16768,550;    1,282;    1,136
554,986;17147,651;    0,464;    1,045
555,568;17745,382;    1,191;   -0,955
556,151;16981,989;    1,191;   -0,227
556,733;17196,283;   -0,264;   -0,864
557,315;17632,217;    0,100;    0,500
557,897;17436,093;    0,554;   -0,500
558,479;17607,307;   -1,991;    1,318
559,061;17678,966;   -0,719;   -0,864
559,643;17994,198;   -0,264;    0,045
560,225;18373,717;    1,645;    2,864
560,807;18379,470;    0,918;    0,318
561,389;17896,354;    0,554;    2,318
561,971;18607,656;    0,463;    2,136
562,553;18443,725;   -1,628;    1,591
563,135;18541,662;   -0,537;    1,136
563,717;18148,267;    3,372;    1,136
564,298;18821,579;    3,645;   -0,045
564,880;18543,582;    0,645;   -1,409
565,462;18778,218;    0,645;    1,318
566,043;19862,495;   -0,446;    2,318
566,625;19400,767;    1,918;    1,227
567,207;19225,872;    1,099;    1,682
567,788;20287,967;   -1,264;    1,500
568,370;21117,047;    1,917;   -0,500
568,951;20945,397;    0,190;    0,227
569,533;21793,876;   -0,628;   -0,500
570,114;22205,169;   -0,446;    0,682
570,695;22684,745;   -0,174;   -1,318
571,277;23161,573;   -0,265;   -1,682
571,858;23843,687;    2,008;   -1,136
572,439;24745,010;    1,554;   -1,045
573,021;24875,445;    2,099;   -2,773
573,602;25362,708;   -1,265;    0,318
574,183;26274,051;   -2,083;    2,227
574,764;26384,200;   -1,629;    0,409
575,345;26894,481;    0,917;   -0,136
575,926;27537,098;   -0,356;    0,136
576,507;27462,252;    1,099;   -0,227
577,088;28599,404;    3,099;    1,682
577,669;28570,843;    0,735;    1,955
578,250;29269,324;    0,644;   -1,045
578,831;29863,502;   -1,356;   -2,227
579,412;30154,450;   -0,810;    0,955
579,993;31081,694;    1,008;    0,227
580,573;31433,453;   -0,629;   -0,955
581,154;30397,147;    0,735;   -0,591
581,735;31233,266;    0,644;    0,773
582,315;30702,175;   -0,629;    2,136
582,896;31023,018;   -0,174;    1,227
583,477;30510,582;    0,189;    1,227
584,057;30726,664;    0,553;    0,955
584,638;31044,785;    2,553;    2,318
585,218;30975,299;   -0,538;    2,682
585,799;31148,323;    0,281;   -0,227
586,379;31161,313;    0,372;    1,591
586,959;29974,294;    0,735;    0,318
587,540;29347,771;   -0,629;    2,227
588,120;28923,642;    1,007;   -0,045
588,700;27896,018;    2,553;    2,136
589,281;28158,301;    0,462;   -0,955
589,861;28118,245;    0,099;   -1,682
590,441;27952,757;    2,371;   -2,682
591,021;26994,785;   -0,265;   -2,591
591,601;27259,520;   -0,537;    0,500
592,181;27234,093;   -0,719;   -0,773
592,761;26542,478;    0,007;    1,409
593,341;26498,354;   -0,901;    0,045
593,921;26447,010;   -0,265;    1,591
594,501;26358,506;   -0,538;    1,318
595,081;26173,857;    0,917;   -0,318
595,661;26532,562;   -1,447;    0,955
596,240;27057,005;   -0,537;    0,136
596,820;26701,475;    0,372;    1,955
597,400;26902,227;    2,008;    0,773
597,980;27118,302;    2,008;    1,045
598,559;27139,770;    2,735;   -0,227
599,139;26803,956;   -0,174;   -1,227
599,718;26733,956;   -0,174;   -0,409
600,298;26945,800;    0,735;    0,682
600,877;27237,122;    2,917;    1,409
601,457;27466,138;    2,281;    1,136
602,036;27354,155;    0,190;    2,045
602,616;27578,210;    0,644;    1,682
603,195;27865,319;   -0,355;    3,500
603,774;27441,839;   -0,901;    2,045
604,354;27326,264;    0,826;   -0,500
604,933;26857,336;    0,463;    1,864
605,512;27005,781;    3,554;    0,591
606,091;27001,919;   -0,537;    3,773
606,671;27820,472;    0,281;    0,773
607,250;26944,019;    1,644;    3,136
607,829;27187,637;    2,372;    3,227
608,408;27067,524;    1,190;    2,591
608,987;26113,136;    1,281;    3,409
609,566;26396,836;   -1,265;   -2,500
610,145;26491,290;   -1,082;    0,682
610,723;26922,869;    4,372;    6,864
611,302;26149,311;   -0,446;    1,682
611,881;25665,953;    5,008;   11,227
612,460;26487,107;    1,645;    3,955
613,039;26929,213;   -0,082;    2,045
613,617;25688,489;    1,736;    4,773
614,196;25904,955;    1,099;    1,227
614,775;26253,635;    1,009;    2,409
615,353;26097,232;    0,736;    0,864
615,932;25844,386;    0,100;    2,409
616,510;26469,725;    0,554;    0,591
617,089;26039,539;    7,100;   17,591
617,667;25784,296;    2,372;    6,136
618,246;25673,862;   -1,537;    1,318
618,824;25829,108;   -3,355;   -0,955
619,402;25404,927;   -2,900;   -1,773
619,981;25933,462;   -0,173;   -1,045
620,559;25835,788;    0,009;    1,682
621,137;25302,671;   -0,718;    1,864
621,715;25276,705;   -1,173;   -0,682
622,293;25237,731;   -0,537;   -0,773
622,871;25709,490;   -0,718;    0,500
623,450;25309,563;    0,373;   -0,864
624,028;25203,272;    0,191;   -0,955
624,606;24727,658;   -1,718;    1,682
625,183;25233,707;   -1,536;   -1,136
625,761;24837,161;    1,009;    1,136
626,339;25097,358;    1,373;    2,591
626,917;25511,235;   -0,172;   -0,045
627,495;25557,905;   -0,354;    1,318
628,073;25003,287;   -0,263;    2,864
628,650;24682,366;    0,100;    2,136
629,228;25129,409;    0,373;    4,409
629,806;24499,731;    2,282;    1,136
630,383;24813,869;    1,464;   -0,318
630,961;24632,489;    2,555;   -0,955
631,539;24393,201;    2,464;    0,227
632,116;23687,489;   11,373;   15,409
632,694;24257,325;    2,555;    6,500
633,271;24549,785;    0,828;    2,682
633,848;24458,887;    1,828;    2,045
634,426;24530,565;   -1,081;    1,773
635,003;23678,143;    1,101;   -0,409
635,580;23970,594;    1,192;    3,682
636,158;24524,767;    3,737;    1,227
636,735;24489,816;    0,555;   -0,500
637,312;24648,770;   -0,809;   -0,682
637,889;24709,167;   -4,354;   -0,682
638,466;24193,317;   -3,990;   -0,409
639,043;24212,325;    2,101;   -1,136
639,620;24575,202;   -2,262;   -0,955
640,197;24876,252;    1,100;    1,682
640,774;25014,481;   -0,172;    1,136
641,351;25427,437;    0,737;    1,136
641,928;24810,757;   -0,627;    1,409
642,505;24437,622;    0,828;   -0,500
643,082;24592,215;   -1,718;    1,227
643,658;23617,080;   -0,718;    1,500
644,235;24368,673;    1,191;    2,500
644,812;24684,448;    1,918;    0,773
645,388;24401,586;   -0,991;    1,409
645,965;24505,724;   -0,809;    1,682
646,542;24592,771;   -1,445;   -0,227
647,118;24507,000;    1,009;   -0,955
647,695;24844,502;   -0,263;    1,136
648,271;24741,367;   -0,536;    0,500
648,848;25043,232;    0,736;    2,227
649,424;24922,007;    0,827;    1,318
650,000;24672,418;   -0,354;   -1,045
650,577;24471,647;   -0,627;   -0,955
651,153;24943,330;   -1,809;    0,955
651,729;25937,559;    1,191;    0,864
652,305;25994,879;    0,645;    2,773
652,881;30003,563;   -0,082;    1,136
653,458;36534,883;    1,100;    0,227
654,034;40364,021;    0,282;    1,591
654,610;41912,068;    0,554;    0,773
655,186;43187,206;    0,645;    3,045
655,762;42874,253;   -0,991;    0,409
656,338;42899,755;    0,100;    0,136
656,913;43865,893;   -0,082;    0,409
657,489;43142,304;    0,827;   -0,318
658,065;43104,805;   -0,173;   -1,591
658,641;43814,762;   -0,900;   -0,864
659,217;43250,173;   -0,991;    0,409
659,792;42630,402;    0,645;   -0,409
660,368;42831,358;   -2,173;   -0,682
660,944;42571,860;   -2,082;    1,227
661,519;38438,179;   -0,628;    0,409
662,095;32813,499;   -1,719;    0,591
662,670;28172,092;    1,281;   -0,136
663,246;26946,321;    1,009;   -0,409
663,821;26180,914;    0,281;    1,682
664,396;25669,597;    0,009;    1,864
664,972;25934,099;    0,009;   -0,500
665,547;26257,601;    1,372;    0,136
666,122;26286,466;   -1,082;    0,318
666,698;26560,422;   -0,173;    0,318
667,273;25925,379;   -0,173;    0,136
667,848;26711,244;    2,372;    1,500
668,423;26466,018;    2,190;    2,318
668,998;27062,793;    2,827;   -0,682
669,573;27584,658;   -3,264;   -1,500
670,148;27386,069;   -1,446;   -0,682
670,723;27255,389;   -1,810;    0,318
671,298;27640,800;    2,372;    1,045
671,873;27764,756;   -0,082;   -0,136
672,448;27735,530;    0,645;    0,136
673,023;28059,214;   -1,992;   -0,227
673,597;28337,625;    0,827;    2,318
674,172;28127,763;   -0,355;    0,318
674,747;27606,446;    0,372;   -1,045
675,321;27498,857;   -0,628;    3,318
675,896;27047,541;    0,645;    1,045
676,471;28025,224;    2,645;    1,591
677,045;27789,726;   -1,264;    0,682
677,620;27848,682;    0,190;    1,136
678,194;28220,548;   -2,628;    1,136
678,769;27770,868;   -1,083;   -0,318
679,343;27919,733;   -0,628;    1,773
679,917;27797,871;   -1,446;    1,955
680,492;27937,827;    0,826;    3,227
681,066;28084,329;    3,372;    0,409
681,640;28126,649;    1,463;   -0,318
682,214;28910,787;    0,735;    0,500
682,788;28436,107;   -1,356;   -0,773
683,363;28361,881;   -1,810;    1,682
683,937;28064,838;   -1,719;   -0,318
684,511;28846,794;    0,463;   -0,591
685,085;28553,296;   -1,356;    0,318
685,659;28321,888;   -2,538;    0,864
686,232;28539,299;   -0,356;   -0,318
686,806;28304,165;   -0,901;    0,409
687,380;28959,303;   -0,174;    0,591
687,954;29187,986;   -1,174;    1,136
688,528;28871,215;   -0,719;    1,955
689,101;29642,353;   -3,992;    1,045
689,675;29175,582;   -0,356;   -0,136
690,249;28554,084;   -0,719;    0,409
690,822;28859,222;    0,280;    0,318
691,396;28986,633;   -0,265;    1,227
691,969;28417,407;    1,280;    0,136
692,543;28885,545;   -0,447;   -1,955
693,116;28576,956;   -0,265;   -1,409
693,690;28447,731;    0,099;    0,500
694,263;29003,051;   -1,083;    2,955
694,836;28978,825;    1,371;    3,591
695,410;27604,054;   -0,265;    1,773
695,983;28093,010;    0,189;    0,591
696,556;28064,330;   -0,447;   -1,045
697,129;28511,559;   -0,356;    1,409
697,703;28133,516;   -1,629;    1,955
698,276;28115,654;    1,462;   -0,773
698,849;27929,883;    1,280;    1,409
699,422;28273,748;   -1,083;    0,591
699,995;28002,341;    0,007;    0,136
700,568;28494,115;   -0,629;    3,045
701,140;28560,708;   -2,811;    1,682
701,713;28253,119;   -0,174;    2,409
702,286;28024,075;   -0,538;    0,864
702,859;27956,849;   -0,902;   -0,591
703,432;27060,169;    0,825;    0,682
704,004;27557,762;    0,462;    0,318
704,577;27427,264;   -0,629;    0,136
705,150;27995,493;    0,189;    2,500
705,722;27793,903;   -0,356;   -3,227
706,295;27566,132;   -0,175;   -0,591
706,867;27393,270;   -0,175;    1,955
707,440;27624,409;   -1,720;   -0,409
708,012;27894,638;    0,462;    0,591
708,584;27788,957;    2,462;    0,227
709,157;28119,641;    1,825;   -0,591
709,729;27746,688;    2,280;    2,045
710,301;28597,099;    0,734;    0,045
710,874;28600,510;   -1,447;   -0,227
711,446;27502,012;    0,371;    0,864
712,018;27357,786;    0,098;    0,500
712,590;27114,288;   -1,993;    1,682
713,162;27644,789;    0,825;    1,318
713,734;27961,837;    1,825;   -2,045
714,306;27869,247;   -1,902;   -0,409
714,878;26571,113;    0,825;    0,864
715,450;27334,069;    0,643;    0,864
716,022;27578,207;    1,552;    1,318
716,593;27739,163;    0,189;    0,591
717,165;27675,029;   -3,175;   -1,227
717,737;27357,167;    0,280;    0,409
718,309;27041,214;    0,280;   -0,045
718,880;26996,716;   -0,539;   -1,409
719,452;27199,490;   -0,175;   -1,591
720,024;26780,901;    0,734;   -0,591
720,595;27361,948;   -2,902;    0,955
721,167;26886,268;    0,370;   -2,045
721,738;26453,043;   -0,812;   -1,045
722,309;26435,453;   -0,993;   -1,227
722,881;26178,501;   -1,357;    0,773
723,452;26821,184;   -2,630;    2,864
724,023;27008,959;   -0,721;    2,682
724,595;26836,551;    0,007;    0,682
725,166;26567,508;    0,007;   -0,409
725,737;26167,100;    1,734;    0,227
726,308;26333,693;   -0,266;    0,318
726,879;26767,013;   -1,630;    1,227
727,450;26532,151;    0,552;   -0,045
728,021;26482,289;    3,097;    0,682
728,592;26326,336;    0,734;    0,500
729,163;26643,020;    0,643;   -0,136
729,734;26659,521;    0,188;   -0,227
730,305;26981,750;    1,734;    0,136
730,876;27388,888;    0,188;    2,955
731,447;27051,208;    2,188;    2,682
732,017;27105,256;    1,097;    1,864
732,588;26688,757;    0,734;    1,227
733,159;26812,259;    0,643;   -1,045
733,729;26700,943;    0,006;    0,409
734,300;25967,081;    0,915;    0,864
734,870;26401,855;    3,461;    0,591
735,441;26957,902;    0,370;   -0,591
736,011;26666,222;    0,643;   -1,591
736,582;26666,542;   -0,812;    0,045
737,152;26138,680;   -1,721;   -2,045
737,722;26558,546;   -0,267;   -0,682
738,293;26280,593;   -1,358;    1,318
738,863;26182,640;    2,461;    2,318
739,433;25960,233;    5,279;    0,318
740,003;26590,098;   -0,994;   -0,682
740,573;26009,963;    2,097;   -1,591
741,143;26007,556;   -1,085;    0,318
741,713;26781,058;    1,188;   -0,500
742,283;26435,832;    0,915;    1,591
742,853;26246,334;    1,915;    1,591
743,423;25719,926;    1,733;    0,045
743,993;25835,337;   -0,358;    1,500
744,563;25223,475;    0,097;   -0,864
745,133;25212,613;   -0,812;   -0,864
745,702;25861,115;   -0,267;    1,773
746,272;25071,344;   -0,176;    0,591
746,842;24866,846;   -1,358;   -0,591
747,411;25281,620;   -0,267;   -0,318
747,981;25497,486;    0,097;    0,500
748,551;25536,987;    2,278;   -1,045
749,120;25383,762;    0,642;   -0,227
749,690;25750,991;   -0,631;    2,409
750,259;26107,220;    1,369;    2,955
750,828;26023,540;    1,551;   -1,955
751,398;26277,860;    1,278;   -0,045
751,967;25744,816;    2,187;    0,409
752,536;25978,590;   -0,813;   -0,227
753,105;26395,547;    0,096;    0,227
753,675;26203,230;    0,096;    1,773
754,244;26143,823;   -0,904;    3,591
754,813;26132,143;    0,551;    1,227
755,382;25729,281;    0,460;    0,955
755,951;26270,419;    1,551;    3,682
756,520;25825,466;   -0,085;    1,864
757,089;26370,877;    0,278;    0,500
757,658;26528,924;    1,733;    1,227
758,227;26528,153;    1,096;    0,318
758,795;26833,109;    1,187;    1,136
759,364;27072,429;   -0,086;   -0,591
759,933;26088,295;   -1,176;   -0,045
760,501;25639,342;    0,733;   -1,318
761,070;26087,480;   -2,813;   -1,409
761,639;26775,618;   -1,904;    1,318
762,207;26063,120;    1,551;   -0,955
762,776;26013,985;    0,369;    0,864
763,344;25952,032;   -0,995;    0,591
763,913;25147,352;   -0,722;    1,409
764,481;25856,127;    1,005;   -0,136
765,049;25623,992;   -1,358;    1,409
765,618;25565,494;   -0,086;    0,318
766,186;25658,723;    0,278;    0,136
766,754;25784,770;    0,005;    1,864
767,322;24822,090;   -1,995;    0,409
767,890;24853,319;   -0,722;   -1,773
768,459;25233,457;   -2,177;   -0,318
769,027;25408,777;    1,641;    3,409
769,595;24401,097;    3,278;    2,591
770,163;24842,871;    3,823;    2,955
770,730;24628,009;    0,732;   -0,136
771,298;24491,147;    0,187;   -1,409
771,866;24575,195;   -1,541;    4,955
772,434;24940,787;   -0,631;   -1,864
773,002;25100,744;    0,005;    0,682
773,569;24746,336;    0,914;    1,682
774,137;24509,020;   -0,268;   -0,045
774,705;25309,431;    0,278;   -0,136
775,272;24800,932;    0,641;    0,682
775,840;24588,798;   -0,177;    2,682
776,407;24118,481;    0,277;    1,955
776,975;23743,165;   -0,632;    0,318
777,542;24750,576;   -1,086;   -0,045
778,110;24572,714;   -1,268;   -0,045
778,677;24281,670;   -2,359;   -0,864
779,244;24020,353;    2,186;    1,045
779,812;24133,764;    1,823;    0,864
780,379;23972,630;    0,005;    1,136
780,946;24214,859;    1,005;   -0,773
781,513;24557,815;   -1,450;    0,318
782,080;23918,771;   -0,086;    2,864
782,647;24667,182;   -0,268;    3,045
783,214;24232,229;   -0,177;    3,864
783,781;23863,185;   -0,723;   -0,682
784,348;23731,505;   -0,632;    1,500
784,915;24205,553;   -3,177;    0,318
785,482;23951,327;    1,368;    2,591
786,049;24384,283;    0,186;   -0,591
786,615;24553,421;    0,277;   -0,955
787,182;24280,105;    0,186;   -0,682
787,749;23985,698;   -2,814;    1,409
788,315;23300,745;   -1,632;   -0,409
788,882;23582,610;    1,550;   -1,227
789,448;24299,657;    1,732;   -0,955
790,015;24304,250;    1,095;    3,227
790,581;23851,843;    1,459;    0,227
791,148;23731,072;    0,641;    1,045
791,714;23986,119;   -0,541;    3,136
792,280;23684,530;    0,186;    1,591
792,847;23261,031;    0,550;    2,500
793,413;23802,806;   -0,269;   -0,318
793,979;23323,671;    3,459;   -1,318
794,545;23391,355;    4,459;    2,682
795,111;22805,311;    2,186;    1,318
795,678;22980,631;    0,731;   -1,682
796,244;22650,042;    3,368;    0,136
796,810;23217,998;    1,731;    0,773
797,375;22923,954;    0,549;   -2,136
797,941;22969,092;   -0,541;    0,591
798,507;23117,321;   -0,451;   -0,955
799,073;22689,459;   -0,360;    0,591
799,639;22731,688;   -2,632;    3,136
800,205;22806,099;    0,095;    2,682
800,770;22362,965;    0,640;    1,773
801,336;22416,648;    1,368;   -0,955
801,901;22118,786;    4,549;    3,136
802,467;22667,379;   -0,542;    2,045
803,033;22025,517;   -0,087;    0,864
803,598;22232,564;    1,913;   -1,045
804,163;22329,429;    1,095;   -0,318
804,729;22226,022;   -0,178;    1,136
805,294;22644,706;    0,822;    2,227
805,859;22415,844;    0,731;   -0,409
806,425;21888,982;    1,186;    2,682
806,990;21517,938;    2,186;    4,318
807,555;22055,894;   -1,451;    2,591
808,120;21936,851;    0,822;   -0,409
808,685;21998,716;    0,185;   -2,500
809,250;21551,309;    0,004;   -0,500
809,815;21805,356;    1,913;    0,682
810,380;22319,312;   -0,269;    1,591
810,945;22851,905;   -1,087;    2,045
811,510;22049,770;    2,094;    1,591
812,075;21782,817;   -0,633;   -1,409
812,640;21826,137;    2,003;    1,409
813,204;21868,730;    0,822;   -0,227
813,769;22307,868;    2,094;   -0,045
814,334;21720,915;    0,458;    0,864
814,898;21766,326;    0,367;    0,591
815,463;21676,737;    1,276;   -0,773
816,027;21669,238;   -0,724;   -2,318
816,592;21724,558;    0,640;   -2,045
817,156;21249,060;    2,094;    1,136
817,721;21124,925;    4,276;    2,318
818,285;21087,154;    2,912;    1,500
818,849;21743,747;   -1,451;    1,682
819,414;21653,249;   -0,269;    2,955
819,978;21215,114;   -1,269;    1,773
820,542;21782,434;    2,003;    0,500
821,106;21503,663;   -0,815;    0,682
821,670;21635,165;   -0,815;    2,591
822,234;21327,939;   -0,270;    1,409
822,798;20697,532;    0,003;    0,500
823,362;20655,670;   -0,633;    4,227
823,926;19974,354;    0,094;    1,136
824,490;20218,673;   -0,997;   -0,682
825,054;20638,448;   -0,088;   -1,136
825,618;20253,859;   -1,542;   -1,500
826,181;20227,815;    0,458;   -1,318
826,745;20155,135;    1,367;   -1,045
827,309;20483,637;    1,185;    1,318
827,872;19855,593;    1,367;    0,955
828,436;20881,913;    1,185;   -0,773
828,999;20920,778;   -0,997;    1,227
829,563;19751,007;   -0,179;    1,136
830,126;19555,600;   -0,179;   -0,591
830,690;19529,738;   -1,997;    2,864
831,253;19109,785;   -0,543;    2,227
831,816;19249,469;   -1,906;    0,500
832,380;19200,607;    0,185;    0,864
832,943;19396,108;   -1,361;   -0,500
833,506;18893,974;    2,639;   -1,227
834,069;19620,657;    3,912;   -0,955
834,632;19681,795;    1,730;    1,318
835,195;19606,752;    1,003;    0,955
835,758;18801,890;   -0,997;    1,955
836,321;18659,119;    0,730;   -1,045
836,884;18746,984;   -0,725;   -0,955
837,447;18805,850;   -2,816;    1,773
838,010;19063,624;    0,366;    3,227
838,573;19414,035;   -1,179;    0,773
839,135;19334,264;   -1,361;   -0,955
839,698;18843,220;    1,275;    0,409
840,261;18327,449;    1,003;   -0,227
840,823;18151,951;   -0,543;    0,864
841,386;18494,725;   -0,452;   -2,409
841,948;18335,863;   -1,361;    1,773
842,511;18103,911;    0,912;    1,682
843,073;18262,867;    1,912;    0,227
843,636;18052,005;   -0,361;   -0,227
844,198;17972,052;    0,911;    0,591
844,760;18098,645;    1,093;    1,955
845,322;17758,237;    0,548;    1,136
845,885;18207,375;    0,730;    0,591
846,447;18629,514;   -1,998;    0,227
847,009;18187,470;    1,911;   -0,682
847,571;18520,517;    0,820;   -2,045
848,133;18602,655;   -1,089;   -1,864
848,695;18438,975;   -0,543;    1,409
849,257;17972,113;   -1,089;   -1,682
849,819;18123,069;   -0,998;   -0,409
850,381;18188,207;   -0,725;   -0,864
850,942;18556,164;    1,093;   -0,591
851,504;18507,211;    1,184;    0,227
852,066;18553,531;    1,275;   -1,591
852,628;18065,851;   -0,180;    1,955
853,189;17664,443;    1,638;    2,682
853,751;17764,400;   -0,907;    1,409
854,312;17547,992;   -0,453;   -1,682
854,874;18057,039;   -2,089;   -0,773
855,435;18573,268;   -0,907;   -1,682
855,997;18769,043;   -1,816;   -0,136
856,558;18073,272;    0,366;    1,773
857,119;18135,319;    0,820;    2,864
857,681;17827,275;    0,002;    0,318
858,242;17856,413;    1,911;   -2,136
858,803;18301,915;    0,456;   -0,773
859,364;18895,235;    0,184;   -4,773
859,925;18199,191;   -2,453;   -0,955
860,486;18125,784;   -0,453;   -0,955
861,047;17857,740;   -0,544;   -1,227
861,608;17640,697;   -1,089;   -0,773
862,169;17768,198;    0,638;   -0,045
862,730;17533,791;    0,456;    1,409
863,291;17770,474;   -0,635;   -0,500
863,852;18137,885;   -0,635;    1,955
864,412;17686,478;   -0,271;   -0,864
864,973;16253,434;   -0,089;    0,500
865,534;16093,209;   -1,726;    0,227
866,094;17574,347;    1,820;    0,227
866,655;17244,848;    1,274;    3,318
867,215;17491,987;    0,274;    0,136
867,776;17372,397;    0,547;   -0,136
868,336;17484,354;   -1,453;    0,136
868,897;16930,310;    2,638;    1,682
869,457;16678,630;    1,365;    0,318
870,017;16913,859;    0,547;   -1,227
870,578;17463,542;   -0,817;    0,773
871,138;17130,226;   -2,089;   -0,955
871,698;16690,273;   -0,817;   -1,318
872,258;16534,775;   -0,453;   -2,864
872,818;16891,913;    2,729;    0,045
873,378;16877,869;    0,638;    1,045
873,938;16429,098;    0,547;    0,500
874,498;16782,963;    0,274;   -1,955
875,058;16714,283;    2,183;    1,773
875,618;16521,694;    1,910;   -2,682
876,177;16460,287;    1,274;    0,136
876,737;16047,970;   -0,090;    1,955
877,297;16051,654;    0,183;    1,955
877,856;16061,247;   -0,362;    0,318
878,416;16042,839;    1,183;   -0,136
878,976;16274,432;   -1,817;    0,409
879,535;16414,752;    0,092;    3,136
880,095;16132,526;   -0,544;    0,045
880,654;16257,028;   -1,090;    1,318
881,213;16342,530;    2,456;    1,500
881,773;15967,759;    2,637;    2,682
882,332;16313,806;    3,365;    5,136
882,891;16188,308;    3,092;    2,136
883,451;16671,900;   -1,272;    1,682
884,010;16118,038;   -2,908;   -0,409
884,569;16253,449;   -0,999;   -0,045
885,128;16356,496;    2,819;   -1,864
885,687;16365,543;    4,455;    0,682
886,246;16087,591;    1,455;    2,136
886,805;15873,820;    2,455;    2,045
887,364;16168,049;   -0,999;   -0,500
887,922;16541,823;   -1,181;    0,045
888,481;16057,234;   -1,545;    0,591
889,040;16342,917;    1,183;    2,136
889,599;17007,056;    2,455;    1,409
890,157;17100,830;    1,455;    2,409
890,716;16730,877;   -0,090;    0,227
891,274;16581,197;    0,092;   -1,136
891,833;16990,153;    1,546;    0,864
892,391;16865,201;   -0,454;    0,500
892,950;16927,884;    1,819;   -0,773
893,508;17315,931;    0,455;   -0,409
894,067;16693,069;    0,637;    0,136
894,625;16572,207;   -0,636;   -1,500
895,183;16808,346;   -0,363;   -0,682
895,741;16674,665;    1,728;   -1,773
896,299;16518,804;   -0,545;   -2,409
896,858;16713,396;    0,819;   -1,591
897,416;16856,262;    2,728;   -1,318
897,974;16564,581;    1,819;    0,318
898,532;16735,174;    6,091;    2,682
899,089;16647,585;    2,091;   -0,682
899,647;16736,087;   -1,454;    1,318
900,205;16386,043;    1,182;    1,045
900,763;16626,636;   -0,454;    0,227
901,321;16608,228;    2,364;   -1,409
901,878;16064,821;   -1,000;   -0,773
902,436;15920,777;   -1,363;    1,318
902,994;16326,642;    4,728;    3,682
903,551;15778,962;    0,728;    0,409
904,109;16187,010;    0,182;   -1,409
904,666;15788,966;    2,455;    1,045
905,224;15620,104;    0,182;   -0,409
905,781;15332,060;    0,727;   -0,318
906,338;15392,562;   -1,363;    1,045
906,895;15340,882;    0,637;    2,045
907,453;15285,929;    1,727;    1,136
908,010;15338,067;   -0,909;    0,409
908,567;14994,842;    1,273;    0,591
909,124;14519,798;    0,364;   -1,500
909,681;14593,754;   -2,909;    0,682
910,238;14710,347;    0,636;   -1,318
910,795;15025,030;   -0,273;   -1,136
911,352;14643,576;   -2,909;   -2,682
911,909;14061,212;   -1,364;   -0,864
912,466;14556,848;   -3,182;    1,500
913,022;14137,939;   -1,636;    0,500
913,579;14517,939;   -0,909;    2,045
914,136;14238,121;    1,636;    0,955
914,692;14537,121;    0,091;   -1,227
915,249;14145,939;    1,455;    0,409
915,806;14343,121;    0,182;    1,955
916,362;14092,121;    1,909;    1,864
916,918;13706,848;    2,000;    1,045
917,475;13642,212;   -1,182;    0,955
918,031;13699,394;    3,364;   -0,045
918,587;13172,394;   -0,909;   -0,318
919,144;13411,303;   -2,273;    0,227
919,700;13734,939;    1,727;    0,773
920,256;13300,212;    0,727;    0,045
920,812;12962,394;   -0,727;   -1,045
921,368;12951,121;   -1,727;   -1,045
921,924;12582,667;    0,182;   -0,136
922,480;12160,758;   -0,545;    1,227
923,036;12802,485;    1,273;    1,955
923,592;12714,303;    0,455;    0,318
924,148;12618,939;    0,455;   -0,955
924,704;11933,848;   -1,364;   -0,409
925,259;12239,939;   -0,273;    0,591
925,815;12017,030;    1,455;    0,500
926,371;11561,758;    2,909;    1,409
926,926;11401,939;    2,091;    0,591
927,482;11027,939;   -1,364;    0,773
928,037;10972,848;    0,909;    2,045
928,593;11211,394;    1,636;    1,045
929,148;11068,394;   -1,818;   -1,500
929,704;10566,030;   -1,455;   -0,500
930,259;10766,212;    0,091;   -0,136
930,814; 9830,394;   -0,818;    1,955
931,369; 9536,121;    1,091;   -0,773
931,925; 9431,303;   -0,091;    0,136
932,480; 9361,030;   -2,818;   -2,591
933,035; 9213,121;    0,545;   -0,318
933,590; 8988,576;    0,364;   -1,773
934,145; 8658,394;   -1,364;   -0,318
934,700; 9018,121;    0,455;   -0,591
935,255; 8791,485;   -0,091;    0,045
935,809; 8072,485;    3,182;    0,864
936,364; 7245,576;   -0,455;   -0,136
936,919; 7219,212;    0,455;   -1,773
937,474; 7131,121;    1,455;    0,136
938,028; 6882,212;   -1,636;    1,136
938,583; 6343,394;    1,818;    4,682
939,138; 6637,667;    2,091;    2,136
939,692; 6099,485;    1,636;   -1,136
940,247; 5830,848;   -0,727;   -1,045
940,801; 5382,758;   -0,636;    0,227
941,355; 5277,030;   -0,364;    2,591
941,910; 4924,485;   -0,273;   -2,136
942,464; 5030,576;   -0,818;   -0,318
943,018; 4820,485;    1,000;   -0,227
943,572; 4768,485;    2,545;   -0,682
944,126; 4199,121;    0,091;   -0,409
944,681; 4104,576;    3,091;    0,227
945,235; 4089,576;    1,000;   -0,591
945,789; 4039,758;    0,364;   -1,864
946,342; 4135,212;    0,455;   -0,591
946,896; 3931,121;   -2,273;    0,955
947,450; 3683,848;    1,545;   -0,227
948,004; 3887,212;    1,727;   -0,045
948,558; 3896,030;    0,273;   -0,864
949,111; 3840,848;   -0,273;   -0,318
949,665; 3854,121;    1,636;   -0,682
950,219; 3744,667;   -0,091;   -1,045
950,772; 3815,485;   -1,909;    1,864
951,326; 3707,848;    0,545;   -0,955
951,879; 3797,212;    0,727;   -2,318
952,433; 3847,939;    0,000;    2,227
952,986; 3685,030;    2,909;    0,682
953,539; 3652,485;   -0,273;    0,591
954,093; 3572,212;    0,545;   -1,318
954,646; 3703,939;    0,909;    1,318
955,199; 3507,030;    0,000;   -0,500
955,752; 3398,848;   -0,455;    1,773
956,305; 3363,667;   -0,091;    2,955
956,858; 3517,758;    0,818;   -0,318
957,411; 3682,121;   -0,545;    2,136
957,964; 3519,667;    1,364;    2,136
958,517; 3528,303;   -1,545;    3,136
959,070; 3336,576;   -0,455;    1,955
959,623; 3407,848;    1,091;    1,500
960,176; 3208,212;    1,727;    2,045
960,728; 3184,485;   -2,727;    0,773
961,281; 3219,576;    0,545;    0,500
961,834; 3272,667;   -0,909;    0,864
962,386; 3220,485;    1,727;    1,045
962,939; 3126,758;    0,364;   -0,318
963,491; 3275,394;    0,455;    1,136
964,043; 3162,030;    1,182;    2,409
964,596; 3272,030;   -1,000;    2,227
965,148; 3105,576;   -1,000;    1,773
965,700; 3020,303;    1,091;   -0,227
966,253; 3164,848;   -0,636;    0,318
966,805; 3025,212;   -2,273;    0,773
967,357; 3076,303;    1,091;   -1,500
967,909; 3019,848;    0,455;   -1,227
968,461; 3132,030;    0,545;    3,136
969,013; 3064,667;   -0,182;   -0,864
969,565; 3117,212;   -0,455;   -1,136
970,117; 3206,758;   -0,364;    1,045
970,669; 3039,030;    0,182;   -0,136
971,220; 2895,394;   -0,455;   -1,500
971,772; 2830,030;   -0,636;   -0,318
972,324; 2945,212;    0,091;   -0,500
972,876; 2906,121;    0,818;   -0,045
973,427; 3050,576;    1,909;   -1,045
973,979; 3003,030;   -0,727;   -2,500
974,530; 3045,485;    1,818;    1,318
975,082; 3051,212;   -0,545;    1,682
975,633; 2942,758;    1,091;    1,682
976,184; 3088,667;    0,909;    0,773
976,736; 2898,848;    0,091;    0,227
977,287; 2685,576;   -0,909;   -0,500
977,838; 2864,576;    0,909;   -0,318
978,389; 2900,848;   -1,000;   -0,500
978,940; 2785,848;    0,545;   -0,409
979,491; 2822,939;    0,091;   -0,500
980,042; 2804,667;    0,182;    3,045
980,593; 2859,758;   -2,545;    0,227
981,144; 2893,485;    2,545;   -0,500
981,695; 2845,576;    1,455;    1,500
982,246; 2832,576;   -0,273;    1,045
982,797; 2979,121;   -1,727;    0,682
983,347; 3063,394;    0,364;    0,591
983,898; 3241,394;    3,091;    0,409
984,449; 3068,848;    2,182;    0,773
984,999; 2973,030;    1,455;   -1,136
985,550; 2760,576;    0,182;   -0,318
986,100; 2786,394;   -0,455;   -0,318
986,651; 2827,394;   -0,818;    0,045
987,201; 2800,303;   -1,000;   -0,591
987,751; 2881,030;    0,818;    2,864
988,302; 2873,667;    2,636;    1,500
988,852; 2896,030;    0,455;   -1,136
989,402; 2944,848;    0,091;    0,682
989,952; 2863,667;   -2,182;    0,864
990,502; 2968,848;   -0,091;    0,682
991,052; 2937,485;   -0,727;    0,045
991,602; 2798,485;   -2,909;    1,318
992,152; 2789,576;    0,455;    0,682
992,702; 2775,576;    1,364;   -0,045
993,252; 2702,667;   -3,000;   -0,500
993,802; 2785,939;   -0,273;    1,318
994,352; 3004,667;   -1,545;    1,136
994,901; 3115,303;   -0,182;    3,227
995,451; 3033,485;   -0,182;    0,318
996,000; 3104,667;    1,636;    0,318
996,550; 2815,121;    2,273;    0,227
997,100; 2831,939;    1,273;   -0,045
997,649; 3106,848;    2,182;    0,955
998,198; 2747,303;    1,727;   -1,500
998,748; 2939,667;    1,091;   -2,318
999,297; 2859,848;   -0,818;   -0,409
999,846; 2915,848;    1,000;   -0,773
1000,395; 2958,848;   -0,818;    0,500
1000,945; 2918,030;    1,818;   -0,773
1001,494; 3007,576;    2,364;    0,682
1002,043; 2982,303;    4,636;    0,864
1002,592; 2851,394;   -1,091;    1,955
1003,141; 2994,212;   -0,455;   -0,682
1003,690; 2837,485;    1,727;    0,500
1004,238; 2929,394;    1,455;   -0,045
1004,787; 2569,394;    1,364;    1,227
1005,336; 2789,030;    0,364;    0,682
1005,885; 2956,939;    1,364;   -2,773
1006,433; 3062,394;    0,545;    0,955
1006,982; 3130,758;    0,455;    1,682
1007,531; 3032,576;   -1,818;   -0,227
1008,079; 2985,394;   -2,273;    0,500
1008,627; 3140,576;   -1,455;    0,409
1009,176; 2900,121;    0,000;   -1,955
1009,724; 2926,394;    1,091;    0,864
1010,273; 2977,939;    1,273;    0,500
1010,821; 3088,303;    0,091;    1,409
1011,369; 2833,303;   -1,364;    1,318
1011,917; 2798,667;   -1,364;   -0,591
1012,465; 3070,030;    1,273;   -1,591
1013,013; 3194,212;    2,091;   -1,682
1013,561; 3071,667;    0,455;   -0,773
1014,109; 3119,758;   -1,909;    1,682
1014,657; 3008,030;    0,364;    0,591
1015,205; 3136,848;    1,636;   -0,955
1015,753; 3160,394;   -0,545;   -1,409
1016,301; 3185,848;   -2,636;    3,045
1016,848; 3197,212;   -1,273;    0,409
1017,396; 3239,939;    2,545;    0,045
1017,944; 3371,030;    1,182;    1,864
1018,491; 3131,848;    0,273;    1,409
1019,039; 3280,394;    0,455;    0,591
1019,586; 3207,303;   -1,364;    1,682
1020,134; 3298,576;    0,455;    1,500
1020,681; 3326,030;    0,182;   -1,136
1021,228; 3339,394;    2,909;   -2,227
1021,776; 3173,667;    1,182;   -1,136
1022,323; 3386,212;    0,455;    0,773
1022,870; 3299,030;   -1,000;   -0,045
1023,417; 3200,121;    2,636;    1,864
1023,964; 3349,030;    2,636;    1,227
1024,511; 3201,030;    1,000;    0,773
1025,058; 3008,939;    3,182;   -0,045
1025,605; 3044,212;   -2,273;    3,136
1026,152; 3269,848;    1,727;   -0,591
1026,699; 3014,485;    1,818;    1,318
1027,245; 3196,030;   -0,091;    0,318
1027,792; 3394,848;   -1,000;    1,409
1028,339; 3261,030;    2,364;   -0,045
1028,885; 3104,212;    1,000;   -0,227
1029,432; 3056,485;   -0,091;    0,227
1029,978; 3111,394;   -1,000;   -1,591
1030,525; 3013,939;    1,000;    0,409
1031,071; 3257,121;   -1,364;    1,136
1031,618; 3367,576;    0,364;    1,682
1032,164; 3153,121;   -0,091;    3,045
1032,710; 3195,667;    1,636;   -1,500
1033,256; 3120,121;   -0,636;   -0,136
1033,803; 3095,030;   -0,545;    1,500
1034,349; 2843,030;   -1,364;    0,136
1034,895; 2990,667;    0,000;   -0,318
1035,441; 2959,576;   -0,818;    0,318
1035,987; 2965,303;   -2,364;   -0,682
1036,533; 2978,758;   -1,455;   -0,955
1037,078; 3158,212;    1,455;    1,682
1037,624; 2987,939;    2,455;   -0,955
1038,170; 3023,121;    0,455;   -0,318
1038,716; 2928,667;    1,636;   -0,409
1039,261; 2847,667;   -2,273;   -0,773
1039,807; 2786,485;   -0,091;    3,409
1040,352; 2851,030;   -1,909;   -0,318
1040,898; 2872,939;   -1,545;   -0,682
1041,443; 2802,939;   -1,455;   -2,591
1041,989; 2813,758;    1,091;    1,591
1042,534; 2715,121;   -0,364;    2,591
1043,079; 2823,939;    2,909;    0,955
1043,625; 2611,667;    1,818;    0,500
1044,170; 2664,394;   -1,364;    1,045
1044,715; 2908,394;    2,455;    0,955
1045,260; 2723,303;    2,182;   -0,955
1045,805; 2767,030;    1,182;   -0,591
1046,350; 2699,303;    1,364;   -0,409
1046,895; 2671,939;    2,909;    1,591
1047,440; 2632,485;    5,364;    0,409
1047,985; 2544,030;    2,818;   -0,955
1048,530; 2443,303;    1,545;    1,227
1049,074; 2504,758;    0,000;    0,318
1049,619; 2486,576;   -1,364;    1,955
1050,164; 2308,485;    0,455;    0,227
1050,708; 2341,030;   -0,455;    0,045
1051,253; 2697,485;    1,273;   -2,227
1051,797; 2409,667;    0,818;   -1,318
1052,342; 2431,303;   -1,182;    1,045
1052,886; 2425,939;    0,364;   -1,409
1053,430; 2306,758;   -1,364;    0,136
1053,975; 2306,485;   -0,818;   -0,318
1054,519; 2295,394;   -0,727;    3,227
1055,063; 2311,758;    0,909;    1,318
1055,607; 2205,848;   -0,182;    0,227
1056,151; 2219,939;    2,909;    1,682
1056,695; 2129,030;    2,273;   -1,136
1057,239; 2213,030;   -1,727;   -0,682
1057,783; 2233,848;    0,818;   -1,500
1058,327; 2160,394;    0,000;    1,409
1058,871; 2386,485;   -0,545;    1,318
1059,415; 2097,212;   -0,818;   -0,045
1059,958; 2354,030;    1,455;    2,591
1060,502; 2082,758;   -1,000;   -0,773
1061,046; 2001,303;    0,364;   -0,955
1061,589; 1957,848;   -3,000;   -1,136
1062,133; 1843,212;   -1,273;    1,864
1062,676; 1796,758;    1,182;    0,864
1063,220; 1789,485;    1,091;    0,500
1063,763; 1816,939;    0,909;    1,136
1064,306; 1896,303;   -0,909;    1,864
1064,849; 1771,576;   -0,909;    0,591
1065,393; 1793,758;    2,000;   -1,500
1065,936; 1890,303;    0,182;   -0,409
1066,479; 1791,848;   -1,455;    1,318
1067,022; 1806,939;   -0,273;   -0,227
1067,565; 1710,030;   -0,091;   -1,318
1068,108; 1731,939;    0,727;   -0,591
1068,651; 1713,576;   -0,636;    1,409
1069,194; 1644,667;   -0,455;   -1,682
1069,736; 1637,485;   -1,273;    0,955
1070,279; 1615,667;   -1,364;   -0,500
1070,822; 1668,848;   -2,000;   -0,318
1071,364; 1744,485;   -0,364;    1,318
1071,907; 1582,212;   -0,727;    3,227
1072,450; 1489,303;    0,000;   -0,045
1072,992; 1478,485;   -0,273;    3,136
1073,535; 1606,758;    2,091;    2,136
1074,077; 1416,848;   -0,727;    2,045
1074,619; 1374,303;   -1,364;    0,591
1075,161; 1412,121;   -1,091;    1,500
1075,704; 1586,667;    1,545;    1,227
1076,246; 1391,485;   -0,182;    0,682
1076,788; 1323,667;   -0,364;    1,773
1077,330; 1384,394;    1,273;    2,136
1077,872; 1337,485;    0,909;    0,955
1078,414; 1564,939;    2,727;    0,773
1078,956; 1299,212;    1,273;   -0,227
1079,498; 1556,303;    1,636;    0,318
1080,040; 1274,394;    1,909;   -1,318
1080,581; 1214,212;    1,636;   -0,318
1081,123; 1150,030;    0,091;   -0,773
1081,665; 1194,212;   -1,182;   -0,955
1082,206; 1487,758;    1,364;   -0,500
1082,748; 1344,212;    0,727;    2,045
1083,289; 1232,939;   -2,000;    1,318
1083,831; 1136,121;   -0,545;    0,227
1084,372; 1181,485;    0,000;    0,591
1084,913; 1182,939;    1,091;    0,864
1085,455; 1147,758;   -1,909;   -2,045
1085,996; 1116,212;   -2,273;    0,136
1086,537; 1131,485;   -0,091;    0,864
1087,078; 1160,667;   -0,909;   -2,136
1087,619; 1208,758;   -1,273;    0,227
1088,160; 1129,303;    0,000;    1,318
1088,701; 1115,030;   -1,091;    0,682
1089,242; 1056,121;    1,364;   -2,227
1089,783; 1141,758;   -0,273;    1,409
1090,324; 1114,030;    0,455;    0,682
1090,865;  997,939;    2,727;   -0,409
1091,405;  967,303;    0,727;    2,227
1091,946;  987,030;    0,182;   -0,955
1092,487;  928,576;    0,818;   -1,409
1093,027; 1077,576;   -1,364;   -1,500
1093,568;  926,758;   -0,364;    1,227
1094,108; 1020,939;    0,273;    1,773
1094,649;  952,485;   -1,182;    0,136
1095,189;  905,758;   -0,636;   -0,682
1095,729;  845,667;   -0,091;    0,955
1096,269;  859,758;    0,727;   -0,955
1096,810; 1175,939;   -1,364;    0,500
1097,350;  995,394;    1,364;   -0,773
1097,890;  912,121;    0,364;    1,227
1098,430; 1149,212;    2,364;    2,864
1098,970; 1023,848;    2,182;    1,682
1099,510;  890,939;    0,545;   -2,318
1100,050;  821,939;    1,000;   -1,591
1100,589;  785,212;   -0,727;   -0,318
1101,129;  911,939;    0,818;   -0,955
1101,669; 1047,939;    1,727;    2,136
1102,209;  881,030;   -0,091;    2,227
1102,748;  837,485;    0,000;    0,955
1103,288;  830,030;    1,273;   -1,227
1103,827;  853,848;    3,091;   -2,227
1104,367;  733,485;   -0,091;   -2,409
1104,906;  695,212;    1,364;   -1,136
1105,445;  771,667;    0,636;   -1,136
1105,985;  720,485;   -0,727;    1,500
1106,524;  758,212;   -1,727;   -0,682
1107,063;  733,030;   -2,727;    1,409
1107,602;  712,485;   -1,909;   -1,500
1108,141;  638,121;   -1,909;    1,500
1108,680;  730,394;   -3,455;   -0,591
1109,219;  664,303;   -0,909;   -0,500
1109,758;  665,303;    0,455;    0,682
1110,297;  645,667;    1,000;   -0,682
1110,836;  599,485;   -0,727;    0,955
1111,375;  753,212;   -2,545;    0,409
1111,913;  757,030;   -1,000;    0,773
1112,452;  709,939;   -0,273;    0,136
1112,991;  596,303;    1,091;    1,955
1113,529;  548,030;   -0,818;   -0,045
1114,068;  615,758;   -0,273;    2,955
1114,606;  515,303;   -0,364;   -0,955
1115,144;  669,485;   -1,273;    1,045
1115,683;  616,758;   -0,727;    0,318
1116,221;  665,848;   -0,455;   -0,864
1116,759;  572,667;    0,636;   -0,864
1117,297;  757,576;    0,000;    1,864
1117,836;  568,485;   -2,182;   -1,227
1118,374;  585,667;    0,182;   -0,682
1118,912;  525,848;    0,909;    2,682
1119,450;  518,030;    1,000;    0,864
1119,988;  559,030;    1,545;    2,136
1120,525; 1013,394;    5,091;    3,318
1121,063;  712,939;    1,182;    1,864
1121,601;  523,394;   -0,909;   -1,227
1122,139;  488,576;   -0,727;   -2,045
1122,676;  674,576;   -0,727;    2,773
1123,214;  599,848;   -1,182;    4,409
1123,751;  427,758;    1,727;    2,227
1124,289;  555,939;   -0,091;   -0,409
1124,826;  423,121;    1,727;    0,227
1125,364;  344,485;    1,727;   -0,955
1125,901;  533,939;    1,182;    1,227
1126,438;  641,485;    0,818;    0,955
1126,975;  381,576;   -0,727;   -0,773
1127,513;  443,394;    0,273;    2,136
1128,050;  348,758;    1,636;   -0,682
1128,587;  448,121;    2,000;   -0,227
1129,124;  487,939;    0,091;    1,318
1129,661;  356,667;    0,273;    0,227
1130,198;  530,667;    1,636;    0,773
1130,734;  461,394;    0,182;    1,409
1131,271;  314,848;   -0,909;    0,864
1131,808;  493,212;    2,909;    3,045
1132,345;  380,939;    1,545;    0,318
1132,881;  243,394;   -1,545;   -1,864
1133,418;  378,030;    0,727;   -1,136
1133,954;  327,667;    2,455;   -2,682
1134,491;  394,848;    1,364;   -0,773
1135,027;  285,576;    2,364;    0,864
1135,564;  373,121;    0,273;    2,955
1136,100;  362,030;    0,364;    2,136
1136,636;  251,667;   -1,273;   -1,045
1137,172;  352,030;    0,000;   -1,045
1137,708;  274,121;   -1,364;   -1,045
1138,245;  278,939;    1,273;   -1,227
1138,781;  235,212;    1,091;   -3,318
1139,317;  296,848;    1,273;   -1,409
1139,852;  287,030;    3,091;    0,136
1140,388;  398,576;   -1,182;   -0,409
1140,924;  281,121;   -1,091;   -2,227
1141,460;  223,939;   -1,636;    0,136
1141,996;  172,758;   -1,364;    2,682
1142,531;  211,303;    1,364;    3,318
1143,067;  420,667;    1,182;    1,045
1143,602;  469,485;   -0,091;   -0,318
1144,138;  319,303;   -2,636;    1,045
1144,673;  190,667;   -1,455;    1,409
1145,209;  261,212;   -1,909;   -0,318
1145,744;  179,212;   -0,727;    0,864
1146,279;  305,939;    1,818;   -0,136
1146,815;  237,212;    1,545;   -2,682
1147,350;  267,667;   -1,364;    0,045
1147,885;  178,121;   -0,818;   -1,318
1148,420;  182,576;   -2,273;    0,773
1148,955;  163,758;   -1,727;    1,864
1149,490;  187,758;   -0,909;   -1,591
1150,025;  170,121;    0,455;   -1,773
1150,560;  279,485;    1,091;   -0,955
1151,094;  241,030;    1,455;   -0,591
1151,629;  259,212;    1,636;    0,864
1152,164;  181,030;    1,364;    1,318
1152,698;  140,939;   -0,182;   -0,136
1153,233;  104,667;    0,091;   -0,682
1153,767;  142,030;   -3,000;   -2,318
1154,302;  193,758;   -1,455;    1,773
1154,836;  194,212;   -0,455;   -2,136
1155,371;  249,212;   -1,364;    3,682
1155,905;  203,939;   -0,636;    1,682
1156,439;  169,394;   -0,636;   -0,500
1156,973;  203,394;    0,364;    0,318
1157,507;  142,030;   -0,364;    0,682
1158,042;  166,758;   -0,727;    1,045
1158,576;  207,212;    0,182;    1,773
1159,110;  198,394;   -0,818;    2,409
1159,643;  170,212;    0,636;   -0,045
1160,177;  108,848;   -1,545;    1,500

