
Integration time [ms]:   0,040
Averaging Nr. [scans]: 11
Smoothing Nr. [pixels]: 0
Data measured with spectrometer [name]: 7318044SP
Wave   ;Sample   ;Dark     ;Reference
[nm]   ;[counts] ;[counts] ;[counts] 

186,757;   17,009;   31,551;    1,318
187,357;   30,840;   22,551;    0,955
187,958;    8,085;   15,460;   -1,591
188,558;   42,371;    8,915;   -1,227
189,159;   12,842;    6,733;   -4,500
189,759;   -6,371;    7,278;   -3,591
190,360;  -13,065;    2,824;   -2,136
190,960;    7,451;    2,915;   -4,136
191,560;   13,147;    3,189;   -6,591
192,161;  217,228;    4,372;   -3,500
192,761;   92,287;    4,010;   -3,227
193,361;   43,488;    1,556;   -3,773
193,962;   70,498;    2,010;   -2,682
194,562;   13,146;    1,189;   -3,955
195,162;   16,591;   -2,448;   -2,227
195,762;  126,750;   -3,176;   -0,045
196,362;   84,849;    1,370;   -2,500
196,963;   -2,564;    2,006;   -0,864
197,563;   39,644;    1,551;   -0,955
198,163;    3,788;    0,096;   -0,682
198,763;   13,808;    1,733;   -0,500
199,363;   61,234;    3,096;   -0,500
199,963;   29,436;    0,369;    0,409
200,563;   15,202;    2,823;   -1,409
201,163;   -2,939;    3,277;   -0,227
201,763;   26,694;    3,732;    0,318
202,363;    1,579;    1,459;    1,500
202,963;   30,741;    1,459;    1,045
203,563;   82,582;    0,277;    0,500
204,162;   15,949;    2,096;   -1,864
204,762;    3,067;    0,550;    0,591
205,362;  -15,611;    3,004;    1,955
205,962;   12,788;    3,096;    1,955
206,562;   14,778;    1,823;    2,318
207,161;    6,316;   -0,087;    0,318
207,761;   67,081;    1,277;    2,409
208,361;    4,768;   -0,268;    1,409
208,960;   25,199;    0,459;    1,500
209,560;   21,887;    1,277;    1,591
210,160;   38,969;    0,550;    1,864
210,759;   10,811;    4,186;    1,227
211,359;   -5,830;    1,459;    1,045
211,958;   98,426;    1,277;    2,045
212,558;  101,240;    1,732;    1,864
213,157;   39,794;    1,822;    1,500
213,757;  169,901;    3,822;   -0,227
214,356;   62,921;    1,277;   -0,409
214,956;  149,599;    3,095;    0,409
215,555;   38,267;    2,095;    2,136
216,154;    9,025;   -2,723;   -0,591
216,754;    8,388;    0,277;    0,773
217,353;   26,253;   -0,268;   -1,045
217,952;  -14,477;   -0,178;    0,318
218,552;   45,069;    1,368;   -0,773
219,151;    8,926;    0,277;    0,955
219,750;    3,544;    0,004;   -0,227
220,349;   -8,413;   -0,451;    1,045
220,948;   50,233;   -1,360;    1,136
221,548;    0,156;    0,913;    1,227
222,147;   14,002;   -0,087;   -0,409
222,746;   80,594;   -0,451;   -0,955
223,345;   33,507;    0,731;    0,500
223,944;   36,555;   -0,451;    0,773
224,543;   34,728;    1,004;   -1,409
225,142;   23,671;    0,094;    0,136
225,741;   30,438;   -0,814;    1,045
226,340;   17,199;   -0,451;   -0,955
226,939;   61,000;   -0,996;   -0,136
227,538;   12,012;   -0,360;   -0,773
228,137;   77,238;   -0,814;    0,864
228,735;   49,328;   -0,541;    1,227
229,334;   -6,310;   -0,905;   -0,227
229,933;   70,025;    0,459;    0,591
230,532;   67,108;    1,186;   -0,409
231,131;  104,861;    1,732;    0,318
231,729;   47,204;   -2,450;   -2,318
232,328;   12,081;   -0,723;   -1,500
232,927;   23,463;    1,004;   -0,500
233,525;   18,157;    3,640;    0,045
234,124;   33,442;    2,368;   -1,591
234,723;    3,810;    0,913;   -1,045
235,321;   -9,846;    2,277;    0,136
235,920;    3,205;    1,186;   -1,227
236,518;   73,457;    3,459;    0,318
237,117;    9,490;    0,004;   -0,227
237,715;   23,297;    0,640;   -0,500
238,314;   24,929;   -0,087;   -2,318
238,912;   74,050;   -0,723;   -1,409
239,510;   39,229;    0,459;   -1,227
240,109;   86,125;    0,004;    3,773
240,707;   63,189;   -0,996;    1,227
241,305;   -0,958;    0,550;    0,136
241,904;   25,224;   -0,178;   -2,045
242,502;   86,771;   -0,632;   -0,227
243,100;   45,386;   -0,087;   -0,955
243,698;    7,557;    0,732;    1,682
244,297;   24,327;   -0,632;    0,682
244,895;   24,152;   -0,269;   -2,318
245,493;   94,492;    2,186;   -0,591
246,091;   94,459;    1,368;   -1,318
246,689;   53,004;    1,004;    0,591
247,287;   50,700;    0,822;   -1,136
247,885;   26,440;   -1,451;    1,227
248,483;   15,850;    1,822;   -0,500
249,081;   42,512;    0,185;    1,591
249,679;   46,813;   -0,178;    1,682
250,277;    2,526;   -1,723;    0,864
250,875;   45,842;   -1,087;   -1,045
251,473;   12,703;   -1,178;    0,500
252,071;   44,123;    1,459;    1,045
252,669;   15,191;   -1,814;    0,318
253,267;    9,486;   -0,087;    0,773
253,864;   19,336;   -0,360;    0,682
254,462;   64,074;    1,640;    1,591
255,060;    8,617;   -0,269;    1,318
255,658;    1,282;    0,822;   -0,136
256,255;   14,154;    0,186;   -2,045
256,853;   37,894;   -0,269;    1,409
257,451;   25,854;    0,822;    1,864
258,048;  177,760;    1,822;    1,864
258,646;   73,710;    1,731;   -1,045
259,243;  104,985;   -0,087;    2,227
259,841;   58,161;   -0,814;    0,318
260,438;   11,137;   -0,087;    0,864
261,036;   47,540;   -1,905;    1,409
261,633;    8,920;   -0,087;    2,227
262,231;   -4,053;    2,731;   -0,045
262,828;   -7,828;   -0,905;    1,136
263,425;   14,759;    0,913;   -0,591
264,023;   16,526;    0,186;    0,045
264,620;   65,527;   -0,360;   -0,318
265,217;  108,010;   -2,087;    3,136
265,815;   28,329;   -1,905;    2,136
266,412;   60,648;    0,731;    0,136
267,009;   48,763;   -1,451;    0,773
267,606;   87,892;    0,822;   -0,955
268,203;   38,391;   -0,269;   -0,591
268,801;   36,039;    1,731;    0,591
269,398;   10,927;   -0,360;    2,500
269,995;   55,808;    0,277;    1,591
270,592;   42,175;   -0,632;   -0,500
271,189;    5,048;    0,186;    0,409
271,786;   -1,483;   -0,632;    1,227
272,383;   76,632;   -1,087;    0,227
272,980;   35,643;    0,277;    0,318
273,577;   22,168;    0,004;    1,227
274,174;    7,473;    0,822;    2,591
274,771;   59,191;   -0,814;   -0,773
275,367;  225,531;    2,277;    1,409
275,964;  118,417;    0,731;   -0,500
276,561;   42,466;    1,549;   -1,045
277,158;    2,268;    0,095;   -1,773
277,755;   98,149;    2,185;    0,409
278,351;   60,982;   -0,451;   -1,500
278,948;   85,209;   -0,815;    0,045
279,545;   61,140;   -1,360;    2,318
280,141;  113,670;   -1,723;   -2,045
280,738;  119,463;   -0,451;   -0,136
281,334;   40,472;   -1,633;    0,591
281,931;   31,736;   -0,087;   -1,318
282,528;   85,036;    0,822;   -0,500
283,124;  105,165;   -1,087;   -0,500
283,721;  109,824;   -0,451;    1,409
284,317;   52,525;    0,185;    2,500
284,913;  111,704;   -1,360;    0,591
285,510;  200,249;    0,640;   -0,318
286,106;  129,301;   -2,269;   -0,955
286,703;   76,540;   -0,360;    1,955
287,299;   51,798;   -1,451;   -0,591
287,895;   40,012;    0,822;   -1,045
288,491;   35,745;    0,186;    2,136
289,088;   73,629;   -2,360;    2,409
289,684;  100,191;   -1,723;    1,500
290,280;  184,123;    0,368;    0,682
290,876;  162,769;    1,822;    5,500
291,472;  125,753;    1,276;    2,227
292,068;  148,757;    1,367;    0,227
292,665;   97,616;    2,095;    0,773
293,261;   56,322;    0,276;    2,136
293,857;  168,212;    2,913;    2,136
294,453;  129,388;    3,550;    0,955
295,049;  280,414;   -0,268;    1,955
295,644;  188,220;    0,095;    0,136
296,240;  103,906;   -0,905;   -0,136
296,836;  180,346;   -0,995;    0,318
297,432;  284,729;    1,096;   -0,500
298,028;  313,426;    0,732;    0,773
298,624;  242,075;    1,459;    1,864
299,220;  227,766;    2,368;    0,591
299,815;  233,199;    1,005;   -0,409
300,411;  332,323;    0,914;    1,773
301,007;  437,697;    1,368;    0,227
301,602;  310,771;   -0,541;   -2,318
302,198;  432,963;    0,732;   -0,773
302,794;  308,643;    1,187;   -0,500
303,389;  261,918;   -1,177;    1,045
303,985;  322,889;    0,550;    1,409
304,580;  456,188;    1,459;    1,591
305,176;  369,020;   -3,086;    0,136
305,771;  266,147;   -1,268;   -1,227
306,367;  634,212;    4,095;    0,136
306,962;  410,408;    0,641;    1,500
307,558;  456,347;   -0,450;    0,136
308,153;  512,293;    1,095;   -1,136
308,748;  330,259;   -0,814;    1,682
309,344;  673,424;   -0,632;   -1,318
309,939;  659,995;   -1,905;   -1,318
310,534;  365,300;   -0,086;   -1,682
311,130;  338,866;    0,459;   -2,500
311,725;  293,780;    1,004;   -0,500
312,320;  338,197;    2,459;    0,045
312,915;  417,665;    1,459;   -1,045
313,510;  590,630;    1,550;   -0,500
314,105;  323,790;    1,096;    1,409
314,700;  194,614;   -3,086;   -1,045
315,295;  263,733;   -0,904;    0,045
315,890;  216,497;    1,277;    0,864
316,485;  296,509;   -0,359;   -0,318
317,080;  213,500;   -3,086;    1,591
317,675;  458,743;    2,005;   -0,682
318,270;  626,512;    5,550;    3,318
318,865;  500,693;    3,278;    3,045
319,460;  372,195;   -0,904;    0,591
320,055;  220,566;   -0,541;   -1,227
320,650;  217,896;   -1,995;   -0,591
321,244;  214,387;   -0,177;   -1,409
321,839;  207,343;   -1,541;   -0,227
322,434;  239,378;   -1,086;   -1,591
323,029;  183,455;    1,732;    1,591
323,623;  162,895;    1,550;    0,773
324,218;  315,632;    2,368;    1,409
324,812;  252,462;    1,096;    1,591
325,407;  249,559;   -0,814;    2,045
326,002;  367,439;    0,277;   -0,409
326,596;  321,884;    0,914;    1,318
327,191;  202,981;    0,823;   -1,045
327,785;  204,884;   -0,813;   -0,227
328,379;  209,012;    1,368;    0,136
328,974;  272,679;    0,914;   -3,955
329,568;  301,947;    0,186;   -2,409
330,163;  377,941;    2,096;    1,045
330,757;  242,389;    2,459;    1,591
331,351;  207,867;    0,459;    0,682
331,945;  216,279;    0,914;    1,409
332,540;  362,595;   -1,723;   -0,591
333,134;  381,542;   -1,086;    0,773
333,728;  397,747;    0,005;    0,318
334,322;  311,041;   -1,177;   -0,864
334,916;  325,791;    0,277;    0,955
335,510;  529,078;   -0,450;   -0,136
336,105;  541,617;   -1,086;    1,591
336,699;  463,688;   -1,086;    0,591
337,293;  530,668;   -1,723;    0,318
337,887;  496,136;   -2,723;    1,955
338,481;  712,625;    0,459;    0,591
339,074;  875,336;   -0,359;    2,682
339,668;  874,030;   -1,632;    1,227
340,262; 1558,482;    1,732;    3,227
340,856; 1158,494;    1,822;   -0,682
341,450;  791,924;    1,004;    1,864
342,044;  929,487;    1,459;    0,136
342,637; 1155,670;    0,913;   -2,136
343,231; 1245,097;   -2,360;    0,682
343,825; 1069,687;   -1,086;   -0,591
344,419; 1114,101;   -1,995;    0,500
345,012; 1776,125;    2,459;    4,045
345,606; 1616,909;    4,641;    1,591
346,199; 1319,750;   -1,813;   -0,227
346,793; 1477,898;    1,914;    2,045
347,386; 1367,885;   -0,813;   -1,136
347,980; 1281,830;   -0,268;   -0,045
348,573; 1458,425;    2,278;    0,409
349,167; 1726,020;    5,278;    4,773
349,760; 1782,142;    2,914;    2,682
350,354; 1705,961;   -0,813;    1,136
350,947; 1771,550;    1,096;    1,682
351,540; 1561,125;   -0,358;   -1,409
352,134; 1457,809;    1,096;    1,136
352,727; 1542,826;   -0,086;    1,136
353,320; 1585,843;    0,005;    0,591
353,913; 1458,241;   -1,995;    1,864
354,507; 1720,335;    0,823;   -1,227
355,100; 1693,422;    0,460;    0,864
355,693; 1956,671;    2,005;    2,409
356,286; 1696,627;    0,823;    2,773
356,879; 1609,325;   -0,722;    1,227
357,472; 1491,721;   -0,904;    1,500
358,065; 1596,863;   -0,722;    2,500
358,658; 1492,688;   -0,540;    2,318
359,251; 1365,235;   -1,631;   -0,591
359,844; 1476,042;   -1,904;   -1,136
360,437; 1569,666;   -2,995;    0,045
361,030; 1469,114;    1,369;   -0,682
361,623; 1375,491;    2,824;    0,318
362,215; 1590,891;   -0,086;    2,045
362,808; 1399,259;   -2,358;   -1,682
363,401; 1333,091;   -2,449;    0,136
363,994; 1552,600;   -0,631;   -1,500
364,586; 1276,976;    0,824;   -1,500
365,179; 1240,086;   -0,449;   -1,136
365,772;  999,735;   -1,995;    2,045
366,364; 1127,941;    1,915;   -3,227
366,957; 1271,821;    2,279;   -0,045
367,549; 1151,753;    2,188;   -0,864
368,142; 1123,282;    1,825;   -1,500
368,734; 1080,099;    0,734;   -2,136
369,327;  983,359;    1,643;   -0,500
369,919; 1027,126;   -1,538;    0,409
370,512; 1071,217;   -1,083;   -0,500
371,104; 1274,586;   -0,901;    1,591
371,696; 1314,187;    1,191;   -0,955
372,289; 1159,117;    0,373;    1,136
372,881; 1094,377;   -2,080;    1,318
373,473;  942,409;   -2,170;    1,136
374,066; 1034,298;   -0,169;    0,500
374,658;  983,334;    0,378;    1,136
375,250;  939,104;    0,653;   -1,409
375,842;  958,583;    0,473;   -0,045
376,434;  892,610;   -0,435;   -0,409
377,026;  961,622;    0,204;   -2,500
377,618;  953,398;   -0,158;   -0,682
378,210;  843,466;   -0,338;   -1,955
378,802;  746,243;    0,754;   -0,591
379,394; 1229,826;    1,846;    0,682
379,986; 1010,097;    1,393;   -0,955
380,578;  911,139;   -0,153;    0,773
381,170; 1125,686;   -0,972;    0,045
381,762;  983,951;    0,755;    1,409
382,354;  945,976;   -0,065;   -1,318
382,945;  867,579;   -2,976;    0,318
383,537;  834,165;   -2,705;   -1,955
384,129;  857,905;   -2,160;   -1,136
384,721;  994,366;   -0,252;    0,955
385,312;  871,694;   -0,161;   -0,955
385,904; 1031,462;   -2,706;    1,591
386,496;  824,531;   -0,979;    1,045
387,087;  991,765;    1,022;    2,500
387,679;  919,110;   -1,160;    0,045
388,270;  956,732;    2,840;    2,045
388,862;  891,591;    1,295;   -0,318
389,453;  793,857;   -0,887;    1,045
390,045;  868,827;   -0,705;   -2,682
390,636;  780,415;    0,204;   -0,591
391,227;  795,619;   -0,523;   -0,045
391,819;  835,175;    0,204;    0,773
392,410; 1103,887;    1,022;    0,045
393,001;  905,054;   -0,979;   -1,591
393,593;  988,003;    1,930;   -0,045
394,184; 1036,510;    1,385;   -0,409
394,775;  835,723;    1,839;    2,136
395,366;  834,578;    1,385;    0,773
395,957; 1035,555;    0,113;    0,136
396,548;  921,754;   -0,342;    2,682
397,139; 1103,728;   -2,433;    0,591
397,730;  959,456;   -1,888;    0,955
398,321;  954,107;   -1,252;    0,955
398,912;  877,234;   -0,615;    0,136
399,503;  941,081;   -3,524;   -1,409
400,094;  908,213;    0,294;    1,682
400,685;  896,953;   -0,433;    0,045
401,276;  793,403;    0,930;   -0,955
401,867;  813,506;   -0,888;    0,773
402,458;  769,644;   -2,251;   -2,318
403,048;  953,056;    1,112;    0,591
403,639;  800,218;    0,840;    0,864
404,230; 1022,451;    2,476;    0,318
404,821; 1056,809;   -0,615;    0,045
405,411;  924,851;    1,203;   -2,591
406,002;  765,451;   -1,252;   -1,136
406,592; 1053,104;    2,294;    0,045
407,183;  870,701;    0,566;   -1,500
407,774;  784,844;    3,475;   -0,136
408,364;  741,898;    0,930;    0,409
408,954;  871,148;    0,384;    1,227
409,545;  856,509;    1,021;    1,045
410,135;  733,891;    1,293;    0,500
410,726;  677,681;    1,838;    0,318
411,316;  906,991;    0,111;    0,773
411,906;  646,944;   -0,253;   -0,409
412,497;  617,951;   -1,070;   -0,045
413,087;  549,105;   -1,980;   -0,227
413,677;  476,802;   -0,707;    3,864
414,267;  436,769;    0,656;    1,409
414,857;  371,409;   -2,980;    4,227
415,448;  360,138;    0,839;    0,500
416,038;  372,263;    0,020;   -0,591
416,628;  426,164;   -0,889;    0,409
417,218;  480,779;    0,565;    3,318
417,808;  638,873;    0,202;   -0,409
418,398;  450,995;    0,020;    2,682
418,988;  290,241;    2,020;    0,591
419,578;  380,412;   -0,707;    1,409
420,168;  305,673;   -1,343;   -0,955
420,757;  464,351;   -1,343;   -1,500
421,347;  318,073;    0,111;   -0,227
421,937;  258,374;    2,292;    1,409
422,527;  393,565;    0,838;   -0,773
423,116;  541,843;   -0,253;   -0,045
423,706;  202,185;   -1,889;    0,318
424,296;  128,638;    1,384;    0,682
424,885;  275,184;   -0,071;   -3,045
425,475;  229,284;    1,474;   -2,864
426,065;   90,859;   -0,980;   -0,318
426,654;   62,492;   -0,435;   -0,318
427,244;  351,772;    0,020;    1,409
427,833;  309,222;    1,383;   -0,500
428,423;  164,727;   -0,526;    1,136
429,012;  154,562;   -0,344;   -1,136
429,601;  275,874;   -1,344;    0,136
430,191;  158,343;    1,292;    4,318
430,780;   43,243;   -0,344;   -0,409
431,369;  233,602;    0,746;   -0,045
431,959;  109,818;   -1,254;    0,500
432,548;   35,305;   -1,163;   -0,045
433,137;  -27,142;   -1,254;   -1,318
433,726;   40,398;    0,292;    0,500
434,315;   65,191;   -0,526;    2,409
434,905;  178,338;   -1,254;    1,409
435,494;  154,083;    0,746;    0,955
436,083;   25,916;   -0,981;   -0,955
436,672;  105,469;    0,110;    0,500
437,261;   48,543;    0,292;   -1,955
437,850;  277,597;    1,383;    0,682
438,439;  323,409;    3,291;    1,955
439,027;  417,868;    3,655;    1,773
439,616;  344,184;    2,927;    1,227
440,205;  131,687;    0,200;   -2,136
440,794;   71,733;    2,109;   -0,045
441,383;    2,628;   -1,346;   -0,591
441,971;  -25,193;   -2,436;    0,591
442,560;   -7,511;    0,563;   -1,773
443,149;  -92,664;    0,379;   -1,318
443,737;  -51,341;   -0,074;   -2,318
444,326;  -28,236;    0,018;    0,318
444,915;   27,518;   -1,982;    0,864
445,503;   26,329;   -2,891;   -0,318
446,092;  264,244;    0,382;    2,136
446,680;  189,344;    0,382;    0,318
447,269;   95,501;   -0,346;   -0,318
447,857;   90,878;    0,018;   -1,773
448,445;   49,640;    0,563;    1,318
449,034;   -8,152;   -1,528;   -1,136
449,622;    1,122;   -1,073;    3,500
450,210;  262,331;    2,017;    2,227
450,799;  180,608;    0,290;   -0,591
451,387;  143,280;    1,381;   -0,591
451,975;  118,546;    2,654;    0,864
452,563;  196,322;    3,472;    2,318
453,151;   40,522;   -0,528;   -1,227
453,739;   75,155;   -1,347;    0,136
454,328;  167,207;    2,381;   -2,136
454,916;  108,975;    2,562;   -0,136
455,504;  129,905;    1,017;    1,227
456,092;   22,836;    0,017;   -1,591
456,679;  -15,829;    1,472;    0,682
457,267;  371,002;    4,017;    1,045
457,855;   78,434;    1,017;    1,409
458,443;  -51,642;   -0,165;    1,682
459,031;   84,985;    0,108;    2,409
459,619;   51,582;   -1,801;    2,864
460,206;  -29,381;    0,835;    2,045
460,794;  -26,069;   -2,983;   -0,227
461,382;   22,435;   -0,529;   -0,864
461,970;   19,920;    1,198;    1,864
462,557;  -49,688;   -0,711;   -0,682
463,145;   52,729;   -3,165;   -1,682
463,732;  286,023;    2,016;   -1,045
464,320;   69,250;   -0,075;   -3,045
464,907;  203,941;    2,743;   -0,773
465,495;  117,214;    0,743;   -1,227
466,082;   40,188;   -1,984;   -0,045
466,670;   72,281;   -2,529;    1,227
467,257;  -19,439;   -1,711;    2,045
467,844;   68,233;   -0,075;    0,045
468,432;   38,175;    0,834;    3,500
469,019;    8,345;    0,925;   -1,773
469,606;   88,395;    0,470;    3,682
470,193;  115,751;   -1,439;    0,227
470,780;   74,338;   -2,075;    0,864
471,368;    4,744;   -1,257;   -0,773
471,955;   97,829;    1,379;   -0,682
472,542;   67,967;    0,652;   -1,136
473,129;  -33,561;   -0,166;    0,136
473,716;  -25,051;    1,470;    0,591
474,303;    7,678;    0,652;   -0,864
474,890;    8,829;   -1,439;   -0,500
475,477;   97,898;   -1,621;    0,409
476,064;   13,553;    1,106;   -1,591
476,650;  120,263;    0,288;    0,318
477,237;   37,173;   -0,258;    0,955
477,824;   19,298;   -1,076;    0,864
478,411;  -54,614;   -1,894;   -0,318
478,997;  -58,326;    0,560;   -0,773
479,584;  -98,974;    1,196;   -0,409
480,171;   58,836;   -0,440;   -0,773
480,757;  112,521;    2,651;    0,773
481,344;   11,989;    0,469;    0,409
481,931;  -68,262;    1,105;    1,045
482,517;   45,170;   -1,258;    0,318
483,104;  129,541;    1,106;    2,864
483,690;    2,452;   -1,804;    0,045
484,276;  -22,231;   -0,895;    0,227
484,863;  182,579;    2,469;    1,136
485,449;   30,144;   -0,077;    0,318
486,035;  -14,459;   -1,986;   -0,136
486,622;   70,982;   -0,895;    0,045
487,208;    0,870;    1,378;    1,500
487,794;  -71,906;    0,741;    0,318
488,380;  -64,537;    0,105;   -1,409
488,967;  -58,785;   -1,168;   -0,409
489,553;  -47,946;   -1,895;   -1,409
490,139;   20,115;    1,559;    0,773
490,725;  -47,245;    0,741;   -0,227
491,311;    3,630;    3,287;    3,045
491,897;  -19,095;   -0,986;    1,500
492,483;   -6,696;    0,105;    1,227
493,069;  415,877;    3,923;    0,864
493,655;  142,738;    1,650;    0,682
494,241;    8,522;    1,377;   -0,955
494,826;   16,962;    0,287;   -1,045
495,412;   82,629;    2,559;   -0,682
495,998;   -1,975;   -0,805;   -0,318
496,584;   56,956;    0,377;    1,045
497,169;   66,933;    1,014;   -0,682
497,755;   16,016;    0,650;    1,227
498,341;  125,478;    0,559;    0,318
498,926;  240,912;    1,832;    1,955
499,512;    4,084;    1,286;    2,955
500,097;    5,608;    0,195;   -0,318
500,683;   30,691;   -0,350;    2,136
501,268;  -11,459;   -0,169;   -0,955
501,854;    3,882;   -0,169;    1,227
502,439;  -11,737;   -0,624;   -1,773
503,024;   15,129;    0,195;    0,500
503,610;   33,612;   -0,078;   -0,682
504,195;   -5,714;    0,558;    1,955
504,780;   76,362;    2,922;    1,227
505,366;  158,631;    3,013;    2,864
505,951;   88,976;    0,740;    1,045
506,536;   18,821;   -3,260;   -3,682
507,121;   71,753;    0,285;   -0,318
507,706;   26,937;    2,376;    1,045
508,291;  -18,842;    2,649;    1,136
508,876;  -17,867;   -0,988;    2,591
509,461;   32,574;   -0,169;   -0,773
510,046;   76,875;    0,194;    0,318
510,631;  105,682;   -0,351;   -0,773
511,216;   29,115;    2,467;   -0,500
511,801;  102,792;   -0,442;    2,591
512,386;  154,112;    0,740;    0,500
512,971;  201,402;   -2,988;    0,955
513,555;  282,541;   -0,897;   -1,500
514,140;  275,485;   -0,442;   -3,136
514,725;  485,566;   -0,715;   -1,136
515,309;  426,017;   -0,533;    0,318
515,894;  368,804;   -0,624;   -2,227
516,479;  516,083;   -0,624;   -0,955
517,063;  620,986;    0,376;    1,227
517,648;  692,898;    1,012;   -1,136
518,232;  780,414;   -0,261;   -1,409
518,817; 1077,113;   -0,079;    1,682
519,401; 1470,260;    2,194;    0,591
519,985; 1449,255;    1,103;    1,136
520,570; 1612,297;    0,830;   -1,955
521,154; 2049,548;    2,102;    0,591
521,738; 2538,021;   -2,352;    2,409
522,323; 3020,817;   -0,170;    1,682
522,907; 3216,806;    0,466;   -0,136
523,491; 3477,808;    0,557;    0,955
524,075; 3878,506;    2,284;    0,591
524,659; 4371,980;    1,466;    0,591
525,243; 4531,559;    1,739;    0,409
525,827; 5070,840;    0,648;   -0,045
526,411; 5978,708;   -1,989;   -0,136
526,995; 6573,411;   -0,352;    1,409
527,579; 6719,798;   -0,443;   -1,045
528,163; 7338,293;    0,375;   -1,500
528,747; 7755,108;    2,466;   -0,773
529,331; 8372,227;   -0,080;   -1,409
529,915; 8854,689;    1,738;    0,955
530,499; 9172,295;   -0,807;    1,227
531,082; 9270,979;   -0,534;    1,591
531,666; 9149,159;    1,374;    0,773
532,250;10003,897;    1,284;    2,682
532,833;10493,852;    0,920;    2,773
533,417;10708,884;   -1,807;    0,864
534,001;10868,745;    1,647;   -0,318
534,584;11736,607;    0,374;    0,500
535,168;11775,151;    0,465;    1,409
535,751;12059,644;    0,647;    0,045
536,334;11673,923;   -0,898;   -0,409
536,918;12438,588;    0,011;    1,591
537,501;12693,597;   -0,899;    1,318
538,085;12793,601;   -0,444;    1,045
538,668;13046,027;    0,829;    2,409
539,251;13462,543;    1,829;    3,773
539,834;13622,995;    0,101;    0,773
540,418;13678,498;   -1,990;    4,318
541,001;13872,917;   -0,990;    1,773
541,584;13900,098;    2,101;    2,227
542,167;13698,985;    1,374;    2,955
542,750;13933,294;    1,919;   -0,773
543,333;13611,830;    0,555;    2,136
543,916;14417,483;    0,192;    2,500
544,499;15045,096;   -1,354;    0,227
545,082;15137,067;    1,374;    3,591
545,665;15303,547;    1,919;    1,500
546,248;15644,830;    1,010;   -0,318
546,830;15394,524;   -0,445;    1,955
547,413;15824,508;    1,010;   -0,773
547,996;16365,304;    0,555;    0,500
548,579;16203,739;    0,919;    0,955
549,161;16031,256;    1,828;    2,682
549,744;15852,418;   -0,809;    0,409
550,326;16364,329;   -0,809;   -1,136
550,909;16188,943;    2,737;    0,591
551,492;16614,506;   -0,263;    0,227
552,074;16436,252;   -0,173;   -1,318
552,657;17006,858;    2,373;    0,045
553,239;16768,407;   -0,173;   -0,773
553,821;16731,030;   -1,082;    1,045
554,404;16227,463;    1,282;    1,136
554,986;16636,562;    0,464;    1,045
555,568;17238,929;    1,191;   -0,955
556,151;16483,900;    1,191;   -0,227
556,733;16722,013;   -0,264;   -0,864
557,315;17152,943;    0,100;    0,500
557,897;16966,728;    0,554;   -0,500
558,479;17105,123;   -1,991;    1,318
559,061;17232,143;   -0,719;   -0,864
559,643;17593,467;   -0,264;    0,045
560,225;17947,355;    1,645;    2,864
560,807;17973,649;    0,918;    0,318
561,389;17483,713;    0,554;    2,318
561,971;18198,828;    0,463;    2,136
562,553;18048,174;   -1,628;    1,591
563,135;18171,930;   -0,537;    1,136
563,717;17748,080;    3,372;    1,136
564,298;18470,299;    3,645;   -0,045
564,880;18202,023;    0,645;   -1,409
565,462;18406,114;    0,645;    1,318
566,043;19523,033;   -0,446;    2,318
566,625;19042,941;    1,918;    1,227
567,207;18927,044;    1,099;    1,682
567,788;20007,047;   -1,264;    1,500
568,370;20806,305;    1,917;   -0,500
568,951;20616,203;    0,190;    0,227
569,533;21442,768;   -0,628;   -0,500
570,114;21909,796;   -0,446;    0,682
570,695;22394,185;   -0,174;   -1,318
571,277;22862,102;   -0,265;   -1,682
571,858;23548,944;    2,008;   -1,136
572,439;24431,723;    1,554;   -1,045
573,021;24590,969;    2,099;   -2,773
573,602;25077,052;   -1,265;    0,318
574,183;25971,121;   -2,083;    2,227
574,764;26093,543;   -1,629;    0,409
575,345;26661,732;    0,917;   -0,136
575,926;27189,170;   -0,356;    0,136
576,507;27166,870;    1,099;   -0,227
577,088;28288,294;    3,099;    1,682
577,669;28277,730;    0,735;    1,955
578,250;28948,212;    0,644;   -1,045
578,831;29572,203;   -1,356;   -2,227
579,412;29803,519;   -0,810;    0,955
579,993;30814,854;    1,008;    0,227
580,573;31160,249;   -0,629;   -0,955
581,154;30117,488;    0,735;   -0,591
581,735;30929,517;    0,644;    0,773
582,315;30457,244;   -0,629;    2,136
582,896;30739,270;   -0,174;    1,227
583,477;30244,285;    0,189;    1,227
584,057;30492,914;    0,553;    0,955
584,638;30764,581;    2,553;    2,318
585,218;30752,549;   -0,538;    2,682
585,799;30985,302;    0,281;   -0,227
586,379;30942,657;    0,372;    1,591
586,959;29717,364;    0,735;    0,318
587,540;29117,473;   -0,629;    2,227
588,120;28653,703;    1,007;   -0,045
588,700;27689,628;    2,553;    2,136
589,281;28026,369;    0,462;   -0,955
589,861;27958,676;    0,099;   -1,682
590,441;27756,643;    2,371;   -2,682
591,021;26760,580;   -0,265;   -2,591
591,601;27046,774;   -0,537;    0,500
592,181;27034,439;   -0,719;   -0,773
592,761;26345,996;    0,007;    1,409
593,341;26271,969;   -0,901;    0,045
593,921;26260,081;   -0,265;    1,591
594,501;26153,394;   -0,538;    1,318
595,081;25978,747;    0,917;   -0,318
595,661;26377,087;   -1,447;    0,955
596,240;26845,714;   -0,537;    0,136
596,820;26470,914;    0,372;    1,955
597,400;26654,479;    2,008;    0,773
597,980;26908,466;    2,008;    1,045
598,559;26927,023;    2,735;   -0,227
599,139;26675,208;   -0,174;   -1,227
599,718;26575,663;   -0,174;   -0,409
600,298;26800,417;    0,735;    0,682
600,877;27042,650;    2,917;    1,409
601,457;27349,487;    2,281;    1,136
602,036;27195,319;    0,190;    2,045
602,616;27409,375;    0,644;    1,682
603,195;27722,304;   -0,355;    3,500
603,774;27267,459;   -0,901;    2,045
604,354;27179,248;    0,826;   -0,500
604,933;26644,227;    0,463;    1,864
605,512;26814,765;    3,554;    0,591
606,091;26906,178;   -0,537;    3,773
606,671;27659,184;    0,281;    0,773
607,250;26765,458;    1,644;    3,136
607,829;27046,898;    2,372;    3,227
608,408;26938,056;    1,190;    2,591
608,987;25940,218;    1,281;    3,409
609,566;26240,360;   -1,265;   -2,500
610,145;26361,644;   -1,082;    0,682
610,723;26803,859;    4,372;    6,864
611,302;26065,121;   -0,446;    1,682
611,881;25546,035;    5,008;   11,227
612,460;26415,279;    1,645;    3,955
613,039;26838,206;   -0,082;    2,045
613,617;25561,840;    1,736;    4,773
614,196;25766,492;    1,099;    1,227
614,775;26110,629;    1,009;    2,409
615,353;26032,046;    0,736;    0,864
615,932;25777,835;    0,100;    2,409
616,510;26300,174;    0,554;    0,591
617,089;25868,898;    7,100;   17,591
617,667;25650,291;    2,372;    6,136
618,246;25519,495;   -1,537;    1,318
618,824;25712,922;   -3,355;   -0,955
619,402;25309,650;   -2,900;   -1,773
619,981;25801,460;   -0,173;   -1,045
620,559;25667,878;    0,009;    1,682
621,137;25160,669;   -0,718;    1,864
621,715;25155,248;   -1,173;   -0,682
622,293;25111,093;   -0,537;   -0,773
622,871;25565,761;   -0,718;    0,500
623,450;25157,019;    0,373;   -0,864
624,028;25065,090;    0,191;   -0,955
624,606;24650,022;   -1,718;    1,682
625,183;25077,983;   -1,536;   -1,136
625,761;24680,528;    1,009;    1,136
626,339;25001,449;    1,373;    2,591
626,917;25445,423;   -0,172;   -0,045
627,495;25443,728;   -0,354;    1,318
628,073;24871,113;   -0,263;    2,864
628,650;24535,189;    0,100;    2,136
629,228;25014,865;    0,373;    4,409
629,806;24408,826;    2,282;    1,136
630,383;24699,967;    1,464;   -0,318
630,961;24497,221;    2,555;   -0,955
631,539;24218,753;    2,464;    0,227
632,116;23517,584;   11,373;   15,409
632,694;24194,604;    2,555;    6,500
633,271;24487,342;    0,828;    2,682
633,848;24372,078;    1,828;    2,045
634,426;24395,668;   -1,081;    1,773
635,003;23532,615;    1,101;   -0,409
635,580;23845,976;    1,192;    3,682
636,158;24449,054;    3,737;    1,227
636,735;24408,100;    0,555;   -0,500
637,312;24502,960;   -0,809;   -0,682
637,889;24602,271;   -4,354;   -0,682
638,466;24075,154;   -3,990;   -0,409
639,043;24102,348;    2,101;   -1,136
639,620;24469,317;   -2,262;   -0,955
640,197;24745,625;    1,100;    1,682
640,774;24873,672;   -0,172;    1,136
641,351;25288,082;    0,737;    1,136
641,928;24745,856;   -0,627;    1,409
642,505;24336,721;    0,828;   -0,500
643,082;24516,314;   -1,718;    1,227
643,658;23549,270;   -0,718;    1,500
644,235;24248,226;    1,191;    2,500
644,812;24555,272;    1,918;    0,773
645,388;24339,319;   -0,991;    1,409
645,965;24407,184;   -0,809;    1,682
646,542;24468,958;   -1,445;   -0,227
647,118;24422,551;    1,009;   -0,955
647,695;24743,143;   -0,263;    1,136
648,271;24708,281;   -0,536;    0,500
648,848;24996,691;    0,736;    2,227
649,424;24825,192;    0,827;    1,318
650,000;24576,512;   -0,354;   -1,045
650,577;24367,195;   -0,627;   -0,955
651,153;24832,697;   -1,809;    0,955
651,729;25837,562;    1,191;    0,864
652,305;25959,881;    0,645;    2,773
652,881;29948,473;   -0,082;    1,136
653,458;36484,338;    1,100;    0,227
654,034;40317,658;    0,282;    1,591
654,610;41844,796;    0,554;    0,773
655,186;43152,479;    0,645;    3,045
655,762;42846,071;   -0,991;    0,409
656,338;42896,391;    0,100;    0,136
656,913;43884,074;   -0,082;    0,409
657,489;43158,212;    0,827;   -0,318
658,065;43179,349;   -0,173;   -1,591
658,641;43829,033;   -0,900;   -0,864
659,217;43141,534;   -0,991;    0,409
659,792;42530,672;    0,645;   -0,409
660,368;42809,718;   -2,173;   -0,682
660,944;42564,947;   -2,082;    1,227
661,519;38383,539;   -0,628;    0,409
662,095;32708,586;   -1,719;    0,591
662,670;28117,815;    1,281;   -0,136
663,246;26850,316;    1,009;   -0,409
663,821;26098,908;    0,281;    1,682
664,396;25595,501;    0,009;    1,864
664,972;25835,184;    0,009;   -0,500
665,547;26174,958;    1,372;    0,136
666,122;26203,278;   -1,082;    0,318
666,698;26528,143;   -0,173;    0,318
667,273;25861,008;   -0,173;    0,136
667,848;26672,418;    2,372;    1,500
668,423;26407,283;    2,190;    2,318
668,998;26967,603;    2,827;   -0,682
669,573;27489,922;   -3,264;   -1,500
670,148;27317,878;   -1,446;   -0,682
670,723;27083,925;   -1,810;    0,318
671,298;27517,063;    2,372;    1,045
671,873;27663,382;   -0,082;   -0,136
672,448;27631,429;    0,645;    0,136
673,023;27974,658;   -1,992;   -0,227
673,597;28285,614;    0,827;    2,318
674,172;28090,660;   -0,355;    0,318
674,747;27573,980;    0,372;   -1,045
675,321;27353,845;   -0,628;    3,318
675,896;26976,164;    0,645;    1,045
676,471;27959,848;    2,645;    1,591
677,045;27738,985;   -1,264;    0,682
677,620;27827,487;    0,190;    1,136
678,194;28090,988;   -2,628;    1,136
678,769;27656,126;   -1,083;   -0,318
679,343;27883,173;   -0,628;    1,773
679,917;27805,038;   -1,446;    1,955
680,492;27897,903;    0,826;    3,227
681,066;28047,768;    3,372;    0,409
681,640;28018,633;    1,463;   -0,318
682,214;28799,680;    0,735;    0,500
682,788;28367,999;   -1,356;   -0,773
683,363;28257,046;   -1,810;    1,682
683,937;27976,820;   -1,719;   -0,318
684,511;28783,867;    0,463;   -0,591
685,085;28474,186;   -1,356;    0,318
685,659;28272,051;   -2,538;    0,864
686,232;28510,916;   -0,356;   -0,318
686,806;28255,963;   -0,901;    0,409
687,380;28899,737;   -0,174;    0,591
687,954;29108,511;   -1,174;    1,136
688,528;28729,376;   -0,719;    1,955
689,101;29517,605;   -3,992;    1,045
689,675;29108,379;   -0,356;   -0,136
690,249;28485,880;   -0,719;    0,409
690,822;28796,291;    0,280;    0,318
691,396;28962,065;   -0,265;    1,227
691,969;28381,748;    1,280;    0,136
692,543;28812,795;   -0,447;   -1,955
693,116;28510,660;   -0,265;   -1,409
693,690;28408,252;    0,099;    0,500
694,263;28957,481;   -1,083;    2,955
694,836;28933,801;    1,371;    3,591
695,410;27594,847;   -0,265;    1,773
695,983;28067,803;    0,189;    0,591
696,556;28019,123;   -0,447;   -1,045
697,129;28443,988;   -0,356;    1,409
697,703;28062,671;   -1,629;    1,955
698,276;28057,445;    1,462;   -0,773
698,849;27906,310;    1,280;    1,409
699,422;28302,175;   -1,083;    0,591
699,995;27936,858;    0,007;    0,136
700,568;28412,178;   -0,629;    3,045
701,140;28466,770;   -2,811;    1,682
701,713;28183,090;   -0,174;    2,409
702,286;27968,318;   -0,538;    0,864
702,859;27802,729;   -0,902;   -0,591
703,432;26974,776;    0,825;    0,682
704,004;27507,004;    0,462;    0,318
704,577;27403,233;   -0,629;    0,136
705,150;27958,552;    0,189;    2,500
705,722;27690,417;   -0,356;   -3,227
706,295;27500,828;   -0,175;   -0,591
706,867;27359,602;   -0,175;    1,955
707,440;27576,831;   -1,720;   -0,409
708,012;27840,605;    0,462;    0,591
708,584;27782,561;    2,462;    0,227
709,157;28044,426;    1,825;   -0,591
709,729;27722,836;    2,280;    2,045
710,301;28589,610;    0,734;    0,045
710,874;28548,112;   -1,447;   -0,227
711,446;27429,431;    0,371;    0,864
712,018;27345,387;    0,098;    0,500
712,590;27069,161;   -1,993;    1,682
713,162;27599,753;    0,825;    1,318
713,734;27889,255;    1,825;   -2,045
714,306;27793,665;   -1,902;   -0,409
714,878;26450,803;    0,825;    0,864
715,450;27264,941;    0,643;    0,864
716,022;27532,169;    1,552;    1,318
716,593;27698,671;    0,189;    0,591
717,165;27629,263;   -3,175;   -1,227
717,737;27321,583;    0,280;    0,409
718,309;27001,448;    0,280;   -0,045
718,880;26957,403;   -0,539;   -1,409
719,452;27167,178;   -0,175;   -1,591
720,024;26746,861;    0,734;   -0,591
720,595;27340,453;   -2,902;    0,955
721,167;26859,045;    0,370;   -2,045
721,738;26385,365;   -0,812;   -1,045
722,309;26354,139;   -0,993;   -1,227
722,881;26166,549;   -1,357;    0,773
723,452;26800,687;   -2,630;    2,864
724,023;26984,552;   -0,721;    2,682
724,595;26702,235;    0,007;    0,682
725,166;26520,555;    0,007;   -0,409
725,737;26177,329;    1,734;    0,227
726,308;26235,649;   -0,266;    0,318
726,879;26688,877;   -1,630;    1,227
727,450;26470,197;    0,552;   -0,045
728,021;26477,425;    3,097;    0,682
728,592;26305,745;    0,734;    0,500
729,163;26608,610;    0,643;   -0,136
729,734;26626,020;    0,188;   -0,227
730,305;26973,976;    1,734;    0,136
730,876;27281,750;    0,188;    2,955
731,447;27061,161;    2,188;    2,682
732,017;27139,026;    1,097;    1,864
732,588;26608,800;    0,734;    1,227
733,159;26777,119;    0,643;   -1,045
733,729;26586,166;    0,006;    0,409
734,300;25930,759;    0,915;    0,864
734,870;26383,169;    3,461;    0,591
735,441;26886,034;    0,370;   -0,591
736,011;26659,354;    0,643;   -1,591
736,582;26596,582;   -0,812;    0,045
737,152;26090,356;   -1,721;   -2,045
737,722;26567,130;   -0,267;   -0,682
738,293;26272,814;   -1,358;    1,318
738,863;26135,133;    2,461;    2,318
739,433;25942,725;    5,279;    0,318
740,003;26557,863;   -0,994;   -0,682
740,573;25978,365;    2,097;   -1,591
741,143;25926,230;   -1,085;    0,318
741,713;26702,367;    1,188;   -0,500
742,283;26369,960;    0,915;    1,591
742,853;26161,370;    1,915;    1,591
743,423;25644,599;    1,733;    0,045
743,993;25779,191;   -0,358;    1,500
744,563;25146,783;    0,097;   -0,864
745,133;25139,012;   -0,812;   -0,864
745,702;25836,877;   -0,267;    1,773
746,272;25002,469;   -0,176;    0,591
746,842;24787,061;   -1,358;   -0,591
747,411;25277,654;   -0,267;   -0,318
747,981;25412,791;    0,097;    0,500
748,551;25490,293;    2,278;   -1,045
749,120;25256,612;    0,642;   -0,227
749,690;25702,659;   -0,631;    2,409
750,259;26060,161;    1,369;    2,955
750,828;25916,389;    1,551;   -1,955
751,398;26172,618;    1,278;   -0,045
751,967;25684,665;    2,187;    0,409
752,536;25908,893;   -0,813;   -0,227
753,105;26369,395;    0,096;    0,227
753,675;26132,896;    0,096;    1,773
754,244;26080,852;   -0,904;    3,591
754,813;26167,081;    0,551;    1,227
755,382;25740,582;    0,460;    0,955
755,951;26253,811;    1,551;    3,682
756,520;25776,585;   -0,085;    1,864
757,089;26312,450;    0,278;    0,500
757,658;26451,678;    1,733;    1,227
758,227;26501,452;    1,096;    0,318
758,795;26829,227;    1,187;    1,136
759,364;27038,182;   -0,086;   -0,591
759,933;26034,957;   -1,176;   -0,045
760,501;25600,276;    0,733;   -1,318
761,070;26043,868;   -2,813;   -1,409
761,639;26681,824;   -1,904;    1,318
762,207;26025,689;    1,551;   -0,955
762,776;25968,554;    0,369;    0,864
763,344;25979,328;   -0,995;    0,591
763,913;25130,102;   -0,722;    1,409
764,481;25831,967;    1,005;   -0,136
765,049;25629,196;   -1,358;    1,409
765,618;25484,516;   -0,086;    0,318
766,186;25583,290;    0,278;    0,136
766,754;25783,246;    0,005;    1,864
767,322;24801,292;   -1,995;    0,409
767,890;24871,521;   -0,722;   -1,773
768,459;25253,477;   -2,177;   -0,318
769,027;25363,797;    1,641;    3,409
769,595;24397,389;    3,278;    2,591
770,163;24853,345;    3,823;    2,955
770,730;24586,573;    0,732;   -0,136
771,298;24426,711;    0,187;   -1,409
771,866;24527,031;   -1,541;    4,955
772,434;24872,532;   -0,631;   -1,864
773,002;25047,943;    0,005;    0,682
773,569;24655,898;    0,914;    1,682
774,137;24545,491;   -0,268;   -0,045
774,705;25327,174;    0,278;   -0,136
775,272;24782,675;    0,641;    0,682
775,840;24530,904;   -0,177;    2,682
776,407;24136,223;    0,277;    1,955
776,975;23687,361;   -0,632;    0,318
777,542;24674,044;   -1,086;   -0,045
778,110;24525,546;   -1,268;   -0,045
778,677;24231,865;   -2,359;   -0,864
779,244;24023,367;    2,186;    1,045
779,812;24120,323;    1,823;    0,864
780,379;23957,915;    0,005;    1,136
780,946;24185,871;    1,005;   -0,773
781,513;24515,099;   -1,450;    0,318
782,080;23876,328;   -0,086;    2,864
782,647;24635,557;   -0,268;    3,045
783,214;24226,513;   -0,177;    3,864
783,781;23832,105;   -0,723;   -0,682
784,348;23776,152;   -0,632;    1,500
784,915;24204,289;   -3,177;    0,318
785,482;23939,518;    1,368;    2,591
786,049;24384,201;    0,186;   -0,591
786,615;24526,430;    0,277;   -0,955
787,182;24298,113;    0,186;   -0,682
787,749;23910,796;   -2,814;    1,409
788,315;23248,661;   -1,632;   -0,409
788,882;23529,981;    1,550;   -1,227
789,448;24237,755;    1,732;   -0,955
790,015;24242,347;    1,095;    3,227
790,581;23812,758;    1,459;    0,227
791,148;23754,077;    0,641;    1,045
791,714;23944,124;   -0,541;    3,136
792,280;23592,444;    0,186;    1,591
792,847;23226,400;    0,550;    2,500
793,413;23812,901;   -0,269;   -0,318
793,979;23310,675;    3,459;   -1,318
794,545;23361,813;    4,459;    2,682
795,111;22830,678;    2,186;    1,318
795,678;22970,997;    0,731;   -1,682
796,244;22609,317;    3,368;    0,136
796,810;23216,636;    1,731;    0,773
797,375;22886,956;    0,549;   -2,136
797,941;22939,185;   -0,541;    0,591
798,507;23067,868;   -0,451;   -0,955
799,073;22625,096;   -0,360;    0,591
799,639;22712,689;   -2,632;    3,136
800,205;22771,554;    0,095;    2,682
800,770;22289,600;    0,640;    1,773
801,336;22349,193;    1,368;   -0,955
801,901;22064,785;    4,549;    3,136
802,467;22646,014;   -0,542;    2,045
803,033;21971,879;   -0,087;    0,864
803,598;22237,289;    1,913;   -1,045
804,163;22239,700;    1,095;   -0,318
804,729;22162,474;   -0,178;    1,136
805,294;22577,430;    0,822;    2,227
805,859;22372,476;    0,731;   -0,409
806,425;21862,432;    1,186;    2,682
806,990;21520,206;    2,186;    4,318
807,555;22032,435;   -1,451;    2,591
808,120;21904,209;    0,822;   -0,409
808,685;21988,529;    0,185;   -2,500
809,250;21515,576;    0,004;   -0,500
809,815;21798,168;    1,913;    0,682
810,380;22303,669;   -0,269;    1,591
810,945;22770,807;   -1,087;    2,045
811,510;21972,945;    2,094;    1,591
812,075;21730,810;   -0,633;   -1,409
812,640;21787,402;    2,003;    1,409
813,204;21823,903;    0,822;   -0,227
813,769;22266,314;    2,094;   -0,045
814,334;21727,633;    0,458;    0,864
814,898;21801,407;    0,367;    0,591
815,463;21669,636;    1,276;   -0,773
816,027;21616,319;   -0,724;   -2,318
816,592;21676,093;    0,640;   -2,045
817,156;21197,231;    2,094;    1,136
817,721;21075,823;    4,276;    2,318
818,285;21061,870;    2,912;    1,500
818,849;21716,008;   -1,451;    1,682
819,414;21577,873;   -0,269;    2,955
819,978;21176,556;   -1,269;    1,773
820,542;21720,330;    2,003;    0,500
821,106;21427,377;   -0,815;    0,682
821,670;21495,787;   -0,815;    2,591
822,234;21301,380;   -0,270;    1,409
822,798;20684,518;    0,003;    0,500
823,362;20647,019;   -0,633;    4,227
823,926;19967,338;    0,094;    1,136
824,490;20181,931;   -0,997;   -0,682
825,054;20663,978;   -0,088;   -1,136
825,618;20253,024;   -1,542;   -1,500
826,181;20184,798;    0,458;   -1,318
826,745;20108,300;    1,367;   -1,045
827,309;20448,710;    1,185;    1,318
827,872;19855,030;    1,367;    0,955
828,436;20858,895;    1,185;   -0,773
828,999;20914,578;   -0,997;    1,227
829,563;19747,716;   -0,179;    1,136
830,126;19589,035;   -0,179;   -0,591
830,690;19565,718;   -1,997;    2,864
831,253;19082,038;   -0,543;    2,227
831,816;19205,630;   -1,906;    0,500
832,380;19109,495;    0,185;    0,864
832,943;19322,451;   -1,361;   -0,500
833,506;18856,134;    2,639;   -1,227
834,069;19588,090;    3,912;   -0,955
834,632;19660,228;    1,730;    1,318
835,195;19570,820;    1,003;    0,955
835,758;18790,594;   -0,997;    1,955
836,321;18641,641;    0,730;   -1,045
836,884;18754,779;   -0,725;   -0,955
837,447;18779,917;   -2,816;    1,773
838,010;19048,236;    0,366;    3,227
838,573;19337,919;   -1,179;    0,773
839,135;19331,330;   -1,361;   -0,955
839,698;18791,013;    1,275;    0,409
840,261;18312,424;    1,003;   -0,227
840,823;18162,743;   -0,543;    0,864
841,386;18426,972;   -0,452;   -2,409
841,948;18287,109;   -1,361;    1,773
842,511;18083,065;    0,912;    1,682
843,073;18166,658;    1,912;    0,227
843,636;17988,250;   -0,361;   -0,227
844,198;17935,024;    0,911;    0,591
844,760;18034,071;    1,093;    1,955
845,322;17700,027;    0,548;    1,136
845,885;18137,892;    0,730;    0,591
846,447;18595,030;   -1,998;    0,227
847,009;18161,713;    1,911;   -0,682
847,571;18473,396;    0,820;   -2,045
848,133;18557,443;   -1,089;   -1,864
848,695;18375,671;   -0,543;    1,409
849,257;17942,445;   -1,089;   -1,682
849,819;18098,220;   -0,998;   -0,409
850,381;18163,994;   -0,725;   -0,864
850,942;18541,131;    1,093;   -0,591
851,504;18484,451;    1,184;    0,227
852,066;18518,861;    1,275;   -1,591
852,628;18072,635;   -0,180;    1,955
853,189;17645,500;    1,638;    2,682
853,751;17764,638;   -0,907;    1,409
854,312;17575,140;   -0,453;   -1,682
854,874;18044,550;   -2,089;   -0,773
855,435;18576,233;   -0,907;   -1,682
855,997;18742,553;   -1,816;   -0,136
856,558;18009,781;    0,366;    1,773
857,119;18114,283;    0,820;    2,864
857,681;17850,421;    0,002;    0,318
858,242;17851,013;    1,911;   -2,136
858,803;18271,878;    0,456;   -0,773
859,364;18865,197;    0,184;   -4,773
859,925;18179,153;   -2,453;   -0,955
860,486;18077,927;   -0,453;   -0,955
861,047;17814,247;   -0,544;   -1,227
861,608;17619,294;   -1,089;   -0,773
862,169;17732,068;    0,638;   -0,045
862,730;17539,933;    0,456;    1,409
863,291;17798,343;   -0,635;   -0,500
863,852;18097,663;   -0,635;    1,955
864,412;17599,891;   -0,271;   -0,864
864,973;16229,575;   -0,089;    0,500
865,534;16027,258;   -1,726;    0,227
866,094;17561,486;    1,820;    0,227
866,655;17240,533;    1,274;    3,318
867,215;17505,489;    0,274;    0,136
867,776;17340,718;    0,547;   -0,136
868,336;17417,401;   -1,453;    0,136
868,897;16890,357;    2,638;    1,682
869,457;16654,858;    1,365;    0,318
870,017;16911,087;    0,547;   -1,227
870,578;17451,497;   -0,817;    0,773
871,138;17130,090;   -2,089;   -0,955
871,698;16659,591;   -0,817;   -1,318
872,258;16529,729;   -0,453;   -2,864
872,818;16893,412;    2,729;    0,045
873,378;16847,004;    0,638;    1,045
873,938;16395,051;    0,547;    0,500
874,498;16740,098;    0,274;   -1,955
875,058;16646,236;    2,183;    1,773
875,618;16473,464;    1,910;   -2,682
876,177;16427,784;    1,274;    0,136
876,737;16066,376;   -0,090;    1,955
877,297;16043,877;    0,183;    1,955
877,856;16012,561;   -0,362;    0,318
878,416;15980,517;    1,183;   -0,136
878,976;16220,018;   -1,817;    0,409
879,535;16379,610;    0,092;    3,136
880,095;16162,930;   -0,544;    0,045
880,654;16267,886;   -1,090;    1,318
881,213;16323,114;    2,456;    1,500
881,773;15959,434;    2,637;    2,682
882,332;16306,117;    3,365;    5,136
882,891;16156,255;    3,092;    2,136
883,451;16624,847;   -1,272;    1,682
884,010;16078,076;   -2,908;   -0,409
884,569;16215,486;   -0,999;   -0,045
885,128;16335,624;    2,819;   -1,864
885,687;16377,034;    4,455;    0,682
886,246;16072,627;    1,455;    2,136
886,805;15832,037;    2,455;    2,045
887,364;16158,266;   -0,999;   -0,500
887,922;16517,949;   -1,181;    0,045
888,481;16001,632;   -1,545;    0,591
889,040;16312,315;    1,183;    2,136
889,599;16992,180;    2,455;    1,409
890,157;17072,682;    1,455;    2,409
890,716;16726,729;   -0,090;    0,227
891,274;16515,230;    0,092;   -1,136
891,833;16955,004;    1,546;    0,864
892,391;16837,960;   -0,454;    0,500
892,950;16898,734;    1,819;   -0,773
893,508;17276,417;    0,455;   -0,409
894,067;16652,373;    0,637;    0,136
894,625;16530,784;   -0,636;   -1,500
895,183;16763,830;   -0,363;   -0,682
895,741;16657,877;    1,728;   -1,773
896,299;16466,015;   -0,545;   -2,409
896,858;16650,971;    0,819;   -1,591
897,416;16796,290;    2,728;   -1,318
897,974;16549,519;    1,819;    0,318
898,532;16704,929;    6,091;    2,682
899,089;16609,158;    2,091;   -0,682
899,647;16680,205;   -1,454;    1,318
900,205;16412,615;    1,182;    1,045
900,763;16590,935;   -0,454;    0,227
901,321;16604,709;    2,364;   -1,409
901,878;16047,210;   -1,000;   -0,773
902,436;15937,985;   -1,363;    1,318
902,994;16312,395;    4,728;    3,682
903,551;15757,260;    0,728;    0,409
904,109;16139,580;    0,182;   -1,409
904,666;15704,535;    2,455;    1,045
905,224;15579,037;    0,182;   -0,409
905,781;15317,265;    0,727;   -0,318
906,338;15369,312;   -1,363;    1,045
906,895;15349,359;    0,637;    2,045
907,453;15270,042;    1,727;    1,136
908,010;15296,544;   -0,909;    0,409
908,567;14959,318;    1,273;    0,591
909,124;14463,274;    0,364;   -1,500
909,681;14557,320;   -2,909;    0,682
910,238;14684,276;    0,636;   -1,318
910,795;15008,687;   -0,273;   -1,136
911,352;14647,687;   -2,909;   -2,682
911,909;14068,869;   -1,364;   -0,864
912,466;14545,778;   -3,182;    1,500
913,022;14127,960;   -1,636;    0,500
913,579;14474,778;   -0,909;    2,045
914,136;14156,869;    1,636;    0,955
914,692;14534,869;    0,091;   -1,227
915,249;14121,323;    1,455;    0,409
915,806;14294,232;    0,182;    1,955
916,362;14096,869;    1,909;    1,864
916,918;13673,323;    2,000;    1,045
917,475;13626,687;   -1,182;    0,955
918,031;13717,414;    3,364;   -0,045
918,587;13178,687;   -0,909;   -0,318
919,144;13420,505;   -2,273;    0,227
919,700;13735,414;    1,727;    0,773
920,256;13275,323;    0,727;    0,045
920,812;12892,778;   -0,727;   -1,045
921,368;12893,414;   -1,727;   -1,045
921,924;12532,323;    0,182;   -0,136
922,480;12113,414;   -0,545;    1,227
923,036;12732,687;    1,273;    1,955
923,592;12684,141;    0,455;    0,318
924,148;12577,960;    0,455;   -0,955
924,704;11895,141;   -1,364;   -0,409
925,259;12196,778;   -0,273;    0,591
925,815;11942,505;    1,455;    0,500
926,371;11490,051;    2,909;    1,409
926,926;11408,960;    2,091;    0,591
927,482;11053,778;   -1,364;    0,773
928,037;10902,960;    0,909;    2,045
928,593;11165,596;    1,636;    1,045
929,148;11021,323;   -1,818;   -1,500
929,704;10518,232;   -1,455;   -0,500
930,259;10761,232;    0,091;   -0,136
930,814; 9844,960;   -0,818;    1,955
931,369; 9539,960;    1,091;   -0,773
931,925; 9403,505;   -0,091;    0,136
932,480; 9317,414;   -2,818;   -2,591
933,035; 9196,141;    0,545;   -0,318
933,590; 8971,232;    0,364;   -1,773
934,145; 8600,141;   -1,364;   -0,318
934,700; 8990,505;    0,455;   -0,591
935,255; 8785,869;   -0,091;    0,045
935,809; 8082,596;    3,182;    0,864
936,364; 7226,141;   -0,455;   -0,136
936,919; 7214,232;    0,455;   -1,773
937,474; 7105,778;    1,455;    0,136
938,028; 6869,232;   -1,636;    1,136
938,583; 6365,505;    1,818;    4,682
939,138; 6667,869;    2,091;    2,136
939,692; 6114,051;    1,636;   -1,136
940,247; 5792,596;   -0,727;   -1,045
940,801; 5365,778;   -0,636;    0,227
941,355; 5283,960;   -0,364;    2,591
941,910; 4929,869;   -0,273;   -2,136
942,464; 5001,778;   -0,818;   -0,318
943,018; 4816,414;    1,000;   -0,227
943,572; 4777,141;    2,545;   -0,682
944,126; 4208,960;    0,091;   -0,409
944,681; 4092,960;    3,091;    0,227
945,235; 4067,232;    1,000;   -0,591
945,789; 4023,232;    0,364;   -1,864
946,342; 4123,505;    0,455;   -0,591
946,896; 3934,323;   -2,273;    0,955
947,450; 3713,596;    1,545;   -0,227
948,004; 3889,687;    1,727;   -0,045
948,558; 3885,505;    0,273;   -0,864
949,111; 3810,778;   -0,273;   -0,318
949,665; 3842,778;    1,636;   -0,682
950,219; 3718,505;   -0,091;   -1,045
950,772; 3779,051;   -1,909;    1,864
951,326; 3713,051;    0,545;   -0,955
951,879; 3796,414;    0,727;   -2,318
952,433; 3827,323;    0,000;    2,227
952,986; 3648,778;    2,909;    0,682
953,539; 3605,414;   -0,273;    0,591
954,093; 3550,051;    0,545;   -1,318
954,646; 3692,414;    0,909;    1,318
955,199; 3495,778;    0,000;   -0,500
955,752; 3394,596;   -0,455;    1,773
956,305; 3359,141;   -0,091;    2,955
956,858; 3495,869;    0,818;   -0,318
957,411; 3661,869;   -0,545;    2,136
957,964; 3513,051;    1,364;    2,136
958,517; 3526,232;   -1,545;    3,136
959,070; 3344,232;   -0,455;    1,955
959,623; 3417,232;    1,091;    1,500
960,176; 3195,141;    1,727;    2,045
960,728; 3171,414;   -2,727;    0,773
961,281; 3237,778;    0,545;    0,500
961,834; 3287,778;   -0,909;    0,864
962,386; 3196,232;    1,727;    1,045
962,939; 3102,232;    0,364;   -0,318
963,491; 3245,051;    0,455;    1,136
964,043; 3125,687;    1,182;    2,409
964,596; 3257,687;   -1,000;    2,227
965,148; 3099,687;   -1,000;    1,773
965,700; 3042,232;    1,091;   -0,227
966,253; 3183,141;   -0,636;    0,318
966,805; 3020,960;   -2,273;    0,773
967,357; 3051,596;    1,091;   -1,500
967,909; 3028,960;    0,455;   -1,227
968,461; 3128,505;    0,545;    3,136
969,013; 3072,232;   -0,182;   -0,864
969,565; 3119,051;   -0,455;   -1,136
970,117; 3199,596;   -0,364;    1,045
970,669; 3041,414;    0,182;   -0,136
971,220; 2910,051;   -0,455;   -1,500
971,772; 2822,869;   -0,636;   -0,318
972,324; 2939,232;    0,091;   -0,500
972,876; 2891,778;    0,818;   -0,045
973,427; 3046,505;    1,909;   -1,045
973,979; 3014,869;   -0,727;   -2,500
974,530; 3048,051;    1,818;    1,318
975,082; 3035,596;   -0,545;    1,682
975,633; 2936,596;    1,091;    1,682
976,184; 3085,505;    0,909;    0,773
976,736; 2882,323;    0,091;    0,227
977,287; 2699,414;   -0,909;   -0,500
977,838; 2867,232;    0,909;   -0,318
978,389; 2920,414;   -1,000;   -0,500
978,940; 2795,141;    0,545;   -0,409
979,491; 2824,232;    0,091;   -0,500
980,042; 2788,869;    0,182;    3,045
980,593; 2845,869;   -2,545;    0,227
981,144; 2888,687;    2,545;   -0,500
981,695; 2839,687;    1,455;    1,500
982,246; 2811,687;   -0,273;    1,045
982,797; 2972,687;   -1,727;    0,682
983,347; 3074,869;    0,364;    0,591
983,898; 3224,141;    3,091;    0,409
984,449; 3059,687;    2,182;    0,773
984,999; 2972,960;    1,455;   -1,136
985,550; 2774,960;    0,182;   -0,318
986,100; 2797,232;   -0,455;   -0,318
986,651; 2820,778;   -0,818;    0,045
987,201; 2805,778;   -1,000;   -0,591
987,751; 2888,687;    0,818;    2,864
988,302; 2880,596;    2,636;    1,500
988,852; 2904,414;    0,455;   -1,136
989,402; 2945,960;    0,091;    0,682
989,952; 2861,232;   -2,182;    0,864
990,502; 2974,141;   -0,091;    0,682
991,052; 2929,232;   -0,727;    0,045
991,602; 2795,051;   -2,909;    1,318
992,152; 2787,505;    0,455;    0,682
992,702; 2778,505;    1,364;   -0,045
993,252; 2702,051;   -3,000;   -0,500
993,802; 2783,141;   -0,273;    1,318
994,352; 3022,414;   -1,545;    1,136
994,901; 3101,869;   -0,182;    3,227
995,451; 3007,596;   -0,182;    0,318
996,000; 3112,323;    1,636;    0,318
996,550; 2813,596;    2,273;    0,227
997,100; 2820,778;    1,273;   -0,045
997,649; 3112,232;    2,182;    0,955
998,198; 2770,323;    1,727;   -1,500
998,748; 2937,596;    1,091;   -2,318
999,297; 2860,778;   -0,818;   -0,409
999,846; 2919,505;    1,000;   -0,773
1000,395; 2966,505;   -0,818;    0,500
1000,945; 2925,596;    1,818;   -0,773
1001,494; 3003,778;    2,364;    0,682
1002,043; 2975,141;    4,636;    0,864
1002,592; 2836,323;   -1,091;    1,955
1003,141; 2969,869;   -0,455;   -0,682
1003,690; 2837,869;    1,727;    0,500
1004,238; 2913,960;    1,455;   -0,045
1004,787; 2550,505;    1,364;    1,227
1005,336; 2783,141;    0,364;    0,682
1005,885; 2920,232;    1,364;   -2,773
1006,433; 3061,687;    0,545;    0,955
1006,982; 3141,505;    0,455;    1,682
1007,531; 3036,505;   -1,818;   -0,227
1008,079; 3000,687;   -2,273;    0,500
1008,627; 3138,323;   -1,455;    0,409
1009,176; 2888,869;    0,000;   -1,955
1009,724; 2914,960;    1,091;    0,864
1010,273; 2969,232;    1,273;    0,500
1010,821; 3088,323;    0,091;    1,409
1011,369; 2828,414;   -1,364;    1,318
1011,917; 2827,051;   -1,364;   -0,591
1012,465; 3098,869;    1,273;   -1,591
1013,013; 3205,232;    2,091;   -1,682
1013,561; 3077,414;    0,455;   -0,773
1014,109; 3125,960;   -1,909;    1,682
1014,657; 2986,051;    0,364;    0,591
1015,205; 3127,414;    1,636;   -0,955
1015,753; 3171,960;   -0,545;   -1,409
1016,301; 3211,596;   -2,636;    3,045
1016,848; 3200,323;   -1,273;    0,409
1017,396; 3237,596;    2,545;    0,045
1017,944; 3346,596;    1,182;    1,864
1018,491; 3113,051;    0,273;    1,409
1019,039; 3259,596;    0,455;    0,591
1019,586; 3195,051;   -1,364;    1,682
1020,134; 3286,051;    0,455;    1,500
1020,681; 3309,505;    0,182;   -1,136
1021,228; 3319,323;    2,909;   -2,227
1021,776; 3155,141;    1,182;   -1,136
1022,323; 3364,323;    0,455;    0,773
1022,870; 3293,596;   -1,000;   -0,045
1023,417; 3204,778;    2,636;    1,864
1023,964; 3361,323;    2,636;    1,227
1024,511; 3198,505;    1,000;    0,773
1025,058; 2990,687;    3,182;   -0,045
1025,605; 3049,414;   -2,273;    3,136
1026,152; 3259,141;    1,727;   -0,591
1026,699; 2997,323;    1,818;    1,318
1027,245; 3159,778;   -0,091;    0,318
1027,792; 3371,414;   -1,000;    1,409
1028,339; 3257,778;    2,364;   -0,045
1028,885; 3092,778;    1,000;   -0,227
1029,432; 3040,323;   -0,091;    0,227
1029,978; 3087,687;   -1,000;   -1,591
1030,525; 2997,323;    1,000;    0,409
1031,071; 3259,505;   -1,364;    1,136
1031,618; 3372,414;    0,364;    1,682
1032,164; 3152,960;   -0,091;    3,045
1032,710; 3195,323;    1,636;   -1,500
1033,256; 3123,960;   -0,636;   -0,136
1033,803; 3097,232;   -0,545;    1,500
1034,349; 2820,778;   -1,364;    0,136
1034,895; 2982,505;    0,000;   -0,318
1035,441; 2965,505;   -0,818;    0,318
1035,987; 2961,960;   -2,364;   -0,682
1036,533; 2956,778;   -1,455;   -0,955
1037,078; 3143,323;    1,455;    1,682
1037,624; 2996,960;    2,455;   -0,955
1038,170; 3008,141;    0,455;   -0,318
1038,716; 2910,232;    1,636;   -0,409
1039,261; 2834,232;   -2,273;   -0,773
1039,807; 2768,869;   -0,091;    3,409
1040,352; 2847,232;   -1,909;   -0,318
1040,898; 2884,141;   -1,545;   -0,682
1041,443; 2778,596;   -1,455;   -2,591
1041,989; 2809,323;    1,091;    1,591
1042,534; 2695,869;   -0,364;    2,591
1043,079; 2817,960;    2,909;    0,955
1043,625; 2603,414;    1,818;    0,500
1044,170; 2658,232;   -1,364;    1,045
1044,715; 2907,141;    2,455;    0,955
1045,260; 2724,051;    2,182;   -0,955
1045,805; 2788,323;    1,182;   -0,591
1046,350; 2711,778;    1,364;   -0,409
1046,895; 2679,778;    2,909;    1,591
1047,440; 2624,505;    5,364;    0,409
1047,985; 2526,141;    2,818;   -0,955
1048,530; 2437,051;    1,545;    1,227
1049,074; 2501,141;    0,000;    0,318
1049,619; 2488,051;   -1,364;    1,955
1050,164; 2293,141;    0,455;    0,227
1050,708; 2339,141;   -0,455;    0,045
1051,253; 2703,051;    1,273;   -2,227
1051,797; 2414,596;    0,818;   -1,318
1052,342; 2422,960;   -1,182;    1,045
1052,886; 2405,141;    0,364;   -1,409
1053,430; 2299,869;   -1,364;    0,136
1053,975; 2321,596;   -0,818;   -0,318
1054,519; 2288,596;   -0,727;    3,227
1055,063; 2300,869;    0,909;    1,318
1055,607; 2176,414;   -0,182;    0,227
1056,151; 2212,414;    2,909;    1,682
1056,695; 2141,505;    2,273;   -1,136
1057,239; 2209,687;   -1,727;   -0,682
1057,783; 2221,051;    0,818;   -1,500
1058,327; 2184,869;    0,000;    1,409
1058,871; 2396,505;   -0,545;    1,318
1059,415; 2090,414;   -0,818;   -0,045
1059,958; 2343,778;    1,455;    2,591
1060,502; 2061,141;   -1,000;   -0,773
1061,046; 1996,232;    0,364;   -0,955
1061,589; 1963,960;   -3,000;   -1,136
1062,133; 1858,051;   -1,273;    1,864
1062,676; 1800,596;    1,182;    0,864
1063,220; 1790,960;    1,091;    0,500
1063,763; 1805,596;    0,909;    1,136
1064,306; 1887,960;   -0,909;    1,864
1064,849; 1786,051;   -0,909;    0,591
1065,393; 1795,960;    2,000;   -1,500
1065,936; 1891,687;    0,182;   -0,409
1066,479; 1780,596;   -1,455;    1,318
1067,022; 1802,141;   -0,273;   -0,227
1067,565; 1706,051;   -0,091;   -1,318
1068,108; 1727,596;    0,727;   -0,591
1068,651; 1713,141;   -0,636;    1,409
1069,194; 1623,141;   -0,455;   -1,682
1069,736; 1635,232;   -1,273;    0,955
1070,279; 1607,687;   -1,364;   -0,500
1070,822; 1656,051;   -2,000;   -0,318
1071,364; 1741,960;   -0,364;    1,318
1071,907; 1571,960;   -0,727;    3,227
1072,450; 1490,869;    0,000;   -0,045
1072,992; 1470,960;   -0,273;    3,136
1073,535; 1616,141;    2,091;    2,136
1074,077; 1403,505;   -0,727;    2,045
1074,619; 1368,505;   -1,364;    0,591
1075,161; 1396,778;   -1,091;    1,500
1075,704; 1583,869;    1,545;    1,227
1076,246; 1375,869;   -0,182;    0,682
1076,788; 1309,596;   -0,364;    1,773
1077,330; 1399,323;    1,273;    2,136
1077,872; 1354,960;    0,909;    0,955
1078,414; 1571,323;    2,727;    0,773
1078,956; 1313,414;    1,273;   -0,227
1079,498; 1566,232;    1,636;    0,318
1080,040; 1280,505;    1,909;   -1,318
1080,581; 1220,414;    1,636;   -0,318
1081,123; 1145,505;    0,091;   -0,773
1081,665; 1205,869;   -1,182;   -0,955
1082,206; 1488,232;    1,364;   -0,500
1082,748; 1343,414;    0,727;    2,045
1083,289; 1224,232;   -2,000;    1,318
1083,831; 1130,778;   -0,545;    0,227
1084,372; 1164,323;    0,000;    0,591
1084,913; 1175,687;    1,091;    0,864
1085,455; 1145,596;   -1,909;   -2,045
1085,996; 1106,232;   -2,273;    0,136
1086,537; 1136,323;   -0,091;    0,864
1087,078; 1181,414;   -0,909;   -2,136
1087,619; 1213,051;   -1,273;    0,227
1088,160; 1118,141;    0,000;    1,318
1088,701; 1107,232;   -1,091;    0,682
1089,242; 1059,687;    1,364;   -2,227
1089,783; 1152,232;   -0,273;    1,409
1090,324; 1115,596;    0,455;    0,682
1090,865; 1004,778;    2,727;   -0,409
1091,405;  975,960;    0,727;    2,227
1091,946;  995,051;    0,182;   -0,955
1092,487;  914,323;    0,818;   -1,409
1093,027; 1069,596;   -1,364;   -1,500
1093,568;  936,596;   -0,364;    1,227
1094,108; 1032,051;    0,273;    1,773
1094,649;  968,414;   -1,182;    0,136
1095,189;  902,141;   -0,636;   -0,682
1095,729;  854,141;   -0,091;    0,955
1096,269;  865,051;    0,727;   -0,955
1096,810; 1165,141;   -1,364;    0,500
1097,350;  989,051;    1,364;   -0,773
1097,890;  907,687;    0,364;    1,227
1098,430; 1158,232;    2,364;    2,864
1098,970; 1032,960;    2,182;    1,682
1099,510;  896,778;    0,545;   -2,318
1100,050;  824,869;    1,000;   -1,591
1100,589;  793,323;   -0,727;   -0,318
1101,129;  908,323;    0,818;   -0,955
1101,669; 1062,141;    1,727;    2,136
1102,209;  878,596;   -0,091;    2,227
1102,748;  843,596;    0,000;    0,955
1103,288;  824,596;    1,273;   -1,227
1103,827;  848,323;    3,091;   -2,227
1104,367;  726,869;   -0,091;   -2,409
1104,906;  699,687;    1,364;   -1,136
1105,445;  769,232;    0,636;   -1,136
1105,985;  713,505;   -0,727;    1,500
1106,524;  764,778;   -1,727;   -0,682
1107,063;  734,505;   -2,727;    1,409
1107,602;  713,960;   -1,909;   -1,500
1108,141;  636,414;   -1,909;    1,500
1108,680;  739,232;   -3,455;   -0,591
1109,219;  672,687;   -0,909;   -0,500
1109,758;  676,596;    0,455;    0,682
1110,297;  648,778;    1,000;   -0,682
1110,836;  586,323;   -0,727;    0,955
1111,375;  749,505;   -2,545;    0,409
1111,913;  765,687;   -1,000;    0,773
1112,452;  700,869;   -0,273;    0,136
1112,991;  590,778;    1,091;    1,955
1113,529;  550,596;   -0,818;   -0,045
1114,068;  611,778;   -0,273;    2,955
1114,606;  510,232;   -0,364;   -0,955
1115,144;  684,414;   -1,273;    1,045
1115,683;  606,505;   -0,727;    0,318
1116,221;  657,960;   -0,455;   -0,864
1116,759;  576,323;    0,636;   -0,864
1117,297;  769,414;    0,000;    1,864
1117,836;  572,960;   -2,182;   -1,227
1118,374;  576,960;    0,182;   -0,682
1118,912;  522,960;    0,909;    2,682
1119,450;  517,687;    1,000;    0,864
1119,988;  560,505;    1,545;    2,136
1120,525; 1024,323;    5,091;    3,318
1121,063;  713,778;    1,182;    1,864
1121,601;  517,778;   -0,909;   -1,227
1122,139;  481,687;   -0,727;   -2,045
1122,676;  677,051;   -0,727;    2,773
1123,214;  608,778;   -1,182;    4,409
1123,751;  428,232;    1,727;    2,227
1124,289;  561,960;   -0,091;   -0,409
1124,826;  422,414;    1,727;    0,227
1125,364;  348,141;    1,727;   -0,955
1125,901;  533,960;    1,182;    1,227
1126,438;  641,323;    0,818;    0,955
1126,975;  385,414;   -0,727;   -0,773
1127,513;  441,869;    0,273;    2,136
1128,050;  351,596;    1,636;   -0,682
1128,587;  445,323;    2,000;   -0,227
1129,124;  475,232;    0,091;    1,318
1129,661;  356,778;    0,273;    0,227
1130,198;  522,596;    1,636;    0,773
1130,734;  465,596;    0,182;    1,409
1131,271;  332,232;   -0,909;    0,864
1131,808;  502,869;    2,909;    3,045
1132,345;  369,869;    1,545;    0,318
1132,881;  247,141;   -1,545;   -1,864
1133,418;  382,141;    0,727;   -1,136
1133,954;  326,232;    2,455;   -2,682
1134,491;  394,778;    1,364;   -0,773
1135,027;  293,141;    2,364;    0,864
1135,564;  392,687;    0,273;    2,955
1136,100;  365,778;    0,364;    2,136
1136,636;  266,232;   -1,273;   -1,045
1137,172;  350,687;    0,000;   -1,045
1137,708;  274,778;   -1,364;   -1,045
1138,245;  283,232;    1,273;   -1,227
1138,781;  236,687;    1,091;   -3,318
1139,317;  303,960;    1,273;   -1,409
1139,852;  289,141;    3,091;    0,136
1140,388;  405,232;   -1,182;   -0,409
1140,924;  279,778;   -1,091;   -2,227
1141,460;  229,960;   -1,636;    0,136
1141,996;  163,778;   -1,364;    2,682
1142,531;  215,687;    1,364;    3,318
1143,067;  421,960;    1,182;    1,045
1143,602;  469,687;   -0,091;   -0,318
1144,138;  326,141;   -2,636;    1,045
1144,673;  197,869;   -1,455;    1,409
1145,209;  256,051;   -1,909;   -0,318
1145,744;  178,414;   -0,727;    0,864
1146,279;  308,778;    1,818;   -0,136
1146,815;  232,141;    1,545;   -2,682
1147,350;  274,869;   -1,364;    0,045
1147,885;  187,596;   -0,818;   -1,318
1148,420;  182,778;   -2,273;    0,773
1148,955;  171,232;   -1,727;    1,864
1149,490;  190,505;   -0,909;   -1,591
1150,025;  170,778;    0,455;   -1,773
1150,560;  283,141;    1,091;   -0,955
1151,094;  249,869;    1,455;   -0,591
1151,629;  252,232;    1,636;    0,864
1152,164;  178,869;    1,364;    1,318
1152,698;  138,596;   -0,182;   -0,136
1153,233;  106,596;    0,091;   -0,682
1153,767;  150,960;   -3,000;   -2,318
1154,302;  193,414;   -1,455;    1,773
1154,836;  198,051;   -0,455;   -2,136
1155,371;  246,687;   -1,364;    3,682
1155,905;  202,687;   -0,636;    1,682
1156,439;  177,141;   -0,636;   -0,500
1156,973;  212,141;    0,364;    0,318
1157,507;  138,596;   -0,364;    0,682
1158,042;  159,505;   -0,727;    1,045
1158,576;  214,869;    0,182;    1,773
1159,110;  195,414;   -0,818;    2,409
1159,643;  169,141;    0,636;   -0,045
1160,177;  118,505;   -1,545;    1,500

