
Integration time [ms]:   0,040
Averaging Nr. [scans]: 11
Smoothing Nr. [pixels]: 0
Data measured with spectrometer [name]: 7318044SP
Wave   ;Sample   ;Dark     ;Reference
[nm]   ;[counts] ;[counts] ;[counts] 

186,757;   24,807;   31,551;    1,318
187,357;   43,363;   22,551;    0,955
187,958;   25,881;   15,460;   -1,591
188,558;   73,260;    8,915;   -1,227
189,159;   48,456;    6,733;   -4,500
189,759;   18,607;    7,278;   -3,591
190,360;   14,090;    2,824;   -2,136
190,960;   52,874;    2,915;   -4,136
191,560;   59,196;    3,189;   -6,591
192,161;  292,802;    4,372;   -3,500
192,761;  151,659;    4,010;   -3,227
193,361;   87,039;    1,556;   -3,773
193,962;  140,970;    2,010;   -2,682
194,562;   66,463;    1,189;   -3,955
195,162;   96,103;   -2,448;   -2,227
195,762;  250,905;   -3,176;   -0,045
196,362;  204,732;    1,370;   -2,500
196,963;   75,593;    2,006;   -0,864
197,563;  144,170;    1,551;   -0,955
198,163;   94,499;    0,096;   -0,682
198,763;  118,335;    1,733;   -0,500
199,363;  212,125;    3,096;   -0,500
199,963;  170,513;    0,369;    0,409
200,563;  154,462;    2,823;   -1,409
201,163;  135,595;    3,277;   -0,227
201,763;  218,501;    3,732;    0,318
202,363;  149,568;    1,459;    1,500
202,963;  256,913;    1,459;    1,045
203,563;  368,299;    0,277;    0,500
204,162;  210,848;    2,096;   -1,864
204,762;  208,698;    0,550;    0,591
205,362;  178,655;    3,004;    1,955
205,962;  284,685;    3,096;    1,955
206,562;  283,315;    1,823;    2,318
207,161;  244,039;   -0,087;    0,318
207,761;  390,891;    1,277;    2,409
208,361;  285,304;   -0,268;    1,409
208,960;  375,645;    0,459;    1,500
209,560;  434,609;    1,277;    1,591
210,160;  426,872;    0,550;    1,864
210,759;  394,986;    4,186;    1,227
211,359;  397,802;    1,459;    1,045
211,958;  652,328;    1,277;    2,045
212,558;  731,960;    1,732;    1,864
213,157;  575,970;    1,822;    1,500
213,757; 1013,261;    3,822;   -0,227
214,356;  714,189;    1,277;   -0,409
214,956; 1043,955;    3,095;    0,409
215,555;  672,447;    2,095;    2,136
216,154;  612,568;   -2,723;   -0,591
216,754;  633,294;    0,277;    0,773
217,353;  754,066;   -0,268;   -1,045
217,952;  610,432;   -0,178;    0,318
218,552;  833,523;    1,368;   -0,773
219,151;  733,563;    0,277;    0,955
219,750;  737,638;    0,004;   -0,227
220,349;  858,224;   -0,451;    1,045
220,948;  930,871;   -1,360;    1,136
221,548;  931,974;    0,913;    1,227
222,147; 1044,091;   -0,087;   -0,409
222,746; 1325,505;   -0,451;   -0,955
223,345; 1205,145;    0,731;    0,500
223,944; 1203,373;   -0,451;    0,773
224,543; 1358,636;    1,004;   -1,409
225,142; 1478,493;    0,094;    0,136
225,741; 1382,893;   -0,814;    1,045
226,340; 1400,927;   -0,451;   -0,955
226,939; 1830,453;   -0,996;   -0,136
227,538; 1770,921;   -0,360;   -0,773
228,137; 1908,872;   -0,814;    0,864
228,735; 2022,871;   -0,541;    1,227
229,334; 1807,778;   -0,905;   -0,227
229,933; 2153,750;    0,459;    0,591
230,532; 2266,923;    1,186;   -0,409
231,131; 2318,402;    1,732;    0,318
231,729; 2415,019;   -2,450;   -2,318
232,328; 2513,168;   -0,723;   -1,500
232,927; 2576,367;    1,004;   -0,500
233,525; 2682,429;    3,640;    0,045
234,124; 2883,074;    2,368;   -1,591
234,723; 2900,171;    0,913;   -1,045
235,321; 3038,607;    2,277;    0,136
235,920; 3238,838;    1,186;   -1,227
236,518; 3476,001;    3,459;    0,318
237,117; 3622,398;    0,004;   -0,227
237,715; 3794,203;    0,640;   -0,500
238,314; 3828,471;   -0,087;   -2,318
238,912; 3933,865;   -0,723;   -1,409
239,510; 3969,498;    0,459;   -1,227
240,109; 4129,119;    0,004;    3,773
240,707; 4154,183;   -0,996;    1,227
241,305; 4481,764;    0,550;    0,136
241,904; 4707,673;   -0,178;   -2,045
242,502; 4666,130;   -0,632;   -0,227
243,100; 4647,838;   -0,087;   -0,955
243,698; 4884,279;    0,732;    1,682
244,297; 5043,688;   -0,632;    0,682
244,895; 4920,060;   -0,269;   -2,318
245,493; 5221,764;    2,186;   -0,591
246,091; 5270,185;    1,368;   -1,318
246,689; 5270,821;    1,004;    0,591
247,287; 5439,153;    0,822;   -1,136
247,885; 5723,804;   -1,451;    1,227
248,483; 5800,576;    1,822;   -0,500
249,081; 5933,970;    0,185;    1,591
249,679; 6096,270;   -0,178;    1,682
250,277; 6353,708;   -1,723;    0,864
250,875; 6337,293;   -1,087;   -1,045
251,473; 6390,521;   -1,178;    0,500
252,071; 6574,122;    1,459;    1,045
252,669; 6737,009;   -1,814;    0,318
253,267; 6994,944;   -0,087;    0,773
253,864; 6943,971;   -0,360;    0,682
254,462; 6815,529;    1,640;    1,591
255,060; 6791,980;   -0,269;    1,318
255,658; 7123,282;    0,822;   -0,136
256,255; 7522,880;    0,186;   -2,045
256,853; 7375,350;   -0,269;    1,409
257,451; 7383,854;    0,822;    1,864
258,048; 7601,941;    1,822;    1,864
258,646; 7410,710;    1,731;   -1,045
259,243; 7590,532;   -0,087;    2,227
259,841; 7647,707;   -0,814;    0,318
260,438; 7548,138;   -0,087;    0,864
261,036; 8248,538;   -1,905;    1,409
261,633; 8168,011;   -0,087;    2,227
262,231; 7934,765;    2,731;   -0,045
262,828; 7999,078;   -0,905;    1,136
263,425; 8039,576;    0,913;   -0,591
264,023; 8293,617;    0,186;    0,045
264,620; 7854,618;   -0,360;   -0,318
265,217; 8216,283;   -2,087;    3,136
265,815; 8331,332;   -1,905;    2,136
266,412; 8091,921;    0,731;    0,136
267,009; 8126,489;   -1,451;    0,773
267,606; 8063,892;    0,822;   -0,955
268,203; 8050,026;   -0,269;   -0,591
268,801; 8294,130;    1,731;    0,591
269,398; 8578,655;   -0,360;    2,500
269,995; 8558,896;    0,277;    1,591
270,592; 8354,354;   -0,632;   -0,500
271,189; 8544,413;    0,186;    0,409
271,786; 8670,698;   -0,632;    1,227
272,383; 8494,539;   -1,087;    0,227
272,980; 8665,915;    0,277;    0,318
273,577; 9139,164;    0,004;    1,227
274,174; 8714,561;    0,822;    2,591
274,771; 8687,373;   -0,814;   -0,773
275,367; 8829,072;    2,277;    1,409
275,964; 8818,051;    0,731;   -0,500
276,561; 8890,830;    1,549;   -1,045
277,158; 9090,997;    0,095;   -1,773
277,755; 9251,879;    2,185;    0,409
278,351; 8672,164;   -0,451;   -1,500
278,948; 8953,029;   -0,815;    0,045
279,545; 8969,687;   -1,360;    2,318
280,141; 9563,760;   -1,723;   -2,045
280,738; 9440,462;   -0,451;   -0,136
281,334; 9685,474;   -1,633;    0,591
281,931; 9092,377;   -0,087;   -1,318
282,528; 9186,858;    0,822;   -0,500
283,124; 9884,984;   -1,087;   -0,500
283,721; 9809,374;   -0,451;    1,409
284,317; 9642,984;    0,185;    2,500
284,913;10170,708;   -1,360;    0,591
285,510;10321,072;    0,640;   -0,318
286,106;10328,213;   -2,269;   -0,955
286,703; 9945,724;   -0,360;    1,955
287,299;10183,980;   -1,451;   -0,591
287,895;10401,285;    0,822;   -1,045
288,491;10999,019;    0,186;    2,136
289,088;10722,359;   -2,360;    2,409
289,684;10757,918;   -1,723;    1,500
290,280;10784,757;    0,368;    0,682
290,876;10875,769;    1,822;    5,500
291,472;10774,392;    1,276;    2,227
292,068;10860,033;    1,367;    0,227
292,665;10594,707;    2,095;    0,773
293,261;10231,960;    0,276;    2,136
293,857;10578,301;    2,913;    2,136
294,453;10550,749;    3,550;    0,955
295,049;10460,042;   -0,268;    1,955
295,644;10475,942;    0,095;    0,136
296,240;10367,535;   -0,905;   -0,136
296,836;10413,064;   -0,995;    0,318
297,432;10715,808;    1,096;   -0,500
298,028;10742,779;    0,732;    0,773
298,624;11144,339;    1,459;    1,864
299,220;11412,120;    2,368;    0,591
299,815;11067,008;    1,005;   -0,409
300,411;10860,133;    0,914;    1,773
301,007;10893,231;    1,368;    0,227
301,602;10964,217;   -0,541;   -2,318
302,198;11088,223;    0,732;   -0,773
302,794;11416,178;    1,187;   -0,500
303,389;11550,726;   -1,177;    1,045
303,985;11615,879;    0,550;    1,409
304,580;11589,541;    1,459;    1,591
305,176;11570,830;   -3,086;    0,136
305,771;11497,867;   -1,268;   -1,227
306,367;11329,751;    4,095;    0,136
306,962;11678,489;    0,641;    1,500
307,558;11390,428;   -0,450;    0,136
308,153;11309,922;    1,095;   -1,136
308,748;11562,341;   -0,814;    1,682
309,344;11518,418;   -0,632;   -1,318
309,939;11582,623;   -1,905;   -1,318
310,534;11860,475;   -0,086;   -1,682
311,130;11802,039;    0,459;   -2,500
311,725;11568,318;    1,004;   -0,500
312,320;11884,551;    2,459;    0,045
312,915;11710,930;    1,459;   -1,045
313,510;11754,531;    1,550;   -0,500
314,105;12281,688;    1,096;    1,409
314,700;11654,603;   -3,086;   -1,045
315,295;11309,541;   -0,904;    0,045
315,890;10904,670;    1,277;    0,864
316,485;11242,410;   -0,359;   -0,318
317,080;11360,400;   -3,086;    1,591
317,675;11872,461;    2,005;   -0,682
318,270;11285,136;    5,550;    3,318
318,865;11314,772;    3,278;    3,045
319,460;11146,186;   -0,904;    0,591
320,055;11426,371;   -0,541;   -1,227
320,650;11121,700;   -1,995;   -0,591
321,244;11145,738;   -0,177;   -1,409
321,839;12072,242;   -1,541;   -0,227
322,434;11916,733;   -1,086;   -1,591
323,029;11585,807;    1,732;    1,591
323,623;11387,341;    1,550;    0,773
324,218;11151,438;    2,368;    1,409
324,812;11072,451;    1,096;    1,591
325,407;10848,732;   -0,814;    2,045
326,002;10733,975;    0,277;   -0,409
326,596;11038,692;    0,914;    1,318
327,191;11269,881;    0,823;   -1,045
327,785;10859,238;   -0,813;   -0,227
328,379;11096,638;    1,368;    0,136
328,974;10889,669;    0,914;   -3,955
329,568;11104,210;    0,186;   -2,409
330,163;10910,203;    2,096;    1,045
330,757;11275,382;    2,459;    1,591
331,351;10630,677;    0,459;    0,682
331,945;10937,268;    0,914;    1,409
332,540;10569,860;   -1,723;   -0,591
333,134;10691,080;   -1,086;    0,773
333,728;10949,556;    0,005;    0,318
334,322;11282,940;   -1,177;   -0,864
334,916;10597,967;    0,277;    0,955
335,510;10902,615;   -0,450;   -0,136
336,105;11125,062;   -1,086;    1,591
336,699;10865,953;   -1,086;    0,591
337,293;10837,571;   -1,723;    0,318
337,887;10952,218;   -2,723;    1,955
338,481;11050,344;    0,459;    0,591
339,074;11194,239;   -0,359;    2,682
339,668;11021,659;   -1,632;    1,227
340,262;11273,566;    1,732;    3,227
340,856;10805,489;    1,822;   -0,682
341,450;10194,193;    1,004;    1,864
342,044;11072,753;    1,459;    0,136
342,637;10863,028;    0,913;   -2,136
343,231;10708,824;   -2,360;    0,682
343,825;10685,225;   -1,086;   -0,591
344,419;10680,636;   -1,995;    0,500
345,012;10463,569;    2,459;    4,045
345,606;10456,625;    4,641;    1,591
346,199;10323,464;   -1,813;   -0,227
346,793; 9860,521;    1,914;    2,045
347,386;10054,511;   -0,813;   -1,136
347,980;10060,179;   -0,268;   -0,045
348,573; 9832,045;    2,278;    0,409
349,167; 9483,456;    5,278;    4,773
349,760; 9861,033;    2,914;    2,682
350,354; 9864,575;   -0,813;    1,136
350,947; 9598,621;    1,096;    1,682
351,540; 9288,741;   -0,358;   -1,409
352,134; 9219,700;    1,096;    1,136
352,727; 9295,902;   -0,086;    1,136
353,320; 9101,280;    0,005;    0,591
353,913; 8976,951;   -1,995;    1,864
354,507; 9131,046;    0,823;   -1,227
355,100; 9164,496;    0,460;    0,864
355,693; 8372,105;    2,005;    2,409
356,286; 8427,154;    0,823;    2,773
356,879; 8804,944;   -0,722;    1,227
357,472; 8405,704;   -0,904;    1,500
358,065; 8613,662;   -0,722;    2,500
358,658; 8566,671;   -0,540;    2,318
359,251; 8209,127;   -1,631;   -0,591
359,844; 7695,023;   -1,904;   -1,136
360,437; 7848,467;   -2,995;    0,045
361,030; 8113,278;    1,369;   -0,682
361,623; 7733,834;    2,824;    0,318
362,215; 7767,599;   -0,086;    2,045
362,808; 7601,513;   -2,358;   -1,682
363,401; 7786,343;   -2,449;    0,136
363,994; 7535,396;   -0,631;   -1,500
364,586; 7478,951;    0,824;   -1,500
365,179; 7659,150;   -0,449;   -1,136
365,772; 7176,897;   -1,995;    2,045
366,364; 7458,279;    1,915;   -3,227
366,957; 7652,517;    2,279;   -0,045
367,549; 7671,084;    2,188;   -0,864
368,142; 7331,975;    1,825;   -1,500
368,734; 7551,241;    0,734;   -2,136
369,327; 7454,500;    1,643;   -0,500
369,919; 7377,717;   -1,538;    0,409
370,512; 7222,894;   -1,083;   -0,500
371,104; 6966,254;   -0,901;    1,591
371,696; 7130,027;    1,191;   -0,955
372,289; 7221,495;    0,373;    1,136
372,881; 7339,744;   -2,080;    1,318
373,473; 7281,039;   -2,170;    1,136
374,066; 7091,455;   -0,169;    0,500
374,658; 6939,013;    0,378;    1,136
375,250; 7284,669;    0,653;   -1,409
375,842; 7122,214;    0,473;   -0,045
376,434; 7001,948;   -0,435;   -0,409
377,026; 7590,114;    0,204;   -2,500
377,618; 7470,955;   -0,158;   -0,682
378,210; 7319,272;   -0,338;   -1,955
378,802; 7183,760;    0,754;   -0,591
379,394; 7112,239;    1,846;    0,682
379,986; 7708,044;    1,393;   -0,955
380,578; 7785,629;   -0,153;    0,773
381,170; 7161,732;   -0,972;    0,045
381,762; 7112,101;    0,755;    1,409
382,354; 7299,418;   -0,065;   -1,318
382,945; 7429,586;   -2,976;    0,318
383,537; 7579,374;   -2,705;   -1,955
384,129; 7576,677;   -2,160;   -1,136
384,721; 7752,052;   -0,252;    0,955
385,312; 7697,203;   -0,161;   -0,955
385,904; 7778,241;   -2,706;    1,591
386,496; 7151,579;   -0,979;    1,045
387,087; 7291,352;    1,022;    2,500
387,679; 7333,148;   -1,160;    0,045
388,270; 7478,131;    2,840;    2,045
388,862; 7577,174;    1,295;   -0,318
389,453; 7446,166;   -0,887;    1,045
390,045; 7708,863;   -0,705;   -2,682
390,636; 7672,631;    0,204;   -0,591
391,227; 7515,292;   -0,523;   -0,045
391,819; 7623,305;    0,204;    0,773
392,410; 7698,110;    1,022;    0,045
393,001; 7617,012;   -0,979;   -1,591
393,593; 7902,599;    1,930;   -0,045
394,184; 7756,559;    1,385;   -0,409
394,775; 7680,772;    1,839;    2,136
395,366; 7868,442;    1,385;    0,773
395,957; 7860,506;    0,113;    0,136
396,548; 8150,798;   -0,342;    2,682
397,139; 8436,950;   -2,433;    0,591
397,730; 8185,864;   -1,888;    0,955
398,321; 8257,973;   -1,252;    0,955
398,912; 8289,282;   -0,615;    0,136
399,503; 8372,130;   -3,524;   -1,409
400,094; 7809,718;    0,294;    1,682
400,685; 7657,637;   -0,433;    0,045
401,276; 7754,177;    0,930;   -0,955
401,867; 8066,463;   -0,888;    0,773
402,458; 8161,963;   -2,251;   -2,318
403,048; 8163,105;    1,112;    0,591
403,639; 7773,991;    0,840;    0,864
404,230; 7991,410;    2,476;    0,318
404,821; 7942,402;   -0,615;    0,045
405,411; 8061,901;    1,203;   -2,591
406,002; 7663,410;   -1,252;   -1,136
406,592; 7500,156;    2,294;    0,045
407,183; 7826,393;    0,566;   -1,500
407,774; 7743,171;    3,475;   -0,136
408,364; 8034,588;    0,930;    0,409
408,954; 7661,656;    0,384;    1,227
409,545; 7714,018;    1,021;    1,045
410,135; 7271,402;    1,293;    0,500
410,726; 7410,561;    1,838;    0,318
411,316; 7770,231;    0,111;    0,773
411,906; 7472,732;   -0,253;   -0,409
412,497; 6977,190;   -1,070;   -0,045
413,087; 7550,707;   -1,980;   -0,227
413,677; 7934,046;   -0,707;    3,864
414,267; 7769,467;    0,656;    1,409
414,857; 7786,108;   -2,980;    4,227
415,448; 8050,014;    0,839;    0,500
416,038; 7762,775;    0,020;   -0,591
416,628; 7712,407;   -0,889;    0,409
417,218; 7196,933;    0,565;    3,318
417,808; 7441,210;    0,202;   -0,409
418,398; 7888,968;    0,020;    2,682
418,988; 7911,396;    2,020;    0,591
419,578; 8132,111;   -0,707;    1,409
420,168; 8482,461;   -1,343;   -0,955
420,757; 8037,954;   -1,343;   -1,500
421,347; 7717,412;    0,111;   -0,227
421,937; 7859,532;    2,292;    1,409
422,527; 7837,541;    0,838;   -0,773
423,116; 7643,453;   -0,253;   -0,045
423,706; 7987,523;   -1,889;    0,318
424,296; 7965,339;    1,384;    0,682
424,885; 8377,976;   -0,071;   -3,045
425,475; 8645,169;    1,474;   -2,864
426,065; 8530,016;   -0,980;   -0,318
426,654; 8160,653;   -0,435;   -0,318
427,244; 8255,202;    0,020;    1,409
427,833; 7745,561;    1,383;   -0,500
428,423; 8220,160;   -0,526;    1,136
429,012; 8942,362;   -0,344;   -1,136
429,601; 8411,675;   -1,344;    0,136
430,191; 8664,050;    1,292;    4,318
430,780; 8265,676;   -0,344;   -0,409
431,369; 8191,949;    0,746;   -0,045
431,959; 8826,347;   -1,254;    0,500
432,548; 8625,107;   -1,163;   -0,045
433,137; 8736,752;   -1,254;   -1,318
433,726; 9238,927;    0,292;    0,500
434,315; 8602,722;   -0,526;    2,409
434,905; 8704,055;   -1,254;    1,409
435,494; 8590,070;    0,746;    0,955
436,083; 9026,900;   -0,981;   -0,955
436,672; 8902,455;    0,110;    0,500
437,261; 8506,622;    0,292;   -1,955
437,850; 8603,312;    1,383;    0,682
438,439; 8569,945;    3,291;    1,955
439,027; 8403,951;    3,655;    1,773
439,616; 8718,633;    2,927;    1,227
440,205; 8569,224;    0,200;   -2,136
440,794; 8612,000;    2,109;   -0,045
441,383; 8883,897;   -1,346;   -0,591
441,971; 8720,894;   -2,436;    0,591
442,560; 8557,852;    0,563;   -1,773
443,149; 8343,274;    0,379;   -1,318
443,737; 8481,848;   -0,074;   -2,318
444,326; 8710,036;    0,018;    0,318
444,915; 8746,335;   -1,982;    0,864
445,503; 9129,327;   -2,891;   -0,318
446,092; 8404,151;    0,382;    2,136
446,680; 8904,526;    0,382;    0,318
447,269; 9077,866;   -0,346;   -0,318
447,857; 8865,517;    0,018;   -1,773
448,445; 8961,553;    0,563;    1,318
449,034; 9170,761;   -1,528;   -1,136
449,622; 9269,580;   -1,073;    3,500
450,210; 8530,975;    2,017;    2,227
450,799; 9048,344;    0,290;   -0,591
451,387; 8969,835;    1,381;   -0,591
451,975; 8636,827;    2,654;    0,864
452,563; 8727,874;    3,472;    2,318
453,151; 8771,259;   -0,528;   -1,227
453,739; 8694,623;   -1,347;    0,136
454,328; 8537,582;    2,381;   -2,136
454,916; 8238,898;    2,562;   -0,136
455,504; 8424,462;    1,017;    1,227
456,092; 8614,847;    0,017;   -1,591
456,679; 8571,819;    1,472;    0,682
457,267; 8494,834;    4,017;    1,045
457,855; 8628,448;    1,017;    1,409
458,443; 8404,012;   -0,165;    1,682
459,031; 8528,910;    0,108;    2,409
459,619; 8966,142;   -1,801;    2,864
460,206; 9070,997;    0,835;    2,045
460,794; 9146,857;   -2,983;   -0,227
461,382; 9344,909;   -0,529;   -0,864
461,970; 8934,576;    1,198;    1,864
462,557; 8973,332;   -0,711;   -0,682
463,145; 9185,657;   -3,165;   -1,682
463,732; 9269,317;    2,016;   -1,045
464,320; 9216,638;   -0,075;   -3,045
464,907; 8885,965;    2,743;   -0,773
465,495; 8756,879;    0,743;   -1,227
466,082; 8913,303;   -1,984;   -0,045
466,670; 8844,669;   -2,529;    1,227
467,257; 9240,950;   -1,711;    2,045
467,844; 9381,805;   -0,075;    0,045
468,432; 9395,111;    0,834;    3,500
469,019; 8916,192;    0,925;   -1,773
469,606; 9350,604;    0,470;    3,682
470,193; 9206,873;   -1,439;    0,227
470,780; 8769,185;   -2,075;    0,864
471,368; 9098,593;   -1,257;   -0,773
471,955; 8896,313;    1,379;   -0,682
472,542; 8534,908;    0,652;   -1,136
473,129; 8748,832;   -0,166;    0,136
473,716; 8506,433;    1,470;    0,591
474,303; 8675,707;    0,652;   -0,864
474,890; 8925,227;   -1,439;   -0,500
475,477; 8928,025;   -1,621;    0,409
476,064; 8820,864;    1,106;   -1,591
476,650; 8695,572;    0,288;    0,318
477,237; 8535,936;   -0,258;    0,955
477,824; 8699,244;   -1,076;    0,864
478,411; 8719,241;   -1,894;   -0,318
478,997; 8896,985;    0,560;   -0,773
479,584; 8924,704;    1,196;   -0,409
480,171; 9573,332;   -0,440;   -0,773
480,757; 9245,109;    2,651;    0,773
481,344; 9503,302;    0,469;    0,409
481,931; 8982,968;    1,105;    1,045
482,517; 9843,125;   -1,258;    0,318
483,104;10291,128;    1,106;    2,864
483,690;10578,312;   -1,804;    0,045
484,276;10879,086;   -0,895;    0,227
484,863;10604,440;    2,469;    1,136
485,449;11162,009;   -0,077;    0,318
486,035;11146,224;   -1,986;   -0,136
486,622;11550,118;   -0,895;    0,045
487,208;11499,188;    1,378;    1,500
487,794;11384,688;    0,741;    0,318
488,380;11456,694;    0,105;   -1,409
488,967;11520,359;   -1,168;   -0,409
489,553;11572,923;   -1,895;   -1,409
490,139;11768,621;    1,559;    0,773
490,725;11285,443;    0,741;   -0,227
491,311;10925,409;    3,287;    3,045
491,897;10349,775;   -0,986;    1,500
492,483;10227,902;    0,105;    1,227
493,069;10035,383;    3,923;    0,864
493,655;10021,519;    1,650;    0,682
494,241; 9976,121;    1,377;   -0,955
494,826;10367,831;    0,287;   -1,045
495,412; 9863,953;    2,559;   -0,682
495,998;10052,900;   -0,805;   -0,318
496,584;10209,557;    0,377;    1,045
497,169;10192,535;    1,014;   -0,682
497,755;10197,804;    0,650;    1,227
498,341;10774,261;    0,559;    0,318
498,926;10401,515;    1,832;    1,955
499,512;10653,968;    1,286;    2,955
500,097;10768,307;    0,195;   -0,318
500,683;10747,661;   -0,350;    2,136
501,268;11164,239;   -0,169;   -0,955
501,854;10931,126;   -0,169;    1,227
502,439;10927,783;   -0,624;   -1,773
503,024;11148,193;    0,195;    0,500
503,610;11260,039;   -0,078;   -0,682
504,195;11311,350;    0,558;    1,955
504,780;11467,151;    2,922;    1,227
505,366;11324,965;    3,013;    2,864
505,951;11126,317;    0,740;    1,045
506,536;11216,979;   -3,260;   -3,682
507,121;11229,637;    0,285;   -0,318
507,706;11769,458;    2,376;    1,045
508,291;12174,863;    2,649;    1,136
508,876;11705,025;   -0,988;    2,591
509,461;11207,283;   -0,169;   -0,773
510,046;11635,401;    0,194;    0,318
510,631;11888,570;   -0,351;   -0,773
511,216;11635,005;    2,467;   -0,500
511,801;12032,133;   -0,442;    2,591
512,386;12325,546;    0,740;    0,500
512,971;12280,566;   -2,988;    0,955
513,555;11881,067;   -0,897;   -1,500
514,140;12702,467;   -0,442;   -3,136
514,725;12683,187;   -0,715;   -1,136
515,309;12815,455;   -0,533;    0,318
515,894;12288,788;   -0,624;   -2,227
516,479;12766,431;   -0,624;   -0,955
517,063;12618,425;    0,376;    1,227
517,648;12748,882;    1,012;   -1,136
518,232;12436,495;   -0,261;   -1,409
518,817;12777,193;   -0,079;    1,682
519,401;12980,885;    2,194;    0,591
519,985;12525,516;    1,103;    1,136
520,570;12434,469;    0,830;   -1,955
521,154;12716,085;    2,102;    0,591
521,738;12855,288;   -2,352;    2,409
522,323;13433,353;   -0,170;    1,682
522,907;13198,982;    0,466;   -0,136
523,491;12902,439;    0,557;    0,955
524,075;12930,955;    2,284;    0,591
524,659;13031,519;    1,466;    0,591
525,243;12481,007;    1,739;    0,409
525,827;12754,653;    0,648;   -0,045
526,411;13609,882;   -1,989;   -0,136
526,995;13783,405;   -0,352;    1,409
527,579;13385,796;   -0,443;   -1,045
528,163;13702,111;    0,375;   -1,500
528,747;13591,016;    2,466;   -0,773
529,331;13907,316;   -0,080;   -1,409
529,915;14152,052;    1,738;    0,955
530,499;14105,658;   -0,807;    1,227
531,082;13781,249;   -0,534;    1,591
531,666;13244,070;    1,374;    0,773
532,250;13885,169;    1,284;    2,682
532,833;14211,399;    0,920;    2,773
533,417;14088,249;   -1,807;    0,864
534,001;14090,203;    1,647;   -0,318
534,584;14744,704;    0,374;    0,500
535,168;14590,884;    0,465;    1,409
535,751;14601,737;    0,647;    0,045
536,334;14067,562;   -0,898;   -0,409
536,918;14713,409;    0,011;    1,591
537,501;14790,601;   -0,899;    1,318
538,085;14781,879;   -0,444;    1,045
538,668;14915,941;    0,829;    2,409
539,251;15246,457;    1,829;    3,773
539,834;15283,909;    0,101;    0,773
540,418;15168,960;   -1,990;    4,318
541,001;15283,287;   -0,990;    1,773
541,584;15287,837;    2,101;    2,227
542,167;14990,994;    1,374;    2,955
542,750;15145,485;    1,919;   -0,773
543,333;14747,207;    0,555;    2,136
543,916;15507,221;    0,192;    2,500
544,499;16105,380;   -1,354;    0,227
545,082;16092,260;    1,374;    3,591
545,665;16223,740;    1,919;    1,500
546,248;16567,389;    1,010;   -0,318
546,830;16231,900;   -0,445;    1,955
547,413;16655,886;    1,010;   -0,773
547,996;17230,047;    0,555;    0,500
548,579;17002,211;    0,919;    0,955
549,161;16761,546;    1,828;    2,682
549,744;16574,074;   -0,809;    0,409
550,326;17060,166;   -0,809;   -1,136
550,909;16826,419;    2,737;    0,591
551,492;17236,344;   -0,263;    0,227
552,074;17042,001;   -0,173;   -1,318
552,657;17542,607;    2,373;    0,045
553,239;17327,702;   -0,173;   -0,773
553,821;17254,051;   -1,082;    1,045
554,404;16760,303;    1,282;    1,136
554,986;17156,676;    0,464;    1,045
555,568;17743,680;    1,191;   -0,955
556,151;16959,832;    1,191;   -0,227
556,733;17133,309;   -0,264;   -0,864
557,315;17599,060;    0,100;    0,500
557,897;17413,663;    0,554;   -0,500
558,479;17547,785;   -1,991;    1,318
559,061;17649,353;   -0,719;   -0,864
559,643;17984,221;   -0,264;    0,045
560,225;18337,560;    1,645;    2,864
560,807;18368,312;    0,918;    0,318
561,389;17860,013;    0,554;    2,318
561,971;18635,678;    0,463;    2,136
562,553;18446,930;   -1,628;    1,591
563,135;18532,231;   -0,537;    1,136
563,717;18110,291;    3,372;    1,136
564,298;18828,238;    3,645;   -0,045
564,880;18550,421;    0,645;   -1,409
565,462;18729,785;    0,645;    1,318
566,043;19833,882;   -0,446;    2,318
566,625;19378,699;    1,918;    1,227
567,207;19215,258;    1,099;    1,682
567,788;20294,534;   -1,264;    1,500
568,370;21115,522;    1,917;   -0,500
568,951;20913,145;    0,190;    0,227
569,533;21735,896;   -0,628;   -0,500
570,114;22175,373;   -0,446;    0,682
570,695;22690,675;   -0,174;   -1,318
571,277;23144,320;   -0,265;   -1,682
571,858;23840,707;    2,008;   -1,136
572,439;24701,394;    1,554;   -1,045
573,021;24866,555;    2,099;   -2,773
573,602;25345,091;   -1,265;    0,318
574,183;26217,161;   -2,083;    2,227
574,764;26347,128;   -1,629;    0,409
575,345;26857,773;    0,917;   -0,136
575,926;27462,118;   -0,356;    0,136
576,507;27468,454;    1,099;   -0,227
577,088;28537,514;    3,099;    1,682
577,669;28536,861;    0,735;    1,955
578,250;29255,615;    0,644;   -1,045
578,831;29839,974;   -1,356;   -2,227
579,412;30095,378;   -0,810;    0,955
579,993;31061,895;    1,008;    0,227
580,573;31357,562;   -0,629;   -0,955
581,154;30313,892;    0,735;   -0,591
581,735;31124,194;    0,644;    0,773
582,315;30686,375;   -0,629;    2,136
582,896;31001,037;   -0,174;    1,227
583,477;30500,509;    0,189;    1,227
584,057;30685,319;    0,553;    0,955
584,638;31024,258;    2,553;    2,318
585,218;30953,954;   -0,538;    2,682
585,799;31193,069;    0,281;   -0,227
586,379;31145,332;    0,372;    1,591
586,959;29933,313;    0,735;    0,318
587,540;29357,516;   -0,629;    2,227
588,120;28893,931;    1,007;   -0,045
588,700;27893,217;    2,553;    2,136
589,281;28195,047;    0,462;   -0,955
589,861;28125,900;    0,099;   -1,682
590,441;27926,594;    2,371;   -2,682
591,021;26928,167;   -0,265;   -2,591
591,601;27185,267;   -0,537;    0,500
592,181;27204,476;   -0,719;   -0,773
592,761;26531,404;    0,007;    1,409
593,341;26449,281;   -0,901;    0,045
593,921;26459,665;   -0,265;    1,591
594,501;26384,798;   -0,538;    1,318
595,081;26187,785;    0,917;   -0,318
595,661;26461,399;   -1,447;    0,955
596,240;27002,843;   -0,537;    0,136
596,820;26652,314;    0,372;    1,955
597,400;26866,518;    2,008;    0,773
597,980;27082,867;    2,008;    1,045
598,559;27100,243;    2,735;   -0,227
599,139;26816,157;   -0,174;   -1,227
599,718;26740,975;   -0,174;   -0,409
600,298;26933,820;    0,735;    0,682
600,877;27157,324;    2,917;    1,409
601,457;27456,522;    2,281;    1,136
602,036;27367,175;    0,190;    2,045
602,616;27580,321;    0,644;    1,682
603,195;27883,885;   -0,355;    3,500
603,774;27403,314;   -0,901;    2,045
604,354;27295,739;    0,826;   -0,500
604,933;26821,992;    0,463;    1,864
605,512;26985,529;    3,554;    0,591
606,091;27034,940;   -0,537;    3,773
606,671;27825,765;    0,281;    0,773
607,250;26920,585;    1,644;    3,136
607,829;27197,022;    2,372;    3,227
608,408;27042,636;    1,190;    2,591
608,987;26069,249;    1,281;    3,409
609,566;26405,127;   -1,265;   -2,500
610,145;26473,312;   -1,082;    0,682
610,723;26853,164;    4,372;    6,864
611,302;26095,242;   -0,446;    1,682
611,881;25672,066;    5,008;   11,227
612,460;26521,311;    1,645;    3,955
613,039;26925,235;   -0,082;    2,045
613,617;25660,965;    1,736;    4,773
614,196;25890,796;    1,099;    1,227
614,775;26247,385;    1,009;    2,409
615,353;26154,801;    0,736;    0,864
615,932;25887,227;    0,100;    2,409
616,510;26468,930;    0,554;    0,591
617,089;25996,108;    7,100;   17,591
617,667;25791,137;    2,372;    6,136
618,246;25657,250;   -1,537;    1,318
618,824;25828,586;   -3,355;   -0,955
619,402;25391,950;   -2,900;   -1,773
619,981;25894,668;   -0,173;   -1,045
620,559;25718,630;    0,009;    1,682
621,137;25309,695;   -0,718;    1,864
621,715;25240,002;   -1,173;   -0,682
622,293;25172,573;   -0,537;   -0,773
622,871;25650,787;   -0,718;    0,500
623,450;25285,224;    0,373;   -0,864
624,028;25184,024;    0,191;   -0,955
624,606;24817,228;   -1,718;    1,682
625,183;25169,187;   -1,536;   -1,136
625,761;24819,368;    1,009;    1,136
626,339;25081,383;    1,373;    2,591
626,917;25508,716;   -0,172;   -0,045
627,495;25523,840;   -0,354;    1,318
628,073;24936,859;   -0,263;    2,864
628,650;24666,028;    0,100;    2,136
629,228;25071,525;    0,373;    4,409
629,806;24548,575;    2,282;    1,136
630,383;24843,078;    1,464;   -0,318
630,961;24614,515;    2,555;   -0,955
631,539;24358,773;    2,464;    0,227
632,116;23657,697;   11,373;   15,409
632,694;24243,443;    2,555;    6,500
633,271;24587,540;    0,828;    2,682
633,848;24450,096;    1,828;    2,045
634,426;24541,412;   -1,081;    1,773
635,003;23685,809;    1,101;   -0,409
635,580;23989,169;    1,192;    3,682
636,158;24554,432;    3,737;    1,227
636,735;24487,298;    0,555;   -0,500
637,312;24594,888;   -0,809;   -0,682
637,889;24737,014;   -4,354;   -0,682
638,466;24188,983;   -3,990;   -0,409
639,043;24205,538;    2,101;   -1,136
639,620;24552,325;   -2,262;   -0,955
640,197;24897,916;    1,100;    1,682
640,774;25007,235;   -0,172;    1,136
641,351;25412,101;    0,737;    1,136
641,928;24813,239;   -0,627;    1,409
642,505;24423,013;    0,828;   -0,500
643,082;24551,060;   -1,718;    1,227
643,658;23636,016;   -0,718;    1,500
644,235;24383,791;    1,191;    2,500
644,812;24653,838;    1,918;    0,773
645,388;24435,521;   -0,991;    1,409
645,965;24472,932;   -0,809;    1,682
646,542;24553,979;   -1,445;   -0,227
647,118;24490,208;    1,009;   -0,955
647,695;24832,800;   -0,263;    1,136
648,271;24741,302;   -0,536;    0,500
648,848;25049,895;    0,736;    2,227
649,424;24910,033;    0,827;    1,318
650,000;24662,716;   -0,354;   -1,045
650,577;24494,218;   -0,627;   -0,955
651,153;24953,719;   -1,809;    0,955
651,729;25906,494;    1,191;    0,864
652,305;26053,813;    0,645;    2,773
652,881;29991,315;   -0,082;    1,136
653,458;36492,999;    1,100;    0,227
654,034;40329,591;    0,282;    1,591
654,610;41872,184;    0,554;    0,773
655,186;43161,322;    0,645;    3,045
655,762;42848,823;   -0,991;    0,409
656,338;42877,143;    0,100;    0,136
656,913;43831,826;   -0,082;    0,409
657,489;43196,055;    0,827;   -0,318
658,065;43138,830;   -0,173;   -1,591
658,641;43811,513;   -0,900;   -0,864
659,217;43191,197;   -0,991;    0,409
659,792;42512,971;    0,645;   -0,409
660,368;42804,382;   -2,173;   -0,682
660,944;42575,065;   -2,082;    1,227
661,519;38442,839;   -0,628;    0,409
662,095;32778,977;   -1,719;    0,591
662,670;28192,934;    1,281;   -0,136
663,246;26980,435;    1,009;   -0,409
663,821;26195,846;    0,281;    1,682
664,396;25706,348;    0,009;    1,864
664,972;25930,849;    0,009;   -0,500
665,547;26237,260;    1,372;    0,136
666,122;26263,671;   -1,082;    0,318
666,698;26524,172;   -0,173;    0,318
667,273;25874,219;   -0,173;    0,136
667,848;26738,903;    2,372;    1,500
668,423;26486,768;    2,190;    2,318
668,998;27053,270;    2,827;   -0,682
669,573;27557,499;   -3,264;   -1,500
670,148;27343,273;   -1,446;   -0,682
670,723;27209,502;   -1,810;    0,318
671,298;27601,094;    2,372;    1,045
671,873;27735,869;   -0,082;   -0,136
672,448;27687,825;    0,645;    0,136
673,023;27994,327;   -1,992;   -0,227
673,597;28355,555;    0,827;    2,318
674,172;28078,057;   -0,355;    0,318
674,747;27571,922;    0,372;   -1,045
675,321;27463,333;   -0,628;    3,318
675,896;27081,107;    0,645;    1,045
676,471;28050,791;    2,645;    1,591
677,045;27801,838;   -1,264;    0,682
677,620;27851,703;    0,190;    1,136
678,194;28194,750;   -2,628;    1,136
678,769;27729,525;   -1,083;   -0,318
679,343;27935,390;   -0,628;    1,773
679,917;27795,982;   -1,446;    1,955
680,492;27888,666;    0,826;    3,227
681,066;28014,804;    3,372;    0,409
681,640;28091,124;    1,463;   -0,318
682,214;28876,625;    0,735;    0,500
682,788;28375,491;   -1,356;   -0,773
683,363;28312,356;   -1,810;    1,682
683,937;28004,494;   -1,719;   -0,318
684,511;28792,086;    0,463;   -0,591
685,085;28512,134;   -1,356;    0,318
685,659;28271,726;   -2,538;    0,864
686,232;28545,864;   -0,356;   -0,318
686,806;28253,547;   -0,901;    0,409
687,380;28897,958;   -0,174;    0,591
687,954;29128,914;   -1,174;    1,136
688,528;28807,598;   -0,719;    1,955
689,101;29574,463;   -3,992;    1,045
689,675;29176,874;   -0,356;   -0,136
690,249;28550,012;   -0,719;    0,409
690,822;28877,695;    0,280;    0,318
691,396;28976,924;   -0,265;    1,227
691,969;28420,880;    1,280;    0,136
692,543;28807,564;   -0,447;   -1,955
693,116;28560,884;   -0,265;   -1,409
693,690;28394,658;    0,099;    0,500
694,263;28967,432;   -1,083;    2,955
694,836;29025,025;    1,371;    3,591
695,410;27697,163;   -0,265;    1,773
695,983;28139,210;    0,189;    0,591
696,556;28059,530;   -0,447;   -1,045
697,129;28510,486;   -0,356;    1,409
697,703;28108,533;   -1,629;    1,955
698,276;28125,944;    1,462;   -0,773
698,849;27933,809;    1,280;    1,409
699,422;28303,401;   -1,083;    0,591
699,995;27963,449;    0,007;    0,136
700,568;28479,496;   -0,629;    3,045
701,140;28536,997;   -2,811;    1,682
701,713;28226,772;   -0,174;    2,409
702,286;28010,182;   -0,538;    0,864
702,859;27866,411;   -0,902;   -0,591
703,432;27037,822;    0,825;    0,682
704,004;27539,233;    0,462;    0,318
704,577;27421,552;   -0,629;    0,136
705,150;28024,418;    0,189;    2,500
705,722;27801,010;   -0,356;   -3,227
706,295;27537,057;   -0,175;   -0,591
706,867;27395,286;   -0,175;    1,955
707,440;27608,242;   -1,720;   -0,409
708,012;27862,289;    0,462;    0,591
708,584;27799,791;    2,462;    0,227
709,157;28106,293;    1,825;   -0,591
709,729;27769,794;    2,280;    2,045
710,301;28643,387;    0,734;    0,045
710,874;28582,252;   -1,447;   -0,227
711,446;27442,390;    0,371;    0,864
712,018;27367,437;    0,098;    0,500
712,590;27105,757;   -1,993;    1,682
713,162;27618,441;    0,825;    1,318
713,734;27898,488;    1,825;   -2,045
714,306;27820,171;   -1,902;   -0,409
714,878;26517,218;    0,825;    0,864
715,450;27329,811;    0,643;    0,864
716,022;27573,130;    1,552;    1,318
716,593;27696,359;    0,189;    0,591
717,165;27657,770;   -3,175;   -1,227
717,737;27342,817;    0,280;    0,409
718,309;26998,773;    0,280;   -0,045
718,880;26946,366;   -0,539;   -1,409
719,452;27195,868;   -0,175;   -1,591
720,024;26753,824;    0,734;   -0,591
720,595;27354,507;   -2,902;    0,955
721,167;26916,372;    0,370;   -2,045
721,738;26481,510;   -0,812;   -1,045
722,309;26403,467;   -0,993;   -1,227
722,881;26186,332;   -1,357;    0,773
723,452;26832,833;   -2,630;    2,864
724,023;27008,881;   -0,721;    2,682
724,595;26790,837;    0,007;    0,682
725,166;26504,611;    0,007;   -0,409
725,737;26194,294;    1,734;    0,227
726,308;26268,432;   -0,266;    0,318
726,879;26724,661;   -1,630;    1,227
727,450;26526,981;    0,552;   -0,045
728,021;26479,846;    3,097;    0,682
728,592;26316,075;    0,734;    0,500
729,163;26686,577;    0,643;   -0,136
729,734;26667,260;    0,188;   -0,227
730,305;26975,944;    1,734;    0,136
730,876;27324,900;    0,188;    2,955
731,447;27009,856;    2,188;    2,682
732,017;27127,358;    1,097;    1,864
732,588;26670,223;    0,734;    1,227
733,159;26844,543;    0,643;   -1,045
733,729;26678,317;    0,006;    0,409
734,300;25909,819;    0,915;    0,864
734,870;26345,957;    3,461;    0,591
735,441;26918,459;    0,370;   -0,591
736,011;26711,051;    0,643;   -1,591
736,582;26640,553;   -0,812;    0,045
737,152;26124,418;   -1,721;   -2,045
737,722;26488,010;   -0,267;   -0,682
738,293;26267,512;   -1,358;    1,318
738,863;26168,105;    2,461;    2,318
739,433;25974,152;    5,279;    0,318
740,003;26552,562;   -0,994;   -0,682
740,573;25986,610;    2,097;   -1,591
741,143;25928,202;   -1,085;    0,318
741,713;26707,522;    1,188;   -0,500
742,283;26434,478;    0,915;    1,591
742,853;26219,980;    1,915;    1,591
743,423;25706,572;    1,733;    0,045
743,993;25811,347;   -0,358;    1,500
744,563;25194,848;    0,097;   -0,864
745,133;25181,350;   -0,812;   -0,864
745,702;25878,397;   -0,267;    1,773
746,272;25085,535;   -0,176;    0,591
746,842;24824,764;   -1,358;   -0,591
747,411;25254,720;   -0,267;   -0,318
747,981;25493,222;    0,097;    0,500
748,551;25558,269;    2,278;   -1,045
749,120;25392,316;    0,642;   -0,227
749,690;25721,181;   -0,631;    2,409
750,259;26037,319;    1,369;    2,955
750,828;25979,002;    1,551;   -1,955
751,398;26233,686;    1,278;   -0,045
751,967;25756,278;    2,187;    0,409
752,536;25974,507;   -0,813;   -0,227
753,105;26348,191;    0,096;    0,227
753,675;26195,965;    0,096;    1,773
754,244;26095,012;   -0,904;    3,591
754,813;26114,150;    0,551;    1,227
755,382;25694,379;    0,460;    0,955
755,951;26252,244;    1,551;    3,682
756,520;25800,382;   -0,085;    1,864
757,089;26348,975;    0,278;    0,500
757,658;26489,477;    1,733;    1,227
758,227;26494,796;    1,096;    0,318
758,795;26773,298;    1,187;    1,136
759,364;27004,254;   -0,086;   -0,591
759,933;26004,938;   -1,176;   -0,045
760,501;25583,439;    0,733;   -1,318
761,070;26121,941;   -2,813;   -1,409
761,639;26774,352;   -1,904;    1,318
762,207;26065,490;    1,551;   -0,955
762,776;25971,355;    0,369;    0,864
763,344;25952,947;   -0,995;    0,591
763,913;25154,176;   -0,722;    1,409
764,481;25843,951;    1,005;   -0,136
765,049;25621,361;   -1,358;    1,409
765,618;25523,045;   -0,086;    0,318
766,186;25626,819;    0,278;    0,136
766,754;25808,775;    0,005;    1,864
767,322;24797,004;   -1,995;    0,409
767,890;24863,597;   -0,722;   -1,773
768,459;25256,280;   -2,177;   -0,318
769,027;25416,782;    1,641;    3,409
769,595;24409,465;    3,278;    2,591
770,163;24848,694;    3,823;    2,955
770,730;24631,650;    0,732;   -0,136
771,298;24508,879;    0,187;   -1,409
771,866;24559,381;   -1,541;    4,955
772,434;24856,882;   -0,631;   -1,864
773,002;25043,384;    0,005;    0,682
773,569;24706,795;    0,914;    1,682
774,137;24509,933;   -0,268;   -0,045
774,705;25306,798;    0,278;   -0,136
775,272;24809,391;    0,641;    0,682
775,840;24554,620;   -0,177;    2,682
776,407;24108,303;    0,277;    1,955
776,975;23721,896;   -0,632;    0,318
777,542;24735,488;   -1,086;   -0,045
778,110;24573,171;   -1,268;   -0,045
778,677;24317,219;   -2,359;   -0,864
779,244;24033,084;    2,186;    1,045
779,812;24081,858;    1,823;    0,864
780,379;23947,633;    0,005;    1,136
780,946;24246,861;    1,005;   -0,773
781,513;24563,090;   -1,450;    0,318
782,080;23945,865;   -0,086;    2,864
782,647;24668,548;   -0,268;    3,045
783,214;24255,595;   -0,177;    3,864
783,781;23852,733;   -0,723;   -0,682
784,348;23707,780;   -0,632;    1,500
784,915;24200,100;   -3,177;    0,318
785,482;23950,329;    1,368;    2,591
786,049;24410,467;    0,186;   -0,591
786,615;24528,150;    0,277;   -0,955
787,182;24263,016;    0,186;   -0,682
787,749;23954,790;   -2,814;    1,409
788,315;23301,928;   -1,632;   -0,409
788,882;23553,430;    1,550;   -1,227
789,448;24229,295;    1,732;   -0,955
790,015;24265,706;    1,095;    3,227
790,581;23866,935;    1,459;    0,227
791,148;23760,345;    0,641;    1,045
791,714;24005,029;   -0,541;    3,136
792,280;23680,894;    0,186;    1,591
792,847;23265,668;    0,550;    2,500
793,413;23808,443;   -0,269;   -0,318
793,979;23310,035;    3,459;   -1,318
794,545;23408,082;    4,459;    2,682
795,111;22805,766;    2,186;    1,318
795,678;23026,722;    0,731;   -1,682
796,244;22680,224;    3,368;    0,136
796,810;23212,543;    1,731;    0,773
797,375;22911,500;    0,549;   -2,136
797,941;22943,638;   -0,541;    0,591
798,507;23079,866;   -0,451;   -0,955
799,073;22660,914;   -0,360;    0,591
799,639;22739,506;   -2,632;    3,136
800,205;22807,462;    0,095;    2,682
800,770;22329,691;    0,640;    1,773
801,336;22425,284;    1,368;   -0,955
801,901;22097,967;    4,549;    3,136
802,467;22669,196;   -0,542;    2,045
803,033;21961,516;   -0,087;    0,864
803,598;22228,563;    1,913;   -1,045
804,163;22262,610;    1,095;   -0,318
804,729;22245,657;   -0,178;    1,136
805,294;22629,159;    0,822;    2,227
805,859;22468,115;    0,731;   -0,409
806,425;21912,162;    1,186;    2,682
806,990;21543,118;    2,186;    4,318
807,555;22048,529;   -1,451;    2,591
808,120;21911,576;    0,822;   -0,409
808,685;21983,259;    0,185;   -2,500
809,250;21501,034;    0,004;   -0,500
809,815;21814,808;    1,913;    0,682
810,380;22328,492;   -0,269;    1,591
810,945;22847,175;   -1,087;    2,045
811,510;22048,768;    2,094;    1,591
812,075;21753,724;   -0,633;   -1,409
812,640;21789,043;    2,003;    1,409
813,204;21845,545;    0,822;   -0,227
813,769;22344,319;    2,094;   -0,045
814,334;21743,367;    0,458;    0,864
814,898;21813,595;    0,367;    0,591
815,463;21664,915;    1,276;   -0,773
816,027;21672,871;   -0,724;   -2,318
816,592;21729,100;    0,640;   -2,045
817,156;21230,602;    2,094;    1,136
817,721;21074,649;    4,276;    2,318
818,285;21034,060;    2,912;    1,500
818,849;21703,198;   -1,451;    1,682
819,414;21624,972;   -0,269;    2,955
819,978;21223,201;   -1,269;    1,773
820,542;21739,066;    2,003;    0,500
821,106;21452,568;   -0,815;    0,682
821,670;21552,524;   -0,815;    2,591
822,234;21307,480;   -0,270;    1,409
822,798;20696,982;    0,003;    0,500
823,362;20614,029;   -0,633;    4,227
823,926;19965,985;    0,094;    1,136
824,490;20195,396;   -0,997;   -0,682
825,054;20623,170;   -0,088;   -1,136
825,618;20274,399;   -1,542;   -1,500
826,181;20213,173;    0,458;   -1,318
826,745;20087,857;    1,367;   -1,045
827,309;20452,086;    1,185;    1,318
827,872;19876,769;    1,367;    0,955
828,436;20860,544;    1,185;   -0,773
828,999;20895,954;   -0,997;    1,227
829,563;19742,820;   -0,179;    1,136
830,126;19560,958;   -0,179;   -0,591
830,690;19561,550;   -1,997;    2,864
831,253;19099,415;   -0,543;    2,227
831,816;19268,008;   -1,906;    0,500
832,380;19165,510;    0,185;    0,864
832,943;19350,375;   -1,361;   -0,500
833,506;18832,695;    2,639;   -1,227
834,069;19610,014;    3,912;   -0,955
834,632;19701,152;    1,730;    1,318
835,195;19615,381;    1,003;    0,955
835,758;18816,519;   -0,997;    1,955
836,321;18694,294;    0,730;   -1,045
836,884;18798,250;   -0,725;   -0,955
837,447;18808,842;   -2,816;    1,773
838,010;19039,162;    0,366;    3,227
838,573;19369,664;   -1,179;    0,773
839,135;19331,165;   -1,361;   -0,955
839,698;18760,758;    1,275;    0,409
840,261;18281,078;    1,003;   -0,227
840,823;18175,125;   -0,543;    0,864
841,386;18475,536;   -0,452;   -2,409
841,948;18336,128;   -1,361;    1,773
842,511;18098,721;    0,912;    1,682
843,073;18186,859;    1,912;    0,227
843,636;18015,906;   -0,361;   -0,227
844,198;17973,953;    0,911;    0,591
844,760;18093,091;    1,093;    1,955
845,322;17716,138;    0,548;    1,136
845,885;18125,821;    0,730;    0,591
846,447;18586,323;   -1,998;    0,227
847,009;18164,734;    1,911;   -0,682
847,571;18515,508;    0,820;   -2,045
848,133;18599,101;   -1,089;   -1,864
848,695;18412,602;   -0,543;    1,409
849,257;17978,558;   -1,089;   -1,682
849,819;18139,151;   -0,998;   -0,409
850,381;18202,198;   -0,725;   -0,864
850,942;18550,336;    1,093;   -0,591
851,504;18493,929;    1,184;    0,227
852,066;18555,612;    1,275;   -1,591
852,628;18067,568;   -0,180;    1,955
853,189;17626,979;    1,638;    2,682
853,751;17759,662;   -0,907;    1,409
854,312;17571,164;   -0,453;   -1,682
854,874;18041,120;   -2,089;   -0,773
855,435;18577,622;   -0,907;   -1,682
855,997;18737,487;   -1,816;   -0,136
856,558;18024,989;    0,366;    1,773
857,119;18122,763;    0,820;    2,864
857,681;17837,446;    0,002;    0,318
858,242;17854,584;    1,911;   -2,136
858,803;18311,813;    0,456;   -0,773
859,364;18850,224;    0,184;   -4,773
859,925;18190,907;   -2,453;   -0,955
860,486;18094,045;   -0,453;   -0,955
861,047;17846,093;   -0,544;   -1,227
861,608;17655,049;   -1,089;   -0,773
862,169;17810,641;    0,638;   -0,045
862,730;17558,325;    0,456;    1,409
863,291;17799,190;   -0,635;   -0,500
863,852;18170,601;   -0,635;    1,955
864,412;17650,557;   -0,271;   -0,864
864,973;16243,240;   -0,089;    0,500
865,534;16104,106;   -1,726;    0,227
866,094;17564,698;    1,820;    0,227
866,655;17232,200;    1,274;    3,318
867,215;17540,792;    0,274;    0,136
867,776;17416,476;    0,547;   -0,136
868,336;17499,614;   -1,453;    0,136
868,897;16982,024;    2,638;    1,682
869,457;16713,162;    1,365;    0,318
870,017;16958,937;    0,547;   -1,227
870,578;17456,166;   -0,817;    0,773
871,138;17131,213;   -2,089;   -0,955
871,698;16654,260;   -0,817;   -1,318
872,258;16532,761;   -0,453;   -2,864
872,818;16866,899;    2,729;    0,045
873,378;16843,583;    0,638;    1,045
873,938;16409,357;    0,547;    0,500
874,498;16746,223;    0,274;   -1,955
875,058;16670,542;    2,183;    1,773
875,618;16507,680;    1,910;   -2,682
876,177;16422,636;    1,274;    0,136
876,737;16063,593;   -0,090;    1,955
877,297;16087,549;    0,183;    1,955
877,856;16089,141;   -0,362;    0,318
878,416;16042,279;    1,183;   -0,136
878,976;16257,963;   -1,817;    0,409
879,535;16420,919;    0,092;    3,136
880,095;16124,148;   -0,544;    0,045
880,654;16231,922;   -1,090;    1,318
881,213;16322,969;    2,456;    1,500
881,773;15973,107;    2,637;    2,682
882,332;16351,063;    3,365;    5,136
882,891;16187,201;    3,092;    2,136
883,451;16649,976;   -1,272;    1,682
884,010;16089,387;   -2,908;   -0,409
884,569;16201,706;   -0,999;   -0,045
885,128;16356,663;    2,819;   -1,864
885,687;16394,619;    4,455;    0,682
886,246;16105,120;    1,455;    2,136
886,805;15891,349;    2,455;    2,045
887,364;16142,487;   -0,999;   -0,500
887,922;16505,534;   -1,181;    0,045
888,481;16033,581;   -1,545;    0,591
889,040;16359,719;    1,183;    2,136
889,599;17013,312;    2,455;    1,409
890,157;17098,359;    1,455;    2,409
890,716;16749,770;   -0,090;    0,227
891,274;16523,271;    0,092;   -1,136
891,833;16950,591;    1,546;    0,864
892,391;16825,638;   -0,454;    0,500
892,950;16880,685;    1,819;   -0,773
893,508;17290,187;    0,455;   -0,409
894,067;16694,598;    0,637;    0,136
894,625;16574,736;   -0,636;   -1,500
895,183;16809,692;   -0,363;   -0,682
895,741;16682,830;    1,728;   -1,773
896,299;16529,422;   -0,545;   -2,409
896,858;16693,833;    0,819;   -1,591
897,416;16860,153;    2,728;   -1,318
897,974;16546,473;    1,819;    0,318
898,532;16712,702;    6,091;    2,682
899,089;16629,294;    2,091;   -0,682
899,647;16661,432;   -1,454;    1,318
900,205;16409,934;    1,182;    1,045
900,763;16626,435;   -0,454;    0,227
901,321;16591,392;    2,364;   -1,409
901,878;16062,893;   -1,000;   -0,773
902,436;15917,668;   -1,363;    1,318
902,994;16301,715;    4,728;    3,682
903,551;15765,398;    0,728;    0,409
904,109;16157,991;    0,182;   -1,409
904,666;15751,038;    2,455;    1,045
905,224;15558,448;    0,182;   -0,409
905,781;15331,314;    0,727;   -0,318
906,338;15406,088;   -1,363;    1,045
906,895;15349,862;    0,637;    2,045
907,453;15281,091;    1,727;    1,136
908,010;15357,320;   -0,909;    0,409
908,567;14964,367;    1,273;    0,591
909,124;14499,505;    0,364;   -1,500
909,681;14553,007;   -2,909;    0,682
910,238;14705,690;    0,636;   -1,318
910,795;15037,556;   -0,273;   -1,136
911,352;14680,556;   -2,909;   -2,682
911,909;14088,010;   -1,364;   -0,864
912,466;14594,828;   -3,182;    1,500
913,022;14128,283;   -1,636;    0,500
913,579;14489,010;   -0,909;    2,045
914,136;14175,192;    1,636;    0,955
914,692;14505,374;    0,091;   -1,227
915,249;14119,101;    1,455;    0,409
915,806;14359,919;    0,182;    1,955
916,362;14097,828;    1,909;    1,864
916,918;13656,010;    2,000;    1,045
917,475;13661,192;   -1,182;    0,955
918,031;13743,010;    3,364;   -0,045
918,587;13183,828;   -0,909;   -0,318
919,144;13392,101;   -2,273;    0,227
919,700;13673,010;    1,727;    0,773
920,256;13294,101;    0,727;    0,045
920,812;12934,374;   -0,727;   -1,045
921,368;12932,010;   -1,727;   -1,045
921,924;12580,465;    0,182;   -0,136
922,480;12152,101;   -0,545;    1,227
923,036;12779,919;    1,273;    1,955
923,592;12718,374;    0,455;    0,318
924,148;12627,646;    0,455;   -0,955
924,704;11911,465;   -1,364;   -0,409
925,259;12226,465;   -0,273;    0,591
925,815;11977,283;    1,455;    0,500
926,371;11523,283;    2,909;    1,409
926,926;11412,101;    2,091;    0,591
927,482;11035,919;   -1,364;    0,773
928,037;10925,010;    0,909;    2,045
928,593;11202,101;    1,636;    1,045
929,148;11013,101;   -1,818;   -1,500
929,704;10539,192;   -1,455;   -0,500
930,259;10752,919;    0,091;   -0,136
930,814; 9844,374;   -0,818;    1,955
931,369; 9533,101;    1,091;   -0,773
931,925; 9408,556;   -0,091;    0,136
932,480; 9337,919;   -2,818;   -2,591
933,035; 9199,646;    0,545;   -0,318
933,590; 9003,101;    0,364;   -1,773
934,145; 8622,465;   -1,364;   -0,318
934,700; 9032,192;    0,455;   -0,591
935,255; 8837,374;   -0,091;    0,045
935,809; 8099,828;    3,182;    0,864
936,364; 7256,919;   -0,455;   -0,136
936,919; 7211,101;    0,455;   -1,773
937,474; 7130,465;    1,455;    0,136
938,028; 6892,465;   -1,636;    1,136
938,583; 6365,828;    1,818;    4,682
939,138; 6644,010;    2,091;    2,136
939,692; 6104,374;    1,636;   -1,136
940,247; 5821,010;   -0,727;   -1,045
940,801; 5376,010;   -0,636;    0,227
941,355; 5274,192;   -0,364;    2,591
941,910; 4934,374;   -0,273;   -2,136
942,464; 5034,646;   -0,818;   -0,318
943,018; 4840,919;    1,000;   -0,227
943,572; 4785,919;    2,545;   -0,682
944,126; 4214,465;    0,091;   -0,409
944,681; 4105,192;    3,091;    0,227
945,235; 4085,101;    1,000;   -0,591
945,789; 4037,101;    0,364;   -1,864
946,342; 4124,646;    0,455;   -0,591
946,896; 3945,283;   -2,273;    0,955
947,450; 3700,283;    1,545;   -0,227
948,004; 3892,737;    1,727;   -0,045
948,558; 3923,374;    0,273;   -0,864
949,111; 3824,283;   -0,273;   -0,318
949,665; 3872,374;    1,636;   -0,682
950,219; 3742,737;   -0,091;   -1,045
950,772; 3808,101;   -1,909;    1,864
951,326; 3714,646;    0,545;   -0,955
951,879; 3809,010;    0,727;   -2,318
952,433; 3834,374;    0,000;    2,227
952,986; 3669,192;    2,909;    0,682
953,539; 3613,828;   -0,273;    0,591
954,093; 3550,737;    0,545;   -1,318
954,646; 3681,101;    0,909;    1,318
955,199; 3508,283;    0,000;   -0,500
955,752; 3386,374;   -0,455;    1,773
956,305; 3367,556;   -0,091;    2,955
956,858; 3521,010;    0,818;   -0,318
957,411; 3672,556;   -0,545;    2,136
957,964; 3517,283;    1,364;    2,136
958,517; 3513,283;   -1,545;    3,136
959,070; 3349,737;   -0,455;    1,955
959,623; 3425,010;    1,091;    1,500
960,176; 3202,101;    1,727;    2,045
960,728; 3192,101;   -2,727;    0,773
961,281; 3229,465;    0,545;    0,500
961,834; 3268,737;   -0,909;    0,864
962,386; 3204,737;    1,727;    1,045
962,939; 3149,283;    0,364;   -0,318
963,491; 3268,828;    0,455;    1,136
964,043; 3134,374;    1,182;    2,409
964,596; 3247,192;   -1,000;    2,227
965,148; 3105,556;   -1,000;    1,773
965,700; 3037,737;    1,091;   -0,227
966,253; 3180,646;   -0,636;    0,318
966,805; 3022,465;   -2,273;    0,773
967,357; 3068,737;    1,091;   -1,500
967,909; 3025,828;    0,455;   -1,227
968,461; 3138,374;    0,545;    3,136
969,013; 3049,192;   -0,182;   -0,864
969,565; 3144,101;   -0,455;   -1,136
970,117; 3206,010;   -0,364;    1,045
970,669; 3038,010;    0,182;   -0,136
971,220; 2899,919;   -0,455;   -1,500
971,772; 2843,646;   -0,636;   -0,318
972,324; 2950,101;    0,091;   -0,500
972,876; 2892,646;    0,818;   -0,045
973,427; 3028,101;    1,909;   -1,045
973,979; 2999,465;   -0,727;   -2,500
974,530; 3048,919;    1,818;    1,318
975,082; 3038,101;   -0,545;    1,682
975,633; 2944,919;    1,091;    1,682
976,184; 3087,556;    0,909;    0,773
976,736; 2899,646;    0,091;    0,227
977,287; 2707,101;   -0,909;   -0,500
977,838; 2867,374;    0,909;   -0,318
978,389; 2927,374;   -1,000;   -0,500
978,940; 2808,192;    0,545;   -0,409
979,491; 2827,646;    0,091;   -0,500
980,042; 2789,919;    0,182;    3,045
980,593; 2830,556;   -2,545;    0,227
981,144; 2886,737;    2,545;   -0,500
981,695; 2848,828;    1,455;    1,500
982,246; 2826,374;   -0,273;    1,045
982,797; 2978,465;   -1,727;    0,682
983,347; 3087,101;    0,364;    0,591
983,898; 3239,737;    3,091;    0,409
984,449; 3072,646;    2,182;    0,773
984,999; 2989,192;    1,455;   -1,136
985,550; 2778,192;    0,182;   -0,318
986,100; 2801,646;   -0,455;   -0,318
986,651; 2834,646;   -0,818;    0,045
987,201; 2823,556;   -1,000;   -0,591
987,751; 2888,646;    0,818;    2,864
988,302; 2871,283;    2,636;    1,500
988,852; 2899,828;    0,455;   -1,136
989,402; 2942,646;    0,091;    0,682
989,952; 2876,374;   -2,182;    0,864
990,502; 2975,101;   -0,091;    0,682
991,052; 2929,828;   -0,727;    0,045
991,602; 2801,646;   -2,909;    1,318
992,152; 2802,010;    0,455;    0,682
992,702; 2784,465;    1,364;   -0,045
993,252; 2696,010;   -3,000;   -0,500
993,802; 2789,737;   -0,273;    1,318
994,352; 3035,828;   -1,545;    1,136
994,901; 3091,646;   -0,182;    3,227
995,451; 3020,010;   -0,182;    0,318
996,000; 3109,010;    1,636;    0,318
996,550; 2829,283;    2,273;    0,227
997,100; 2832,283;    1,273;   -0,045
997,649; 3108,192;    2,182;    0,955
998,198; 2747,283;    1,727;   -1,500
998,748; 2944,101;    1,091;   -2,318
999,297; 2866,283;   -0,818;   -0,409
999,846; 2909,828;    1,000;   -0,773
1000,395; 2945,465;   -0,818;    0,500
1000,945; 2917,192;    1,818;   -0,773
1001,494; 2993,737;    2,364;    0,682
1002,043; 2975,556;    4,636;    0,864
1002,592; 2819,101;   -1,091;    1,955
1003,141; 2967,192;   -0,455;   -0,682
1003,690; 2825,465;    1,727;    0,500
1004,238; 2899,828;    1,455;   -0,045
1004,787; 2561,919;    1,364;    1,227
1005,336; 2797,919;    0,364;    0,682
1005,885; 2946,737;    1,364;   -2,773
1006,433; 3082,919;    0,545;    0,955
1006,982; 3130,828;    0,455;    1,682
1007,531; 3044,283;   -1,818;   -0,227
1008,079; 2986,646;   -2,273;    0,500
1008,627; 3145,101;   -1,455;    0,409
1009,176; 2877,010;    0,000;   -1,955
1009,724; 2920,283;    1,091;    0,864
1010,273; 2981,283;    1,273;    0,500
1010,821; 3092,828;    0,091;    1,409
1011,369; 2830,283;   -1,364;    1,318
1011,917; 2815,828;   -1,364;   -0,591
1012,465; 3095,192;    1,273;   -1,591
1013,013; 3212,737;    2,091;   -1,682
1013,561; 3085,646;    0,455;   -0,773
1014,109; 3130,010;   -1,909;    1,682
1014,657; 3008,192;    0,364;    0,591
1015,205; 3140,737;    1,636;   -0,955
1015,753; 3172,101;   -0,545;   -1,409
1016,301; 3194,737;   -2,636;    3,045
1016,848; 3197,919;   -1,273;    0,409
1017,396; 3239,192;    2,545;    0,045
1017,944; 3350,283;    1,182;    1,864
1018,491; 3146,919;    0,273;    1,409
1019,039; 3286,010;    0,455;    0,591
1019,586; 3190,737;   -1,364;    1,682
1020,134; 3301,646;    0,455;    1,500
1020,681; 3328,919;    0,182;   -1,136
1021,228; 3333,646;    2,909;   -2,227
1021,776; 3162,374;    1,182;   -1,136
1022,323; 3369,010;    0,455;    0,773
1022,870; 3317,737;   -1,000;   -0,045
1023,417; 3218,465;    2,636;    1,864
1023,964; 3354,828;    2,636;    1,227
1024,511; 3189,101;    1,000;    0,773
1025,058; 3009,010;    3,182;   -0,045
1025,605; 3062,101;   -2,273;    3,136
1026,152; 3273,828;    1,727;   -0,591
1026,699; 3001,646;    1,818;    1,318
1027,245; 3162,646;   -0,091;    0,318
1027,792; 3366,646;   -1,000;    1,409
1028,339; 3247,737;    2,364;   -0,045
1028,885; 3116,646;    1,000;   -0,227
1029,432; 3056,828;   -0,091;    0,227
1029,978; 3093,465;   -1,000;   -1,591
1030,525; 3020,828;    1,000;    0,409
1031,071; 3254,465;   -1,364;    1,136
1031,618; 3364,828;    0,364;    1,682
1032,164; 3166,646;   -0,091;    3,045
1032,710; 3216,010;    1,636;   -1,500
1033,256; 3134,919;   -0,636;   -0,136
1033,803; 3100,828;   -0,545;    1,500
1034,349; 2828,828;   -1,364;    0,136
1034,895; 2989,828;    0,000;   -0,318
1035,441; 2977,646;   -0,818;    0,318
1035,987; 2971,919;   -2,364;   -0,682
1036,533; 2972,828;   -1,455;   -0,955
1037,078; 3167,465;    1,455;    1,682
1037,624; 2998,828;    2,455;   -0,955
1038,170; 3012,646;    0,455;   -0,318
1038,716; 2913,828;    1,636;   -0,409
1039,261; 2835,101;   -2,273;   -0,773
1039,807; 2765,283;   -0,091;    3,409
1040,352; 2839,283;   -1,909;   -0,318
1040,898; 2883,556;   -1,545;   -0,682
1041,443; 2796,646;   -1,455;   -2,591
1041,989; 2807,374;    1,091;    1,591
1042,534; 2703,283;   -0,364;    2,591
1043,079; 2827,828;    2,909;    0,955
1043,625; 2617,374;    1,818;    0,500
1044,170; 2660,192;   -1,364;    1,045
1044,715; 2898,101;    2,455;    0,955
1045,260; 2728,374;    2,182;   -0,955
1045,805; 2783,646;    1,182;   -0,591
1046,350; 2726,828;    1,364;   -0,409
1046,895; 2665,192;    2,909;    1,591
1047,440; 2624,374;    5,364;    0,409
1047,985; 2516,374;    2,818;   -0,955
1048,530; 2459,101;    1,545;    1,227
1049,074; 2493,556;    0,000;    0,318
1049,619; 2473,010;   -1,364;    1,955
1050,164; 2295,192;    0,455;    0,227
1050,708; 2349,192;   -0,455;    0,045
1051,253; 2696,556;    1,273;   -2,227
1051,797; 2404,465;    0,818;   -1,318
1052,342; 2420,192;   -1,182;    1,045
1052,886; 2409,101;    0,364;   -1,409
1053,430; 2290,556;   -1,364;    0,136
1053,975; 2312,192;   -0,818;   -0,318
1054,519; 2307,101;   -0,727;    3,227
1055,063; 2305,737;    0,909;    1,318
1055,607; 2193,101;   -0,182;    0,227
1056,151; 2230,283;    2,909;    1,682
1056,695; 2148,374;    2,273;   -1,136
1057,239; 2215,556;   -1,727;   -0,682
1057,783; 2212,283;    0,818;   -1,500
1058,327; 2166,556;    0,000;    1,409
1058,871; 2393,646;   -0,545;    1,318
1059,415; 2093,646;   -0,818;   -0,045
1059,958; 2352,919;    1,455;    2,591
1060,502; 2079,465;   -1,000;   -0,773
1061,046; 1997,192;    0,364;   -0,955
1061,589; 1987,737;   -3,000;   -1,136
1062,133; 1863,192;   -1,273;    1,864
1062,676; 1794,374;    1,182;    0,864
1063,220; 1792,374;    1,091;    0,500
1063,763; 1820,465;    0,909;    1,136
1064,306; 1899,010;   -0,909;    1,864
1064,849; 1775,646;   -0,909;    0,591
1065,393; 1775,101;    2,000;   -1,500
1065,936; 1892,556;    0,182;   -0,409
1066,479; 1792,465;   -1,455;    1,318
1067,022; 1826,465;   -0,273;   -0,227
1067,565; 1705,465;   -0,091;   -1,318
1068,108; 1728,283;    0,727;   -0,591
1068,651; 1705,374;   -0,636;    1,409
1069,194; 1627,919;   -0,455;   -1,682
1069,736; 1633,192;   -1,273;    0,955
1070,279; 1615,556;   -1,364;   -0,500
1070,822; 1667,556;   -2,000;   -0,318
1071,364; 1747,919;   -0,364;    1,318
1071,907; 1568,737;   -0,727;    3,227
1072,450; 1471,737;    0,000;   -0,045
1072,992; 1471,374;   -0,273;    3,136
1073,535; 1617,101;    2,091;    2,136
1074,077; 1406,283;   -0,727;    2,045
1074,619; 1363,010;   -1,364;    0,591
1075,161; 1398,646;   -1,091;    1,500
1075,704; 1587,828;    1,545;    1,227
1076,246; 1384,919;   -0,182;    0,682
1076,788; 1326,101;   -0,364;    1,773
1077,330; 1392,374;    1,273;    2,136
1077,872; 1360,737;    0,909;    0,955
1078,414; 1574,374;    2,727;    0,773
1078,956; 1313,465;    1,273;   -0,227
1079,498; 1564,646;    1,636;    0,318
1080,040; 1282,646;    1,909;   -1,318
1080,581; 1226,646;    1,636;   -0,318
1081,123; 1149,101;    0,091;   -0,773
1081,665; 1188,828;   -1,182;   -0,955
1082,206; 1484,010;    1,364;   -0,500
1082,748; 1354,101;    0,727;    2,045
1083,289; 1235,101;   -2,000;    1,318
1083,831; 1148,919;   -0,545;    0,227
1084,372; 1175,101;    0,000;    0,591
1084,913; 1172,737;    1,091;    0,864
1085,455; 1138,374;   -1,909;   -2,045
1085,996; 1103,192;   -2,273;    0,136
1086,537; 1130,465;   -0,091;    0,864
1087,078; 1156,465;   -0,909;   -2,136
1087,619; 1190,465;   -1,273;    0,227
1088,160; 1127,919;    0,000;    1,318
1088,701; 1110,283;   -1,091;    0,682
1089,242; 1046,646;    1,364;   -2,227
1089,783; 1155,919;   -0,273;    1,409
1090,324; 1117,646;    0,455;    0,682
1090,865; 1000,283;    2,727;   -0,409
1091,405;  965,283;    0,727;    2,227
1091,946;  998,283;    0,182;   -0,955
1092,487;  912,374;    0,818;   -1,409
1093,027; 1080,010;   -1,364;   -1,500
1093,568;  940,374;   -0,364;    1,227
1094,108; 1028,283;    0,273;    1,773
1094,649;  964,737;   -1,182;    0,136
1095,189;  904,646;   -0,636;   -0,682
1095,729;  857,646;   -0,091;    0,955
1096,269;  854,283;    0,727;   -0,955
1096,810; 1170,828;   -1,364;    0,500
1097,350;  999,919;    1,364;   -0,773
1097,890;  908,374;    0,364;    1,227
1098,430; 1152,737;    2,364;    2,864
1098,970; 1033,465;    2,182;    1,682
1099,510;  907,283;    0,545;   -2,318
1100,050;  819,010;    1,000;   -1,591
1100,589;  772,192;   -0,727;   -0,318
1101,129;  899,010;    0,818;   -0,955
1101,669; 1048,919;    1,727;    2,136
1102,209;  877,283;   -0,091;    2,227
1102,748;  837,010;    0,000;    0,955
1103,288;  827,465;    1,273;   -1,227
1103,827;  852,192;    3,091;   -2,227
1104,367;  733,010;   -0,091;   -2,409
1104,906;  695,192;    1,364;   -1,136
1105,445;  759,283;    0,636;   -1,136
1105,985;  713,919;   -0,727;    1,500
1106,524;  762,828;   -1,727;   -0,682
1107,063;  734,101;   -2,727;    1,409
1107,602;  714,010;   -1,909;   -1,500
1108,141;  638,919;   -1,909;    1,500
1108,680;  727,010;   -3,455;   -0,591
1109,219;  667,919;   -0,909;   -0,500
1109,758;  674,010;    0,455;    0,682
1110,297;  645,646;    1,000;   -0,682
1110,836;  600,283;   -0,727;    0,955
1111,375;  756,828;   -2,545;    0,409
1111,913;  771,374;   -1,000;    0,773
1112,452;  702,646;   -0,273;    0,136
1112,991;  584,646;    1,091;    1,955
1113,529;  546,646;   -0,818;   -0,045
1114,068;  621,465;   -0,273;    2,955
1114,606;  517,737;   -0,364;   -0,955
1115,144;  670,828;   -1,273;    1,045
1115,683;  616,010;   -0,727;    0,318
1116,221;  660,828;   -0,455;   -0,864
1116,759;  565,737;    0,636;   -0,864
1117,297;  771,646;    0,000;    1,864
1117,836;  581,556;   -2,182;   -1,227
1118,374;  586,919;    0,182;   -0,682
1118,912;  528,374;    0,909;    2,682
1119,450;  516,192;    1,000;    0,864
1119,988;  569,010;    1,545;    2,136
1120,525; 1022,556;    5,091;    3,318
1121,063;  722,465;    1,182;    1,864
1121,601;  522,465;   -0,909;   -1,227
1122,139;  474,556;   -0,727;   -2,045
1122,676;  671,556;   -0,727;    2,773
1123,214;  614,828;   -1,182;    4,409
1123,751;  420,919;    1,727;    2,227
1124,289;  556,283;   -0,091;   -0,409
1124,826;  424,646;    1,727;    0,227
1125,364;  350,556;    1,727;   -0,955
1125,901;  536,101;    1,182;    1,227
1126,438;  635,192;    0,818;    0,955
1126,975;  373,646;   -0,727;   -0,773
1127,513;  446,465;    0,273;    2,136
1128,050;  346,919;    1,636;   -0,682
1128,587;  452,465;    2,000;   -0,227
1129,124;  493,192;    0,091;    1,318
1129,661;  355,919;    0,273;    0,227
1130,198;  521,465;    1,636;    0,773
1130,734;  461,556;    0,182;    1,409
1131,271;  322,192;   -0,909;    0,864
1131,808;  488,919;    2,909;    3,045
1132,345;  366,283;    1,545;    0,318
1132,881;  241,646;   -1,545;   -1,864
1133,418;  383,919;    0,727;   -1,136
1133,954;  324,919;    2,455;   -2,682
1134,491;  397,465;    1,364;   -0,773
1135,027;  292,192;    2,364;    0,864
1135,564;  378,010;    0,273;    2,955
1136,100;  361,919;    0,364;    2,136
1136,636;  256,828;   -1,273;   -1,045
1137,172;  348,283;    0,000;   -1,045
1137,708;  274,010;   -1,364;   -1,045
1138,245;  272,828;    1,273;   -1,227
1138,781;  228,010;    1,091;   -3,318
1139,317;  305,283;    1,273;   -1,409
1139,852;  284,010;    3,091;    0,136
1140,388;  399,828;   -1,182;   -0,409
1140,924;  294,192;   -1,091;   -2,227
1141,460;  231,919;   -1,636;    0,136
1141,996;  165,101;   -1,364;    2,682
1142,531;  207,737;    1,364;    3,318
1143,067;  419,646;    1,182;    1,045
1143,602;  474,101;   -0,091;   -0,318
1144,138;  318,283;   -2,636;    1,045
1144,673;  187,737;   -1,455;    1,409
1145,209;  261,919;   -1,909;   -0,318
1145,744;  181,465;   -0,727;    0,864
1146,279;  314,283;    1,818;   -0,136
1146,815;  230,919;    1,545;   -2,682
1147,350;  270,101;   -1,364;    0,045
1147,885;  183,101;   -0,818;   -1,318
1148,420;  175,828;   -2,273;    0,773
1148,955;  157,828;   -1,727;    1,864
1149,490;  191,010;   -0,909;   -1,591
1150,025;  166,919;    0,455;   -1,773
1150,560;  280,010;    1,091;   -0,955
1151,094;  253,465;    1,455;   -0,591
1151,629;  261,465;    1,636;    0,864
1152,164;  177,283;    1,364;    1,318
1152,698;  147,646;   -0,182;   -0,136
1153,233;  108,465;    0,091;   -0,682
1153,767;  155,192;   -3,000;   -2,318
1154,302;  196,374;   -1,455;    1,773
1154,836;  191,010;   -0,455;   -2,136
1155,371;  249,646;   -1,364;    3,682
1155,905;  206,737;   -0,636;    1,682
1156,439;  171,919;   -0,636;   -0,500
1156,973;  200,101;    0,364;    0,318
1157,507;  125,010;   -0,364;    0,682
1158,042;  166,919;   -0,727;    1,045
1158,576;  213,919;    0,182;    1,773
1159,110;  198,192;   -0,818;    2,409
1159,643;  163,101;    0,636;   -0,045
1160,177;  106,828;   -1,545;    1,500

