
Integration time [ms]:   0,040
Averaging Nr. [scans]: 11
Smoothing Nr. [pixels]: 0
Data measured with spectrometer [name]: 7318044SP
Wave   ;Sample   ;Dark     ;Reference
[nm]   ;[counts] ;[counts] ;[counts] 

186,757;   16,908;   31,551;    1,318
187,357;   33,003;   22,551;    0,955
187,958;   13,522;   15,460;   -1,591
188,558;   46,360;    8,915;   -1,227
189,159;   15,643;    6,733;   -4,500
189,759;   -4,298;    7,278;   -3,591
190,360;  -11,643;    2,824;   -2,136
190,960;   19,041;    2,915;   -4,136
191,560;   18,522;    3,189;   -6,591
192,161;  212,174;    4,372;   -3,500
192,761;   84,261;    4,010;   -3,227
193,361;   37,546;    1,556;   -3,773
193,962;   70,501;    2,010;   -2,682
194,562;   12,688;    1,189;   -3,955
195,162;   19,538;   -2,448;   -2,227
195,762;  124,353;   -3,176;   -0,045
196,362;   80,547;    1,370;   -2,500
196,963;   -0,679;    2,006;   -0,864
197,563;   37,907;    1,551;   -0,955
198,163;    2,880;    0,096;   -0,682
198,763;    0,713;    1,733;   -0,500
199,363;   54,231;    3,096;   -0,500
199,963;   34,534;    0,369;    0,409
200,563;   16,305;    2,823;   -1,409
201,163;    3,078;    3,277;   -0,227
201,763;   32,255;    3,732;    0,318
202,363;    7,506;    1,459;    1,500
202,963;   31,310;    1,459;    1,045
203,563;   78,239;    0,277;    0,500
204,162;   16,516;    2,096;   -1,864
204,762;   12,284;    0,550;    0,591
205,362;   -8,490;    3,004;    1,955
205,962;   15,623;    3,096;    1,955
206,562;   11,077;    1,823;    2,318
207,161;   -4,008;   -0,087;    0,318
207,761;   69,563;    1,277;    2,409
208,361;   18,427;   -0,268;    1,409
208,960;   32,043;    0,459;    1,500
209,560;   23,651;    1,277;    1,591
210,160;   39,183;    0,550;    1,864
210,759;   19,476;    4,186;    1,227
211,359;    5,574;    1,459;    1,045
211,958;  105,095;    1,277;    2,045
212,558;  108,180;    1,732;    1,864
213,157;   41,374;    1,822;    1,500
213,757;  169,398;    3,822;   -0,227
214,356;   63,777;    1,277;   -0,409
214,956;  152,446;    3,095;    0,409
215,555;   37,403;    2,095;    2,136
216,154;    9,798;   -2,723;   -0,591
216,754;   14,432;    0,277;    0,773
217,353;   23,836;   -0,268;   -1,045
217,952;  -17,880;   -0,178;    0,318
218,552;   44,303;    1,368;   -0,773
219,151;   12,073;    0,277;    0,955
219,750;    0,698;    0,004;   -0,227
220,349;   -6,086;   -0,451;    1,045
220,948;   53,654;   -1,360;    1,136
221,548;   -1,885;    0,913;    1,227
222,147;   11,323;   -0,087;   -0,409
222,746;   83,015;   -0,451;   -0,955
223,345;   29,565;    0,731;    0,500
223,944;   26,244;   -0,451;    0,773
224,543;   36,231;    1,004;   -1,409
225,142;   22,736;    0,094;    0,136
225,741;   26,856;   -0,814;    1,045
226,340;   16,528;   -0,451;   -0,955
226,939;   64,321;   -0,996;   -0,136
227,538;    3,066;   -0,360;   -0,773
228,137;   69,374;   -0,814;    0,864
228,735;   42,191;   -0,541;    1,227
229,334;  -12,720;   -0,905;   -0,227
229,933;   78,525;    0,459;    0,591
230,532;   74,513;    1,186;   -0,409
231,131;  103,536;    1,732;    0,318
231,729;   51,156;   -2,450;   -2,318
232,328;   13,396;   -0,723;   -1,500
232,927;   28,500;    1,004;   -0,500
233,525;   19,389;    3,640;    0,045
234,124;   29,028;    2,368;   -1,591
234,723;    0,490;    0,913;   -1,045
235,321;   -2,888;    2,277;    0,136
235,920;    4,157;    1,186;   -1,227
236,518;   81,324;    3,459;    0,318
237,117;   14,177;    0,004;   -0,227
237,715;   18,705;    0,640;   -0,500
238,314;   31,607;   -0,087;   -2,318
238,912;   82,092;   -0,723;   -1,409
239,510;   39,816;    0,459;   -1,227
240,109;   91,341;    0,004;    3,773
240,707;   70,406;   -0,996;    1,227
241,305;    1,716;    0,550;    0,136
241,904;   43,716;   -0,178;   -2,045
242,502;  105,628;   -0,632;   -0,227
243,100;   50,885;   -0,087;   -0,955
243,698;   15,049;    0,732;    1,682
244,297;   23,917;   -0,632;    0,682
244,895;   19,110;   -0,269;   -2,318
245,493;  100,907;    2,186;   -0,591
246,091;  107,691;    1,368;   -1,318
246,689;   59,144;    1,004;    0,591
247,287;   59,749;    0,822;   -1,136
247,885;   34,495;   -1,451;    1,227
248,483;   17,899;    1,822;   -0,500
249,081;   61,301;    0,185;    1,591
249,679;   74,965;   -0,178;    1,682
250,277;   23,761;   -1,723;    0,864
250,875;   84,522;   -1,087;   -1,045
251,473;   41,936;   -1,178;    0,500
252,071;   96,808;    1,459;    1,045
252,669;   54,789;   -1,814;    0,318
253,267;   34,640;   -0,087;    0,773
253,864;   56,385;   -0,360;    0,682
254,462;  134,038;    1,640;    1,591
255,060;   42,670;   -0,269;    1,318
255,658;   40,062;    0,822;   -0,136
256,255;   74,293;    0,186;   -2,045
256,853;  107,495;   -0,269;    1,409
257,451;   80,178;    0,822;    1,864
258,048;  333,536;    1,822;    1,864
258,646;  167,401;    1,731;   -1,045
259,243;  237,132;   -0,087;    2,227
259,841;  164,487;   -0,814;    0,318
260,438;   75,557;   -0,087;    0,864
261,036;  147,585;   -1,905;    1,409
261,633;   78,609;   -0,087;    2,227
262,231;   64,362;    2,731;   -0,045
262,828;   63,760;   -0,905;    1,136
263,425;  107,625;    0,913;   -0,591
264,023;  117,488;    0,186;    0,045
264,620;  216,671;   -0,360;   -0,318
265,217;  320,790;   -2,087;    3,136
265,815;  136,209;   -1,905;    2,136
266,412;  225,883;    0,731;    0,136
267,009;  246,268;   -1,451;    0,773
267,606;  313,492;    0,822;   -0,955
268,203;  175,347;   -0,269;   -0,591
268,801;  208,637;    1,731;    0,591
269,398;  141,165;   -0,360;    2,500
269,995;  260,033;    0,277;    1,591
270,592;  214,674;   -0,632;   -0,500
271,189;  151,923;    0,186;    0,409
271,786;  131,748;   -0,632;    1,227
272,383;  317,132;   -1,087;    0,227
272,980;  203,966;    0,277;    0,318
273,577;  166,390;    0,004;    1,227
274,174;  152,152;    0,822;    2,591
274,771;  263,335;   -0,814;   -0,773
275,367;  563,389;    2,277;    1,409
275,964;  396,553;    0,731;   -0,500
276,561;  235,974;    1,549;   -1,045
277,158;  161,874;    0,095;   -1,773
277,755;  366,574;    2,185;    0,409
278,351;  278,218;   -0,451;   -1,500
278,948;  312,543;   -0,815;    0,045
279,545;  277,471;   -1,360;    2,318
280,141;  422,628;   -1,723;   -2,045
280,738;  407,333;   -0,451;   -0,136
281,334;  242,529;   -1,633;    0,591
281,931;  260,348;   -0,087;   -1,318
282,528;  357,738;    0,822;   -0,500
283,124;  413,402;   -1,087;   -0,500
283,721;  418,345;   -0,451;    1,409
284,317;  293,774;    0,185;    2,500
284,913;  450,861;   -1,360;    0,591
285,510;  676,589;    0,640;   -0,318
286,106;  518,455;   -2,269;   -0,955
286,703;  352,145;   -0,360;    1,955
287,299;  312,850;   -1,451;   -0,591
287,895;  314,066;    0,822;   -1,045
288,491;  300,802;    0,186;    2,136
289,088;  434,962;   -2,360;    2,409
289,684;  498,153;   -1,723;    1,500
290,280;  660,353;    0,368;    0,682
290,876;  647,094;    1,822;    5,500
291,472;  556,632;    1,276;    2,227
292,068;  604,911;    1,367;    0,227
292,665;  495,578;    2,095;    0,773
293,261;  416,289;    0,276;    2,136
293,857;  660,805;    2,913;    2,136
294,453;  602,160;    3,550;    0,955
295,049;  865,986;   -0,268;    1,955
295,644;  706,347;    0,095;    0,136
296,240;  599,754;   -0,905;   -0,136
296,836;  797,369;   -0,995;    0,318
297,432;  990,473;    1,096;   -0,500
298,028; 1085,171;    0,732;    0,773
298,624;  959,281;    1,459;    1,864
299,220;  963,969;    2,368;    0,591
299,815;  966,587;    1,005;   -0,409
300,411; 1131,259;    0,914;    1,773
301,007; 1309,713;    1,368;    0,227
301,602; 1143,704;   -0,541;   -2,318
302,198; 1301,067;    0,732;   -0,773
302,794; 1195,845;    1,187;   -0,500
303,389; 1219,029;   -1,177;    1,045
303,985; 1311,547;    0,550;    1,409
304,580; 1434,480;    1,459;    1,591
305,176; 1334,138;   -3,086;    0,136
305,771; 1217,632;   -1,268;   -1,227
306,367; 1653,517;    4,095;    0,136
306,962; 1454,250;    0,641;    1,500
307,558; 1388,552;   -0,450;    0,136
308,153; 1501,230;    1,095;   -1,136
308,748; 1334,739;   -0,814;    1,682
309,344; 1700,638;   -0,632;   -1,318
309,939; 1741,206;   -1,905;   -1,318
310,534; 1427,967;   -0,086;   -1,682
311,130; 1316,164;    0,459;   -2,500
311,725; 1178,627;    1,004;   -0,500
312,320; 1283,494;    2,459;    0,045
312,915; 1406,241;    1,459;   -1,045
313,510; 1608,840;    1,550;   -0,500
314,105; 1378,717;    1,096;    1,409
314,700; 1092,634;   -3,086;   -1,045
315,295; 1123,116;   -0,904;    0,045
315,890;  988,429;    1,277;    0,864
316,485; 1079,447;   -0,359;   -0,318
317,080;  998,070;   -3,086;    1,591
317,675; 1329,949;    2,005;   -0,682
318,270; 1492,163;    5,550;    3,318
318,865; 1375,344;    3,278;    3,045
319,460; 1143,673;   -0,904;    0,591
320,055;  972,759;   -0,541;   -1,227
320,650;  924,724;   -1,995;   -0,591
321,244;  915,673;   -0,177;   -1,409
321,839; 1016,364;   -1,541;   -0,227
322,434; 1059,403;   -1,086;   -1,591
323,029;  926,926;    1,732;    1,591
323,623;  865,102;    1,550;    0,773
324,218; 1025,101;    2,368;    1,409
324,812;  968,846;    1,096;    1,591
325,407;  980,219;   -0,814;    2,045
326,002; 1095,827;    0,277;   -0,409
326,596; 1046,904;    0,914;    1,318
327,191;  903,549;    0,823;   -1,045
327,785;  857,086;   -0,813;   -0,227
328,379;  981,761;    1,368;    0,136
328,974; 1032,883;    0,914;   -3,955
329,568; 1102,604;    0,186;   -2,409
330,163; 1208,686;    2,096;    1,045
330,757; 1104,510;    2,459;    1,591
331,351; 1058,530;    0,459;    0,682
331,945; 1122,935;    0,914;    1,409
332,540; 1296,713;   -1,723;   -0,591
333,134; 1316,754;   -1,086;    0,773
333,728; 1350,773;    0,005;    0,318
334,322; 1400,154;   -1,177;   -0,864
334,916; 1319,643;    0,277;    0,955
335,510; 1611,922;   -0,450;   -0,136
336,105; 1742,094;   -1,086;    1,591
336,699; 1625,898;   -1,086;    0,591
337,293; 1699,792;   -1,723;    0,318
337,887; 1765,797;   -2,723;    1,955
338,481; 1999,924;    0,459;    0,591
339,074; 2243,188;   -0,359;    2,682
339,668; 2263,152;   -1,632;    1,227
340,262; 2966,058;    1,732;    3,227
340,856; 2548,168;    1,822;   -0,682
341,450; 2208,691;    1,004;    1,864
342,044; 2601,974;    1,459;    0,136
342,637; 2732,613;    0,913;   -2,136
343,231; 2806,421;   -2,360;    0,682
343,825; 2723,987;   -1,086;   -0,591
344,419; 2843,940;   -1,995;    0,500
345,012; 3306,780;    2,459;    4,045
345,606; 3244,380;    4,641;    1,591
346,199; 3101,853;   -1,813;   -0,227
346,793; 3095,999;    1,914;    2,045
347,386; 3184,541;   -0,813;   -1,136
347,980; 3149,382;   -0,268;   -0,045
348,573; 3220,609;    2,278;    0,409
349,167; 3324,652;    5,278;    4,773
349,760; 3561,502;    2,914;    2,682
350,354; 3504,397;   -0,813;    1,136
350,947; 3458,448;    1,096;    1,682
351,540; 3278,203;   -0,358;   -1,409
352,134; 3223,624;    1,096;    1,136
352,727; 3330,377;   -0,086;    1,136
353,320; 3299,750;    0,005;    0,591
353,913; 3151,696;   -1,995;    1,864
354,507; 3376,791;    0,823;   -1,227
355,100; 3395,786;    0,460;    0,864
355,693; 3267,932;    2,005;    2,409
356,286; 3134,077;    0,823;    2,773
356,879; 3230,504;   -0,722;    1,227
357,472; 3006,083;   -0,904;    1,500
358,065; 3152,128;   -0,722;    2,500
358,658; 3072,140;   -0,540;    2,318
359,251; 2870,414;   -1,631;   -0,591
359,844; 2765,762;   -1,904;   -1,136
360,437; 2909,212;   -2,995;    0,045
361,030; 2930,202;    1,369;   -0,682
361,623; 2705,297;    2,824;    0,318
362,215; 2807,883;   -0,086;    2,045
362,808; 2649,252;   -2,358;   -1,682
363,401; 2685,804;   -2,449;    0,136
363,994; 2742,765;   -0,631;   -1,500
364,586; 2559,222;    0,824;   -1,500
365,179; 2577,508;   -0,449;   -1,136
365,772; 2251,634;   -1,995;    2,045
366,364; 2380,458;    1,915;   -3,227
366,957; 2557,959;    2,279;   -0,045
367,549; 2429,705;    2,188;   -0,864
368,142; 2327,317;    1,825;   -1,500
368,734; 2339,208;    0,734;   -2,136
369,327; 2290,190;    1,643;   -0,500
369,919; 2264,309;   -1,538;    0,409
370,512; 2262,657;   -1,083;   -0,500
371,104; 2268,907;   -0,901;    1,591
371,696; 2354,748;    1,191;   -0,955
372,289; 2279,293;    0,373;    1,136
372,881; 2238,426;   -2,080;    1,318
373,473; 2098,063;   -2,170;    1,136
374,066; 2119,713;   -0,169;    0,500
374,658; 2056,038;    0,378;    1,136
375,250; 2107,465;    0,653;   -1,409
375,842; 2084,318;    0,473;   -0,045
376,434; 1993,009;   -0,435;   -0,409
377,026; 2198,206;    0,204;   -2,500
377,618; 2130,354;   -0,158;   -0,682
378,210; 2019,712;   -0,338;   -1,955
378,802; 1894,527;    0,754;   -0,591
379,394; 2226,977;    1,846;    0,682
379,986; 2225,488;    1,393;   -0,955
380,578; 2173,066;   -0,153;    0,773
381,170; 2119,282;   -0,972;    0,045
381,762; 2022,043;    0,755;    1,409
382,354; 2011,673;   -0,065;   -1,318
382,945; 1991,428;   -2,976;    0,318
383,537; 2030,263;   -2,705;   -1,955
384,129; 2060,328;   -2,160;   -1,136
384,721; 2154,080;   -0,252;    0,955
385,312; 2042,967;   -0,161;   -0,955
385,904; 2195,634;   -2,706;    1,591
386,496; 1869,329;   -0,979;    1,045
387,087; 2026,542;    1,022;    2,500
387,679; 1947,878;   -1,160;    0,045
388,270; 2033,310;    2,840;    2,045
388,862; 2024,538;    1,295;   -0,318
389,453; 1866,710;   -0,887;    1,045
390,045; 2039,316;   -0,705;   -2,682
390,636; 1982,441;    0,204;   -0,591
391,227; 1913,565;   -0,523;   -0,045
391,819; 2000,309;    0,204;    0,773
392,410; 2163,210;    1,022;    0,045
393,001; 2046,946;   -0,979;   -1,591
393,593; 2164,355;    1,930;   -0,045
394,184; 2135,403;    1,385;   -0,409
394,775; 1919,889;    1,839;    2,136
395,366; 2075,369;    1,385;    0,773
395,957; 2149,788;    0,113;    0,136
396,548; 2149,632;   -0,342;    2,682
397,139; 2348,775;   -2,433;    0,591
397,730; 2162,336;   -1,888;    0,955
398,321; 2184,268;   -1,252;    0,955
398,912; 2147,852;   -0,615;    0,136
399,503; 2235,335;   -3,524;   -1,409
400,094; 2035,836;    0,294;    1,682
400,685; 1988,659;   -0,433;    0,045
401,276; 1927,197;    0,930;   -0,955
401,867; 2006,760;   -0,888;    0,773
402,458; 2014,437;   -2,251;   -2,318
403,048; 2106,040;    1,112;    0,591
403,639; 1877,464;    0,840;    0,864
404,230; 2143,527;    2,476;    0,318
404,821; 2144,790;   -0,615;    0,045
405,411; 2073,474;    1,203;   -2,591
406,002; 1815,072;   -1,252;   -1,136
406,592; 2012,733;    2,294;    0,045
407,183; 1912,068;    0,566;   -1,500
407,774; 1802,116;    3,475;   -0,136
408,364; 1842,804;    0,930;    0,409
408,954; 1845,875;    0,384;    1,227
409,545; 1826,508;    1,021;    1,045
410,135; 1590,354;    1,293;    0,500
410,726; 1554,796;    1,838;    0,318
411,316; 1794,276;    0,111;    0,773
411,906; 1519,055;   -0,253;   -0,409
412,497; 1387,596;   -1,070;   -0,045
413,087; 1411,477;   -1,980;   -0,227
413,677; 1415,190;   -0,707;    3,864
414,267; 1330,519;    0,656;    1,409
414,857; 1237,616;   -2,980;    4,227
415,448; 1258,240;    0,839;    0,500
416,038; 1181,275;    0,020;   -0,591
416,628; 1161,187;   -0,889;    0,409
417,218; 1184,170;    0,565;    3,318
417,808; 1328,903;    0,202;   -0,409
418,398; 1142,571;    0,020;    2,682
418,988;  975,364;    2,020;    0,591
419,578; 1014,256;   -0,707;    1,409
420,168; 1014,875;   -1,343;   -0,955
420,757; 1103,088;   -1,343;   -1,500
421,347;  893,840;    0,111;   -0,227
421,937;  825,231;    2,292;    1,409
422,527;  954,062;    0,838;   -0,773
423,116; 1080,874;   -0,253;   -0,045
423,706;  719,583;   -1,889;    0,318
424,296;  592,399;    1,384;    0,682
424,885;  804,490;   -0,071;   -3,045
425,475;  727,686;    1,474;   -2,864
426,065;  542,533;   -0,980;   -0,318
426,654;  491,543;   -0,435;   -0,318
427,244;  840,175;    0,020;    1,409
427,833;  774,169;    1,383;   -0,500
428,423;  556,411;   -0,526;    1,136
429,012;  565,437;   -0,344;   -1,136
429,601;  684,754;   -1,344;    0,136
430,191;  515,669;    1,292;    4,318
430,780;  353,201;   -0,344;   -0,409
431,369;  615,119;    0,746;   -0,045
431,959;  464,427;   -1,254;    0,500
432,548;  332,097;   -1,163;   -0,045
433,137;  236,563;   -1,254;   -1,318
433,726;  340,282;    0,292;    0,500
434,315;  338,441;   -0,526;    2,409
434,905;  454,783;   -1,254;    1,409
435,494;  465,340;    0,746;    0,955
436,083;  254,619;   -0,981;   -0,955
436,672;  345,267;    0,110;    0,500
437,261;  263,531;    0,292;   -1,955
437,850;  557,309;    1,383;    0,682
438,439;  585,041;    3,291;    1,955
439,027;  694,140;    3,655;    1,773
439,616;  596,099;    2,927;    1,227
440,205;  317,686;    0,200;   -2,136
440,794;  230,104;    2,109;   -0,045
441,383;  143,824;   -1,346;   -0,591
441,971;   82,911;   -2,436;    0,591
442,560;   99,783;    0,563;   -1,773
443,149;  -18,095;    0,379;   -1,318
443,737;   30,797;   -0,074;   -2,318
444,326;   50,968;    0,018;    0,318
444,915;   99,085;   -1,982;    0,864
445,503;   97,892;   -2,891;   -0,318
446,092;  368,082;    0,382;    2,136
446,680;  293,006;    0,382;    0,318
447,269;  185,256;   -0,346;   -0,318
447,857;  169,367;    0,018;   -1,773
448,445;  105,222;    0,563;    1,318
449,034;   37,247;   -1,528;   -1,136
449,622;   44,702;   -1,073;    3,500
450,210;  329,471;    2,017;    2,227
450,799;  232,751;    0,290;   -0,591
451,387;  180,607;    1,381;   -0,591
451,975;  162,415;    2,654;    0,864
452,563;  236,003;    3,472;    2,318
453,151;   57,122;   -0,528;   -1,227
453,739;   93,313;   -1,347;    0,136
454,328;  207,088;    2,381;   -2,136
454,916;  137,952;    2,562;   -0,136
455,504;  145,877;    1,017;    1,227
456,092;   38,896;    0,017;   -1,591
456,679;    8,504;    1,472;    0,682
457,267;  405,887;    4,017;    1,045
457,855;   99,414;    1,017;    1,409
458,443;  -43,018;   -0,165;    1,682
459,031;  111,150;    0,108;    2,409
459,619;   65,106;   -1,801;    2,864
460,206;  -19,218;    0,835;    2,045
460,794;  -24,356;   -2,983;   -0,227
461,382;   26,340;   -0,529;   -0,864
461,970;   23,279;    1,198;    1,864
462,557;  -46,238;   -0,711;   -0,682
463,145;   74,357;   -3,165;   -1,682
463,732;  309,843;    2,016;   -1,045
464,320;   86,988;   -0,075;   -3,045
464,907;  215,494;    2,743;   -0,773
465,495;  131,964;    0,743;   -1,227
466,082;   60,015;   -1,984;   -0,045
466,670;   83,565;   -2,529;    1,227
467,257;  -20,244;   -1,711;    2,045
467,844;   75,796;   -0,075;    0,045
468,432;   49,921;    0,834;    3,500
469,019;   10,917;    0,925;   -1,773
469,606;   89,417;    0,470;    3,682
470,193;  109,330;   -1,439;    0,227
470,780;   79,908;   -2,075;    0,864
471,368;   11,138;   -1,257;   -0,773
471,955;  110,038;    1,379;   -0,682
472,542;   83,457;    0,652;   -1,136
473,129;  -26,805;   -0,166;    0,136
473,716;  -21,024;    1,470;    0,591
474,303;   10,159;    0,652;   -0,864
474,890;   11,690;   -1,439;   -0,500
475,477;  104,854;   -1,621;    0,409
476,064;   18,973;    1,106;   -1,591
476,650;  136,766;    0,288;    0,318
477,237;   47,220;   -0,258;    0,955
477,824;   28,984;   -1,076;    0,864
478,411;  -55,111;   -1,894;   -0,318
478,997;  -60,270;    0,560;   -0,773
479,584; -108,817;    1,196;   -0,409
480,171;   59,353;   -0,440;   -0,773
480,757;  117,773;    2,651;    0,773
481,344;    9,324;    0,469;    0,409
481,931;  -70,174;    1,105;    1,045
482,517;   48,248;   -1,258;    0,318
483,104;  120,152;    1,106;    2,864
483,690;    2,337;   -1,804;    0,045
484,276;  -21,157;   -0,895;    0,227
484,863;  177,012;    2,469;    1,136
485,449;   36,770;   -0,077;    0,318
486,035;    3,168;   -1,986;   -0,136
486,622;   89,238;   -0,895;    0,045
487,208;   14,040;    1,378;    1,500
487,794;  -60,730;    0,741;    0,318
488,380;  -62,813;    0,105;   -1,409
488,967;  -59,139;   -1,168;   -0,409
489,553;  -42,033;   -1,895;   -1,409
490,139;   25,211;    1,559;    0,773
490,725;  -40,147;    0,741;   -0,227
491,311;    4,635;    3,287;    3,045
491,897;  -13,816;   -0,986;    1,500
492,483;   -5,960;    0,105;    1,227
493,069;  410,702;    3,923;    0,864
493,655;  136,206;    1,650;    0,682
494,241;   16,170;    1,377;   -0,955
494,826;   27,330;    0,287;   -1,045
495,412;   91,997;    2,559;   -0,682
495,998;    0,046;   -0,805;   -0,318
496,584;   55,882;    0,377;    1,045
497,169;   69,681;    1,014;   -0,682
497,755;   17,685;    0,650;    1,227
498,341;  140,589;    0,559;    0,318
498,926;  258,755;    1,832;    1,955
499,512;    8,953;    1,286;    2,955
500,097;    7,739;    0,195;   -0,318
500,683;   29,363;   -0,350;    2,136
501,268;  -14,059;   -0,169;   -0,955
501,854;    9,832;   -0,169;    1,227
502,439;    5,950;   -0,624;   -1,773
503,024;   20,627;    0,195;    0,500
503,610;   53,200;   -0,078;   -0,682
504,195;    9,878;    0,558;    1,955
504,780;   96,673;    2,922;    1,227
505,366;  191,394;    3,013;    2,864
505,951;  134,307;    0,740;    1,045
506,536;   64,786;   -3,260;   -3,682
507,121;  141,532;    0,285;   -0,318
507,706;  100,172;    2,376;    1,045
508,291;   61,035;    2,649;    1,136
508,876;   81,755;   -0,988;    2,591
509,461;  189,644;   -0,169;   -0,773
510,046;  279,125;    0,194;    0,318
510,631;  330,836;   -0,351;   -0,773
511,216;  275,728;    2,467;   -0,500
511,801;  450,758;   -0,442;    2,591
512,386;  563,722;    0,740;    0,500
512,971;  687,931;   -2,988;    0,955
513,555;  871,337;   -0,897;   -1,500
514,140;  977,374;   -0,442;   -3,136
514,725; 1260,556;   -0,715;   -1,136
515,309; 1334,187;   -0,533;    0,318
515,894; 1406,792;   -0,624;   -2,227
516,479; 1740,074;   -0,624;   -0,955
517,063; 1940,883;    0,376;    1,227
517,648; 2305,069;    1,012;   -1,136
518,232; 2421,602;   -0,261;   -1,409
518,817; 2981,846;   -0,079;    1,682
519,401; 3548,627;    2,194;    0,591
519,985; 3565,438;    1,103;    1,136
520,570; 3926,031;    0,830;   -1,955
521,154; 4548,832;    2,102;    0,591
521,738; 5120,132;   -2,352;    2,409
522,323; 5943,645;   -0,170;    1,682
522,907; 6136,917;    0,466;   -0,136
523,491; 6404,374;    0,557;    0,955
524,075; 6805,164;    2,284;    0,591
524,659; 7300,723;    1,466;    0,591
525,243; 7327,212;    1,739;    0,409
525,827; 7862,225;    0,648;   -0,045
526,411; 8867,905;   -1,989;   -0,136
526,995; 9388,066;   -0,352;    1,409
527,579; 9370,647;   -0,443;   -1,045
528,163; 9929,693;    0,375;   -1,500
528,747;10158,507;    2,466;   -0,773
529,331;10697,442;   -0,080;   -1,409
529,915;11111,362;    1,738;    0,955
530,499;11314,241;   -0,807;    1,227
531,082;11256,282;   -0,534;    1,591
531,666;10954,749;    1,374;    0,773
532,250;11708,751;    1,284;    2,682
532,833;12195,168;    0,920;    2,773
533,417;12266,564;   -1,807;    0,864
534,001;12354,523;    1,647;   -0,318
534,584;13153,119;    0,374;    0,500
535,168;13107,481;    0,465;    1,409
535,751;13245,326;    0,647;    0,045
536,334;12835,335;   -0,898;   -0,409
536,918;13520,454;    0,011;    1,591
537,501;13679,922;   -0,899;    1,318
538,085;13781,383;   -0,444;    1,045
538,668;13977,172;    0,829;    2,409
539,251;14345,053;    1,829;    3,773
539,834;14427,867;    0,101;    0,773
540,418;14409,743;   -1,990;    4,318
541,001;14593,250;   -0,990;    1,773
541,584;14648,447;    2,101;    2,227
542,167;14384,141;    1,374;    2,955
542,750;14587,635;    1,919;   -0,773
543,333;14205,909;    0,555;    2,136
543,916;14981,373;    0,192;    2,500
544,499;15597,170;   -1,354;    0,227
545,082;15640,506;    1,374;    3,591
545,665;15819,802;    1,919;    1,500
546,248;16175,091;    1,010;   -0,318
546,830;15876,146;   -0,445;    1,955
547,413;16270,502;    1,010;   -0,773
547,996;16796,302;    0,555;    0,500
548,579;16619,924;    0,919;    0,955
549,161;16437,896;    1,828;    2,682
549,744;16262,427;   -0,809;    0,409
550,326;16790,066;   -0,809;   -1,136
550,909;16541,594;    2,737;    0,591
551,492;16970,060;   -0,263;    0,227
552,074;16795,542;   -0,173;   -1,318
552,657;17322,785;    2,373;    0,045
553,239;17090,335;   -0,173;   -0,773
553,821;17009,952;   -1,082;    1,045
554,404;16570,935;    1,282;    1,136
554,986;16912,946;    0,464;    1,045
555,568;17532,315;    1,191;   -0,955
556,151;16741,832;    1,191;   -0,227
556,733;16942,851;   -0,264;   -0,864
557,315;17434,609;    0,100;    0,500
557,897;17254,211;    0,554;   -0,500
558,479;17364,971;   -1,991;    1,318
559,061;17492,363;   -0,719;   -0,864
559,643;17828,955;   -0,264;    0,045
560,225;18205,742;    1,645;    2,864
560,807;18270,137;    0,918;    0,318
561,389;17743,022;    0,554;    2,318
561,971;18438,604;    0,463;    2,136
562,553;18303,304;   -1,628;    1,591
563,135;18439,059;   -0,537;    1,136
563,717;18039,573;    3,372;    1,136
564,298;18697,795;    3,645;   -0,045
564,880;18457,079;    0,645;   -1,409
565,462;18619,806;    0,645;    1,318
566,043;19735,986;   -0,446;    2,318
566,625;19296,349;    1,918;    1,227
567,207;19142,276;    1,099;    1,682
567,788;20261,462;   -1,264;    1,500
568,370;21059,728;    1,917;   -0,500
568,951;20836,438;    0,190;    0,227
569,533;21656,651;   -0,628;   -0,500
570,114;22099,935;   -0,446;    0,682
570,695;22586,518;   -0,174;   -1,318
571,277;23078,620;   -0,265;   -1,682
571,858;23768,823;    2,008;   -1,136
572,439;24642,416;    1,554;   -1,045
573,021;24808,680;    2,099;   -2,773
573,602;25265,486;   -1,265;    0,318
574,183;26178,377;   -2,083;    2,227
574,764;26290,889;   -1,629;    0,409
575,345;26793,081;    0,917;   -0,136
575,926;27432,784;   -0,356;    0,136
576,507;27420,030;    1,099;   -0,227
577,088;28501,000;    3,099;    1,682
577,669;28457,442;    0,735;    1,955
578,250;29146,559;    0,644;   -1,045
578,831;29854,743;   -1,356;   -2,227
579,412;30102,413;   -0,810;    0,955
579,993;30989,749;    1,008;    0,227
580,573;31338,962;   -0,629;   -0,955
581,154;30347,837;    0,735;   -0,591
581,735;31160,683;    0,644;    0,773
582,315;30609,138;   -0,629;    2,136
582,896;30929,707;   -0,174;    1,227
583,477;30492,366;    0,189;    1,227
584,057;30741,537;    0,553;    0,955
584,638;30983,204;    2,553;    2,318
585,218;30930,262;   -0,538;    2,682
585,799;31159,012;    0,281;   -0,227
586,379;31107,454;    0,372;    1,591
586,959;29955,893;    0,735;    0,318
587,540;29282,375;   -0,629;    2,227
588,120;28859,342;    1,007;   -0,045
588,700;27890,168;    2,553;    2,136
589,281;28180,538;    0,462;   -0,955
589,861;28054,210;    0,099;   -1,682
590,441;27908,903;    2,371;   -2,682
591,021;26928,021;   -0,265;   -2,591
591,601;27195,296;   -0,537;    0,500
592,181;27226,505;   -0,719;   -0,773
592,761;26530,630;    0,007;    1,409
593,341;26444,588;   -0,901;    0,045
593,921;26431,060;   -0,265;    1,591
594,501;26313,014;   -0,538;    1,318
595,081;26198,907;    0,917;   -0,318
595,661;26540,159;   -1,447;    0,955
596,240;27081,872;   -0,537;    0,136
596,820;26731,339;    0,372;    1,955
597,400;26867,096;    2,008;    0,773
597,980;27051,259;    2,008;    1,045
598,559;27106,457;    2,735;   -0,227
599,139;26859,826;   -0,174;   -1,227
599,718;26752,917;   -0,174;   -0,409
600,298;26964,669;    0,735;    0,682
600,877;27201,716;    2,917;    1,409
601,457;27479,092;    2,281;    1,136
602,036;27384,477;    0,190;    2,045
602,616;27540,440;    0,644;    1,682
603,195;27889,091;   -0,355;    3,500
603,774;27443,157;   -0,901;    2,045
604,354;27353,492;    0,826;   -0,500
604,933;26846,021;    0,463;    1,864
605,512;26964,828;    3,554;    0,591
606,091;27044,781;   -0,537;    3,773
606,671;27825,699;    0,281;    0,773
607,250;26916,519;    1,644;    3,136
607,829;27179,315;    2,372;    3,227
608,408;27041,567;    1,190;    2,591
608,987;26106,264;    1,281;    3,409
609,566;26407,615;   -1,265;   -2,500
610,145;26505,510;   -1,082;    0,682
610,723;26944,726;    4,372;    6,864
611,302;26225,346;   -0,446;    1,682
611,881;25652,263;    5,008;   11,227
612,460;26539,872;    1,645;    3,955
613,039;26994,337;   -0,082;    2,045
613,617;25711,531;    1,736;    4,773
614,196;25923,539;    1,099;    1,227
614,775;26266,123;    1,009;    2,409
615,353;26223,264;    0,736;    0,864
615,932;25926,145;    0,100;    2,409
616,510;26507,031;    0,554;    0,591
617,089;25992,935;    7,100;   17,591
617,667;25782,328;    2,372;    6,136
618,246;25706,801;   -1,537;    1,318
618,824;25838,684;   -3,355;   -0,955
619,402;25434,412;   -2,900;   -1,773
619,981;25920,218;   -0,173;   -1,045
620,559;25753,724;    0,009;    1,682
621,137;25350,244;   -0,718;    1,864
621,715;25305,461;   -1,173;   -0,682
622,293;25245,940;   -0,537;   -0,773
622,871;25728,427;   -0,718;    0,500
623,450;25313,678;    0,373;   -0,864
624,028;25179,844;    0,191;   -0,955
624,606;24772,228;   -1,718;    1,682
625,183;25196,184;   -1,536;   -1,136
625,761;24886,455;    1,009;    1,136
626,339;25199,111;    1,373;    2,591
626,917;25556,981;   -0,172;   -0,045
627,495;25587,469;   -0,354;    1,318
628,073;25032,848;   -0,263;    2,864
628,650;24751,750;    0,100;    2,136
629,228;25134,250;    0,373;    4,409
629,806;24580,479;    2,282;    1,136
630,383;24886,523;    1,464;   -0,318
630,961;24599,874;    2,555;   -0,955
631,539;24317,400;    2,464;    0,227
632,116;23685,328;   11,373;   15,409
632,694;24259,434;    2,555;    6,500
633,271;24523,252;    0,828;    2,682
633,848;24489,447;    1,828;    2,045
634,426;24566,394;   -1,081;    1,773
635,003;23677,055;    1,101;   -0,409
635,580;23965,961;    1,192;    3,682
636,158;24585,593;    3,737;    1,227
636,735;24547,101;    0,555;   -0,500
637,312;24669,422;   -0,809;   -0,682
637,889;24780,540;   -4,354;   -0,682
638,466;24268,955;   -3,990;   -0,409
639,043;24270,230;    2,101;   -1,136
639,620;24618,926;   -2,262;   -0,955
640,197;24900,720;    1,100;    1,682
640,774;24997,950;   -0,172;    1,136
641,351;25373,179;    0,737;    1,136
641,928;24824,499;   -0,627;    1,409
642,505;24482,274;    0,828;   -0,500
643,082;24656,958;   -1,718;    1,227
643,658;23687,824;   -0,718;    1,500
644,235;24393,872;    1,191;    2,500
644,812;24708,556;    1,918;    0,773
645,388;24434,422;   -0,991;    1,409
645,965;24533,742;   -0,809;    1,682
646,542;24559,517;   -1,445;   -0,227
647,118;24509,655;    1,009;   -0,955
647,695;24862,249;   -0,263;    1,136
648,271;24764,023;   -0,536;    0,500
648,848;25108,253;    0,736;    2,227
649,424;24946,573;    0,827;    1,318
650,000;24717,621;   -0,354;   -1,045
650,577;24489,850;   -0,627;   -0,955
651,153;24998,625;   -1,809;    0,955
651,729;25969,582;    1,191;    0,864
652,305;26075,175;    0,645;    2,773
652,881;30087,950;   -0,082;    1,136
653,458;36616,998;    1,100;    0,227
654,034;40486,591;    0,282;    1,591
654,610;41910,184;    0,554;    0,773
655,186;43258,413;    0,645;    3,045
655,762;43009,370;   -0,991;    0,409
656,338;43045,963;    0,100;    0,136
656,913;43974,465;   -0,082;    0,409
657,489;43274,240;    0,827;   -0,318
658,065;43245,379;   -0,173;   -1,591
658,641;43927,608;   -0,900;   -0,864
659,217;43220,110;   -0,991;    0,409
659,792;42688,704;    0,645;   -0,409
660,368;42901,024;   -2,173;   -0,682
660,944;42644,799;   -2,082;    1,227
661,519;38448,392;   -0,628;    0,409
662,095;32818,167;   -1,719;    0,591
662,670;28241,396;    1,281;   -0,136
663,246;26984,989;    1,009;   -0,409
663,821;26211,946;    0,281;    1,682
664,396;25719,994;    0,009;    1,864
664,972;26004,041;    0,009;   -0,500
665,547;26293,362;    1,372;    0,136
666,122;26334,864;   -1,082;    0,318
666,698;26612,821;   -0,173;    0,318
667,273;25935,323;   -0,173;    0,136
667,848;26768,552;    2,372;    1,500
668,423;26546,509;    2,190;    2,318
668,998;27082,920;    2,827;   -0,682
669,573;27619,241;   -3,264;   -1,500
670,148;27432,470;   -1,446;   -0,682
670,723;27258,609;   -1,810;    0,318
671,298;27632,202;    2,372;    1,045
671,873;27784,613;   -0,082;   -0,136
672,448;27733,297;    0,645;    0,136
673,023;28129,254;   -1,992;   -0,227
673,597;28418,665;    0,827;    2,318
674,172;28194,895;   -0,355;    0,318
674,747;27667,306;    0,372;   -1,045
675,321;27503,899;   -0,628;    3,318
675,896;27094,492;    0,645;    1,045
676,471;28099,358;    2,645;    1,591
677,045;27874,315;   -1,264;    0,682
677,620;27937,362;    0,190;    1,136
678,194;28262,683;   -2,628;    1,136
678,769;27741,912;   -1,083;   -0,318
679,343;28030,778;   -0,628;    1,773
679,917;27881,735;   -1,446;    1,955
680,492;27958,419;    0,826;    3,227
681,066;28118,103;    3,372;    0,409
681,640;28144,059;    1,463;   -0,318
682,214;28938,652;    0,735;    0,500
682,788;28442,791;   -1,356;   -0,773
683,363;28401,657;   -1,810;    1,682
683,937;28134,523;   -1,719;   -0,318
684,511;28865,298;    0,463;   -0,591
685,085;28579,072;   -1,356;    0,318
685,659;28305,756;   -2,538;    0,864
686,232;28575,713;   -0,356;   -0,318
686,806;28350,306;   -0,901;    0,409
687,380;28988,808;   -0,174;    0,591
687,954;29198,129;   -1,174;    1,136
688,528;28867,449;   -0,719;    1,955
689,101;29665,133;   -3,992;    1,045
689,675;29223,181;   -0,356;   -0,136
690,249;28641,047;   -0,719;    0,409
690,822;28923,094;    0,280;    0,318
691,396;29002,324;   -0,265;    1,227
691,969;28476,553;    1,280;    0,136
692,543;28952,146;   -0,447;   -1,955
693,116;28647,285;   -0,265;   -1,409
693,690;28452,242;    0,099;    0,500
694,263;29001,653;   -1,083;    2,955
694,836;29004,337;    1,371;    3,591
695,410;27710,385;   -0,265;    1,773
695,983;28144,159;    0,189;    0,591
696,556;28164,753;   -0,447;   -1,045
697,129;28562,346;   -0,356;    1,409
697,703;28162,302;   -1,629;    1,955
698,276;28166,441;    1,462;   -0,773
698,849;27958,852;    1,280;    1,409
699,422;28331,445;   -1,083;    0,591
699,995;28100,402;    0,007;    0,136
700,568;28572,177;   -0,629;    3,045
701,140;28602,952;   -2,811;    1,682
701,713;28288,090;   -0,174;    2,409
702,286;28062,593;   -0,538;    0,864
702,859;27997,458;   -0,902;   -0,591
703,432;27152,415;    0,825;    0,682
704,004;27636,190;    0,462;    0,318
704,577;27492,147;   -0,629;    0,136
705,150;28024,013;    0,189;    2,500
705,722;27807,878;   -0,356;   -3,227
706,295;27652,744;   -0,175;   -0,591
706,867;27490,792;   -0,175;    1,955
707,440;27724,930;   -1,720;   -0,409
708,012;27967,887;    0,462;    0,591
708,584;27832,571;    2,462;    0,227
709,157;28182,437;    1,825;   -0,591
709,729;27814,121;    2,280;    2,045
710,301;28649,896;    0,734;    0,045
710,874;28672,398;   -1,447;   -0,227
711,446;27495,809;    0,371;    0,864
712,018;27406,766;    0,098;    0,500
712,590;27168,814;   -1,993;    1,682
713,162;27681,316;    0,825;    1,318
713,734;27980,818;    1,825;   -2,045
714,306;27884,502;   -1,902;   -0,409
714,878;26589,095;    0,825;    0,864
715,450;27416,052;    0,643;    0,864
716,022;27673,100;    1,552;    1,318
716,593;27812,511;    0,189;    0,591
717,165;27735,377;   -3,175;   -1,227
717,737;27432,061;    0,280;    0,409
718,309;27106,926;    0,280;   -0,045
718,880;27096,610;   -0,539;   -1,409
719,452;27264,658;   -0,175;   -1,591
720,024;26823,342;    0,734;   -0,591
720,595;27438,208;   -2,902;    0,955
721,167;27028,619;    0,370;   -2,045
721,738;26510,849;   -0,812;   -1,045
722,309;26495,896;   -0,993;   -1,227
722,881;26244,944;   -1,357;    0,773
723,452;26888,355;   -2,630;    2,864
724,023;27068,403;   -0,721;    2,682
724,595;26819,087;    0,007;    0,682
725,166;26623,135;    0,007;   -0,409
725,737;26224,273;    1,734;    0,227
726,308;26311,230;   -0,266;    0,318
726,879;26810,550;   -1,630;    1,227
727,450;26661,143;    0,552;   -0,045
728,021;26586,464;    3,097;    0,682
728,592;26404,784;    0,734;    0,500
729,163;26702,013;    0,643;   -0,136
729,734;26749,879;    0,188;   -0,227
730,305;27078,291;    1,734;    0,136
730,876;27341,247;    0,188;    2,955
731,447;27083,022;    2,188;    2,682
732,017;27232,706;    1,097;    1,864
732,588;26686,936;    0,734;    1,227
733,159;26873,983;    0,643;   -1,045
733,729;26731,395;    0,006;    0,409
734,300;26008,260;    0,915;    0,864
734,870;26420,763;    3,461;    0,591
735,441;26996,628;    0,370;   -0,591
736,011;26776,222;    0,643;   -1,591
736,582;26749,360;   -0,812;    0,045
737,152;26196,135;   -1,721;   -2,045
737,722;26634,364;   -0,267;   -0,682
738,293;26339,867;   -1,358;    1,318
738,863;26226,642;    2,461;    2,318
739,433;25998,780;    5,279;    0,318
740,003;26647,555;   -0,994;   -0,682
740,573;26033,875;    2,097;   -1,591
741,143;26018,559;   -1,085;    0,318
741,713;26833,243;    1,188;   -0,500
742,283;26505,018;    0,915;    1,591
742,853;26265,248;    1,915;    1,591
743,423;25743,932;    1,733;    0,045
743,993;25920,343;   -0,358;    1,500
744,563;25232,027;    0,097;   -0,864
745,133;25209,347;   -0,812;   -0,864
745,702;25925,395;   -0,267;    1,773
746,272;25151,443;   -0,176;    0,591
746,842;24882,399;   -1,358;   -0,591
747,411;25327,356;   -0,267;   -0,318
747,981;25530,676;    0,097;    0,500
748,551;25581,360;    2,278;   -1,045
749,120;25380,499;    0,642;   -0,227
749,690;25800,092;   -0,631;    2,409
750,259;26138,322;    1,369;    2,955
750,828;26026,915;    1,551;   -1,955
751,398;26300,508;    1,278;   -0,045
751,967;25799,101;    2,187;    0,409
752,536;26059,058;   -0,813;   -0,227
753,105;26473,196;    0,096;    0,227
753,675;26288,607;    0,096;    1,773
754,244;26210,291;   -0,904;    3,591
754,813;26259,248;    0,551;    1,227
755,382;25812,023;    0,460;    0,955
755,951;26322,162;    1,551;    3,682
756,520;25817,391;   -0,085;    1,864
757,089;26360,802;    0,278;    0,500
757,658;26547,850;    1,733;    1,227
758,227;26564,261;    1,096;    0,318
758,795;26871,400;    1,187;    1,136
759,364;27123,629;   -0,086;   -0,591
759,933;26134,859;   -1,176;   -0,045
760,501;25672,361;    0,733;   -1,318
761,070;26099,318;   -2,813;   -1,409
761,639;26798,183;   -1,904;    1,318
762,207;26132,504;    1,551;   -0,955
762,776;26013,279;    0,369;    0,864
763,344;26033,872;   -0,995;    0,591
763,913;25193,374;   -0,722;    1,409
764,481;25908,240;    1,005;   -0,136
765,049;25692,560;   -1,358;    1,409
765,618;25588,062;   -0,086;    0,318
766,186;25657,656;    0,278;    0,136
766,754;25923,067;    0,005;    1,864
767,322;24895,751;   -1,995;    0,409
767,890;24936,980;   -0,722;   -1,773
768,459;25337,664;   -2,177;   -0,318
769,027;25506,439;    1,641;    3,409
769,595;24474,487;    3,278;    2,591
770,163;24911,807;    3,823;    2,955
770,730;24630,855;    0,732;   -0,136
771,298;24513,812;    0,187;   -1,409
771,866;24680,405;   -1,541;    4,955
772,434;24953,089;   -0,631;   -1,864
773,002;25127,045;    0,005;    0,682
773,569;24741,093;    0,914;    1,682
774,137;24570,413;   -0,268;   -0,045
774,705;25401,552;    0,278;   -0,136
775,272;24883,600;    0,641;    0,682
775,840;24644,738;   -0,177;    2,682
776,407;24166,149;    0,277;    1,955
776,975;23781,379;   -0,632;    0,318
777,542;24785,336;   -1,086;   -0,045
778,110;24621,110;   -1,268;   -0,045
778,677;24310,704;   -2,359;   -0,864
779,244;24051,569;    2,186;    1,045
779,812;24163,617;    1,823;    0,864
780,379;24030,028;    0,005;    1,136
780,946;24280,076;    1,005;   -0,773
781,513;24637,305;   -1,450;    0,318
782,080;23986,080;   -0,086;    2,864
782,647;24715,492;   -0,268;    3,045
783,214;24270,539;   -0,177;    3,864
783,781;23958,951;   -0,723;   -0,682
784,348;23816,362;   -0,632;    1,500
784,915;24252,137;   -3,177;    0,318
785,482;24027,457;    1,368;    2,591
786,049;24456,687;    0,186;   -0,591
786,615;24602,371;    0,277;   -0,955
787,182;24376,055;    0,186;   -0,682
787,749;24006,011;   -2,814;    1,409
788,315;23339,604;   -1,632;   -0,409
788,882;23640,016;    1,550;   -1,227
789,448;24323,245;    1,732;   -0,955
790,015;24367,475;    1,095;    3,227
790,581;23885,522;    1,459;    0,227
791,148;23849,661;    0,641;    1,045
791,714;24075,345;   -0,541;    3,136
792,280;23708,483;    0,186;    1,591
792,847;23271,440;    0,550;    2,500
793,413;23837,306;   -0,269;   -0,318
793,979;23389,081;    3,459;   -1,318
794,545;23409,674;    4,459;    2,682
795,111;22856,085;    2,186;    1,318
795,678;23054,496;    0,731;   -1,682
796,244;22653,271;    3,368;    0,136
796,810;23239,592;    1,731;    0,773
797,375;22962,094;    0,549;   -2,136
797,941;23057,142;   -0,541;    0,591
798,507;23169,462;   -0,451;   -0,955
799,073;22715,328;   -0,360;    0,591
799,639;22792,012;   -2,632;    3,136
800,205;22841,423;    0,095;    2,682
800,770;22422,834;    0,640;    1,773
801,336;22467,518;    1,368;   -0,955
801,901;22111,930;    4,549;    3,136
802,467;22718,250;   -0,542;    2,045
803,033;22083,843;   -0,087;    0,864
803,598;22270,618;    1,913;   -1,045
804,163;22295,938;    1,095;   -0,318
804,729;22245,622;   -0,178;    1,136
805,294;22666,852;    0,822;    2,227
805,859;22456,263;    0,731;   -0,409
806,425;21913,311;    1,186;    2,682
806,990;21576,631;    2,186;    4,318
807,555;22078,497;   -1,451;    2,591
808,120;21968,181;    0,822;   -0,409
808,685;21996,956;    0,185;   -2,500
809,250;21512,822;    0,004;   -0,500
809,815;21843,415;    1,913;    0,682
810,380;22353,735;   -0,269;    1,591
810,945;22848,783;   -1,087;    2,045
811,510;22099,376;    2,094;    1,591
812,075;21798,151;   -0,633;   -1,409
812,640;21811,471;    2,003;    1,409
813,204;21850,064;    0,822;   -0,227
813,769;22381,566;    2,094;   -0,045
814,334;21783,978;    0,458;    0,864
814,898;21852,298;    0,367;    0,591
815,463;21720,709;    1,276;   -0,773
816,027;21662,030;   -0,724;   -2,318
816,592;21773,895;    0,640;   -2,045
817,156;21321,216;    2,094;    1,136
817,721;21154,809;    4,276;    2,318
818,285;21142,766;    2,912;    1,500
818,849;21748,722;   -1,451;    1,682
819,414;21679,134;   -0,269;    2,955
819,978;21277,090;   -1,269;    1,773
820,542;21816,593;    2,003;    0,500
821,106;21531,731;   -0,815;    0,682
821,670;21648,324;   -0,815;    2,591
822,234;21371,736;   -0,270;    1,409
822,798;20762,420;    0,003;    0,500
823,362;20704,104;   -0,633;    4,227
823,926;20052,424;    0,094;    1,136
824,490;20261,381;   -0,997;   -0,682
825,054;20689,156;   -0,088;   -1,136
825,618;20261,658;   -1,542;   -1,500
826,181;20254,160;    0,458;   -1,318
826,745;20177,298;    1,367;   -1,045
827,309;20514,346;    1,185;    1,318
827,872;19925,121;    1,367;    0,955
828,436;20900,441;    1,185;   -0,773
828,999;20986,216;   -0,997;    1,227
829,563;19747,809;   -0,179;    1,136
830,126;19600,857;   -0,179;   -0,591
830,690;19651,632;   -1,997;    2,864
831,253;19143,498;   -0,543;    2,227
831,816;19241,727;   -1,906;    0,500
832,380;19183,775;    0,185;    0,864
832,943;19415,822;   -1,361;   -0,500
833,506;18881,325;    2,639;   -1,227
834,069;19653,645;    3,912;   -0,955
834,632;19782,147;    1,730;    1,318
835,195;19704,286;    1,003;    0,955
835,758;18866,879;   -0,997;    1,955
836,321;18698,472;    0,730;   -1,045
836,884;18803,156;   -0,725;   -0,955
837,447;18841,476;   -2,816;    1,773
838,010;19118,888;    0,366;    3,227
838,573;19382,390;   -1,179;    0,773
839,135;19379,165;   -1,361;   -0,955
839,698;18833,758;    1,275;    0,409
840,261;18367,715;    1,003;   -0,227
840,823;18212,853;   -0,543;    0,864
841,386;18507,446;   -0,452;   -2,409
841,948;18353,130;   -1,361;    1,773
842,511;18112,632;    0,912;    1,682
843,073;18277,862;    1,912;    0,227
843,636;18077,364;   -0,361;   -0,227
844,198;17972,684;    0,911;    0,591
844,760;18091,823;    1,093;    1,955
845,322;17761,689;    0,548;    1,136
845,885;18191,009;    0,730;    0,591
846,447;18628,239;   -1,998;    0,227
847,009;18207,013;    1,911;   -0,682
847,571;18541,152;    0,820;   -2,045
848,133;18668,200;   -1,089;   -1,864
848,695;18510,975;   -0,543;    1,409
849,257;18037,022;   -1,089;   -1,682
849,819;18193,706;   -0,998;   -0,409
850,381;18267,208;   -0,725;   -0,864
850,942;18622,165;    1,093;   -0,591
851,504;18531,849;    1,184;    0,227
852,066;18570,351;    1,275;   -1,591
852,628;18123,308;   -0,180;    1,955
853,189;17678,992;    1,638;    2,682
853,751;17794,040;   -0,907;    1,409
854,312;17581,996;   -0,453;   -1,682
854,874;18078,408;   -2,089;   -0,773
855,435;18658,183;   -0,907;   -1,682
855,997;18769,867;   -1,816;   -0,136
856,558;18052,005;    0,366;    1,773
857,119;18174,507;    0,820;    2,864
857,681;17912,100;    0,002;    0,318
858,242;17922,330;    1,911;   -2,136
858,803;18333,468;    0,456;   -0,773
859,364;18946,698;    0,184;   -4,773
859,925;18278,473;   -2,453;   -0,955
860,486;18161,702;   -0,453;   -0,955
861,047;17891,477;   -0,544;   -1,227
861,608;17632,525;   -1,089;   -0,773
862,169;17823,845;    0,638;   -0,045
862,730;17612,802;    0,456;    1,409
863,291;17835,668;   -0,635;   -0,500
863,852;18205,352;   -0,635;    1,955
864,412;17666,399;   -0,271;   -0,864
864,973;16283,993;   -0,089;    0,500
865,534;16157,586;   -1,726;    0,227
866,094;17650,451;    1,820;    0,227
866,655;17294,681;    1,274;    3,318
867,215;17579,274;    0,274;    0,136
867,776;17447,503;    0,547;   -0,136
868,336;17517,551;   -1,453;    0,136
868,897;16956,599;    2,638;    1,682
869,457;16686,101;    1,365;    0,318
870,017;16970,058;    0,547;   -1,227
870,578;17482,287;   -0,817;    0,773
871,138;17127,244;   -2,089;   -0,955
871,698;16707,928;   -0,817;   -1,318
872,258;16584,339;   -0,453;   -2,864
872,818;16946,841;    2,729;    0,045
873,378;16917,343;    0,638;    1,045
873,938;16504,755;    0,547;    0,500
874,498;16848,893;    0,274;   -1,955
875,058;16701,759;    2,183;    1,773
875,618;16568,989;    1,910;   -2,682
876,177;16511,763;    1,274;    0,136
876,737;16125,993;   -0,090;    1,955
877,297;16125,950;    0,183;    1,955
877,856;16109,179;   -0,362;    0,318
878,416;16065,045;    1,183;   -0,136
878,976;16266,002;   -1,817;    0,409
879,535;16454,322;    0,092;    3,136
880,095;16176,915;   -0,544;    0,045
880,654;16300,599;   -1,090;    1,318
881,213;16396,920;    2,456;    1,500
881,773;16055,876;    2,637;    2,682
882,332;16372,560;    3,365;    5,136
882,891;16223,335;    3,092;    2,136
883,451;16660,474;   -1,272;    1,682
884,010;16166,340;   -2,908;   -0,409
884,569;16290,842;   -0,999;   -0,045
885,128;16369,162;    2,819;   -1,864
885,687;16432,664;    4,455;    0,682
886,246;16133,712;    1,455;    2,136
886,805;15913,669;    2,455;    2,045
887,364;16222,898;   -0,999;   -0,500
887,922;16612,218;   -1,181;    0,045
888,481;16058,902;   -1,545;    0,591
889,040;16377,768;    1,183;    2,136
889,599;17052,270;    2,455;    1,409
890,157;17108,318;    1,455;    2,409
890,716;16753,820;   -0,090;    0,227
891,274;16573,232;    0,092;   -1,136
891,833;17003,097;    1,546;    0,864
892,391;16883,872;   -0,454;    0,500
892,950;16953,193;    1,819;   -0,773
893,508;17340,513;    0,455;   -0,409
894,067;16679,379;    0,637;    0,136
894,625;16576,154;   -0,636;   -1,500
895,183;16811,838;   -0,363;   -0,682
895,741;16710,795;    1,728;   -1,773
896,299;16573,751;   -0,545;   -2,409
896,858;16733,253;    0,819;   -1,591
897,416;16868,665;    2,728;   -1,318
897,974;16635,985;    1,819;    0,318
898,532;16784,305;    6,091;    2,682
899,089;16647,080;    2,091;   -0,682
899,647;16719,401;   -1,454;    1,318
900,205;16457,267;    1,182;    1,045
900,763;16634,041;   -0,454;    0,227
901,321;16665,544;    2,364;   -1,409
901,878;16107,500;   -1,000;   -0,773
902,436;16012,003;   -1,363;    1,318
902,994;16360,050;    4,728;    3,682
903,551;15837,825;    0,728;    0,409
904,109;16183,509;    0,182;   -1,409
904,666;15787,920;    2,455;    1,045
905,224;15648,423;    0,182;   -0,409
905,781;15344,561;    0,727;   -0,318
906,338;15441,518;   -1,363;    1,045
906,895;15402,656;    0,637;    2,045
907,453;15317,431;    1,727;    1,136
908,010;15380,297;   -0,909;    0,409
908,567;15004,527;    1,273;    0,591
909,124;14501,211;    0,364;   -1,500
909,681;14595,167;   -2,909;    0,682
910,238;14754,942;    0,636;   -1,318
910,795;15064,081;   -0,273;   -1,136
911,352;14683,354;   -2,909;   -2,682
911,909;14111,081;   -1,364;   -0,864
912,466;14620,626;   -3,182;    1,500
913,022;14124,535;   -1,636;    0,500
913,579;14524,717;   -0,909;    2,045
914,136;14250,172;    1,636;    0,955
914,692;14580,535;    0,091;   -1,227
915,249;14151,354;    1,455;    0,409
915,806;14378,808;    0,182;    1,955
916,362;14137,899;    1,909;    1,864
916,918;13711,808;    2,000;    1,045
917,475;13641,172;   -1,182;    0,955
918,031;13731,263;    3,364;   -0,045
918,587;13223,717;   -0,909;   -0,318
919,144;13461,899;   -2,273;    0,227
919,700;13738,172;    1,727;    0,773
920,256;13333,081;    0,727;    0,045
920,812;12951,717;   -0,727;   -1,045
921,368;12968,444;   -1,727;   -1,045
921,924;12642,081;    0,182;   -0,136
922,480;12197,172;   -0,545;    1,227
923,036;12760,081;    1,273;    1,955
923,592;12699,626;    0,455;    0,318
924,148;12621,626;    0,455;   -0,955
924,704;11989,626;   -1,364;   -0,409
925,259;12265,990;   -0,273;    0,591
925,815;12044,535;    1,455;    0,500
926,371;11542,354;    2,909;    1,409
926,926;11421,899;    2,091;    0,591
927,482;11105,444;   -1,364;    0,773
928,037;11001,081;    0,909;    2,045
928,593;11253,263;    1,636;    1,045
929,148;11075,899;   -1,818;   -1,500
929,704;10580,444;   -1,455;   -0,500
930,259;10783,535;    0,091;   -0,136
930,814; 9883,444;   -0,818;    1,955
931,369; 9549,263;    1,091;   -0,773
931,925; 9464,808;   -0,091;    0,136
932,480; 9346,535;   -2,818;   -2,591
933,035; 9239,626;    0,545;   -0,318
933,590; 8969,172;    0,364;   -1,773
934,145; 8664,263;   -1,364;   -0,318
934,700; 9044,717;    0,455;   -0,591
935,255; 8826,990;   -0,091;    0,045
935,809; 8084,899;    3,182;    0,864
936,364; 7259,354;   -0,455;   -0,136
936,919; 7230,808;    0,455;   -1,773
937,474; 7094,626;    1,455;    0,136
938,028; 6875,990;   -1,636;    1,136
938,583; 6379,626;    1,818;    4,682
939,138; 6662,263;    2,091;    2,136
939,692; 6108,808;    1,636;   -1,136
940,247; 5809,717;   -0,727;   -1,045
940,801; 5374,717;   -0,636;    0,227
941,355; 5302,354;   -0,364;    2,591
941,910; 4955,899;   -0,273;   -2,136
942,464; 5044,081;   -0,818;   -0,318
943,018; 4818,535;    1,000;   -0,227
943,572; 4794,444;    2,545;   -0,682
944,126; 4235,263;    0,091;   -0,409
944,681; 4121,717;    3,091;    0,227
945,235; 4100,626;    1,000;   -0,591
945,789; 4036,263;    0,364;   -1,864
946,342; 4128,172;    0,455;   -0,591
946,896; 3941,263;   -2,273;    0,955
947,450; 3705,263;    1,545;   -0,227
948,004; 3890,081;    1,727;   -0,045
948,558; 3925,444;    0,273;   -0,864
949,111; 3831,444;   -0,273;   -0,318
949,665; 3865,990;    1,636;   -0,682
950,219; 3725,899;   -0,091;   -1,045
950,772; 3814,808;   -1,909;    1,864
951,326; 3723,717;    0,545;   -0,955
951,879; 3815,626;    0,727;   -2,318
952,433; 3831,717;    0,000;    2,227
952,986; 3685,717;    2,909;    0,682
953,539; 3638,717;   -0,273;    0,591
954,093; 3574,717;    0,545;   -1,318
954,646; 3696,808;    0,909;    1,318
955,199; 3513,808;    0,000;   -0,500
955,752; 3407,172;   -0,455;    1,773
956,305; 3369,535;   -0,091;    2,955
956,858; 3517,535;    0,818;   -0,318
957,411; 3678,899;   -0,545;    2,136
957,964; 3519,717;    1,364;    2,136
958,517; 3524,081;   -1,545;    3,136
959,070; 3376,081;   -0,455;    1,955
959,623; 3449,626;    1,091;    1,500
960,176; 3210,081;    1,727;    2,045
960,728; 3170,626;   -2,727;    0,773
961,281; 3236,444;    0,545;    0,500
961,834; 3292,263;   -0,909;    0,864
962,386; 3199,444;    1,727;    1,045
962,939; 3123,081;    0,364;   -0,318
963,491; 3257,081;    0,455;    1,136
964,043; 3128,444;    1,182;    2,409
964,596; 3270,626;   -1,000;    2,227
965,148; 3105,444;   -1,000;    1,773
965,700; 3034,717;    1,091;   -0,227
966,253; 3177,990;   -0,636;    0,318
966,805; 3021,808;   -2,273;    0,773
967,357; 3084,535;    1,091;   -1,500
967,909; 3040,444;    0,455;   -1,227
968,461; 3138,808;    0,545;    3,136
969,013; 3066,899;   -0,182;   -0,864
969,565; 3141,444;   -0,455;   -1,136
970,117; 3208,444;   -0,364;    1,045
970,669; 3039,990;    0,182;   -0,136
971,220; 2919,081;   -0,455;   -1,500
971,772; 2851,808;   -0,636;   -0,318
972,324; 2961,263;    0,091;   -0,500
972,876; 2889,808;    0,818;   -0,045
973,427; 3042,899;    1,909;   -1,045
973,979; 3014,808;   -0,727;   -2,500
974,530; 3038,354;    1,818;    1,318
975,082; 3048,172;   -0,545;    1,682
975,633; 2961,354;    1,091;    1,682
976,184; 3106,263;    0,909;    0,773
976,736; 2880,808;    0,091;    0,227
977,287; 2685,263;   -0,909;   -0,500
977,838; 2868,535;    0,909;   -0,318
978,389; 2931,717;   -1,000;   -0,500
978,940; 2812,626;    0,545;   -0,409
979,491; 2834,899;    0,091;   -0,500
980,042; 2795,990;    0,182;    3,045
980,593; 2838,626;   -2,545;    0,227
981,144; 2894,444;    2,545;   -0,500
981,695; 2851,990;    1,455;    1,500
982,246; 2835,899;   -0,273;    1,045
982,797; 2975,263;   -1,727;    0,682
983,347; 3075,263;    0,364;    0,591
983,898; 3228,626;    3,091;    0,409
984,449; 3075,263;    2,182;    0,773
984,999; 2991,263;    1,455;   -1,136
985,550; 2773,535;    0,182;   -0,318
986,100; 2807,808;   -0,455;   -0,318
986,651; 2843,990;   -0,818;    0,045
987,201; 2814,808;   -1,000;   -0,591
987,751; 2879,354;    0,818;    2,864
988,302; 2877,172;    2,636;    1,500
988,852; 2907,354;    0,455;   -1,136
989,402; 2950,263;    0,091;    0,682
989,952; 2861,990;   -2,182;    0,864
990,502; 2969,990;   -0,091;    0,682
991,052; 2933,808;   -0,727;    0,045
991,602; 2794,990;   -2,909;    1,318
992,152; 2806,626;    0,455;    0,682
992,702; 2782,808;    1,364;   -0,045
993,252; 2718,172;   -3,000;   -0,500
993,802; 2806,354;   -0,273;    1,318
994,352; 3032,626;   -1,545;    1,136
994,901; 3108,626;   -0,182;    3,227
995,451; 3027,899;   -0,182;    0,318
996,000; 3121,444;    1,636;    0,318
996,550; 2840,899;    2,273;    0,227
997,100; 2820,172;    1,273;   -0,045
997,649; 3101,717;    2,182;    0,955
998,198; 2770,263;    1,727;   -1,500
998,748; 2947,899;    1,091;   -2,318
999,297; 2857,263;   -0,818;   -0,409
999,846; 2924,081;    1,000;   -0,773
1000,395; 2965,172;   -0,818;    0,500
1000,945; 2917,263;    1,818;   -0,773
1001,494; 3006,081;    2,364;    0,682
1002,043; 3009,263;    4,636;    0,864
1002,592; 2851,172;   -1,091;    1,955
1003,141; 2982,990;   -0,455;   -0,682
1003,690; 2855,263;    1,727;    0,500
1004,238; 2935,081;    1,455;   -0,045
1004,787; 2580,990;    1,364;    1,227
1005,336; 2793,444;    0,364;    0,682
1005,885; 2928,626;    1,364;   -2,773
1006,433; 3078,535;    0,545;    0,955
1006,982; 3129,535;    0,455;    1,682
1007,531; 3053,081;   -1,818;   -0,227
1008,079; 2992,717;   -2,273;    0,500
1008,627; 3145,626;   -1,455;    0,409
1009,176; 2899,263;    0,000;   -1,955
1009,724; 2919,172;    1,091;    0,864
1010,273; 2989,354;    1,273;    0,500
1010,821; 3087,172;    0,091;    1,409
1011,369; 2841,172;   -1,364;    1,318
1011,917; 2827,990;   -1,364;   -0,591
1012,465; 3101,444;    1,273;   -1,591
1013,013; 3214,990;    2,091;   -1,682
1013,561; 3093,354;    0,455;   -0,773
1014,109; 3137,899;   -1,909;    1,682
1014,657; 3000,081;    0,364;    0,591
1015,205; 3140,172;    1,636;   -0,955
1015,753; 3180,626;   -0,545;   -1,409
1016,301; 3221,535;   -2,636;    3,045
1016,848; 3210,717;   -1,273;    0,409
1017,396; 3242,444;    2,545;    0,045
1017,944; 3364,081;    1,182;    1,864
1018,491; 3127,535;    0,273;    1,409
1019,039; 3263,263;    0,455;    0,591
1019,586; 3204,626;   -1,364;    1,682
1020,134; 3319,172;    0,455;    1,500
1020,681; 3331,717;    0,182;   -1,136
1021,228; 3340,172;    2,909;   -2,227
1021,776; 3190,626;    1,182;   -1,136
1022,323; 3381,808;    0,455;    0,773
1022,870; 3309,626;   -1,000;   -0,045
1023,417; 3211,535;    2,636;    1,864
1023,964; 3344,354;    2,636;    1,227
1024,511; 3189,990;    1,000;    0,773
1025,058; 2985,899;    3,182;   -0,045
1025,605; 3062,354;   -2,273;    3,136
1026,152; 3290,990;    1,727;   -0,591
1026,699; 3021,081;    1,818;    1,318
1027,245; 3170,990;   -0,091;    0,318
1027,792; 3376,717;   -1,000;    1,409
1028,339; 3276,899;    2,364;   -0,045
1028,885; 3120,990;    1,000;   -0,227
1029,432; 3068,808;   -0,091;    0,227
1029,978; 3110,899;   -1,000;   -1,591
1030,525; 3030,535;    1,000;    0,409
1031,071; 3287,263;   -1,364;    1,136
1031,618; 3361,444;    0,364;    1,682
1032,164; 3162,263;   -0,091;    3,045
1032,710; 3189,717;    1,636;   -1,500
1033,256; 3121,081;   -0,636;   -0,136
1033,803; 3122,626;   -0,545;    1,500
1034,349; 2849,990;   -1,364;    0,136
1034,895; 3008,717;    0,000;   -0,318
1035,441; 2978,263;   -0,818;    0,318
1035,987; 2977,081;   -2,364;   -0,682
1036,533; 2974,354;   -1,455;   -0,955
1037,078; 3171,535;    1,455;    1,682
1037,624; 2984,354;    2,455;   -0,955
1038,170; 3022,990;    0,455;   -0,318
1038,716; 2927,990;    1,636;   -0,409
1039,261; 2834,263;   -2,273;   -0,773
1039,807; 2795,172;   -0,091;    3,409
1040,352; 2843,899;   -1,909;   -0,318
1040,898; 2893,081;   -1,545;   -0,682
1041,443; 2788,172;   -1,455;   -2,591
1041,989; 2817,535;    1,091;    1,591
1042,534; 2713,172;   -0,364;    2,591
1043,079; 2822,808;    2,909;    0,955
1043,625; 2611,263;    1,818;    0,500
1044,170; 2669,263;   -1,364;    1,045
1044,715; 2910,354;    2,455;    0,955
1045,260; 2715,081;    2,182;   -0,955
1045,805; 2794,899;    1,182;   -0,591
1046,350; 2721,626;    1,364;   -0,409
1046,895; 2681,626;    2,909;    1,591
1047,440; 2624,899;    5,364;    0,409
1047,985; 2532,263;    2,818;   -0,955
1048,530; 2450,354;    1,545;    1,227
1049,074; 2520,808;    0,000;    0,318
1049,619; 2499,717;   -1,364;    1,955
1050,164; 2302,808;    0,455;    0,227
1050,708; 2333,717;   -0,455;    0,045
1051,253; 2704,626;    1,273;   -2,227
1051,797; 2422,535;    0,818;   -1,318
1052,342; 2414,354;   -1,182;    1,045
1052,886; 2422,263;    0,364;   -1,409
1053,430; 2310,626;   -1,364;    0,136
1053,975; 2329,717;   -0,818;   -0,318
1054,519; 2308,990;   -0,727;    3,227
1055,063; 2323,535;    0,909;    1,318
1055,607; 2191,535;   -0,182;    0,227
1056,151; 2231,081;    2,909;    1,682
1056,695; 2150,808;    2,273;   -1,136
1057,239; 2226,081;   -1,727;   -0,682
1057,783; 2228,081;    0,818;   -1,500
1058,327; 2164,354;    0,000;    1,409
1058,871; 2385,717;   -0,545;    1,318
1059,415; 2106,899;   -0,818;   -0,045
1059,958; 2367,626;    1,455;    2,591
1060,502; 2074,626;   -1,000;   -0,773
1061,046; 1995,990;    0,364;   -0,955
1061,589; 1979,626;   -3,000;   -1,136
1062,133; 1857,172;   -1,273;    1,864
1062,676; 1788,717;    1,182;    0,864
1063,220; 1791,354;    1,091;    0,500
1063,763; 1813,808;    0,909;    1,136
1064,306; 1900,626;   -0,909;    1,864
1064,849; 1772,172;   -0,909;    0,591
1065,393; 1788,172;    2,000;   -1,500
1065,936; 1905,263;    0,182;   -0,409
1066,479; 1780,899;   -1,455;    1,318
1067,022; 1800,808;   -0,273;   -0,227
1067,565; 1706,172;   -0,091;   -1,318
1068,108; 1737,535;    0,727;   -0,591
1068,651; 1701,808;   -0,636;    1,409
1069,194; 1631,808;   -0,455;   -1,682
1069,736; 1644,717;   -1,273;    0,955
1070,279; 1628,081;   -1,364;   -0,500
1070,822; 1669,444;   -2,000;   -0,318
1071,364; 1759,535;   -0,364;    1,318
1071,907; 1587,808;   -0,727;    3,227
1072,450; 1484,717;    0,000;   -0,045
1072,992; 1471,354;   -0,273;    3,136
1073,535; 1620,990;    2,091;    2,136
1074,077; 1422,172;   -0,727;    2,045
1074,619; 1376,626;   -1,364;    0,591
1075,161; 1415,717;   -1,091;    1,500
1075,704; 1586,626;    1,545;    1,227
1076,246; 1391,899;   -0,182;    0,682
1076,788; 1323,354;   -0,364;    1,773
1077,330; 1385,990;    1,273;    2,136
1077,872; 1348,717;    0,909;    0,955
1078,414; 1570,626;    2,727;    0,773
1078,956; 1318,626;    1,273;   -0,227
1079,498; 1573,444;    1,636;    0,318
1080,040; 1280,354;    1,909;   -1,318
1080,581; 1221,899;    1,636;   -0,318
1081,123; 1156,081;    0,091;   -0,773
1081,665; 1192,899;   -1,182;   -0,955
1082,206; 1488,444;    1,364;   -0,500
1082,748; 1341,808;    0,727;    2,045
1083,289; 1229,808;   -2,000;    1,318
1083,831; 1138,444;   -0,545;    0,227
1084,372; 1176,990;    0,000;    0,591
1084,913; 1174,899;    1,091;    0,864
1085,455; 1146,626;   -1,909;   -2,045
1085,996; 1125,535;   -2,273;    0,136
1086,537; 1138,081;   -0,091;    0,864
1087,078; 1172,990;   -0,909;   -2,136
1087,619; 1207,172;   -1,273;    0,227
1088,160; 1129,899;    0,000;    1,318
1088,701; 1108,263;   -1,091;    0,682
1089,242; 1047,172;    1,364;   -2,227
1089,783; 1139,263;   -0,273;    1,409
1090,324; 1101,535;    0,455;    0,682
1090,865;  994,899;    2,727;   -0,409
1091,405;  974,899;    0,727;    2,227
1091,946;  996,172;    0,182;   -0,955
1092,487;  914,808;    0,818;   -1,409
1093,027; 1084,263;   -1,364;   -1,500
1093,568;  932,899;   -0,364;    1,227
1094,108; 1032,263;    0,273;    1,773
1094,649;  974,535;   -1,182;    0,136
1095,189;  921,354;   -0,636;   -0,682
1095,729;  867,081;   -0,091;    0,955
1096,269;  868,354;    0,727;   -0,955
1096,810; 1177,444;   -1,364;    0,500
1097,350; 1000,172;    1,364;   -0,773
1097,890;  902,081;    0,364;    1,227
1098,430; 1160,535;    2,364;    2,864
1098,970; 1036,172;    2,182;    1,682
1099,510;  902,354;    0,545;   -2,318
1100,050;  828,899;    1,000;   -1,591
1100,589;  787,354;   -0,727;   -0,318
1101,129;  916,626;    0,818;   -0,955
1101,669; 1061,899;    1,727;    2,136
1102,209;  876,354;   -0,091;    2,227
1102,748;  838,263;    0,000;    0,955
1103,288;  820,808;    1,273;   -1,227
1103,827;  854,444;    3,091;   -2,227
1104,367;  735,899;   -0,091;   -2,409
1104,906;  700,899;    1,364;   -1,136
1105,445;  773,535;    0,636;   -1,136
1105,985;  716,081;   -0,727;    1,500
1106,524;  759,808;   -1,727;   -0,682
1107,063;  727,626;   -2,727;    1,409
1107,602;  716,808;   -1,909;   -1,500
1108,141;  637,717;   -1,909;    1,500
1108,680;  736,899;   -3,455;   -0,591
1109,219;  662,444;   -0,909;   -0,500
1109,758;  677,535;    0,455;    0,682
1110,297;  646,081;    1,000;   -0,682
1110,836;  595,626;   -0,727;    0,955
1111,375;  754,263;   -2,545;    0,409
1111,913;  767,808;   -1,000;    0,773
1112,452;  701,535;   -0,273;    0,136
1112,991;  592,626;    1,091;    1,955
1113,529;  549,535;   -0,818;   -0,045
1114,068;  609,081;   -0,273;    2,955
1114,606;  518,354;   -0,364;   -0,955
1115,144;  685,808;   -1,273;    1,045
1115,683;  616,899;   -0,727;    0,318
1116,221;  671,535;   -0,455;   -0,864
1116,759;  574,808;    0,636;   -0,864
1117,297;  766,717;    0,000;    1,864
1117,836;  574,263;   -2,182;   -1,227
1118,374;  585,535;    0,182;   -0,682
1118,912;  528,081;    0,909;    2,682
1119,450;  518,081;    1,000;    0,864
1119,988;  571,263;    1,545;    2,136
1120,525; 1017,535;    5,091;    3,318
1121,063;  714,717;    1,182;    1,864
1121,601;  524,990;   -0,909;   -1,227
1122,139;  482,899;   -0,727;   -2,045
1122,676;  676,808;   -0,727;    2,773
1123,214;  612,354;   -1,182;    4,409
1123,751;  418,626;    1,727;    2,227
1124,289;  552,808;   -0,091;   -0,409
1124,826;  425,990;    1,727;    0,227
1125,364;  353,899;    1,727;   -0,955
1125,901;  534,626;    1,182;    1,227
1126,438;  638,172;    0,818;    0,955
1126,975;  376,354;   -0,727;   -0,773
1127,513;  444,263;    0,273;    2,136
1128,050;  349,717;    1,636;   -0,682
1128,587;  456,717;    2,000;   -0,227
1129,124;  495,081;    0,091;    1,318
1129,661;  365,263;    0,273;    0,227
1130,198;  527,081;    1,636;    0,773
1130,734;  474,535;    0,182;    1,409
1131,271;  334,535;   -0,909;    0,864
1131,808;  495,626;    2,909;    3,045
1132,345;  378,172;    1,545;    0,318
1132,881;  256,172;   -1,545;   -1,864
1133,418;  383,263;    0,727;   -1,136
1133,954;  318,535;    2,455;   -2,682
1134,491;  393,081;    1,364;   -0,773
1135,027;  298,444;    2,364;    0,864
1135,564;  379,535;    0,273;    2,955
1136,100;  364,899;    0,364;    2,136
1136,636;  265,081;   -1,273;   -1,045
1137,172;  353,626;    0,000;   -1,045
1137,708;  279,990;   -1,364;   -1,045
1138,245;  283,172;    1,273;   -1,227
1138,781;  230,990;    1,091;   -3,318
1139,317;  299,354;    1,273;   -1,409
1139,852;  290,444;    3,091;    0,136
1140,388;  402,808;   -1,182;   -0,409
1140,924;  281,990;   -1,091;   -2,227
1141,460;  227,899;   -1,636;    0,136
1141,996;  159,354;   -1,364;    2,682
1142,531;  210,899;    1,364;    3,318
1143,067;  418,444;    1,182;    1,045
1143,602;  483,263;   -0,091;   -0,318
1144,138;  318,444;   -2,636;    1,045
1144,673;  194,263;   -1,455;    1,409
1145,209;  260,263;   -1,909;   -0,318
1145,744;  184,535;   -0,727;    0,864
1146,279;  316,990;    1,818;   -0,136
1146,815;  232,535;    1,545;   -2,682
1147,350;  263,172;   -1,364;    0,045
1147,885;  185,626;   -0,818;   -1,318
1148,420;  184,444;   -2,273;    0,773
1148,955;  163,808;   -1,727;    1,864
1149,490;  195,263;   -0,909;   -1,591
1150,025;  169,899;    0,455;   -1,773
1150,560;  281,535;    1,091;   -0,955
1151,094;  252,626;    1,455;   -0,591
1151,629;  251,354;    1,636;    0,864
1152,164;  180,263;    1,364;    1,318
1152,698;  143,354;   -0,182;   -0,136
1153,233;  102,263;    0,091;   -0,682
1153,767;  152,626;   -3,000;   -2,318
1154,302;  192,990;   -1,455;    1,773
1154,836;  190,535;   -0,455;   -2,136
1155,371;  246,354;   -1,364;    3,682
1155,905;  201,354;   -0,636;    1,682
1156,439;  173,354;   -0,636;   -0,500
1156,973;  190,535;    0,364;    0,318
1157,507;  136,354;   -0,364;    0,682
1158,042;  165,717;   -0,727;    1,045
1158,576;  212,354;    0,182;    1,773
1159,110;  206,354;   -0,818;    2,409
1159,643;  171,172;    0,636;   -0,045
1160,177;  118,354;   -1,545;    1,500

