
Integration time [ms]:   0,040
Averaging Nr. [scans]: 11
Smoothing Nr. [pixels]: 0
Data measured with spectrometer [name]: 7318044SP
Wave   ;Sample   ;Dark     ;Reference
[nm]   ;[counts] ;[counts] ;[counts] 

186,757;   11,733;   31,551;    1,318
187,357;   26,703;   22,551;    0,955
187,958;    8,590;   15,460;   -1,591
188,558;   35,547;    8,915;   -1,227
189,159;   12,983;    6,733;   -4,500
189,759;  -12,869;    7,278;   -3,591
190,360;  -22,451;    2,824;   -2,136
190,960;   14,720;    2,915;   -4,136
191,560;   19,440;    3,189;   -6,591
192,161;  215,375;    4,372;   -3,500
192,761;   82,943;    4,010;   -3,227
193,361;   26,476;    1,556;   -3,773
193,962;   72,119;    2,010;   -2,682
194,562;    4,363;    1,189;   -3,955
195,162;   15,739;   -2,448;   -2,227
195,762;  127,722;   -3,176;   -0,045
196,362;   84,021;    1,370;   -2,500
196,963;   -2,819;    2,006;   -0,864
197,563;   36,912;    1,551;   -0,955
198,163;   -1,705;    0,096;   -0,682
198,763;    1,561;    1,733;   -0,500
199,363;   51,536;    3,096;   -0,500
199,963;   26,790;    0,369;    0,409
200,563;    9,759;    2,823;   -1,409
201,163;   -6,992;    3,277;   -0,227
201,763;   21,270;    3,732;    0,318
202,363;    0,714;    1,459;    1,500
202,963;   26,903;    1,459;    1,045
203,563;   77,727;    0,277;    0,500
204,162;   14,282;    2,096;   -1,864
204,762;   10,197;    0,550;    0,591
205,362;  -11,964;    3,004;    1,955
205,962;   12,097;    3,096;    1,955
206,562;    4,865;    1,823;    2,318
207,161;   -8,082;   -0,087;    0,318
207,761;   62,260;    1,277;    2,409
208,361;    1,286;   -0,268;    1,409
208,960;   23,007;    0,459;    1,500
209,560;   10,567;    1,277;    1,591
210,160;   23,445;    0,550;    1,864
210,759;    7,635;    4,186;    1,227
211,359;    1,237;    1,459;    1,045
211,958;   90,815;    1,277;    2,045
212,558;   88,892;    1,732;    1,864
213,157;   41,649;    1,822;    1,500
213,757;  162,523;    3,822;   -0,227
214,356;   49,337;    1,277;   -0,409
214,956;  142,331;    3,095;    0,409
215,555;   33,080;    2,095;    2,136
216,154;    3,566;   -2,723;   -0,591
216,754;    6,379;    0,277;    0,773
217,353;   22,392;   -0,268;   -1,045
217,952;  -17,540;   -0,178;    0,318
218,552;   34,826;    1,368;   -0,773
219,151;    4,702;    0,277;    0,955
219,750;   -2,284;    0,004;   -0,227
220,349;   -7,285;   -0,451;    1,045
220,948;   52,383;   -1,360;    1,136
221,548;   -3,733;    0,913;    1,227
222,147;    3,378;   -0,087;   -0,409
222,746;   83,285;   -0,451;   -0,955
223,345;   30,478;    0,731;    0,500
223,944;   26,223;   -0,451;    0,773
224,543;   28,648;    1,004;   -1,409
225,142;   16,583;    0,094;    0,136
225,741;   19,480;   -0,814;    1,045
226,340;   14,068;   -0,451;   -0,955
226,939;   64,828;   -0,996;   -0,136
227,538;    9,504;   -0,360;   -0,773
228,137;   66,960;   -0,814;    0,864
228,735;   37,958;   -0,541;    1,227
229,334;  -21,774;   -0,905;   -0,227
229,933;   68,929;    0,459;    0,591
230,532;   59,084;    1,186;   -0,409
231,131;  101,279;    1,732;    0,318
231,729;   43,463;   -2,450;   -2,318
232,328;   15,789;   -0,723;   -1,500
232,927;   22,689;    1,004;   -0,500
233,525;   17,815;    3,640;    0,045
234,124;   18,417;    2,368;   -1,591
234,723;   -8,111;    0,913;   -1,045
235,321;   -3,833;    2,277;    0,136
235,920;    6,466;    1,186;   -1,227
236,518;   70,471;    3,459;    0,318
237,117;    6,874;    0,004;   -0,227
237,715;   15,379;    0,640;   -0,500
238,314;   13,727;   -0,087;   -2,318
238,912;   70,758;   -0,723;   -1,409
239,510;   36,113;    0,459;   -1,227
240,109;   78,702;    0,004;    3,773
240,707;   58,137;   -0,996;    1,227
241,305;   -0,362;    0,550;    0,136
241,904;   31,820;   -0,178;   -2,045
242,502;   94,645;   -0,632;   -0,227
243,100;   49,193;   -0,087;   -0,955
243,698;    1,789;    0,732;    1,682
244,297;   26,956;   -0,632;    0,682
244,895;   24,253;   -0,269;   -2,318
245,493;   90,063;    2,186;   -0,591
246,091;   89,750;    1,368;   -1,318
246,689;   50,475;    1,004;    0,591
247,287;   42,987;    0,822;   -1,136
247,885;   21,123;   -1,451;    1,227
248,483;    7,045;    1,822;   -0,500
249,081;   47,680;    0,185;    1,591
249,679;   43,793;   -0,178;    1,682
250,277;    0,289;   -1,723;    0,864
250,875;   42,832;   -1,087;   -1,045
251,473;    5,271;   -1,178;    0,500
252,071;   51,590;    1,459;    1,045
252,669;   18,859;   -1,814;    0,318
253,267;   -3,337;   -0,087;    0,773
253,864;   11,442;   -0,360;    0,682
254,462;   58,117;    1,640;    1,591
255,060;    3,742;   -0,269;    1,318
255,658;   -7,959;    0,822;   -0,136
256,255;    8,167;    0,186;   -2,045
256,853;   32,032;   -0,269;    1,409
257,451;    7,422;    0,822;    1,864
258,048;  170,320;    1,822;    1,864
258,646;   73,296;    1,731;   -1,045
259,243;  101,487;   -0,087;    2,227
259,841;   46,376;   -0,814;    0,318
260,438;    6,913;   -0,087;    0,864
261,036;   41,989;   -1,905;    1,409
261,633;   -0,409;   -0,087;    2,227
262,231;  -12,935;    2,731;   -0,045
262,828;  -15,663;   -0,905;    1,136
263,425;    3,952;    0,913;   -0,591
264,023;    2,196;    0,186;    0,045
264,620;   47,746;   -0,360;   -0,318
265,217;   91,407;   -2,087;    3,136
265,815;   16,858;   -1,905;    2,136
266,412;   36,593;    0,731;    0,136
267,009;   30,874;   -1,451;    0,773
267,606;   66,842;    0,822;   -0,955
268,203;   17,847;   -0,269;   -0,591
268,801;   14,070;    1,731;    0,591
269,398;   -3,657;   -0,360;    2,500
269,995;   35,973;    0,277;    1,591
270,592;   22,348;   -0,632;   -0,500
271,189;   -8,081;    0,186;    0,409
271,786;  -14,379;   -0,632;    1,227
272,383;   45,266;   -1,087;    0,227
272,980;    6,575;    0,277;    0,318
273,577;   -6,133;    0,004;    1,227
274,174;  -11,730;    0,822;    2,591
274,771;   33,859;   -0,814;   -0,773
275,367;  172,864;    2,277;    1,409
275,964;   75,135;    0,731;   -0,500
276,561;    9,957;    1,549;   -1,045
277,158;  -18,388;    0,095;   -1,773
277,755;   67,771;    2,185;    0,409
278,351;   39,839;   -0,451;   -1,500
278,948;   48,193;   -0,815;    0,045
279,545;   32,106;   -1,360;    2,318
280,141;   72,322;   -1,723;   -2,045
280,738;   79,127;   -0,451;   -0,136
281,334;   11,979;   -1,633;    0,591
281,931;    3,659;   -0,087;   -1,318
282,528;   56,224;    0,822;   -0,500
283,124;   72,480;   -1,087;   -0,500
283,721;   58,104;   -0,451;    1,409
284,317;   17,632;    0,185;    2,500
284,913;   68,623;   -1,360;    0,591
285,510;  130,078;    0,640;   -0,318
286,106;   77,199;   -2,269;   -0,955
286,703;   40,609;   -0,360;    1,955
287,299;   20,103;   -1,451;   -0,591
287,895;   15,141;    0,822;   -1,045
288,491;    4,707;    0,186;    2,136
289,088;   34,150;   -2,360;    2,409
289,684;   39,041;   -1,723;    1,500
290,280;   96,861;    0,368;    0,682
290,876;   63,076;    1,822;    5,500
291,472;   52,188;    1,276;    2,227
292,068;   54,931;    1,367;    0,227
292,665;   25,921;    2,095;    0,773
293,261;    1,742;    0,276;    2,136
293,857;   50,311;    2,913;    2,136
294,453;   19,563;    3,550;    0,955
295,049;   98,411;   -0,268;    1,955
295,644;   42,625;    0,095;    0,136
296,240;    0,646;   -0,905;   -0,136
296,836;   23,869;   -0,995;    0,318
297,432;   59,587;    1,096;   -0,500
298,028;   59,922;    0,732;    0,773
298,624;   24,785;    1,459;    1,864
299,220;   28,098;    2,368;    0,591
299,815;   34,096;    1,005;   -0,409
300,411;   54,774;    0,914;    1,773
301,007;   63,006;    1,368;    0,227
301,602;    5,934;   -0,541;   -2,318
302,198;   68,256;    0,732;   -0,773
302,794;   22,605;    1,187;   -0,500
303,389;   -7,297;   -1,177;    1,045
303,985;    8,315;    0,550;    1,409
304,580;   70,330;    1,459;    1,591
305,176;   26,289;   -3,086;    0,136
305,771;  -19,205;   -1,268;   -1,227
306,367;  131,052;    4,095;    0,136
306,962;   38,661;    0,641;    1,500
307,558;   66,508;   -0,450;    0,136
308,153;   49,837;    1,095;   -1,136
308,748;   -6,481;   -0,814;    1,682
309,344;  117,810;   -0,632;   -1,318
309,939;  108,185;   -1,905;   -1,318
310,534;   27,316;   -0,086;   -1,682
311,130;   15,947;    0,459;   -2,500
311,725;   -2,853;    1,004;   -0,500
312,320;   11,544;    2,459;    0,045
312,915;   41,954;    1,459;   -1,045
313,510;  122,271;    1,550;   -0,500
314,105;   26,470;    1,096;    1,409
314,700;   -8,603;   -3,086;   -1,045
315,295;   13,057;   -0,904;    0,045
315,890;    0,020;    1,277;    0,864
316,485;   29,152;   -0,359;   -0,318
317,080;   -4,698;   -3,086;    1,591
317,675;  118,273;    2,005;   -0,682
318,270;  214,995;    5,550;    3,318
318,865;  136,265;    3,278;    3,045
319,460;   86,448;   -0,904;    0,591
320,055;   16,214;   -0,541;   -1,227
320,650;   14,899;   -1,995;   -0,591
321,244;   20,771;   -0,177;   -1,409
321,839;   17,222;   -1,541;   -0,227
322,434;   25,998;   -1,086;   -1,591
323,029;    5,855;    1,732;    1,591
323,623;   -0,026;    1,550;    0,773
324,218;   90,567;    2,368;    1,409
324,812;   52,062;    1,096;    1,591
325,407;   36,721;   -0,814;    2,045
326,002;  109,512;    0,277;   -0,409
326,596;   77,208;    0,914;    1,318
327,191;   12,592;    0,823;   -1,045
327,785;   20,754;   -0,813;   -0,227
328,379;   14,078;    1,368;    0,136
328,974;   19,563;    0,914;   -3,955
329,568;   38,459;    0,186;   -2,409
330,163;   71,073;    2,096;    1,045
330,757;   15,945;    2,459;    1,591
331,351;   -4,230;    0,459;    0,682
331,945;   -8,579;    0,914;    1,409
332,540;   36,772;   -1,723;   -0,591
333,134;   32,828;   -1,086;    0,773
333,728;   38,559;    0,005;    0,318
334,322;   -4,623;   -1,177;   -0,864
334,916;   -1,269;    0,277;    0,955
335,510;   59,433;   -0,450;   -0,136
336,105;   48,774;   -1,086;    1,591
336,699;    3,779;   -1,086;    0,591
337,293;   23,059;   -1,723;    0,318
337,887;    5,847;   -2,723;    1,955
338,481;   49,165;    0,459;    0,591
339,074;   92,456;   -0,359;    2,682
339,668;   82,777;   -1,632;    1,227
340,262;  343,770;    1,732;    3,227
340,856;  153,359;    1,822;   -0,682
341,450;   28,439;    1,004;    1,864
342,044;   51,150;    1,459;    0,136
342,637;  106,066;    0,913;   -2,136
343,231;   65,666;   -2,360;    0,682
343,825;   43,686;   -1,086;   -0,591
344,419;   49,798;   -1,995;    0,500
345,012;  341,991;    2,459;    4,045
345,606;  225,583;    4,641;    1,591
346,199;   70,130;   -1,813;   -0,227
346,793;  143,906;    1,914;    2,045
347,386;   49,392;   -0,813;   -1,136
347,980;   16,728;   -0,268;   -0,045
348,573;   71,479;    2,278;    0,409
349,167;  273,771;    5,278;    4,773
349,760;  170,443;    2,914;    2,682
350,354;  162,732;   -0,813;    1,136
350,947;  190,083;    1,096;    1,682
351,540;  127,837;   -0,358;   -1,409
352,134;   57,110;    1,096;    1,136
352,727;   68,262;   -0,086;    1,136
353,320;   80,153;    0,005;    0,591
353,913;   45,288;   -1,995;    1,864
354,507;  178,936;    0,823;   -1,227
355,100;   92,922;    0,460;    0,864
355,693;  386,748;    2,005;    2,409
356,286;  220,290;    0,823;    2,773
356,879;  121,175;   -0,722;    1,227
357,472;  120,031;   -0,904;    1,500
358,065;  145,964;   -0,722;    2,500
358,658;   58,354;   -0,540;    2,318
359,251;   45,268;   -1,631;   -0,591
359,844;  157,593;   -1,904;   -1,136
360,437;  204,805;   -2,995;    0,045
361,030;   92,237;    1,369;   -0,682
361,623;   93,480;    2,824;    0,318
362,215;  248,352;   -0,086;    2,045
362,808;  136,365;   -2,358;   -1,682
363,401;   81,249;   -2,449;    0,136
363,994;  235,834;   -0,631;   -1,500
364,586;  104,527;    0,824;   -1,500
365,179;   64,699;   -0,449;   -1,136
365,772;   -8,906;   -1,995;    2,045
366,364;   69,117;    1,915;   -3,227
366,957;   91,649;    2,279;   -0,045
367,549;   69,835;    2,188;   -0,864
368,142;   73,324;    1,825;   -1,500
368,734;   52,243;    0,734;   -2,136
369,327;   10,746;    1,643;   -0,500
369,919;   36,095;   -1,538;    0,409
370,512;   54,927;   -1,083;   -0,500
371,104;  241,339;   -0,901;    1,591
371,696;  247,049;    1,191;   -0,955
372,289;  140,513;    0,373;    1,136
372,881;   99,318;   -2,080;    1,318
373,473;   24,199;   -2,170;    1,136
374,066;   99,990;   -0,169;    0,500
374,658;   70,749;    0,378;    1,136
375,250;   20,533;    0,653;   -1,409
375,842;   52,616;    0,473;   -0,045
376,434;    6,693;   -0,435;   -0,409
377,026;   -7,633;    0,204;   -2,500
377,618;   32,369;   -0,158;   -0,682
378,210;  -33,199;   -0,338;   -1,955
378,802;  -38,407;    0,754;   -0,591
379,394;  329,693;    1,846;    0,682
379,986;   88,441;    1,393;   -0,955
380,578;    0,802;   -0,153;    0,773
381,170;  245,688;   -0,972;    0,045
381,762;  148,251;    0,755;    1,409
382,354;  114,479;   -0,065;   -1,318
382,945;   37,745;   -2,976;    0,318
383,537;   -5,067;   -2,705;   -1,955
384,129;    2,844;   -2,160;   -1,136
384,721;  116,032;   -0,252;    0,955
385,312;   57,605;   -0,161;   -0,955
385,904;  119,325;   -2,706;    1,591
386,496;   49,521;   -0,979;    1,045
387,087;  163,656;    1,022;    2,500
387,679;  107,227;   -1,160;    0,045
388,270;   86,085;    2,840;    2,045
388,862;   50,879;    1,295;   -0,318
389,453;   28,584;   -0,887;    1,045
390,045;   44,735;   -0,705;   -2,682
390,636;  -55,903;    0,204;   -0,591
391,227;   16,628;   -0,523;   -0,045
391,819;   -9,333;    0,204;    0,773
392,410;  220,326;    1,022;    0,045
393,001;   37,517;   -0,979;   -1,591
393,593;   96,036;    1,930;   -0,045
394,184;  147,158;    1,385;   -0,409
394,775;   30,009;    1,839;    2,136
395,366;  -41,557;    1,385;    0,773
395,957;  125,089;    0,113;    0,136
396,548;   22,147;   -0,342;    2,682
397,139;  116,512;   -2,433;    0,591
397,730;   39,862;   -1,888;    0,955
398,321;   51,916;   -1,252;    0,955
398,912;    2,419;   -0,615;    0,136
399,503;   -3,645;   -3,524;   -1,409
400,094;   43,695;    0,294;    1,682
400,685;   30,847;   -0,433;    0,045
401,276;   -6,080;    0,930;   -0,955
401,867;  -31,674;   -0,888;    0,773
402,458;  -61,570;   -2,251;   -2,318
403,048;   66,524;    1,112;    0,591
403,639;    9,545;    0,840;    0,864
404,230;  113,741;    2,476;    0,318
404,821;  164,719;   -0,615;    0,045
405,411;   79,699;    1,203;   -2,591
406,002;   -3,077;   -1,252;   -1,136
406,592;  200,525;    2,294;    0,045
407,183;   78,448;    0,566;   -1,500
407,774;   62,661;    3,475;   -0,136
408,364;   23,700;    0,930;    0,409
408,954;  117,421;    0,384;    1,227
409,545;  111,414;    1,021;    1,045
410,135;   79,932;    1,293;    0,500
410,726;   27,621;    1,838;    0,318
411,316;  198,964;    0,111;    0,773
411,906;   56,862;   -0,253;   -0,409
412,497;   65,719;   -1,070;   -0,045
413,087;    8,877;   -1,980;   -0,227
413,677;  -47,893;   -0,707;    3,864
414,267;  -44,752;    0,656;    1,409
414,857;  -63,829;   -2,980;    4,227
415,448;  -71,899;    0,839;    0,500
416,038;  -38,584;    0,020;   -0,591
416,628;    2,373;   -0,889;    0,409
417,218;   50,373;    0,565;    3,318
417,808;  176,932;    0,202;   -0,409
418,398;   72,329;    0,020;    2,682
418,988;  -27,509;    2,020;    0,591
419,578;   55,816;   -0,707;    1,409
420,168;  -13,588;   -1,343;   -0,955
420,757;  114,223;   -1,343;   -1,500
421,347;   18,450;    0,111;   -0,227
421,937;   -3,071;    2,292;    1,409
422,527;  115,776;    0,838;   -0,773
423,116;  241,085;   -0,253;   -0,045
423,706;    4,083;   -1,889;    0,318
424,296;  -40,194;    1,384;    0,682
424,885;   67,715;   -0,071;   -3,045
425,475;   41,658;    1,474;   -2,864
426,065;  -55,225;   -0,980;   -0,318
426,654;  -65,161;   -0,435;   -0,318
427,244;  166,244;    0,020;    1,409
427,833;  137,046;    1,383;   -0,500
428,423;   26,874;   -0,526;    1,136
429,012;   23,389;   -0,344;   -1,136
429,601;  148,088;   -1,344;    0,136
430,191;   52,334;    1,292;    4,318
430,780;  -36,880;   -0,344;   -0,409
431,369;  122,182;    0,746;   -0,045
431,959;   28,951;   -1,254;    0,500
432,548;  -22,647;   -1,163;   -0,045
433,137;  -79,075;   -1,254;   -1,318
433,726;  -24,732;    0,292;    0,500
434,315;   -2,197;   -0,526;    2,409
434,905;   99,015;   -1,254;    1,409
435,494;   96,183;    0,746;    0,955
436,083;  -20,933;   -0,981;   -0,955
436,672;   63,185;    0,110;    0,500
437,261;   17,476;    0,292;   -1,955
437,850;  216,968;    1,383;    0,682
438,439;  267,202;    3,291;    1,955
439,027;  365,493;    3,655;    1,773
439,616;  287,205;    2,927;    1,227
440,205;   82,222;    0,200;   -2,136
440,794;   42,125;    2,109;   -0,045
441,383;   -9,395;   -1,346;   -0,591
441,971;  -35,040;   -2,436;    0,591
442,560;  -21,501;    0,563;   -1,773
443,149; -111,744;    0,379;   -1,318
443,737;  -64,662;   -0,074;   -2,318
444,326;  -47,039;    0,018;    0,318
444,915;    3,526;   -1,982;    0,864
445,503;    4,683;   -2,891;   -0,318
446,092;  245,701;    0,382;    2,136
446,680;  178,826;    0,382;    0,318
447,269;   94,815;   -0,346;   -0,318
447,857;   68,224;    0,018;   -1,773
448,445;   31,452;    0,563;    1,318
449,034;  -21,712;   -1,528;   -1,136
449,622;  -14,801;   -1,073;    3,500
450,210;  238,114;    2,017;    2,227
450,799;  159,948;    0,290;   -0,591
451,387;  132,361;    1,381;   -0,591
451,975;  110,973;    2,654;    0,864
452,563;  180,719;    3,472;    2,318
453,151;   29,784;   -0,528;   -1,227
453,739;   63,209;   -1,347;    0,136
454,328;  155,331;    2,381;   -2,136
454,916;   96,307;    2,562;   -0,136
455,504;  114,941;    1,017;    1,227
456,092;   11,852;    0,017;   -1,591
456,679;  -14,445;    1,472;    0,682
457,267;  365,509;    4,017;    1,045
457,855;   68,777;    1,017;    1,409
458,443;  -69,350;   -0,165;    1,682
459,031;   66,070;    0,108;    2,409
459,619;   43,828;   -1,801;    2,864
460,206;  -40,666;    0,835;    2,045
460,794;  -41,512;   -2,983;   -0,227
461,382;    5,859;   -0,529;   -0,864
461,970;    8,797;    1,198;    1,864
462,557;  -65,722;   -0,711;   -0,682
463,145;   50,313;   -3,165;   -1,682
463,732;  282,749;    2,016;   -1,045
464,320;   66,743;   -0,075;   -3,045
464,907;  192,055;    2,743;   -0,773
465,495;  107,496;    0,743;   -1,227
466,082;   36,131;   -1,984;   -0,045
466,670;   63,867;   -2,529;    1,227
467,257;  -26,656;   -1,711;    2,045
467,844;   56,577;   -0,075;    0,045
468,432;   31,708;    0,834;    3,500
469,019;   -1,623;    0,925;   -1,773
469,606;   78,400;    0,470;    3,682
470,193;  103,359;   -1,439;    0,227
470,780;   54,354;   -2,075;    0,864
471,368;   -4,665;   -1,257;   -0,773
471,955;  102,678;    1,379;   -0,682
472,542;   60,677;    0,652;   -1,136
473,129;  -43,794;   -0,166;    0,136
473,716;  -34,841;    1,470;    0,591
474,303;   -4,745;    0,652;   -0,864
474,890;    1,846;   -1,439;   -0,500
475,477;  100,935;   -1,621;    0,409
476,064;    4,182;    1,106;   -1,591
476,650;  118,487;    0,288;    0,318
477,237;   33,851;   -0,258;    0,955
477,824;    6,077;   -1,076;    0,864
478,411;  -57,023;   -1,894;   -0,318
478,997;  -69,516;    0,560;   -0,773
479,584; -104,116;    1,196;   -0,409
480,171;   46,039;   -0,440;   -0,773
480,757;  102,040;    2,651;    0,773
481,344;    1,103;    0,469;    0,409
481,931;  -71,746;    1,105;    1,045
482,517;   35,632;   -1,258;    0,318
483,104;  117,671;    1,106;    2,864
483,690;   -7,140;   -1,804;    0,045
484,276;  -25,060;   -0,895;    0,227
484,863;  169,365;    2,469;    1,136
485,449;   23,799;   -0,077;    0,318
486,035;  -22,161;   -1,986;   -0,136
486,622;   61,337;   -0,895;    0,045
487,208;   -9,299;    1,378;    1,500
487,794;  -79,679;    0,741;    0,318
488,380;  -74,116;    0,105;   -1,409
488,967;  -70,665;   -1,168;   -0,409
489,553;  -56,579;   -1,895;   -1,409
490,139;   19,758;    1,559;    0,773
490,725;  -44,412;    0,741;   -0,227
491,311;   -8,909;    3,287;    3,045
491,897;  -28,811;   -0,986;    1,500
492,483;  -16,126;    0,105;    1,227
493,069;  395,894;    3,923;    0,864
493,655;  127,513;    1,650;    0,682
494,241;    0,289;    1,377;   -0,955
494,826;   11,601;    0,287;   -1,045
495,412;   74,177;    2,559;   -0,682
495,998;  -14,526;   -0,805;   -0,318
496,584;   40,930;    0,377;    1,045
497,169;   54,742;    1,014;   -0,682
497,755;    2,429;    0,650;    1,227
498,341;  120,740;    0,559;    0,318
498,926;  236,654;    1,832;    1,955
499,512;  -10,046;    1,286;    2,955
500,097;   -4,668;    0,195;   -0,318
500,683;   18,305;   -0,350;    2,136
501,268;  -30,478;   -0,169;   -0,955
501,854;   -9,118;   -0,169;    1,227
502,439;  -15,237;   -0,624;   -1,773
503,024;   -1,222;    0,195;    0,500
503,610;   24,348;   -0,078;   -0,682
504,195;  -23,415;    0,558;    1,955
504,780;   52,986;    2,922;    1,227
505,366;  131,063;    3,013;    2,864
505,951;   82,516;    0,740;    1,045
506,536;   -0,558;   -3,260;   -3,682
507,121;   52,810;    0,285;   -0,318
507,706;    8,817;    2,376;    1,045
508,291;  -30,028;    2,649;    1,136
508,876;  -31,509;   -0,988;    2,591
509,461;    8,898;   -0,169;   -0,773
510,046;   28,829;    0,194;    0,318
510,631;   50,337;   -0,351;   -0,773
511,216;  -22,663;    2,467;   -0,500
511,801;   29,145;   -0,442;    2,591
512,386;   38,414;    0,740;    0,500
512,971;   51,568;   -2,988;    0,955
513,555;   81,676;   -0,897;   -1,500
514,140;   35,087;   -0,442;   -3,136
514,725;  144,219;   -0,715;   -1,136
515,309;   71,569;   -0,533;    0,318
515,894;   -4,828;   -0,624;   -2,227
516,479;   33,285;   -0,624;   -0,955
517,063;   33,174;    0,376;    1,227
517,648;    3,547;    1,012;   -1,136
518,232;  -21,675;   -0,261;   -1,409
518,817;   75,753;   -0,079;    1,682
519,401;  197,981;    2,194;    0,591
519,985;  194,963;    1,103;    1,136
520,570;   82,762;    0,830;   -1,955
521,154;  230,762;    2,102;    0,591
521,738;  459,007;   -2,352;    2,409
522,323;  324,112;   -0,170;    1,682
522,907;  394,424;    0,466;   -0,136
523,491;  364,794;    0,557;    0,955
524,075;  409,040;    2,284;    0,591
524,659;  769,033;    1,466;    0,591
525,243;  773,891;    1,739;    0,409
525,827;  840,648;    0,648;   -0,045
526,411; 1065,488;   -1,989;   -0,136
526,995; 1463,024;   -0,352;    1,409
527,579; 1676,108;   -0,443;   -1,045
528,163; 1907,902;    0,375;   -1,500
528,747; 2353,709;    2,466;   -0,773
529,331; 2687,274;   -0,080;   -1,409
529,915; 2914,029;    1,738;    0,955
530,499; 3331,270;   -0,807;    1,227
531,082; 3661,376;   -0,534;    1,591
531,666; 3861,810;    1,374;    0,773
532,250; 4532,046;    1,284;    2,682
532,833; 5140,131;    0,920;    2,773
533,417; 5464,167;   -1,807;    0,864
534,001; 5806,968;    1,647;   -0,318
534,584; 6714,592;    0,374;    0,500
535,168; 6994,951;    0,465;    1,409
535,751; 7470,661;    0,647;    0,045
536,334; 7409,136;   -0,898;   -0,409
536,918; 8317,070;    0,011;    1,591
537,501; 8708,101;   -0,899;    1,318
538,085; 9048,390;   -0,444;    1,045
538,668; 9446,999;    0,829;    2,409
539,251;10076,064;    1,829;    3,773
539,834;10425,146;    0,101;    0,773
540,418;10685,331;   -1,990;    4,318
541,001;11020,100;   -0,990;    1,773
541,584;11257,265;    2,101;    2,227
542,167;11215,553;    1,374;    2,955
542,750;11550,331;    1,919;   -0,773
543,333;11374,647;    0,555;    2,136
543,916;12322,083;    0,192;    2,500
544,499;12984,984;   -1,354;    0,227
545,082;13156,687;    1,374;    3,591
545,665;13482,609;    1,919;    1,500
546,248;13927,102;    1,010;   -0,318
546,830;13745,877;   -0,445;    1,955
547,413;14299,444;    1,010;   -0,773
547,996;14893,533;    0,555;    0,500
548,579;14780,631;    0,919;    0,955
549,161;14727,788;    1,828;    2,682
549,744;14614,887;   -0,809;    0,409
550,326;15197,164;   -0,809;   -1,136
550,909;15062,255;    2,737;    0,591
551,492;15561,968;   -0,263;    0,227
552,074;15449,395;   -0,173;   -1,318
552,657;16040,003;    2,373;    0,045
553,239;15880,469;   -0,173;   -0,773
553,821;15859,605;   -1,082;    1,045
554,404;15436,606;    1,282;    1,136
554,986;15874,087;    0,464;    1,045
555,568;16496,735;    1,191;   -0,955
556,151;15826,163;    1,191;   -0,227
556,733;16054,712;   -0,264;   -0,864
557,315;16548,875;    0,100;    0,500
557,897;16356,744;    0,554;   -0,500
558,479;16559,871;   -1,991;    1,318
559,061;16686,938;   -0,719;   -0,864
559,643;17035,330;   -0,264;    0,045
560,225;17449,620;    1,645;    2,864
560,807;17517,058;    0,918;    0,318
561,389;17055,677;    0,554;    2,318
561,971;17759,580;    0,463;    2,136
562,553;17597,608;   -1,628;    1,591
563,135;17775,269;   -0,537;    1,136
563,717;17354,145;    3,372;    1,136
564,298;18043,380;    3,645;   -0,045
564,880;17815,082;    0,645;   -1,409
565,462;18049,537;    0,645;    1,318
566,043;19159,493;   -0,446;    2,318
566,625;18734,855;    1,918;    1,227
567,207;18567,804;    1,099;    1,682
567,788;19645,907;   -1,264;    1,500
568,370;20455,205;    1,917;   -0,500
568,951;20279,528;    0,190;    0,227
569,533;21125,054;   -0,628;   -0,500
570,114;21599,727;   -0,446;    0,682
570,695;22152,814;   -0,174;   -1,318
571,277;22564,387;   -0,265;   -1,682
571,858;23248,486;    2,008;   -1,136
572,439;24169,517;    1,554;   -1,045
573,021;24293,485;    2,099;   -2,773
573,602;24787,729;   -1,265;    0,318
574,183;25687,363;   -2,083;    2,227
574,764;25790,962;   -1,629;    0,409
575,345;26388,896;    0,917;   -0,136
575,926;27013,112;   -0,356;    0,136
576,507;26955,636;    1,099;   -0,227
577,088;28072,150;    3,099;    1,682
577,669;28084,071;    0,735;    1,955
578,250;28812,818;    0,644;   -1,045
578,831;29449,682;   -1,356;   -2,227
579,412;29737,499;   -0,810;    0,955
579,993;30614,929;    1,008;    0,227
580,573;31009,962;   -0,629;   -0,955
581,154;29972,468;    0,735;   -0,591
581,735;30840,401;    0,644;    0,773
582,315;30299,038;   -0,629;    2,136
582,896;30620,144;   -0,174;    1,227
583,477;30170,471;    0,189;    1,227
584,057;30373,262;    0,553;    0,955
584,638;30652,475;    2,553;    2,318
585,218;30684,803;   -0,538;    2,682
585,799;30847,634;    0,281;   -0,227
586,379;30861,605;    0,372;    1,591
586,959;29713,880;    0,735;    0,318
587,540;29124,764;   -0,629;    2,227
588,120;28687,494;    1,007;   -0,045
588,700;27675,201;    2,553;    2,136
589,281;28013,809;    0,462;   -0,955
589,861;27958,581;    0,099;   -1,682
590,441;27782,268;    2,371;   -2,682
591,021;26806,291;   -0,265;   -2,591
591,601;27051,620;   -0,537;    0,500
592,181;27076,369;   -0,719;   -0,773
592,761;26441,125;    0,007;    1,409
593,341;26355,665;   -0,901;    0,045
593,921;26341,301;   -0,265;    1,591
594,501;26240,275;   -0,538;    1,318
595,081;26078,782;    0,917;   -0,318
595,661;26429,321;   -1,447;    0,955
596,240;26971,378;   -0,537;    0,136
596,820;26577,367;    0,372;    1,955
597,400;26779,527;    2,008;    0,773
597,980;27064,391;    2,008;    1,045
598,559;27067,702;    2,735;   -0,227
599,139;26762,443;   -0,174;   -1,227
599,718;26698,625;   -0,174;   -0,409
600,298;27014,097;    0,735;    0,682
600,877;27189,762;    2,917;    1,409
601,457;27542,205;    2,281;    1,136
602,036;27428,981;    0,190;    2,045
602,616;27598,389;    0,644;    1,682
603,195;27881,748;   -0,355;    3,500
603,774;27457,003;   -0,901;    2,045
604,354;27355,613;    0,826;   -0,500
604,933;26869,431;    0,463;    1,864
605,512;27023,861;    3,554;    0,591
606,091;27056,792;   -0,537;    3,773
606,671;27884,903;    0,281;    0,773
607,250;27022,998;    1,644;    3,136
607,829;27241,038;    2,372;    3,227
608,408;27160,756;    1,190;    2,591
608,987;26205,232;    1,281;    3,409
609,566;26526,142;   -1,265;   -2,500
610,145;26623,210;   -1,082;    0,682
610,723;27060,250;    4,372;    6,864
611,302;26297,666;   -0,446;    1,682
611,881;25768,957;    5,008;   11,227
612,460;26619,478;    1,645;    3,955
613,039;27045,010;   -0,082;    2,045
613,617;25763,896;    1,736;    4,773
614,196;25994,055;    1,099;    1,227
614,775;26311,701;    1,009;    2,409
615,353;26273,827;    0,736;    0,864
615,932;26067,167;    0,100;    2,409
616,510;26618,517;    0,554;    0,591
617,089;26190,233;    7,100;   17,591
617,667;25926,805;    2,372;    6,136
618,246;25778,718;   -1,537;    1,318
618,824;25993,514;   -3,355;   -0,955
619,402;25599,153;   -2,900;   -1,773
619,981;26080,487;   -0,173;   -1,045
620,559;25944,436;    0,009;    1,682
621,137;25498,146;   -0,718;    1,864
621,715;25459,731;   -1,173;   -0,682
622,293;25356,567;   -0,537;   -0,773
622,871;25874,057;   -0,718;    0,500
623,450;25459,460;    0,373;   -0,864
624,028;25322,101;    0,191;   -0,955
624,606;25013,199;   -1,718;    1,682
625,183;25395,227;   -1,536;   -1,136
625,761;25045,679;    1,009;    1,136
626,339;25353,270;    1,373;    2,591
626,917;25727,359;   -0,172;   -0,045
627,495;25780,851;   -0,354;    1,318
628,073;25190,485;   -0,263;    2,864
628,650;24856,690;    0,100;    2,136
629,228;25329,482;    0,373;    4,409
629,806;24746,604;    2,282;    1,136
630,383;25053,625;    1,464;   -0,318
630,961;24800,725;    2,555;   -0,955
631,539;24589,953;    2,464;    0,227
632,116;23877,453;   11,373;   15,409
632,694;24501,357;    2,555;    6,500
633,271;24790,589;    0,828;    2,682
633,848;24729,802;    1,828;    2,045
634,426;24777,535;   -1,081;    1,773
635,003;23918,150;    1,101;   -0,409
635,580;24193,141;    1,192;    3,682
636,158;24762,628;    3,737;    1,227
636,735;24769,347;    0,555;   -0,500
637,312;24952,600;   -0,809;   -0,682
637,889;25005,493;   -4,354;   -0,682
638,466;24444,855;   -3,990;   -0,409
639,043;24447,366;    2,101;   -1,136
639,620;24828,606;   -2,262;   -0,955
640,197;25118,705;    1,100;    1,682
640,774;25271,028;   -0,172;    1,136
641,351;25673,988;    0,737;    1,136
641,928;25059,130;   -0,627;    1,409
642,505;24706,908;    0,828;   -0,500
643,082;24892,868;   -1,718;    1,227
643,658;23944,464;   -0,718;    1,500
644,235;24629,879;    1,191;    2,500
644,812;24933,202;    1,918;    0,773
645,388;24706,253;   -0,991;    1,409
645,965;24784,940;   -0,809;    1,682
646,542;24827,628;   -1,445;   -0,227
647,118;24816,679;    1,009;   -0,955
647,695;25121,820;   -0,263;    1,136
648,271;25047,326;   -0,536;    0,500
648,848;25390,195;    0,736;    2,227
649,424;25218,882;    0,827;    1,318
650,000;24948,024;   -0,354;   -1,045
650,577;24769,438;   -0,627;   -0,955
651,153;25249,125;   -1,809;    0,955
651,729;26250,267;    1,191;    0,864
652,305;26340,591;    0,645;    2,773
652,881;30430,551;   -0,082;    1,136
653,458;37039,420;    1,100;    0,227
654,034;40859,107;    0,282;    1,591
654,610;42411,521;    0,554;    0,773
655,186;43769,300;    0,645;    3,045
655,762;43457,896;   -0,991;    0,409
656,338;43413,038;    0,100;    0,136
656,913;44486,543;   -0,082;    0,409
657,489;43756,230;    0,827;   -0,318
658,065;43738,008;   -0,173;   -1,591
658,641;44442,877;   -0,900;   -0,864
659,217;43771,655;   -0,991;    0,409
659,792;43156,434;    0,645;   -0,409
660,368;43364,575;   -2,173;   -0,682
660,944;43137,990;   -2,082;    1,227
661,519;38891,132;   -0,628;    0,409
662,095;33193,728;   -1,719;    0,591
662,670;28549,961;    1,281;   -0,136
663,246;27312,193;    1,009;   -0,409
663,821;26583,790;    0,281;    1,682
664,396;26053,204;    0,009;    1,864
664,972;26304,982;    0,009;   -0,500
665,547;26559,215;    1,372;    0,136
666,122;26617,266;   -1,082;    0,318
666,698;26924,407;   -0,173;    0,318
667,273;26251,095;   -0,173;    0,136
667,848;27131,873;    2,372;    1,500
668,423;26889,924;    2,190;    2,318
668,998;27457,974;    2,827;   -0,682
669,573;27962,753;   -3,264;   -1,500
670,148;27798,803;   -1,446;   -0,682
670,723;27593,036;   -1,810;    0,318
671,298;28047,723;    2,372;    1,045
671,873;28104,865;   -0,082;   -0,136
672,448;28070,007;    0,645;    0,136
673,023;28442,512;   -1,992;   -0,227
673,597;28748,745;    0,827;    2,318
674,172;28522,250;   -0,355;    0,318
674,747;28013,028;    0,372;   -1,045
675,321;27903,988;   -0,628;    3,318
675,896;27433,494;    0,645;    1,045
676,471;28449,363;    2,645;    1,591
677,045;28218,141;   -1,264;    0,682
677,620;28255,192;    0,190;    1,136
678,194;28621,606;   -2,628;    1,136
678,769;28124,384;   -1,083;   -0,318
679,343;28357,617;   -0,628;    1,773
679,917;28211,850;   -1,446;    1,955
680,492;28324,173;    0,826;    3,227
681,066;28548,224;    3,372;    0,409
681,640;28548,093;    1,463;   -0,318
682,214;29308,326;    0,735;    0,500
682,788;28830,649;   -1,356;   -0,773
683,363;28763,155;   -1,810;    1,682
683,937;28500,478;   -1,719;   -0,318
684,511;29273,256;    0,463;   -0,591
685,085;28973,671;   -1,356;    0,318
685,659;28724,176;   -2,538;    0,864
686,232;28971,136;   -0,356;   -0,318
686,806;28687,187;   -0,901;    0,409
687,380;29365,965;   -0,174;    0,591
687,954;29591,471;   -1,174;    1,136
688,528;29260,612;   -0,719;    1,955
689,101;30043,027;   -3,992;    1,045
689,675;29644,169;   -0,356;   -0,136
690,249;29015,219;   -0,719;    0,409
690,822;29299,452;    0,280;    0,318
691,396;29391,867;   -0,265;    1,227
691,969;28881,281;    1,280;    0,136
692,543;29344,787;   -0,447;   -1,955
693,116;28980,201;   -0,265;   -1,409
693,690;28894,888;    0,099;    0,500
694,263;29443,212;   -1,083;    2,955
694,836;29418,626;    1,371;    3,591
695,410;28057,404;   -0,265;    1,773
695,983;28543,092;    0,189;    0,591
696,556;28528,506;   -0,447;   -1,045
697,129;28962,375;   -0,356;    1,409
697,703;28599,608;   -1,629;    1,955
698,276;28544,750;    1,462;   -0,773
698,849;28392,073;    1,280;    1,409
699,422;28796,488;   -1,083;    0,591
699,995;28474,175;    0,007;    0,136
700,568;28900,226;   -0,629;    3,045
701,140;28969,913;   -2,811;    1,682
701,713;28707,509;   -0,174;    2,409
702,286;28475,924;   -0,538;    0,864
702,859;28336,156;   -0,902;   -0,591
703,432;27485,571;    0,825;    0,682
704,004;27997,803;    0,462;    0,318
704,577;27899,763;   -0,629;    0,136
705,150;28469,178;    0,189;    2,500
705,722;28214,774;   -0,356;   -3,227
706,295;28022,552;   -0,175;   -0,591
706,867;27884,421;   -0,175;    1,955
707,440;28050,927;   -1,720;   -0,409
708,012;28273,796;    0,462;    0,591
708,584;28232,938;    2,462;    0,227
709,157;28539,625;    1,825;   -0,591
709,729;28176,585;    2,280;    2,045
710,301;29037,726;    0,734;    0,045
710,874;29029,959;   -1,447;   -0,227
711,446;27914,101;    0,371;    0,864
712,018;27799,788;    0,098;    0,500
712,590;27569,839;   -1,993;    1,682
713,162;28055,799;    0,825;    1,318
713,734;28368,032;    1,825;   -2,045
714,306;28255,628;   -1,902;   -0,409
714,878;26948,770;    0,825;    0,864
715,450;27749,911;    0,643;    0,864
716,022;28036,780;    1,552;    1,318
716,593;28191,104;    0,189;    0,591
717,165;28115,246;   -3,175;   -1,227
717,737;27797,660;    0,280;    0,409
718,309;27508,257;    0,280;   -0,045
718,880;27425,762;   -0,539;   -1,409
719,452;27672,085;   -0,175;   -1,591
720,024;27234,682;    0,734;   -0,591
720,595;27831,733;   -2,902;    0,955
721,167;27389,874;    0,370;   -2,045
721,738;26863,380;   -0,812;   -1,045
722,309;26814,885;   -0,993;   -1,227
722,881;26629,663;   -1,357;    0,773
723,452;27268,260;   -2,630;    2,864
724,023;27455,947;   -0,721;    2,682
724,595;27178,089;    0,007;    0,682
725,166;27004,230;    0,007;   -0,409
725,737;26605,463;    1,734;    0,227
726,308;26684,787;   -0,266;    0,318
726,879;27144,383;   -1,630;    1,227
727,450;26943,525;    0,552;   -0,045
728,021;26994,848;    3,097;    0,682
728,592;26767,354;    0,734;    0,500
729,163;27115,950;    0,643;   -0,136
729,734;27067,001;    0,188;   -0,227
730,305;27395,324;    1,734;    0,136
730,876;27800,284;    0,188;    2,955
731,447;27511,881;    2,188;    2,682
732,017;27598,659;    1,097;    1,864
732,588;27070,164;    0,734;    1,227
733,159;27253,306;    0,643;   -1,045
733,729;27087,629;    0,006;    0,409
734,300;26339,135;    0,915;    0,864
734,870;26826,186;    3,461;    0,591
735,441;27424,600;    0,370;   -0,591
736,011;27167,287;    0,643;   -1,591
736,582;27106,884;   -0,812;    0,045
737,152;26587,844;   -1,721;   -2,045
737,722;26997,531;   -0,267;   -0,682
738,293;26696,218;   -1,358;    1,318
738,863;26578,087;    2,461;    2,318
739,433;26376,320;    5,279;    0,318
740,003;27080,007;   -0,994;   -0,682
740,573;26484,967;    2,097;   -1,591
741,143;26395,472;   -1,085;    0,318
741,713;27196,523;    1,188;   -0,500
742,283;26823,665;    0,915;    1,591
742,853;26638,534;    1,915;    1,591
743,423;26103,403;    1,733;    0,045
743,993;26227,545;   -0,358;    1,500
744,563;25565,868;    0,097;   -0,864
745,133;25585,192;   -0,812;   -0,864
745,702;26266,152;   -0,267;    1,773
746,272;25485,930;   -0,176;    0,591
746,842;25265,799;   -1,358;   -0,591
747,411;25711,213;   -0,267;   -0,318
747,981;25890,719;    0,097;    0,500
748,551;25999,770;    2,278;   -1,045
749,120;25819,639;    0,642;   -0,227
749,690;26172,235;   -0,631;    2,409
750,259;26522,740;    1,369;    2,955
750,828;26446,428;    1,551;   -1,955
751,398;26679,297;    1,278;   -0,045
751,967;26172,529;    2,187;    0,409
752,536;26432,035;   -0,813;   -0,227
753,105;26825,631;    0,096;    0,227
753,675;26605,136;    0,096;    1,773
754,244;26535,915;   -0,904;    3,591
754,813;26579,965;    0,551;    1,227
755,382;26162,925;    0,460;    0,955
755,951;26711,976;    1,551;    3,682
756,520;26247,209;   -0,085;    1,864
757,089;26834,532;    0,278;    0,500
757,658;26918,220;    1,733;    1,227
758,227;26908,634;    1,096;    0,318
758,795;27226,412;    1,187;    1,136
759,364;27499,099;   -0,086;   -0,591
759,933;26515,332;   -1,176;   -0,045
760,501;26053,292;    0,733;   -1,318
761,070;26476,161;   -2,813;   -1,409
761,639;27200,939;   -1,904;    1,318
762,207;26521,536;    1,551;   -0,955
762,776;26471,586;    0,369;    0,864
763,344;26388,455;   -0,995;    0,591
763,913;25575,870;   -0,722;    1,409
764,481;26288,012;    1,005;   -0,136
765,049;26067,881;   -1,358;    1,409
765,618;25965,204;   -0,086;    0,318
766,186;26087,982;    0,278;    0,136
766,754;26296,033;    0,005;    1,864
767,322;25260,539;   -1,995;    0,409
767,890;25331,862;   -0,722;   -1,773
768,459;25696,822;   -2,177;   -0,318
769,027;25841,055;    1,641;    3,409
769,595;24805,287;    3,278;    2,591
770,163;25304,066;    3,823;    2,955
770,730;25011,662;    0,732;   -0,136
771,298;24890,622;    0,187;   -1,409
771,866;25039,127;   -1,541;    4,955
772,434;25308,724;   -0,631;   -1,864
773,002;25449,138;    0,005;    0,682
773,569;25111,643;    0,914;    1,682
774,137;24959,694;   -0,268;   -0,045
774,705;25746,745;    0,278;   -0,136
775,272;25234,160;    0,641;    0,682
775,840;24986,301;   -0,177;    2,682
776,407;24527,989;    0,277;    1,955
776,975;24122,039;   -0,632;    0,318
777,542;25127,636;   -1,086;   -0,045
778,110;24997,868;   -1,268;   -0,045
778,677;24688,737;   -2,359;   -0,864
779,244;24434,970;    2,186;    1,045
779,812;24513,203;    1,823;    0,864
780,379;24391,072;    0,005;    1,136
780,946;24623,577;    1,005;   -0,773
781,513;24971,537;   -1,450;    0,318
782,080;24325,497;   -0,086;    2,864
782,647;25061,821;   -0,268;    3,045
783,214;24651,144;   -0,177;    3,864
783,781;24330,468;   -0,723;   -0,682
784,348;24165,064;   -0,632;    1,500
784,915;24619,388;   -3,177;    0,318
785,482;24381,075;    1,368;    2,591
786,049;24826,944;    0,186;   -0,591
786,615;24944,177;    0,277;   -0,955
787,182;24674,136;    0,186;   -0,682
787,749;24349,915;   -2,814;    1,409
788,315;23716,965;   -1,632;   -0,409
788,882;24008,107;    1,550;   -1,227
789,448;24644,249;    1,732;   -0,955
790,015;24685,118;    1,095;    3,227
790,581;24233,987;    1,459;    0,227
791,148;24173,856;    0,641;    1,045
791,714;24422,725;   -0,541;    3,136
792,280;24066,049;    0,186;    1,591
792,847;23653,372;    0,550;    2,500
793,413;24202,787;   -0,269;   -0,318
793,979;23697,838;    3,459;   -1,318
794,545;23794,434;    4,459;    2,682
795,111;23214,848;    2,186;    1,318
795,678;23435,717;    0,731;   -1,682
796,244;23056,768;    3,368;    0,136
796,810;23617,455;    1,731;    0,773
797,375;23266,143;    0,549;   -2,136
797,941;23333,921;   -0,541;    0,591
798,507;23506,699;   -0,451;   -0,955
799,073;23022,750;   -0,360;    0,591
799,639;23108,255;   -2,632;    3,136
800,205;23173,942;    0,095;    2,682
800,770;22726,266;    0,640;    1,773
801,336;22784,226;    1,368;   -0,955
801,901;22424,822;    4,549;    3,136
802,467;23020,782;   -0,542;    2,045
803,033;22366,106;   -0,087;    0,864
803,598;22598,157;    1,913;   -1,045
804,163;22633,026;    1,095;   -0,318
804,729;22614,258;   -0,178;    1,136
805,294;22973,764;    0,822;    2,227
805,859;22764,633;    0,731;   -0,409
806,425;22210,956;    1,186;    2,682
806,990;21928,371;    2,186;    4,318
807,555;22438,967;   -1,451;    2,591
808,120;22270,563;    0,822;   -0,409
808,685;22360,069;    0,185;   -2,500
809,250;21862,756;    0,004;   -0,500
809,815;22190,352;    1,913;    0,682
810,380;22712,949;   -0,269;    1,591
810,945;23215,454;   -1,087;    2,045
811,510;22359,959;    2,094;    1,591
812,075;22085,101;   -0,633;   -1,409
812,640;22162,788;    2,003;    1,409
813,204;22204,930;    0,822;   -0,227
813,769;22681,163;    2,094;   -0,045
814,334;22097,850;    0,458;    0,864
814,898;22178,628;    0,367;    0,591
815,463;22084,224;    1,276;   -0,773
816,027;21980,093;   -0,724;   -2,318
816,592;22064,872;    0,640;   -2,045
817,156;21575,650;    2,094;    1,136
817,721;21462,337;    4,276;    2,318
818,285;21416,388;    2,912;    1,500
818,849;22035,984;   -1,451;    1,682
819,414;21958,308;   -0,269;    2,955
819,978;21542,813;   -1,269;    1,773
820,542;22174,591;    2,003;    0,500
821,106;21844,551;   -0,815;    0,682
821,670;21962,238;   -0,815;    2,591
822,234;21698,198;   -0,270;    1,409
822,798;21041,885;    0,003;    0,500
823,362;21000,664;   -0,633;    4,227
823,926;20329,896;    0,094;    1,136
824,490;20568,674;   -0,997;   -0,682
825,054;21009,452;   -0,088;   -1,136
825,618;20630,776;   -1,542;   -1,500
826,181;20548,736;    0,458;   -1,318
826,745;20470,969;    1,367;   -1,045
827,309;20789,929;    1,185;    1,318
827,872;20200,070;    1,367;    0,955
828,436;21198,212;    1,185;   -0,773
828,999;21268,172;   -0,997;    1,227
829,563;20096,768;   -0,179;    1,136
830,126;19886,728;   -0,179;   -0,591
830,690;19861,779;   -1,997;    2,864
831,253;19413,921;   -0,543;    2,227
831,816;19524,790;   -1,906;    0,500
832,380;19494,568;    0,185;    0,864
832,943;19679,073;   -1,361;   -0,500
833,506;19150,306;    2,639;   -1,227
834,069;19979,630;    3,912;   -0,955
834,632;20043,499;    1,730;    1,318
835,195;19915,368;    1,003;    0,955
835,758;19141,600;   -0,997;    1,955
836,321;18990,833;    0,730;   -1,045
836,884;19110,157;   -0,725;   -0,955
837,447;19107,207;   -2,816;    1,773
838,010;19346,804;    0,366;    3,227
838,573;19668,673;   -1,179;    0,773
839,135;19605,996;   -1,361;   -0,955
839,698;19061,411;    1,275;    0,409
840,261;18651,462;    1,003;   -0,227
840,823;18512,240;   -0,543;    0,864
841,386;18760,473;   -0,452;   -2,409
841,948;18655,342;   -1,361;    1,773
842,511;18420,847;    0,912;    1,682
843,073;18533,898;    1,912;    0,227
843,636;18341,494;   -0,361;   -0,227
844,198;18263,818;    0,911;    0,591
844,760;18350,414;    1,093;    1,955
845,322;18006,556;    0,548;    1,136
845,885;18424,516;    0,730;    0,591
846,447;18912,567;   -1,998;    0,227
847,009;18410,254;    1,911;   -0,682
847,571;18790,850;    0,820;   -2,045
848,133;18896,719;   -1,089;   -1,864
848,695;18744,588;   -0,543;    1,409
849,257;18288,184;   -1,089;   -1,682
849,819;18467,417;   -0,998;   -0,409
850,381;18521,104;   -0,725;   -0,864
850,942;18849,246;    1,093;   -0,591
851,504;18816,206;    1,184;    0,227
852,066;18866,893;    1,275;   -1,591
852,628;18393,126;   -0,180;    1,955
853,189;17976,359;    1,638;    2,682
853,751;18030,591;   -0,907;    1,409
854,312;17855,642;   -0,453;   -1,682
854,874;18353,420;   -2,089;   -0,773
855,435;18876,198;   -0,907;   -1,682
855,997;19062,886;   -1,816;   -0,136
856,558;18326,755;    0,366;    1,773
857,119;18474,896;    0,820;    2,864
857,681;18153,402;    0,002;    0,318
858,242;18167,362;    1,911;   -2,136
858,803;18590,867;    0,456;   -0,773
859,364;19202,736;    0,184;   -4,773
859,925;18496,514;   -2,453;   -0,955
860,486;18401,565;   -0,453;   -0,955
861,047;18119,070;   -0,544;   -1,227
861,608;17916,667;   -1,089;   -0,773
862,169;18056,718;    0,638;   -0,045
862,730;17871,132;    0,456;    1,409
863,291;18108,910;   -0,635;   -0,500
863,852;18426,234;   -0,635;    1,955
864,412;17918,376;   -0,271;   -0,864
864,973;16509,881;   -0,089;    0,500
865,534;16394,932;   -1,726;    0,227
866,094;17884,892;    1,820;    0,227
866,655;17506,397;    1,274;    3,318
867,215;17818,084;    0,274;    0,136
867,776;17668,135;    0,547;   -0,136
868,336;17740,095;   -1,453;    0,136
868,897;17212,055;    2,638;    1,682
869,457;16997,924;    1,365;    0,318
870,017;17222,157;    0,547;   -1,227
870,578;17768,480;   -0,817;    0,773
871,138;17429,713;   -2,089;   -0,955
871,698;16973,764;   -0,817;   -1,318
872,258;16852,269;   -0,453;   -2,864
872,818;17193,047;    2,729;    0,045
873,378;17171,280;    0,638;    1,045
873,938;16710,422;    0,547;    0,500
874,498;17055,382;    0,274;   -1,955
875,058;16954,160;    2,183;    1,773
875,618;16777,847;    1,910;   -2,682
876,177;16705,262;    1,274;    0,136
876,737;16331,131;   -0,090;    1,955
877,297;16331,000;    0,183;    1,955
877,856;16327,232;   -0,362;    0,318
878,416;16269,101;    1,183;   -0,136
878,976;16527,788;   -1,817;    0,409
879,535;16695,112;    0,092;    3,136
880,095;16446,617;   -0,544;    0,045
880,654;16516,214;   -1,090;    1,318
881,213;16623,174;    2,456;    1,500
881,773;16275,406;    2,637;    2,682
882,332;16614,639;    3,365;    5,136
882,891;16483,235;    3,092;    2,136
883,451;16924,559;   -1,272;    1,682
884,010;16372,519;   -2,908;   -0,409
884,569;16480,479;   -0,999;   -0,045
885,128;16589,075;    2,819;   -1,864
885,687;16643,217;    4,455;    0,682
886,246;16349,722;    1,455;    2,136
886,805;16128,773;    2,455;    2,045
887,364;16475,733;   -0,999;   -0,500
887,922;16834,057;   -1,181;    0,045
888,481;16335,835;   -1,545;    0,591
889,040;16625,340;    1,183;    2,136
889,599;17301,027;    2,455;    1,409
890,157;17375,351;    1,455;    2,409
890,716;17004,765;   -0,090;    0,227
891,274;16821,180;    0,092;   -1,136
891,833;17275,958;    1,546;    0,864
892,391;17174,100;   -0,454;    0,500
892,950;17202,878;    1,819;   -0,773
893,508;17554,383;    0,455;   -0,409
894,067;16896,889;    0,637;    0,136
894,625;16845,485;   -0,636;   -1,500
895,183;17102,263;   -0,363;   -0,682
895,741;16956,405;    1,728;   -1,773
896,299;16818,001;   -0,545;   -2,409
896,858;17018,507;    0,819;   -1,591
897,416;17119,557;    2,728;   -1,318
897,974;16824,608;    1,819;    0,318
898,532;16965,295;    6,091;    2,682
899,089;16895,710;    2,091;   -0,682
899,647;16945,488;   -1,454;    1,318
900,205;16642,448;    1,182;    1,045
900,763;16876,226;   -0,454;    0,227
901,321;16906,459;    2,364;   -1,409
901,878;16339,691;   -1,000;   -0,773
902,436;16208,742;   -1,363;    1,318
902,994;16599,066;    4,728;    3,682
903,551;16029,389;    0,728;    0,409
904,109;16423,168;    0,182;   -1,409
904,666;16021,037;    2,455;    1,045
905,224;15870,360;    0,182;   -0,409
905,781;15592,229;    0,727;   -0,318
906,338;15681,189;   -1,363;    1,045
906,895;15595,604;    0,637;    2,045
907,453;15543,291;    1,727;    1,136
908,010;15582,705;   -0,909;    0,409
908,567;15216,393;    1,273;    0,591
909,124;14725,262;    0,364;   -1,500
909,681;14798,403;   -2,909;    0,682
910,238;14960,000;    0,636;   -1,318
910,795;15243,232;   -0,273;   -1,136
911,352;14907,051;   -2,909;   -2,682
911,909;14314,596;   -1,364;   -0,864
912,466;14769,960;   -3,182;    1,500
913,022;14373,778;   -1,636;    0,500
913,579;14733,869;   -0,909;    2,045
914,136;14437,051;    1,636;    0,955
914,692;14736,778;    0,091;   -1,227
915,249;14354,141;    1,455;    0,409
915,806;14566,323;    0,182;    1,955
916,362;14300,505;    1,909;    1,864
916,918;13914,141;    2,000;    1,045
917,475;13881,323;   -1,182;    0,955
918,031;13944,232;    3,364;   -0,045
918,587;13375,778;   -0,909;   -0,318
919,144;13613,232;   -2,273;    0,227
919,700;13961,141;    1,727;    0,773
920,256;13531,141;    0,727;    0,045
920,812;13162,869;   -0,727;   -1,045
921,368;13153,960;   -1,727;   -1,045
921,924;12796,869;    0,182;   -0,136
922,480;12347,414;   -0,545;    1,227
923,036;12955,869;    1,273;    1,955
923,592;12881,232;    0,455;    0,318
924,148;12823,596;    0,455;   -0,955
924,704;12124,414;   -1,364;   -0,409
925,259;12414,051;   -0,273;    0,591
925,815;12171,505;    1,455;    0,500
926,371;11698,323;    2,909;    1,409
926,926;11610,596;    2,091;    0,591
927,482;11238,778;   -1,364;    0,773
928,037;11063,505;    0,909;    2,045
928,593;11381,051;    1,636;    1,045
929,148;11219,232;   -1,818;   -1,500
929,704;10734,323;   -1,455;   -0,500
930,259;10924,778;    0,091;   -0,136
930,814; 9977,141;   -0,818;    1,955
931,369; 9675,687;    1,091;   -0,773
931,925; 9562,596;   -0,091;    0,136
932,480; 9461,141;   -2,818;   -2,591
933,035; 9338,505;    0,545;   -0,318
933,590; 9121,232;    0,364;   -1,773
934,145; 8802,051;   -1,364;   -0,318
934,700; 9150,141;    0,455;   -0,591
935,255; 8957,869;   -0,091;    0,045
935,809; 8221,687;    3,182;    0,864
936,364; 7361,232;   -0,455;   -0,136
936,919; 7321,687;    0,455;   -1,773
937,474; 7242,414;    1,455;    0,136
938,028; 6991,869;   -1,636;    1,136
938,583; 6449,869;    1,818;    4,682
939,138; 6772,960;    2,091;    2,136
939,692; 6211,505;    1,636;   -1,136
940,247; 5903,414;   -0,727;   -1,045
940,801; 5451,141;   -0,636;    0,227
941,355; 5347,141;   -0,364;    2,591
941,910; 5017,960;   -0,273;   -2,136
942,464; 5116,141;   -0,818;   -0,318
943,018; 4899,232;    1,000;   -0,227
943,572; 4841,687;    2,545;   -0,682
944,126; 4283,414;    0,091;   -0,409
944,681; 4170,687;    3,091;    0,227
945,235; 4148,960;    1,000;   -0,591
945,789; 4112,687;    0,364;   -1,864
946,342; 4192,596;    0,455;   -0,591
946,896; 4013,323;   -2,273;    0,955
947,450; 3774,960;    1,545;   -0,227
948,004; 3946,869;    1,727;   -0,045
948,558; 3961,323;    0,273;   -0,864
949,111; 3862,141;   -0,273;   -0,318
949,665; 3907,323;    1,636;   -0,682
950,219; 3787,505;   -0,091;   -1,045
950,772; 3864,687;   -1,909;    1,864
951,326; 3768,596;    0,545;   -0,955
951,879; 3851,051;    0,727;   -2,318
952,433; 3890,414;    0,000;    2,227
952,986; 3735,778;    2,909;    0,682
953,539; 3682,869;   -0,273;    0,591
954,093; 3636,051;    0,545;   -1,318
954,646; 3753,051;    0,909;    1,318
955,199; 3577,869;    0,000;   -0,500
955,752; 3456,960;   -0,455;    1,773
956,305; 3405,323;   -0,091;    2,955
956,858; 3570,869;    0,818;   -0,318
957,411; 3733,596;   -0,545;    2,136
957,964; 3576,051;    1,364;    2,136
958,517; 3554,414;   -1,545;    3,136
959,070; 3392,869;   -0,455;    1,955
959,623; 3478,869;    1,091;    1,500
960,176; 3255,687;    1,727;    2,045
960,728; 3238,869;   -2,727;    0,773
961,281; 3287,232;    0,545;    0,500
961,834; 3320,505;   -0,909;    0,864
962,386; 3248,323;    1,727;    1,045
962,939; 3160,869;    0,364;   -0,318
963,491; 3304,051;    0,455;    1,136
964,043; 3201,869;    1,182;    2,409
964,596; 3309,869;   -1,000;    2,227
965,148; 3147,051;   -1,000;    1,773
965,700; 3081,505;    1,091;   -0,227
966,253; 3208,596;   -0,636;    0,318
966,805; 3060,505;   -2,273;    0,773
967,357; 3102,778;    1,091;   -1,500
967,909; 3062,778;    0,455;   -1,227
968,461; 3181,596;    0,545;    3,136
969,013; 3104,960;   -0,182;   -0,864
969,565; 3171,869;   -0,455;   -1,136
970,117; 3256,505;   -0,364;    1,045
970,669; 3082,596;    0,182;   -0,136
971,220; 2950,596;   -0,455;   -1,500
971,772; 2880,323;   -0,636;   -0,318
972,324; 2988,869;    0,091;   -0,500
972,876; 2930,960;    0,818;   -0,045
973,427; 3072,141;    1,909;   -1,045
973,979; 3051,596;   -0,727;   -2,500
974,530; 3089,414;    1,818;    1,318
975,082; 3084,323;   -0,545;    1,682
975,633; 2977,505;    1,091;    1,682
976,184; 3122,869;    0,909;    0,773
976,736; 2916,596;    0,091;    0,227
977,287; 2734,687;   -0,909;   -0,500
977,838; 2916,414;    0,909;   -0,318
978,389; 2957,869;   -1,000;   -0,500
978,940; 2831,414;    0,545;   -0,409
979,491; 2873,960;    0,091;   -0,500
980,042; 2822,414;    0,182;    3,045
980,593; 2889,232;   -2,545;    0,227
981,144; 2929,414;    2,545;   -0,500
981,695; 2904,323;    1,455;    1,500
982,246; 2855,596;   -0,273;    1,045
982,797; 3013,141;   -1,727;    0,682
983,347; 3122,960;    0,364;    0,591
983,898; 3295,414;    3,091;    0,409
984,449; 3104,869;    2,182;    0,773
984,999; 3008,960;    1,455;   -1,136
985,550; 2805,323;    0,182;   -0,318
986,100; 2838,141;   -0,455;   -0,318
986,651; 2887,141;   -0,818;    0,045
987,201; 2852,505;   -1,000;   -0,591
987,751; 2934,414;    0,818;    2,864
988,302; 2912,505;    2,636;    1,500
988,852; 2948,141;    0,455;   -1,136
989,402; 2983,141;    0,091;    0,682
989,952; 2898,960;   -2,182;    0,864
990,502; 3003,778;   -0,091;    0,682
991,052; 2972,869;   -0,727;    0,045
991,602; 2842,414;   -2,909;    1,318
992,152; 2861,778;    0,455;    0,682
992,702; 2823,505;    1,364;   -0,045
993,252; 2731,323;   -3,000;   -0,500
993,802; 2829,596;   -0,273;    1,318
994,352; 3052,687;   -1,545;    1,136
994,901; 3135,323;   -0,182;    3,227
995,451; 3053,051;   -0,182;    0,318
996,000; 3151,414;    1,636;    0,318
996,550; 2867,141;    2,273;    0,227
997,100; 2885,778;    1,273;   -0,045
997,649; 3158,414;    2,182;    0,955
998,198; 2802,323;    1,727;   -1,500
998,748; 2973,323;    1,091;   -2,318
999,297; 2883,778;   -0,818;   -0,409
999,846; 2945,596;    1,000;   -0,773
1000,395; 2984,687;   -0,818;    0,500
1000,945; 2974,505;    1,818;   -0,773
1001,494; 3045,141;    2,364;    0,682
1002,043; 3026,778;    4,636;    0,864
1002,592; 2872,869;   -1,091;    1,955
1003,141; 3027,869;   -0,455;   -0,682
1003,690; 2873,505;    1,727;    0,500
1004,238; 2966,232;    1,455;   -0,045
1004,787; 2594,687;    1,364;    1,227
1005,336; 2828,960;    0,364;    0,682
1005,885; 2985,414;    1,364;   -2,773
1006,433; 3127,051;    0,545;    0,955
1006,982; 3181,778;    0,455;    1,682
1007,531; 3088,232;   -1,818;   -0,227
1008,079; 3041,232;   -2,273;    0,500
1008,627; 3181,960;   -1,455;    0,409
1009,176; 2924,687;    0,000;   -1,955
1009,724; 2979,051;    1,091;    0,864
1010,273; 3008,141;    1,273;    0,500
1010,821; 3126,323;    0,091;    1,409
1011,369; 2882,414;   -1,364;    1,318
1011,917; 2865,505;   -1,364;   -0,591
1012,465; 3139,505;    1,273;   -1,591
1013,013; 3238,869;    2,091;   -1,682
1013,561; 3116,323;    0,455;   -0,773
1014,109; 3185,505;   -1,909;    1,682
1014,657; 3049,869;    0,364;    0,591
1015,205; 3170,414;    1,636;   -0,955
1015,753; 3186,869;   -0,545;   -1,409
1016,301; 3247,323;   -2,636;    3,045
1016,848; 3246,687;   -1,273;    0,409
1017,396; 3294,869;    2,545;    0,045
1017,944; 3417,141;    1,182;    1,864
1018,491; 3163,323;    0,273;    1,409
1019,039; 3312,596;    0,455;    0,591
1019,586; 3249,869;   -1,364;    1,682
1020,134; 3347,323;    0,455;    1,500
1020,681; 3371,505;    0,182;   -1,136
1021,228; 3373,323;    2,909;   -2,227
1021,776; 3218,323;    1,182;   -1,136
1022,323; 3423,687;    0,455;    0,773
1022,870; 3357,869;   -1,000;   -0,045
1023,417; 3252,323;    2,636;    1,864
1023,964; 3398,960;    2,636;    1,227
1024,511; 3245,414;    1,000;    0,773
1025,058; 3029,141;    3,182;   -0,045
1025,605; 3087,778;   -2,273;    3,136
1026,152; 3297,141;    1,727;   -0,591
1026,699; 3034,505;    1,818;    1,318
1027,245; 3224,414;   -0,091;    0,318
1027,792; 3430,778;   -1,000;    1,409
1028,339; 3305,414;    2,364;   -0,045
1028,885; 3152,414;    1,000;   -0,227
1029,432; 3109,323;   -0,091;    0,227
1029,978; 3161,051;   -1,000;   -1,591
1030,525; 3077,414;    1,000;    0,409
1031,071; 3295,323;   -1,364;    1,136
1031,618; 3402,414;    0,364;    1,682
1032,164; 3215,323;   -0,091;    3,045
1032,710; 3263,596;    1,636;   -1,500
1033,256; 3164,596;   -0,636;   -0,136
1033,803; 3160,778;   -0,545;    1,500
1034,349; 2881,505;   -1,364;    0,136
1034,895; 3036,141;    0,000;   -0,318
1035,441; 3006,596;   -0,818;    0,318
1035,987; 3018,505;   -2,364;   -0,682
1036,533; 3016,323;   -1,455;   -0,955
1037,078; 3200,505;    1,455;    1,682
1037,624; 3037,232;    2,455;   -0,955
1038,170; 3051,051;    0,455;   -0,318
1038,716; 2943,232;    1,636;   -0,409
1039,261; 2887,232;   -2,273;   -0,773
1039,807; 2825,960;   -0,091;    3,409
1040,352; 2869,960;   -1,909;   -0,318
1040,898; 2927,323;   -1,545;   -0,682
1041,443; 2834,869;   -1,455;   -2,591
1041,989; 2834,051;    1,091;    1,591
1042,534; 2711,960;   -0,364;    2,591
1043,079; 2861,051;    2,909;    0,955
1043,625; 2633,778;    1,818;    0,500
1044,170; 2687,687;   -1,364;    1,045
1044,715; 2943,232;    2,455;    0,955
1045,260; 2753,323;    2,182;   -0,955
1045,805; 2813,414;    1,182;   -0,591
1046,350; 2757,960;    1,364;   -0,409
1046,895; 2722,232;    2,909;    1,591
1047,440; 2665,051;    5,364;    0,409
1047,985; 2564,051;    2,818;   -0,955
1048,530; 2483,323;    1,545;    1,227
1049,074; 2541,960;    0,000;    0,318
1049,619; 2515,323;   -1,364;    1,955
1050,164; 2323,505;    0,455;    0,227
1050,708; 2361,505;   -0,455;    0,045
1051,253; 2717,051;    1,273;   -2,227
1051,797; 2449,869;    0,818;   -1,318
1052,342; 2469,869;   -1,182;    1,045
1052,886; 2458,505;    0,364;   -1,409
1053,430; 2336,596;   -1,364;    0,136
1053,975; 2343,505;   -0,818;   -0,318
1054,519; 2328,505;   -0,727;    3,227
1055,063; 2336,414;    0,909;    1,318
1055,607; 2215,687;   -0,182;    0,227
1056,151; 2259,687;    2,909;    1,682
1056,695; 2179,778;    2,273;   -1,136
1057,239; 2242,960;   -1,727;   -0,682
1057,783; 2240,687;    0,818;   -1,500
1058,327; 2180,323;    0,000;    1,409
1058,871; 2400,869;   -0,545;    1,318
1059,415; 2108,960;   -0,818;   -0,045
1059,958; 2366,323;    1,455;    2,591
1060,502; 2102,687;   -1,000;   -0,773
1061,046; 2005,051;    0,364;   -0,955
1061,589; 1998,869;   -3,000;   -1,136
1062,133; 1879,687;   -1,273;    1,864
1062,676; 1818,778;    1,182;    0,864
1063,220; 1821,596;    1,091;    0,500
1063,763; 1832,778;    0,909;    1,136
1064,306; 1914,051;   -0,909;    1,864
1064,849; 1811,960;   -0,909;    0,591
1065,393; 1812,051;    2,000;   -1,500
1065,936; 1917,323;    0,182;   -0,409
1066,479; 1801,232;   -1,455;    1,318
1067,022; 1818,960;   -0,273;   -0,227
1067,565; 1714,596;   -0,091;   -1,318
1068,108; 1763,596;    0,727;   -0,591
1068,651; 1731,869;   -0,636;    1,409
1069,194; 1663,414;   -0,455;   -1,682
1069,736; 1659,960;   -1,273;    0,955
1070,279; 1642,778;   -1,364;   -0,500
1070,822; 1679,960;   -2,000;   -0,318
1071,364; 1762,051;   -0,364;    1,318
1071,907; 1594,232;   -0,727;    3,227
1072,450; 1503,505;    0,000;   -0,045
1072,992; 1493,505;   -0,273;    3,136
1073,535; 1630,232;    2,091;    2,136
1074,077; 1434,505;   -0,727;    2,045
1074,619; 1388,960;   -1,364;    0,591
1075,161; 1435,869;   -1,091;    1,500
1075,704; 1608,596;    1,545;    1,227
1076,246; 1404,051;   -0,182;    0,682
1076,788; 1326,596;   -0,364;    1,773
1077,330; 1414,051;    1,273;    2,136
1077,872; 1360,505;    0,909;    0,955
1078,414; 1584,596;    2,727;    0,773
1078,956; 1321,960;    1,273;   -0,227
1079,498; 1576,323;    1,636;    0,318
1080,040; 1290,687;    1,909;   -1,318
1080,581; 1235,687;    1,636;   -0,318
1081,123; 1158,778;    0,091;   -0,773
1081,665; 1215,414;   -1,182;   -0,955
1082,206; 1506,232;    1,364;   -0,500
1082,748; 1367,960;    0,727;    2,045
1083,289; 1242,778;   -2,000;    1,318
1083,831; 1153,323;   -0,545;    0,227
1084,372; 1187,869;    0,000;    0,591
1084,913; 1194,687;    1,091;    0,864
1085,455; 1154,778;   -1,909;   -2,045
1085,996; 1114,869;   -2,273;    0,136
1086,537; 1134,141;   -0,091;    0,864
1087,078; 1174,323;   -0,909;   -2,136
1087,619; 1217,596;   -1,273;    0,227
1088,160; 1137,596;    0,000;    1,318
1088,701; 1123,505;   -1,091;    0,682
1089,242; 1070,596;    1,364;   -2,227
1089,783; 1164,596;   -0,273;    1,409
1090,324; 1119,414;    0,455;    0,682
1090,865; 1004,505;    2,727;   -0,409
1091,405;  974,141;    0,727;    2,227
1091,946;  997,869;    0,182;   -0,955
1092,487;  924,869;    0,818;   -1,409
1093,027; 1095,232;   -1,364;   -1,500
1093,568;  953,323;   -0,364;    1,227
1094,108; 1047,687;    0,273;    1,773
1094,649;  980,141;   -1,182;    0,136
1095,189;  917,232;   -0,636;   -0,682
1095,729;  869,414;   -0,091;    0,955
1096,269;  868,778;    0,727;   -0,955
1096,810; 1178,687;   -1,364;    0,500
1097,350; 1001,596;    1,364;   -0,773
1097,890;  914,232;    0,364;    1,227
1098,430; 1160,323;    2,364;    2,864
1098,970; 1023,414;    2,182;    1,682
1099,510;  905,778;    0,545;   -2,318
1100,050;  828,869;    1,000;   -1,591
1100,589;  791,141;   -0,727;   -0,318
1101,129;  913,323;    0,818;   -0,955
1101,669; 1074,960;    1,727;    2,136
1102,209;  888,232;   -0,091;    2,227
1102,748;  841,141;    0,000;    0,955
1103,288;  819,505;    1,273;   -1,227
1103,827;  854,869;    3,091;   -2,227
1104,367;  737,596;   -0,091;   -2,409
1104,906;  705,051;    1,364;   -1,136
1105,445;  779,323;    0,636;   -1,136
1105,985;  719,960;   -0,727;    1,500
1106,524;  772,505;   -1,727;   -0,682
1107,063;  747,596;   -2,727;    1,409
1107,602;  711,323;   -1,909;   -1,500
1108,141;  634,141;   -1,909;    1,500
1108,680;  751,687;   -3,455;   -0,591
1109,219;  682,596;   -0,909;   -0,500
1109,758;  679,869;    0,455;    0,682
1110,297;  654,232;    1,000;   -0,682
1110,836;  598,505;   -0,727;    0,955
1111,375;  761,414;   -2,545;    0,409
1111,913;  776,414;   -1,000;    0,773
1112,452;  699,505;   -0,273;    0,136
1112,991;  596,141;    1,091;    1,955
1113,529;  552,960;   -0,818;   -0,045
1114,068;  627,414;   -0,273;    2,955
1114,606;  526,141;   -0,364;   -0,955
1115,144;  678,505;   -1,273;    1,045
1115,683;  617,687;   -0,727;    0,318
1116,221;  670,778;   -0,455;   -0,864
1116,759;  589,960;    0,636;   -0,864
1117,297;  778,141;    0,000;    1,864
1117,836;  592,505;   -2,182;   -1,227
1118,374;  583,960;    0,182;   -0,682
1118,912;  531,232;    0,909;    2,682
1119,450;  520,778;    1,000;    0,864
1119,988;  573,414;    1,545;    2,136
1120,525; 1016,414;    5,091;    3,318
1121,063;  722,051;    1,182;    1,864
1121,601;  532,869;   -0,909;   -1,227
1122,139;  488,869;   -0,727;   -2,045
1122,676;  687,869;   -0,727;    2,773
1123,214;  625,687;   -1,182;    4,409
1123,751;  441,869;    1,727;    2,227
1124,289;  559,505;   -0,091;   -0,409
1124,826;  429,505;    1,727;    0,227
1125,364;  363,960;    1,727;   -0,955
1125,901;  547,778;    1,182;    1,227
1126,438;  648,505;    0,818;    0,955
1126,975;  379,323;   -0,727;   -0,773
1127,513;  437,505;    0,273;    2,136
1128,050;  349,960;    1,636;   -0,682
1128,587;  445,323;    2,000;   -0,227
1129,124;  482,869;    0,091;    1,318
1129,661;  361,778;    0,273;    0,227
1130,198;  529,051;    1,636;    0,773
1130,734;  460,505;    0,182;    1,409
1131,271;  327,687;   -0,909;    0,864
1131,808;  500,869;    2,909;    3,045
1132,345;  379,051;    1,545;    0,318
1132,881;  246,141;   -1,545;   -1,864
1133,418;  388,232;    0,727;   -1,136
1133,954;  325,141;    2,455;   -2,682
1134,491;  392,687;    1,364;   -0,773
1135,027;  295,960;    2,364;    0,864
1135,564;  394,778;    0,273;    2,955
1136,100;  373,051;    0,364;    2,136
1136,636;  261,051;   -1,273;   -1,045
1137,172;  364,051;    0,000;   -1,045
1137,708;  276,596;   -1,364;   -1,045
1138,245;  280,778;    1,273;   -1,227
1138,781;  238,687;    1,091;   -3,318
1139,317;  299,323;    1,273;   -1,409
1139,852;  283,051;    3,091;    0,136
1140,388;  395,778;   -1,182;   -0,409
1140,924;  290,051;   -1,091;   -2,227
1141,460;  230,778;   -1,636;    0,136
1141,996;  166,232;   -1,364;    2,682
1142,531;  209,869;    1,364;    3,318
1143,067;  413,414;    1,182;    1,045
1143,602;  474,051;   -0,091;   -0,318
1144,138;  325,687;   -2,636;    1,045
1144,673;  192,414;   -1,455;    1,409
1145,209;  266,232;   -1,909;   -0,318
1145,744;  183,141;   -0,727;    0,864
1146,279;  326,869;    1,818;   -0,136
1146,815;  226,687;    1,545;   -2,682
1147,350;  260,869;   -1,364;    0,045
1147,885;  184,960;   -0,818;   -1,318
1148,420;  187,869;   -2,273;    0,773
1148,955;  168,505;   -1,727;    1,864
1149,490;  190,232;   -0,909;   -1,591
1150,025;  181,778;    0,455;   -1,773
1150,560;  277,141;    1,091;   -0,955
1151,094;  254,869;    1,455;   -0,591
1151,629;  261,232;    1,636;    0,864
1152,164;  181,869;    1,364;    1,318
1152,698;  142,778;   -0,182;   -0,136
1153,233;   94,505;    0,091;   -0,682
1153,767;  158,505;   -3,000;   -2,318
1154,302;  192,141;   -1,455;    1,773
1154,836;  192,505;   -0,455;   -2,136
1155,371;  245,141;   -1,364;    3,682
1155,905;  200,960;   -0,636;    1,682
1156,439;  170,960;   -0,636;   -0,500
1156,973;  202,232;    0,364;    0,318
1157,507;  145,505;   -0,364;    0,682
1158,042;  167,414;   -0,727;    1,045
1158,576;  215,505;    0,182;    1,773
1159,110;  202,051;   -0,818;    2,409
1159,643;  167,596;    0,636;   -0,045
1160,177;  110,505;   -1,545;    1,500

