
Integration time [ms]:   0,040
Averaging Nr. [scans]: 11
Smoothing Nr. [pixels]: 0
Data measured with spectrometer [name]: 7318044SP
Wave   ;Sample   ;Dark     ;Reference
[nm]   ;[counts] ;[counts] ;[counts] 

186,757;    3,904;   31,551;    1,318
187,357;   32,695;   22,551;    0,955
187,958;   13,049;   15,460;   -1,591
188,558;   45,529;    8,915;   -1,227
189,159;   11,893;    6,733;   -4,500
189,759;   -6,508;    7,278;   -3,591
190,360;  -19,780;    2,824;   -2,136
190,960;   10,060;    2,915;   -4,136
191,560;   27,638;    3,189;   -6,591
192,161;  217,806;    4,372;   -3,500
192,761;   96,464;    4,010;   -3,227
193,361;   43,299;    1,556;   -3,773
193,962;   85,308;    2,010;   -2,682
194,562;   16,584;    1,189;   -3,955
195,162;   23,201;   -2,448;   -2,227
195,762;  127,016;   -3,176;   -0,045
196,362;   85,901;    1,370;   -2,500
196,963;   -6,608;    2,006;   -0,864
197,563;   28,717;    1,551;   -0,955
198,163;   -6,329;    0,096;   -0,682
198,763;    0,427;    1,733;   -0,500
199,363;   53,048;    3,096;   -0,500
199,963;   29,317;    0,369;    0,409
200,563;   12,785;    2,823;   -1,409
201,163;   -5,821;    3,277;   -0,227
201,763;   35,242;    3,732;    0,318
202,363;   -1,285;    1,459;    1,500
202,963;   32,323;    1,459;    1,045
203,563;   69,930;    0,277;    0,500
204,162;   18,861;    2,096;   -1,864
204,762;   13,919;    0,550;    0,591
205,362;   -9,117;    3,004;    1,955
205,962;   21,355;    3,096;    1,955
206,562;   14,047;    1,823;    2,318
207,161;    0,221;   -0,087;    0,318
207,761;   71,534;    1,277;    2,409
208,361;    5,963;   -0,268;    1,409
208,960;   26,447;    0,459;    1,500
209,560;   22,118;    1,277;    1,591
210,160;   35,767;    0,550;    1,864
210,759;   17,925;    4,186;    1,227
211,359;    3,928;    1,459;    1,045
211,958;   91,420;    1,277;    2,045
212,558;  104,932;    1,732;    1,864
213,157;   40,459;    1,822;    1,500
213,757;  169,962;    3,822;   -0,227
214,356;   59,905;    1,277;   -0,409
214,956;  150,802;    3,095;    0,409
215,555;   43,262;    2,095;    2,136
216,154;    3,204;   -2,723;   -0,591
216,754;    7,374;    0,277;    0,773
217,353;   18,680;   -0,268;   -1,045
217,952;  -20,925;   -0,178;    0,318
218,552;   42,353;    1,368;   -0,773
219,151;    9,906;    0,277;    0,955
219,750;   -5,105;    0,004;   -0,227
220,349;   -8,924;   -0,451;    1,045
220,948;   62,517;   -1,360;    1,136
221,548;    2,683;    0,913;    1,227
222,147;    9,505;   -0,087;   -0,409
222,746;   84,046;   -0,451;   -0,955
223,345;   36,801;    0,731;    0,500
223,944;   28,209;   -0,451;    0,773
224,543;   32,318;    1,004;   -1,409
225,142;   24,699;    0,094;    0,136
225,741;   26,943;   -0,814;    1,045
226,340;   19,912;   -0,451;   -0,955
226,939;   67,767;   -0,996;   -0,136
227,538;   18,322;   -0,360;   -0,773
228,137;   69,418;   -0,814;    0,864
228,735;   40,867;   -0,541;    1,227
229,334;  -11,963;   -0,905;   -0,227
229,933;   72,113;    0,459;    0,591
230,532;   70,137;    1,186;   -0,409
231,131;  101,488;    1,732;    0,318
231,729;   37,449;   -2,450;   -2,318
232,328;   10,854;   -0,723;   -1,500
232,927;   16,513;    1,004;   -0,500
233,525;   10,507;    3,640;    0,045
234,124;   22,105;    2,368;   -1,591
234,723;    2,786;    0,913;   -1,045
235,321;   -6,248;    2,277;    0,136
235,920;    3,000;    1,186;   -1,227
236,518;   75,966;    3,459;    0,318
237,117;    8,475;    0,004;   -0,227
237,715;   23,283;    0,640;   -0,500
238,314;   29,608;   -0,087;   -2,318
238,912;   81,186;   -0,723;   -1,409
239,510;   43,436;    0,459;   -1,227
240,109;   82,228;    0,004;    3,773
240,707;   62,224;   -0,996;    1,227
241,305;    1,659;    0,550;    0,136
241,904;   35,295;   -0,178;   -2,045
242,502;   94,675;   -0,632;   -0,227
243,100;   45,727;   -0,087;   -0,955
243,698;    4,717;    0,732;    1,682
244,297;   20,497;   -0,632;    0,682
244,895;   16,195;   -0,269;   -2,318
245,493;   81,673;    2,186;   -0,591
246,091;   89,164;    1,368;   -1,318
246,689;   47,159;    1,004;    0,591
247,287;   42,757;    0,822;   -1,136
247,885;   17,869;   -1,451;    1,227
248,483;   -4,281;    1,822;   -0,500
249,081;   45,124;    0,185;    1,591
249,679;   52,134;   -0,178;    1,682
250,277;   12,466;   -1,723;    0,864
250,875;   48,187;   -1,087;   -1,045
251,473;   15,421;   -1,178;    0,500
252,071;   48,901;    1,459;    1,045
252,669;   12,572;   -1,814;    0,318
253,267;   -0,056;   -0,087;    0,773
253,864;   14,575;   -0,360;    0,682
254,462;   63,306;    1,640;    1,591
255,060;    2,551;   -0,269;    1,318
255,658;   -1,337;    0,822;   -0,136
256,255;    5,843;    0,186;   -2,045
256,853;   28,596;   -0,269;    1,409
257,451;    7,026;    0,822;    1,864
258,048;  171,271;    1,822;    1,864
258,646;   68,392;    1,731;   -1,045
259,243;   99,778;   -0,087;    2,227
259,841;   51,546;   -0,814;    0,318
260,438;    3,024;   -0,087;    0,864
261,036;   36,535;   -1,905;    1,409
261,633;   -3,235;   -0,087;    2,227
262,231;  -13,867;    2,731;   -0,045
262,828;  -15,686;   -0,905;    1,136
263,425;   -0,013;    0,913;   -0,591
264,023;    3,188;    0,186;    0,045
264,620;   44,108;   -0,360;   -0,318
265,217;   89,396;   -2,087;    3,136
265,815;   16,931;   -1,905;    2,136
266,412;   44,498;    0,731;    0,136
267,009;   31,475;   -1,451;    0,773
267,606;   70,483;    0,822;   -0,955
268,203;   11,408;   -0,269;   -0,591
268,801;   12,872;    1,731;    0,591
269,398;   -7,537;   -0,360;    2,500
269,995;   39,587;    0,277;    1,591
270,592;   21,160;   -0,632;   -0,500
271,189;   -7,687;    0,186;    0,409
271,786;  -22,521;   -0,632;    1,227
272,383;   41,910;   -1,087;    0,227
272,980;   19,544;    0,277;    0,318
273,577;    3,548;    0,004;    1,227
274,174;   -9,216;    0,822;    2,591
274,771;   36,481;   -0,814;   -0,773
275,367;  181,724;    2,277;    1,409
275,964;   81,310;    0,731;   -0,500
276,561;   20,862;    1,549;   -1,045
277,158;   -9,957;    0,095;   -1,773
277,755;   69,670;    2,185;    0,409
278,351;   36,841;   -0,451;   -1,500
278,948;   54,905;   -0,815;    0,045
279,545;   42,688;   -1,360;    2,318
280,141;   75,640;   -1,723;   -2,045
280,738;   69,925;   -0,451;   -0,136
281,334;   12,281;   -1,633;    0,591
281,931;    6,524;   -0,087;   -1,318
282,528;   55,892;    0,822;   -0,500
283,124;   79,306;   -1,087;   -0,500
283,721;   66,320;   -0,451;    1,409
284,317;   25,685;    0,185;    2,500
284,913;   78,753;   -1,360;    0,591
285,510;  136,117;    0,640;   -0,318
286,106;   91,558;   -2,269;   -0,955
286,703;   37,674;   -0,360;    1,955
287,299;   20,000;   -1,451;   -0,591
287,895;    9,958;    0,822;   -1,045
288,491;   -1,628;    0,186;    2,136
289,088;   33,208;   -2,360;    2,409
289,684;   38,118;   -1,723;    1,500
290,280;   91,441;    0,368;    0,682
290,876;   72,161;    1,822;    5,500
291,472;   54,803;    1,276;    2,227
292,068;   63,751;    1,367;    0,227
292,665;   22,728;    2,095;    0,773
293,261;   -3,585;    0,276;    2,136
293,857;   53,521;    2,913;    2,136
294,453;   17,925;    3,550;    0,955
295,049;   92,411;   -0,268;    1,955
295,644;   35,807;    0,095;    0,136
296,240;   -8,411;   -0,905;   -0,136
296,836;   31,467;   -0,995;    0,318
297,432;   65,308;    1,096;   -0,500
298,028;   63,917;    0,732;    0,773
298,624;   25,393;    1,459;    1,864
299,220;   22,038;    2,368;    0,591
299,815;   13,351;    1,005;   -0,409
300,411;   59,411;    0,914;    1,773
301,007;   74,264;    1,368;    0,227
301,602;   12,082;   -0,541;   -2,318
302,198;   64,572;    0,732;   -0,773
302,794;   19,080;    1,187;   -0,500
303,389;   -5,722;   -1,177;    1,045
303,985;   11,263;    0,550;    1,409
304,580;   59,619;    1,459;    1,591
305,176;   27,378;   -3,086;    0,136
305,771;  -21,812;   -1,268;   -1,227
306,367;  127,740;    4,095;    0,136
306,962;   49,264;    0,641;    1,500
307,558;   67,745;   -0,450;    0,136
308,153;   54,929;    1,095;   -1,136
308,748;    8,682;   -0,814;    1,682
309,344;  121,045;   -0,632;   -1,318
309,939;  103,936;   -1,905;   -1,318
310,534;   32,354;   -0,086;   -1,682
311,130;   18,297;    0,459;   -2,500
311,725;    0,615;    1,004;   -0,500
312,320;   21,425;    2,459;    0,045
312,915;   44,814;    1,459;   -1,045
313,510;  121,016;    1,550;   -0,500
314,105;   24,014;    1,096;    1,409
314,700;  -12,487;   -3,086;   -1,045
315,295;   10,347;   -0,904;    0,045
315,890;   -4,929;    1,277;    0,864
316,485;   33,171;   -0,359;   -0,318
317,080;   -5,998;   -3,086;    1,591
317,675;  109,430;    2,005;   -0,682
318,270;  215,873;    5,550;    3,318
318,865;  135,958;    3,278;    3,045
319,460;   83,504;   -0,904;    0,591
320,055;   19,694;   -0,541;   -1,227
320,650;   16,725;   -1,995;   -0,591
321,244;    9,904;   -0,177;   -1,409
321,839;    6,621;   -1,541;   -0,227
322,434;   24,879;   -1,086;   -1,591
323,029;    5,842;    1,732;    1,591
323,623;    2,773;    1,550;    0,773
324,218;   84,530;    2,368;    1,409
324,812;   49,812;    1,096;    1,591
325,407;   38,323;   -0,814;    2,045
326,002;  113,120;    0,277;   -0,409
326,596;   76,405;    0,914;    1,318
327,191;   18,546;    0,823;   -1,045
327,785;   19,496;   -0,813;   -0,227
328,379;    5,851;    1,368;    0,136
328,974;   19,338;    0,914;   -3,955
329,568;   37,396;    0,186;   -2,409
330,163;   80,976;    2,096;    1,045
330,757;   12,610;    2,459;    1,591
331,351;   -5,510;    0,459;    0,682
331,945;   -2,835;    0,914;    1,409
332,540;   39,678;   -1,723;   -0,591
333,134;   30,771;   -1,086;    0,773
333,728;   44,646;    0,005;    0,318
334,322;   -5,582;   -1,177;   -0,864
334,916;   -2,836;    0,277;    0,955
335,510;   57,966;   -0,450;   -0,136
336,105;   44,637;   -1,086;    1,591
336,699;    4,876;   -1,086;    0,591
337,293;   24,757;   -1,723;    0,318
337,887;    3,366;   -2,723;    1,955
338,481;   46,250;    0,459;    0,591
339,074;   88,249;   -0,359;    2,682
339,668;   76,098;   -1,632;    1,227
340,262;  320,445;    1,732;    3,227
340,856;  133,278;    1,822;   -0,682
341,450;   25,296;    1,004;    1,864
342,044;   45,848;    1,459;    0,136
342,637;   71,410;    0,913;   -2,136
343,231;   29,726;   -2,360;    0,682
343,825;   26,234;   -1,086;   -0,591
344,419;   24,926;   -1,995;    0,500
345,012;  265,453;    2,459;    4,045
345,606;  156,660;    4,641;    1,591
346,199;   34,438;   -1,813;   -0,227
346,793;   70,469;    1,914;    2,045
347,386;   10,138;   -0,813;   -1,136
347,980;  -18,384;   -0,268;   -0,045
348,573;    5,586;    2,278;    0,409
349,167;  165,453;    5,278;    4,773
349,760;   75,769;    2,914;    2,682
350,354;   67,721;   -0,813;    1,136
350,947;   80,234;    1,096;    1,682
351,540;   34,528;   -0,358;   -1,409
352,134;  -12,017;    1,096;    1,136
352,727;   -5,957;   -0,086;    1,136
353,320;   -3,593;    0,005;    0,591
353,913;  -26,618;   -1,995;    1,864
354,507;   58,773;    0,823;   -1,227
355,100;   16,558;    0,460;    0,864
355,693;  211,897;    2,005;    2,409
356,286;   86,341;    0,823;    2,773
356,879;   20,235;   -0,722;    1,227
357,472;   31,829;   -0,904;    1,500
358,065;   38,435;   -0,722;    2,500
358,658;  -14,498;   -0,540;    2,318
359,251;  -15,396;   -1,631;   -0,591
359,844;   56,873;   -1,904;   -1,136
360,437;   81,900;   -2,995;    0,045
361,030;   10,754;    1,369;   -0,682
361,623;   14,727;    2,824;    0,318
362,215;  127,905;   -0,086;    2,045
362,808;   35,211;   -2,358;   -1,682
363,401;    9,286;   -2,449;    0,136
363,994;  127,567;   -0,631;   -1,500
364,586;   36,984;    0,824;   -1,500
365,179;   11,461;   -0,449;   -1,136
365,772;  -42,556;   -1,995;    2,045
366,364;   19,549;    1,915;   -3,227
366,957;   38,111;    2,279;   -0,045
367,549;   15,076;    2,188;   -0,864
368,142;   27,482;    1,825;   -1,500
368,734;   14,327;    0,734;   -2,136
369,327;  -20,870;    1,643;   -0,500
369,919;   -4,086;   -1,538;    0,409
370,512;   11,042;   -1,083;   -0,500
371,104;  177,713;   -0,901;    1,591
371,696;  192,177;    1,191;   -0,955
372,289;   90,793;    0,373;    1,136
372,881;   67,495;   -2,080;    1,318
373,473;    5,432;   -2,170;    1,136
374,066;   58,190;   -0,169;    0,500
374,658;   28,556;    0,378;    1,136
375,250;  -16,199;    0,653;   -1,409
375,842;   26,976;    0,473;   -0,045
376,434;  -16,319;   -0,435;   -0,409
377,026;  -41,528;    0,204;   -2,500
377,618;   -0,371;   -0,158;   -0,682
378,210;  -62,143;   -0,338;   -1,955
378,802;  -67,788;    0,754;   -0,591
379,394;  285,332;    1,846;    0,682
379,986;   59,754;    1,393;   -0,955
380,578;  -33,798;   -0,153;    0,773
381,170;  202,502;   -0,972;    0,045
381,762;  109,402;    0,755;    1,409
382,354;   84,507;   -0,065;   -1,318
382,945;   19,479;   -2,976;    0,318
383,537;  -21,015;   -2,705;   -1,955
384,129;  -23,931;   -2,160;   -1,136
384,721;   84,809;   -0,252;    0,955
385,312;   30,422;   -0,161;   -0,955
385,904;   90,950;   -2,706;    1,591
386,496;   18,397;   -0,979;    1,045
387,087;  142,694;    1,022;    2,500
387,679;   78,350;   -1,160;    0,045
388,270;   51,040;    2,840;    2,045
388,862;   28,071;    1,295;   -0,318
389,453;   23,015;   -0,887;    1,045
390,045;   18,801;   -0,705;   -2,682
390,636;  -76,109;    0,204;   -0,591
391,227;   -9,101;   -0,523;   -0,045
391,819;  -31,734;    0,204;    0,773
392,410;  185,095;    1,022;    0,045
393,001;   18,887;   -0,979;   -1,591
393,593;   72,457;    1,930;   -0,045
394,184;  114,989;    1,385;   -0,409
394,775;   16,299;    1,839;    2,136
395,366;  -75,115;    1,385;    0,773
395,957;   86,139;    0,113;    0,136
396,548;   -8,262;   -0,342;    2,682
397,139;   84,970;   -2,433;    0,591
397,730;   16,932;   -1,888;    0,955
398,321;   33,884;   -1,252;    0,955
398,912;  -17,585;   -0,615;    0,136
399,503;  -24,109;   -3,524;   -1,409
400,094;   12,558;    0,294;    1,682
400,685;    5,439;   -0,433;    0,045
401,276;  -32,878;    0,930;   -0,955
401,867;  -51,227;   -0,888;    0,773
402,458;  -84,467;   -2,251;   -2,318
403,048;   36,631;    1,112;    0,591
403,639;   -1,633;    0,840;    0,864
404,230;   90,947;    2,476;    0,318
404,821;  137,255;   -0,615;    0,045
405,411;   59,841;    1,203;   -2,591
406,002;  -17,508;   -1,252;   -1,136
406,592;  179,177;    2,294;    0,045
407,183;   58,302;    0,566;   -1,500
407,774;   40,652;    3,475;   -0,136
408,364;   -3,703;    0,930;    0,409
408,954;  106,326;    0,384;    1,227
409,545;   99,582;    1,021;    1,045
410,135;   63,374;    1,293;    0,500
410,726;   18,594;    1,838;    0,318
411,316;  185,816;    0,111;    0,773
411,906;   52,516;   -0,253;   -0,409
412,497;   52,251;   -1,070;   -0,045
413,087;   10,599;   -1,980;   -0,227
413,677;  -53,646;   -0,707;    3,864
414,267;  -54,246;    0,656;    1,409
414,857;  -82,395;   -2,980;    4,227
415,448;  -85,886;    0,839;    0,500
416,038;  -43,826;    0,020;   -0,591
416,628;   -6,390;   -0,889;    0,409
417,218;   45,746;    0,565;    3,318
417,808;  172,962;    0,202;   -0,409
418,398;   59,090;    0,020;    2,682
418,988;  -38,187;    2,020;    0,591
419,578;   45,446;   -0,707;    1,409
420,168;  -17,018;   -1,343;   -0,955
420,757;  111,328;   -1,343;   -1,500
421,347;   25,845;    0,111;   -0,227
421,937;   -8,594;    2,292;    1,409
422,527;  120,205;    0,838;   -0,773
423,116;  239,571;   -0,253;   -0,045
423,706;  -13,025;   -1,889;    0,318
424,296;  -47,763;    1,384;    0,682
424,885;   60,691;   -0,071;   -3,045
425,475;   41,593;    1,474;   -2,864
426,065;  -51,386;   -0,980;   -0,318
426,654;  -71,548;   -0,435;   -0,318
427,244;  157,193;    0,020;    1,409
427,833;  130,245;    1,383;   -0,500
428,423;   15,541;   -0,526;    1,136
429,012;   22,782;   -0,344;   -1,136
429,601;  135,256;   -1,344;    0,136
430,191;   39,416;    1,292;    4,318
430,780;  -38,753;   -0,344;   -0,409
431,369;  133,534;    0,746;   -0,045
431,959;   12,049;   -1,254;    0,500
432,548;  -43,084;   -1,163;   -0,045
433,137;  -85,017;   -1,254;   -1,318
433,726;  -19,977;    0,292;    0,500
434,315;   -1,231;   -0,526;    2,409
434,905;   98,296;   -1,254;    1,409
435,494;   90,308;    0,746;    0,955
436,083;  -24,163;   -0,981;   -0,955
436,672;   48,268;    0,110;    0,500
437,261;    2,904;    0,292;   -1,955
437,850;  211,725;    1,383;    0,682
438,439;  270,535;    3,291;    1,955
439,027;  372,943;    3,655;    1,773
439,616;  299,269;    2,927;    1,227
440,205;   91,585;    0,200;   -2,136
440,794;   39,660;    2,109;   -0,045
441,383;  -20,414;   -1,346;   -0,591
441,971;  -38,709;   -2,436;    0,591
442,560;  -28,544;    0,563;   -1,773
443,149; -108,577;    0,379;   -1,318
443,737;  -64,088;   -0,074;   -2,318
444,326;  -42,254;    0,018;    0,318
444,915;   -9,068;   -1,982;    0,864
445,503;   -2,220;   -2,891;   -0,318
446,092;  247,824;    0,382;    2,136
446,680;  180,544;    0,382;    0,318
447,269;   81,744;   -0,346;   -0,318
447,857;   71,310;    0,018;   -1,773
448,445;   35,745;    0,563;    1,318
449,034;  -13,984;   -1,528;   -1,136
449,622;  -10,342;   -1,073;    3,500
450,210;  246,807;    2,017;    2,227
450,799;  165,573;    0,290;   -0,591
451,387;  132,195;    1,381;   -0,591
451,975;  113,861;    2,654;    0,864
452,563;  187,729;    3,472;    2,318
453,151;   27,709;   -0,528;   -1,227
453,739;   65,723;   -1,347;    0,136
454,328;  162,255;    2,381;   -2,136
454,916;  102,649;    2,562;   -0,136
455,504;  115,234;    1,017;    1,227
456,092;   15,830;    0,017;   -1,591
456,679;  -16,822;    1,472;    0,682
457,267;  363,199;    4,017;    1,045
457,855;   75,324;    1,017;    1,409
458,443;  -59,451;   -0,165;    1,682
459,031;   79,374;    0,108;    2,409
459,619;   45,179;   -1,801;    2,864
460,206;  -37,284;    0,835;    2,045
460,794;  -43,265;   -2,983;   -0,227
461,382;    1,389;   -0,529;   -0,864
461,970;    1,415;    1,198;    1,864
462,557;  -54,018;   -0,711;   -0,682
463,145;   45,798;   -3,165;   -1,682
463,732;  268,612;    2,016;   -1,045
464,320;   62,778;   -0,075;   -3,045
464,907;  202,514;    2,743;   -0,773
465,495;  119,022;    0,743;   -1,227
466,082;   25,430;   -1,984;   -0,045
466,670;   62,270;   -2,529;    1,227
467,257;  -28,128;   -1,711;    2,045
467,844;   59,863;   -0,075;    0,045
468,432;   33,008;    0,834;    3,500
469,019;   -1,959;    0,925;   -1,773
469,606;   77,829;    0,470;    3,682
470,193;  100,179;   -1,439;    0,227
470,780;   58,804;   -2,075;    0,864
471,368;   -0,609;   -1,257;   -0,773
471,955;   97,431;    1,379;   -0,682
472,542;   59,881;    0,652;   -1,136
473,129;  -47,385;   -0,166;    0,136
473,716;  -36,275;    1,470;    0,591
474,303;   -7,900;    0,652;   -0,864
474,890;    3,030;   -1,439;   -0,500
475,477;   96,162;   -1,621;    0,409
476,064;    4,869;    1,106;   -1,591
476,650;  112,815;    0,288;    0,318
477,237;   30,360;   -0,258;    0,955
477,824;   10,426;   -1,076;    0,864
478,411;  -64,415;   -1,894;   -0,318
478,997;  -65,105;    0,560;   -0,773
479,584; -113,515;    1,196;   -0,409
480,171;   43,418;   -0,440;   -0,773
480,757;  100,328;    2,651;    0,773
481,344;    5,215;    0,469;    0,409
481,931;  -80,366;    1,105;    1,045
482,517;   30,263;   -1,258;    0,318
483,104;  111,543;    1,106;    2,864
483,690;   -1,622;   -1,804;    0,045
484,276;  -28,649;   -0,895;    0,227
484,863;  165,097;    2,469;    1,136
485,449;   25,179;   -0,077;    0,318
486,035;  -10,403;   -1,986;   -0,136
486,622;   70,934;   -0,895;    0,045
487,208;   -0,202;    1,378;    1,500
487,794;  -78,609;    0,741;    0,318
488,380;  -78,655;    0,105;   -1,409
488,967;  -83,802;   -1,168;   -0,409
489,553;  -60,677;   -1,895;   -1,409
490,139;   10,938;    1,559;    0,773
490,725;  -55,670;    0,741;   -0,227
491,311;  -16,639;    3,287;    3,045
491,897;  -28,441;   -0,986;    1,500
492,483;  -22,182;    0,105;    1,227
493,069;  387,004;    3,923;    0,864
493,655;  123,869;    1,650;    0,682
494,241;    9,173;    1,377;   -0,955
494,826;   11,227;    0,287;   -1,045
495,412;   69,441;    2,559;   -0,682
495,998;  -21,184;   -0,805;   -0,318
496,584;   37,048;    0,377;    1,045
497,169;   48,441;    1,014;   -0,682
497,755;   -9,209;    0,650;    1,227
498,341;  111,708;    0,559;    0,318
498,926;  227,674;    1,832;    1,955
499,512;   -3,854;    1,286;    2,955
500,097;   -4,770;    0,195;   -0,318
500,683;   12,526;   -0,350;    2,136
501,268;  -34,157;   -0,169;   -0,955
501,854;   -7,032;   -0,169;    1,227
502,439;  -12,785;   -0,624;   -1,773
503,024;   -3,292;    0,195;    0,500
503,610;   18,178;   -0,078;   -0,682
504,195;  -27,183;    0,558;    1,955
504,780;   52,592;    2,922;    1,227
505,366;  135,740;    3,013;    2,864
505,951;   76,868;    0,740;    1,045
506,536;   -3,134;   -3,260;   -3,682
507,121;   40,377;    0,285;   -0,318
507,706;    9,939;    2,376;    1,045
508,291;  -36,945;    2,649;    1,136
508,876;  -42,970;   -0,988;    2,591
509,461;    1,549;   -0,169;   -0,773
510,046;   31,377;    0,194;    0,318
510,631;   45,374;   -0,351;   -0,773
511,216;  -28,853;    2,467;   -0,500
511,801;   16,578;   -0,442;    2,591
512,386;   32,386;    0,740;    0,500
512,971;   45,724;   -2,988;    0,955
513,555;   66,404;   -0,897;   -1,500
514,140;   33,839;   -0,442;   -3,136
514,725;  135,076;   -0,715;   -1,136
515,309;   58,861;   -0,533;    0,318
515,894;  -11,268;   -0,624;   -2,227
516,479;   19,060;   -0,624;   -0,955
517,063;   17,101;    0,376;    1,227
517,648;  -23,786;    1,012;   -1,136
518,232;  -43,299;   -0,261;   -1,409
518,817;   22,135;   -0,079;    1,682
519,401;  108,524;    2,194;    0,591
519,985;   94,479;    1,103;    1,136
520,570;   -0,207;    0,830;   -1,955
521,154;   73,839;    2,102;    0,591
521,738;  195,086;   -2,352;    2,409
522,323;   69,624;   -0,170;    1,682
522,907;   84,946;    0,466;   -0,136
523,491;   39,963;    0,557;    0,955
524,075;   40,124;    2,284;    0,591
524,659;  219,516;    1,466;    0,591
525,243;  203,479;    1,739;    0,409
525,827;  195,825;    0,648;   -0,045
526,411;  250,243;   -1,989;   -0,136
526,995;  424,358;   -0,352;    1,409
527,579;  583,291;   -0,443;   -1,045
528,163;  590,049;    0,375;   -1,500
528,747;  854,475;    2,466;   -0,773
529,331;  905,025;   -0,080;   -1,409
529,915;  823,637;    1,738;    0,955
530,499; 1115,060;   -0,807;    1,227
531,082; 1432,371;   -0,534;    1,591
531,666; 1650,498;    1,374;    0,773
532,250; 1857,727;    1,284;    2,682
532,833; 2257,620;    0,920;    2,773
533,417; 2361,664;   -1,807;    0,864
534,001; 2671,620;    1,647;   -0,318
534,584; 3239,769;    0,374;    0,500
535,168; 3445,303;    0,465;    1,409
535,751; 3986,082;    0,647;    0,045
536,334; 3999,314;   -0,898;   -0,409
536,918; 4774,511;    0,011;    1,591
537,501; 5140,316;   -0,899;    1,318
538,085; 5569,991;   -0,444;    1,045
538,668; 6007,970;    0,829;    2,409
539,251; 6685,949;    1,829;    3,773
539,834; 7131,836;    0,101;    0,773
540,418; 7482,206;   -1,990;    4,318
541,001; 7890,311;   -0,990;    1,773
541,584; 8245,814;    2,101;    2,227
542,167; 8326,715;    1,374;    2,955
542,750; 8723,798;    1,919;   -0,773
543,333; 8693,040;    0,555;    2,136
543,916; 9625,132;    0,192;    2,500
544,499;10350,701;   -1,354;    0,227
545,082;10637,685;    1,374;    3,591
545,665;11048,582;    1,919;    1,500
546,248;11546,222;    1,010;   -0,318
546,830;11494,435;   -0,445;    1,955
547,413;12078,076;    1,010;   -0,773
547,996;12755,844;    0,555;    0,500
548,579;12777,633;    0,919;    0,955
549,161;12768,891;    1,828;    2,682
549,744;12732,408;   -0,809;    0,409
550,326;13379,419;   -0,809;   -1,136
550,909;13363,556;    2,737;    0,591
551,492;13891,476;   -0,263;    0,227
552,074;13830,905;   -0,173;   -1,318
552,657;14482,606;    2,373;    0,045
553,239;14417,452;   -0,173;   -0,773
553,821;14480,795;   -1,082;    1,045
554,404;14125,932;    1,282;    1,136
554,986;14567,180;    0,464;    1,045
555,568;15205,572;    1,191;   -0,955
556,151;14596,460;    1,191;   -0,227
556,733;14895,062;   -0,264;   -0,864
557,315;15405,876;    0,100;    0,500
557,897;15257,731;    0,554;   -0,500
558,479;15467,320;   -1,991;    1,318
559,061;15685,851;   -0,719;   -0,864
559,643;16064,559;   -0,264;    0,045
560,225;16454,738;    1,645;    2,864
560,807;16559,740;    0,918;    0,318
561,389;16167,923;    0,554;    2,318
561,971;16912,044;    0,463;    2,136
562,553;16794,434;   -1,628;    1,591
563,135;16902,085;   -0,537;    1,136
563,717;16593,230;    3,372;    1,136
564,298;17276,590;    3,645;   -0,045
564,880;17116,070;    0,645;   -1,409
565,462;17361,798;    0,645;    1,318
566,043;18446,010;   -0,446;    2,318
566,625;18022,277;    1,918;    1,227
567,207;17919,286;    1,099;    1,682
567,788;19011,223;   -1,264;    1,500
568,370;19835,785;    1,917;   -0,500
568,951;19690,957;    0,190;    0,227
569,533;20551,954;   -0,628;   -0,500
570,114;21017,637;   -0,446;    0,682
570,695;21512,127;   -0,174;   -1,318
571,277;21998,558;   -0,265;   -1,682
571,858;22744,262;    2,008;   -1,136
572,439;23677,430;    1,554;   -1,045
573,021;23852,030;    2,099;   -2,773
573,602;24346,685;   -1,265;    0,318
574,183;25221,907;   -2,083;    2,227
574,764;25386,949;   -1,629;    0,409
575,345;25913,374;    0,917;   -0,136
575,926;26523,780;   -0,356;    0,136
576,507;26603,679;    1,099;   -0,227
577,088;27704,556;    3,099;    1,682
577,669;27748,993;    0,735;    1,955
578,250;28469,816;    0,644;   -1,045
578,831;29149,609;   -1,356;   -2,227
579,412;29411,336;   -0,810;    0,955
579,993;30353,048;    1,008;    0,227
580,573;30776,722;   -0,629;   -0,955
581,154;29753,395;    0,735;   -0,591
581,735;30598,501;    0,644;    0,773
582,315;30129,865;   -0,629;    2,136
582,896;30497,767;   -0,174;    1,227
583,477;30071,446;    0,189;    1,227
584,057;30215,107;    0,553;    0,955
584,638;30535,230;    2,553;    2,318
585,218;30582,459;   -0,538;    2,682
585,799;30826,719;    0,281;   -0,227
586,379;30828,374;    0,372;    1,591
586,959;29665,153;    0,735;    0,318
587,540;29028,042;   -0,629;    2,227
588,120;28686,775;    1,007;   -0,045
588,700;27695,588;    2,553;    2,136
589,281;27993,567;    0,462;   -0,955
589,861;27942,723;    0,099;   -1,682
590,441;27847,669;    2,371;   -2,682
591,021;26849,497;   -0,265;   -2,591
591,601;27092,095;   -0,537;    0,500
592,181;27135,832;   -0,719;   -0,773
592,761;26482,627;    0,007;    1,409
593,341;26431,570;   -0,901;    0,045
593,921;26469,342;   -0,265;    1,591
594,501;26330,003;   -0,538;    1,318
595,081;26228,818;    0,917;   -0,318
595,661;26607,119;   -1,447;    0,955
596,240;27122,763;   -0,537;    0,136
596,820;26732,599;    0,372;    1,955
597,400;26966,771;    2,008;    0,773
597,980;27211,296;    2,008;    1,045
598,559;27261,936;    2,735;   -0,227
599,139;26969,879;   -0,174;   -1,227
599,718;26872,515;   -0,174;   -0,409
600,298;27189,787;    0,735;    0,682
600,877;27378,767;    2,917;    1,409
601,457;27671,421;    2,281;    1,136
602,036;27609,907;    0,190;    2,045
602,616;27836,018;    0,644;    1,682
603,195;28220,506;   -0,355;    3,500
603,774;27692,962;   -0,901;    2,045
604,354;27608,305;    0,826;   -0,500
604,933;27115,442;    0,463;    1,864
605,512;27303,926;    3,554;    0,591
606,091;27348,344;   -0,537;    3,773
606,671;28228,213;    0,281;    0,773
607,250;27308,406;    1,644;    3,136
607,829;27540,641;    2,372;    3,227
608,408;27439,937;    1,190;    2,591
608,987;26434,856;    1,281;    3,409
609,566;26798,125;   -1,265;   -2,500
610,145;26944,028;   -1,082;    0,682
610,723;27377,536;    4,372;    6,864
611,302;26637,533;   -0,446;    1,682
611,881;26155,214;    5,008;   11,227
612,460;27044,016;    1,645;    3,955
613,039;27472,028;   -0,082;    2,045
613,617;26189,968;    1,736;    4,773
614,196;26386,321;    1,099;    1,227
614,775;26717,167;    1,009;    2,409
615,353;26665,619;    0,736;    0,864
615,932;26403,330;    0,100;    2,409
616,510;27026,252;    0,554;    0,591
617,089;26516,224;    7,100;   17,591
617,667;26300,063;    2,372;    6,136
618,246;26176,483;   -1,537;    1,318
618,824;26353,655;   -3,355;   -0,955
619,402;25964,479;   -2,900;   -1,773
619,981;26445,315;   -0,173;   -1,045
620,559;26310,597;    0,009;    1,682
621,137;25887,689;   -0,718;    1,864
621,715;25885,289;   -1,173;   -0,682
622,293;25843,197;   -0,537;   -0,773
622,871;26287,422;   -0,718;    0,500
623,450;25898,748;    0,373;   -0,864
624,028;25746,260;    0,191;   -0,955
624,606;25427,412;   -1,718;    1,682
625,183;25823,302;   -1,536;   -1,136
625,761;25453,660;    1,009;    1,136
626,339;25763,772;    1,373;    2,591
626,917;26166,089;   -0,172;   -0,045
627,495;26222,229;   -0,354;    1,318
628,073;25656,177;   -0,263;    2,864
628,650;25367,097;    0,100;    2,136
629,228;25802,304;    0,373;    4,409
629,806;25208,381;    2,282;    1,136
630,383;25488,890;    1,464;   -0,318
630,961;25276,504;    2,555;   -0,955
631,539;25027,938;    2,464;    0,227
632,116;24349,686;   11,373;   15,409
632,694;24925,265;    2,555;    6,500
633,271;25302,846;    0,828;    2,682
633,848;25203,470;    1,828;    2,045
634,426;25238,031;   -1,081;    1,773
635,003;24380,889;    1,101;   -0,409
635,580;24689,140;    1,192;    3,682
636,158;25249,536;    3,737;    1,227
636,735;25251,424;    0,555;   -0,500
637,312;25386,556;   -0,809;   -0,682
637,889;25520,698;   -4,354;   -0,682
638,466;24987,924;   -3,990;   -0,409
639,043;25008,977;    2,101;   -1,136
639,620;25374,394;   -2,262;   -0,955
640,197;25675,265;    1,100;    1,682
640,774;25813,961;   -0,172;    1,136
641,351;26222,111;    0,737;    1,136
641,928;25626,079;   -0,627;    1,409
642,505;25274,047;    0,828;   -0,500
643,082;25433,106;   -1,718;    1,227
643,658;24443,984;   -0,718;    1,500
644,235;25244,770;    1,191;    2,500
644,812;25560,465;    1,918;    0,773
645,388;25243,979;   -0,991;    1,409
645,965;25350,038;   -0,809;    1,682
646,542;25438,461;   -1,445;   -0,227
647,118;25408,702;    1,009;   -0,955
647,695;25760,307;   -0,263;    1,136
648,271;25671,820;   -0,536;    0,500
648,848;25962,879;    0,736;    2,227
649,424;25794,848;    0,827;    1,318
650,000;25561,543;   -0,354;   -1,045
650,577;25384,966;   -0,627;   -0,955
651,153;25859,298;   -1,809;    0,955
651,729;26844,993;    1,191;    0,864
652,305;27016,507;    0,645;    2,773
652,881;31280,930;   -0,082;    1,136
653,458;38168,716;    1,100;    0,227
654,034;42205,775;    0,282;    1,591
654,610;43803,562;    0,554;    0,773
655,186;45198,621;    0,645;    3,045
655,762;44925,407;   -0,991;    0,409
656,338;44928,376;    0,100;    0,136
656,913;45893,253;   -0,082;    0,409
657,489;45193,857;    0,827;   -0,318
658,065;45201,098;   -0,173;   -1,591
658,641;45895,612;   -0,900;   -0,864
659,217;45192,217;   -0,991;    0,409
659,792;44534,549;    0,645;   -0,409
660,368;44779,244;   -2,173;   -0,682
660,944;44549,121;   -2,082;    1,227
661,519;40147,180;   -0,628;    0,409
662,095;34107,421;   -1,719;    0,591
662,670;29269,481;    1,281;   -0,136
663,246;27977,085;    1,009;   -0,409
663,821;27205,963;    0,281;    1,682
664,396;26707,658;    0,009;    1,864
664,972;27013,626;    0,009;   -0,500
665,547;27305,231;    1,372;    0,136
666,122;27342,472;   -1,082;    0,318
666,698;27641,076;   -0,173;    0,318
667,273;26968,045;   -0,173;    0,136
667,848;27802,831;    2,372;    1,500
668,423;27560,799;    2,190;    2,318
668,998;28120,131;    2,827;   -0,682
669,573;28706,190;   -3,264;   -1,500
670,148;28486,977;   -1,446;   -0,682
670,723;28286,490;   -1,810;    0,318
671,298;28748,550;    2,372;    1,045
671,873;28928,881;   -0,082;   -0,136
672,448;28872,395;    0,645;    0,136
673,023;29185,909;   -1,992;   -0,227
673,597;29494,877;    0,827;    2,318
674,172;29283,936;   -0,355;    0,318
674,747;28793,995;    0,372;   -1,045
675,321;28654,236;   -0,628;    3,318
675,896;28261,659;    0,645;    1,045
676,471;29246,718;    2,645;    1,591
677,045;29000,323;   -1,264;    0,682
677,620;29070,746;    0,190;    1,136
678,194;29351,986;   -2,628;    1,136
678,769;28926,864;   -1,083;   -0,318
679,343;29137,287;   -0,628;    1,773
679,917;29027,982;   -1,446;    1,955
680,492;29193,132;    0,826;    3,227
681,066;29312,646;    3,372;    0,409
681,640;29322,341;    1,463;   -0,318
682,214;30169,855;    0,735;    0,500
682,788;29697,369;   -1,356;   -0,773
683,363;29656,064;   -1,810;    1,682
683,937;29295,851;   -1,719;   -0,318
684,511;30104,819;    0,463;   -0,591
685,085;29764,242;   -1,356;    0,318
685,659;29601,028;   -2,538;    0,864
686,232;29805,360;   -0,356;   -0,318
686,806;29524,055;   -0,901;    0,409
687,380;30235,387;   -0,174;    0,591
687,954;30459,719;   -1,174;    1,136
688,528;30096,687;   -0,719;    1,955
689,101;30893,656;   -3,992;    1,045
689,675;30492,987;   -0,356;   -0,136
690,249;29892,592;   -0,719;    0,409
690,822;30202,106;    0,280;    0,318
691,396;30319,619;   -0,265;    1,227
691,969;29748,042;    1,280;    0,136
692,543;30230,283;   -0,447;   -1,955
693,116;29871,251;   -0,265;   -1,409
693,690;29721,765;    0,099;    0,500
694,263;30238,551;   -1,083;    2,955
694,836;30262,792;    1,371;    3,591
695,410;28944,124;   -0,265;    1,773
695,983;29414,274;    0,189;    0,591
696,556;29409,879;   -0,447;   -1,045
697,129;29844,393;   -0,356;    1,409
697,703;29455,088;   -1,629;    1,955
698,276;29416,784;    1,462;   -0,773
698,849;29234,025;    1,280;    1,409
699,422;29638,356;   -1,083;    0,591
699,995;29359,143;    0,007;    0,136
700,568;29825,475;   -0,629;    3,045
701,140;29917,534;   -2,811;    1,682
701,713;29600,684;   -0,174;    2,409
702,286;29337,470;   -0,538;    0,864
702,859;29242,620;   -0,902;   -0,591
703,432;28400,407;    0,825;    0,682
704,004;28867,466;    0,462;    0,318
704,577;28745,071;   -0,629;    0,136
705,150;29325,766;    0,189;    2,500
705,722;29126,189;   -0,356;   -3,227
706,295;28872,430;   -0,175;   -0,591
706,867;28735,580;   -0,175;    1,955
707,440;28945,366;   -1,720;   -0,409
708,012;29233,153;    0,462;    0,591
708,584;29099,485;    2,462;    0,227
709,157;29440,907;    1,825;   -0,591
709,729;29083,785;    2,280;    2,045
710,301;29959,298;    0,734;    0,045
710,874;29958,630;   -1,447;   -0,227
711,446;28868,780;    0,371;    0,864
712,018;28716,021;    0,098;    0,500
712,590;28483,080;   -1,993;    1,682
713,162;28992,503;    0,825;    1,318
713,734;29255,744;    1,825;   -2,045
714,306;29154,621;   -1,902;   -0,409
714,878;27868,226;    0,825;    0,864
715,450;28677,103;    0,643;    0,864
716,022;28944,072;    1,552;    1,318
716,593;29070,585;    0,189;    0,591
717,165;28978,826;   -3,175;   -1,227
717,737;28690,158;    0,280;    0,409
718,309;28387,672;    0,280;   -0,045
718,880;28332,004;   -0,539;   -1,409
719,452;28546,063;   -0,175;   -1,591
720,024;28142,122;    0,734;   -0,591
720,595;28740,545;   -2,902;    0,955
721,167;28223,876;    0,370;   -2,045
721,738;27770,299;   -0,812;   -1,045
722,309;27696,995;   -0,993;   -1,227
722,881;27503,508;   -1,357;    0,773
723,452;28179,113;   -2,630;    2,864
724,023;28345,536;   -0,721;    2,682
724,595;28085,413;    0,007;    0,682
725,166;27848,018;    0,007;   -0,409
725,737;27499,531;    1,734;    0,227
726,308;27574,591;   -0,266;    0,318
726,879;28024,650;   -1,630;    1,227
727,450;27891,800;    0,552;   -0,045
728,021;27838,223;    3,097;    0,682
728,592;27633,373;    0,734;    0,500
729,163;27973,159;    0,643;   -0,136
729,734;27983,127;    0,188;   -0,227
730,305;28316,732;    1,734;    0,136
730,876;28721,700;    0,188;    2,955
731,447;28439,032;    2,188;    2,682
732,017;28545,546;    1,097;    1,864
732,588;27977,150;    0,734;    1,227
733,159;28153,391;    0,643;   -1,045
733,729;27995,087;    0,006;    0,409
734,300;27270,146;    0,915;    0,864
734,870;27715,205;    3,461;    0,591
735,441;28280,991;    0,370;   -0,591
736,011;28020,050;    0,643;   -1,591
736,582;27970,655;   -0,812;    0,045
737,152;27498,714;   -1,721;   -2,045
737,722;27906,682;   -0,267;   -0,682
738,293;27622,923;   -1,358;    1,318
738,863;27492,892;    2,461;    2,318
739,433;27287,678;    5,279;    0,318
740,003;27989,919;   -0,994;   -0,682
740,573;27403,160;    2,097;   -1,591
741,143;27298,401;   -1,085;    0,318
741,713;28147,187;    1,188;   -0,500
742,283;27818,701;    0,915;    1,591
742,853;27545,033;    1,915;    1,591
743,423;26987,183;    1,733;    0,045
743,993;27122,515;   -0,358;    1,500
744,563;26499,665;    0,097;   -0,864
745,133;26447,906;   -0,812;   -0,864
745,702;27162,510;   -0,267;    1,773
746,272;26381,206;   -0,176;    0,591
746,842;26158,901;   -1,358;   -0,591
747,411;26629,961;   -0,267;   -0,318
747,981;26790,383;    0,097;    0,500
748,551;26841,715;    2,278;   -1,045
749,120;26668,683;    0,642;   -0,227
749,690;27031,652;   -0,631;    2,409
750,259;27382,165;    1,369;    2,955
750,828;27292,497;    1,551;   -1,955
751,398;27603,011;    1,278;   -0,045
751,967;27054,070;    2,187;    0,409
752,536;27347,584;   -0,813;   -0,227
753,105;27682,734;    0,096;    0,227
753,675;27534,611;    0,096;    1,773
754,244;27465,398;   -0,904;    3,591
754,813;27505,002;    0,551;    1,227
755,382;27101,789;    0,460;    0,955
755,951;27667,575;    1,551;    3,682
756,520;27149,452;   -0,085;    1,864
757,089;27665,602;    0,278;    0,500
757,658;27852,298;    1,733;    1,227
758,227;27858,357;    1,096;    0,318
758,795;28222,143;    1,187;    1,136
759,364;28418,657;   -0,086;   -0,591
759,933;27448,171;   -1,176;   -0,045
760,501;26953,139;    0,733;   -1,318
761,070;27440,562;   -2,813;   -1,409
761,639;28124,075;   -1,904;    1,318
762,207;27420,498;    1,551;   -0,955
762,776;27371,921;    0,369;    0,864
763,344;27310,253;   -0,995;    0,591
763,913;26505,221;   -0,722;    1,409
764,481;27209,189;    1,005;   -0,136
765,049;26960,885;   -1,358;    1,409
765,618;26879,398;   -0,086;    0,318
766,186;26995,549;    0,278;    0,136
766,754;27210,789;    0,005;    1,864
767,322;26171,667;   -1,995;    0,409
767,890;26191,271;   -0,722;   -1,773
768,459;26585,331;   -2,177;   -0,318
769,027;26766,208;    1,641;    3,409
769,595;25777,176;    3,278;    2,591
770,163;26191,963;    3,823;    2,955
770,730;25926,203;    0,732;   -0,136
771,298;25788,263;    0,187;   -1,409
771,866;25893,958;   -1,541;    4,955
772,434;26190,199;   -0,631;   -1,864
773,002;26394,985;    0,005;    0,682
773,569;26041,681;    0,914;    1,682
774,137;25879,195;   -0,268;   -0,045
774,705;26670,527;    0,278;   -0,136
775,272;26148,222;    0,641;    0,682
775,840;25889,099;   -0,177;    2,682
776,407;25425,795;    0,277;    1,955
776,975;25016,218;   -0,632;    0,318
777,542;26081,186;   -1,086;   -0,045
778,110;25909,427;   -1,268;   -0,045
778,677;25577,122;   -2,359;   -0,864
779,244;25310,636;    2,186;    1,045
779,812;25402,059;    1,823;    0,864
780,379;25256,118;    0,005;    1,136
780,946;25509,086;    1,005;   -0,773
781,513;25843,600;   -1,450;    0,318
782,080;25197,659;   -0,086;    2,864
782,647;25986,809;   -0,268;    3,045
783,214;25508,414;   -0,177;    3,864
783,781;25130,382;   -0,723;   -0,682
784,348;25026,986;   -0,632;    1,500
784,915;25492,227;   -3,177;    0,318
785,482;25230,650;    1,368;    2,591
786,049;25677,073;    0,186;   -0,591
786,615;25821,950;    0,277;   -0,955
787,182;25573,919;    0,186;   -0,682
787,749;25254,705;   -2,814;    1,409
788,315;24580,855;   -1,632;   -0,409
788,882;24869,278;    1,550;   -1,227
789,448;25535,701;    1,732;   -0,955
790,015;25561,032;    1,095;    3,227
790,581;25129,001;    1,459;    0,227
791,148;25045,333;    0,641;    1,045
791,714;25297,664;   -0,541;    3,136
792,280;24959,814;    0,186;    1,591
792,847;24515,055;    0,550;    2,500
793,413;25082,842;   -0,269;   -0,318
793,979;24607,901;    3,459;   -1,318
794,545;24639,687;    4,459;    2,682
795,111;24027,019;    2,186;    1,318
795,678;24276,987;    0,731;   -1,682
796,244;23914,228;    3,368;    0,136
796,810;24438,651;    1,731;    0,773
797,375;24150,256;    0,549;   -2,136
797,941;24172,133;   -0,541;    0,591
798,507;24334,283;   -0,451;   -0,955
799,073;23905,342;   -0,360;    0,591
799,639;23958,674;   -2,632;    3,136
800,205;24012,461;    0,095;    2,682
800,770;23540,247;    0,640;    1,773
801,336;23602,942;    1,368;   -0,955
801,901;23230,183;    4,549;    3,136
802,467;23866,061;   -0,542;    2,045
803,033;23203,574;   -0,087;    0,864
803,598;23443,179;    1,913;   -1,045
804,163;23450,238;    1,095;   -0,318
804,729;23409,297;   -0,178;    1,136
805,294;23851,902;    0,822;    2,227
805,859;23641,052;    0,731;   -0,409
806,425;23058,020;    1,186;    2,682
806,990;22698,716;    2,186;    4,318
807,555;23219,048;   -1,451;    2,591
808,120;23045,107;    0,822;   -0,409
808,685;23135,439;    0,185;   -2,500
809,250;22688,770;    0,004;   -0,500
809,815;22996,648;    1,913;    0,682
810,380;23538,252;   -0,269;    1,591
810,945;24048,857;   -1,087;    2,045
811,510;23226,462;    2,094;    1,591
812,075;22953,884;   -0,633;   -1,409
812,640;22977,580;    2,003;    1,409
813,204;23034,730;    0,822;   -0,227
813,769;23507,880;    2,094;   -0,045
814,334;22873,303;    0,458;    0,864
814,898;22984,453;    0,367;    0,591
815,463;22883,694;    1,276;   -0,773
816,027;22810,116;   -0,724;   -2,318
816,592;22877,357;    0,640;   -2,045
817,156;22393,962;    2,094;    1,136
817,721;22232,112;    4,276;    2,318
818,285;22209,080;    2,912;    1,500
818,849;22879,412;   -1,451;    1,682
819,414;22775,017;   -0,269;    2,955
819,978;22324,803;   -1,269;    1,773
820,542;22923,317;    2,003;    0,500
821,106;22641,376;   -0,815;    0,682
821,670;22732,253;   -0,815;    2,591
822,234;22452,585;   -0,270;    1,409
822,798;21818,463;    0,003;    0,500
823,362;21753,613;   -0,633;    4,227
823,926;21064,944;    0,094;    1,136
824,490;21313,913;   -0,997;   -0,682
825,054;21780,154;   -0,088;   -1,136
825,618;21356,849;   -1,542;   -1,500
826,181;21336,272;    0,458;   -1,318
826,745;21191,149;    1,367;   -1,045
827,309;21596,117;    1,185;    1,318
827,872;20999,449;    1,367;    0,955
828,436;21934,781;    1,185;   -0,773
828,999;22012,659;   -0,997;    1,227
829,563;20834,172;   -0,179;    1,136
830,126;20625,868;   -0,179;   -0,591
830,690;20580,745;   -1,997;    2,864
831,253;20158,713;   -0,543;    2,227
831,816;20287,409;   -1,906;    0,500
832,380;20212,468;    0,185;    0,864
832,943;20405,891;   -1,361;   -0,500
833,506;19913,768;    2,639;   -1,227
834,069;20662,918;    3,912;   -0,955
834,632;20783,977;    1,730;    1,318
835,195;20682,855;    1,003;    0,955
835,758;19866,641;   -0,997;    1,955
836,321;19705,791;    0,730;   -1,045
836,884;19805,668;   -0,725;   -0,955
837,447;19856,455;   -2,816;    1,773
838,010;20094,241;    0,366;    3,227
838,573;20376,573;   -1,179;    0,773
839,135;20315,996;   -1,361;   -0,955
839,698;19795,146;    1,275;    0,409
840,261;19318,569;    1,003;   -0,227
840,823;19158,719;   -0,543;    0,864
841,386;19433,323;   -0,452;   -2,409
841,948;19329,655;   -1,361;    1,773
842,511;19044,351;    0,912;    1,682
843,073;19192,319;    1,912;    0,227
843,636;19014,560;   -0,361;   -0,227
844,198;18897,437;    0,911;    0,591
844,760;19036,224;    1,093;    1,955
845,322;18714,101;    0,548;    1,136
845,885;19166,251;    0,730;    0,591
846,447;19589,583;   -1,998;    0,227
847,009;19143,369;    1,911;   -0,682
847,571;19465,701;    0,820;   -2,045
848,133;19568,669;   -1,089;   -1,864
848,695;19392,183;   -0,543;    1,409
849,257;18915,151;   -1,089;   -1,682
849,819;19075,210;   -0,998;   -0,409
850,381;19180,360;   -0,725;   -0,864
850,942;19539,692;    1,093;   -0,591
851,504;19523,479;    1,184;    0,227
852,066;19545,356;    1,275;   -1,591
852,628;19044,597;   -0,180;    1,955
853,189;18629,020;    1,638;    2,682
853,751;18715,079;   -0,907;    1,409
854,312;18563,229;   -0,453;   -1,682
854,874;19035,470;   -2,089;   -0,773
855,435;19610,711;   -0,907;   -1,682
855,997;19748,497;   -1,816;   -0,136
856,558;19011,102;    0,366;    1,773
857,119;19110,706;    0,820;    2,864
857,681;18791,584;    0,002;    0,318
858,242;18826,552;    1,911;   -2,136
858,803;19288,611;    0,456;   -0,773
859,364;19820,670;    0,184;   -4,773
859,925;19140,548;   -2,453;   -0,955
860,486;19085,243;   -0,453;   -0,955
861,047;18800,575;   -0,544;   -1,227
861,608;18588,089;   -1,089;   -0,773
862,169;18699,602;    0,638;   -0,045
862,730;18515,571;    0,456;    1,409
863,291;18749,902;   -0,635;   -0,500
863,852;19123,871;   -0,635;    1,955
864,412;18595,566;   -0,271;   -0,864
864,973;17173,989;   -0,089;    0,500
865,534;17011,048;   -1,726;    0,227
866,094;18537,834;    1,820;    0,227
866,655;18157,075;    1,274;    3,318
867,215;18434,771;    0,274;    0,136
867,776;18319,921;    0,547;   -0,136
868,336;18420,435;   -1,453;    0,136
868,897;17853,857;    2,638;    1,682
869,457;17566,098;    1,365;    0,318
870,017;17879,976;    0,547;   -1,227
870,578;18355,580;   -0,817;    0,773
871,138;18028,821;   -2,089;   -0,955
871,698;17586,608;   -0,817;   -1,318
872,258;17482,121;   -0,453;   -2,864
872,818;17841,999;    2,729;    0,045
873,378;17838,058;    0,638;    1,045
873,938;17361,026;    0,547;    0,500
874,498;17697,176;    0,274;   -1,955
875,058;17573,417;    2,183;    1,773
875,618;17424,749;    1,910;   -2,682
876,177;17353,626;    1,274;    0,136
876,737;16973,685;   -0,090;    1,955
877,297;16940,654;    0,183;    1,955
877,856;16917,895;   -0,362;    0,318
878,416;16902,408;    1,183;   -0,136
878,976;17169,013;   -1,817;    0,409
879,535;17348,163;    0,092;    3,136
880,095;17080,586;   -0,544;    0,045
880,654;17165,827;   -1,090;    1,318
881,213;17250,431;    2,456;    1,500
881,773;16957,945;    2,637;    2,682
882,332;17283,550;    3,365;    5,136
882,891;17119,972;    3,092;    2,136
883,451;17589,395;   -1,272;    1,682
884,010;17047,000;   -2,908;   -0,409
884,569;17130,877;   -0,999;   -0,045
885,128;17267,027;    2,819;   -1,864
885,687;17333,268;    4,455;    0,682
886,246;17024,145;    1,455;    2,136
886,805;16790,477;    2,455;    2,045
887,364;17126,536;   -0,999;   -0,500
887,922;17469,141;   -1,181;    0,045
888,481;16910,473;   -1,545;    0,591
889,040;17217,896;    1,183;    2,136
889,599;17926,955;    2,455;    1,409
890,157;17999,559;    1,455;    2,409
890,716;17667,437;   -0,090;    0,227
891,274;17478,859;    0,092;   -1,136
891,833;17933,191;    1,546;    0,864
892,391;17820,341;   -0,454;    0,500
892,950;17886,946;    1,819;   -0,773
893,508;18253,823;    0,455;   -0,409
894,067;17577,610;    0,637;    0,136
894,625;17482,487;   -0,636;   -1,500
895,183;17749,455;   -0,363;   -0,682
895,741;17596,514;    1,728;   -1,773
896,299;17502,483;   -0,545;   -2,409
896,858;17679,178;    0,819;   -1,591
897,416;17810,874;    2,728;   -1,318
897,974;17548,205;    1,819;    0,318
898,532;17659,992;    6,091;    2,682
899,089;17550,596;    2,091;   -0,682
899,647;17611,110;   -1,454;    1,318
900,205;17308,897;    1,182;    1,045
900,763;17530,228;   -0,454;    0,227
901,321;17525,651;    2,364;   -1,409
901,878;16976,165;   -1,000;   -0,773
902,436;16861,679;   -1,363;    1,318
902,994;17194,192;    4,728;    3,682
903,551;16625,797;    0,728;    0,409
904,109;17043,038;    0,182;   -1,409
904,666;16650,279;    2,455;    1,045
905,224;16440,247;    0,182;   -0,409
905,781;16160,215;    0,727;   -0,318
906,338;16289,729;   -1,363;    1,045
906,895;16182,697;    0,637;    2,045
907,453;16124,120;    1,727;    1,136
908,010;16153,452;   -0,909;    0,409
908,567;15820,511;    1,273;    0,591
909,124;15321,025;    0,364;   -1,500
909,681;15386,629;   -2,909;    0,682
910,238;15555,688;    0,636;   -1,318
910,795;15840,202;   -0,273;   -1,136
911,352;15457,838;   -2,909;   -2,682
911,909;14848,838;   -1,364;   -0,864
912,466;15371,747;   -3,182;    1,500
913,022;14937,202;   -1,636;    0,500
913,579;15308,929;   -0,909;    2,045
914,136;14986,657;    1,636;    0,955
914,692;15290,384;    0,091;   -1,227
915,249;14910,929;    1,455;    0,409
915,806;15142,384;    0,182;    1,955
916,362;14858,202;    1,909;    1,864
916,918;14428,657;    2,000;    1,045
917,475;14395,293;   -1,182;    0,955
918,031;14462,384;    3,364;   -0,045
918,587;13914,293;   -0,909;   -0,318
919,144;14166,293;   -2,273;    0,227
919,700;14461,293;    1,727;    0,773
920,256;14058,929;    0,727;    0,045
920,812;13705,929;   -0,727;   -1,045
921,368;13676,838;   -1,727;   -1,045
921,924;13295,293;    0,182;   -0,136
922,480;12875,293;   -0,545;    1,227
923,036;13482,384;    1,273;    1,955
923,592;13437,566;    0,455;    0,318
924,148;13336,202;    0,455;   -0,955
924,704;12621,747;   -1,364;   -0,409
925,259;12892,475;   -0,273;    0,591
925,815;12642,020;    1,455;    0,500
926,371;12184,202;    2,909;    1,409
926,926;12051,475;    2,091;    0,591
927,482;11664,747;   -1,364;    0,773
928,037;11542,475;    0,909;    2,045
928,593;11813,020;    1,636;    1,045
929,148;11633,566;   -1,818;   -1,500
929,704;11129,747;   -1,455;   -0,500
930,259;11344,202;    0,091;   -0,136
930,814;10405,202;   -0,818;    1,955
931,369;10095,838;    1,091;   -0,773
931,925; 9966,657;   -0,091;    0,136
932,480; 9872,293;   -2,818;   -2,591
933,035; 9722,475;    0,545;   -0,318
933,590; 9478,475;    0,364;   -1,773
934,145; 9114,384;   -1,364;   -0,318
934,700; 9490,202;    0,455;   -0,591
935,255; 9299,747;   -0,091;    0,045
935,809; 8515,020;    3,182;    0,864
936,364; 7653,384;   -0,455;   -0,136
936,919; 7615,747;    0,455;   -1,773
937,474; 7516,838;    1,455;    0,136
938,028; 7282,020;   -1,636;    1,136
938,583; 6703,657;    1,818;    4,682
939,138; 6991,566;    2,091;    2,136
939,692; 6430,657;    1,636;   -1,136
940,247; 6116,747;   -0,727;   -1,045
940,801; 5674,293;   -0,636;    0,227
941,355; 5556,293;   -0,364;    2,591
941,910; 5206,657;   -0,273;   -2,136
942,464; 5319,020;   -0,818;   -0,318
943,018; 5093,747;    1,000;   -0,227
943,572; 5048,838;    2,545;   -0,682
944,126; 4457,111;    0,091;   -0,409
944,681; 4340,566;    3,091;    0,227
945,235; 4316,293;    1,000;   -0,591
945,789; 4270,929;    0,364;   -1,864
946,342; 4338,929;    0,455;   -0,591
946,896; 4158,384;   -2,273;    0,955
947,450; 3919,384;    1,545;   -0,227
948,004; 4085,293;    1,727;   -0,045
948,558; 4108,293;    0,273;   -0,864
949,111; 4017,475;   -0,273;   -0,318
949,665; 4036,384;    1,636;   -0,682
950,219; 3915,202;   -0,091;   -1,045
950,772; 3995,657;   -1,909;    1,864
951,326; 3895,202;    0,545;   -0,955
951,879; 4012,747;    0,727;   -2,318
952,433; 4033,566;    0,000;    2,227
952,986; 3858,838;    2,909;    0,682
953,539; 3824,384;   -0,273;    0,591
954,093; 3754,384;    0,545;   -1,318
954,646; 3877,020;    0,909;    1,318
955,199; 3687,111;    0,000;   -0,500
955,752; 3584,384;   -0,455;    1,773
956,305; 3539,747;   -0,091;    2,955
956,858; 3690,657;    0,818;   -0,318
957,411; 3852,111;   -0,545;    2,136
957,964; 3702,747;    1,364;    2,136
958,517; 3691,293;   -1,545;    3,136
959,070; 3529,020;   -0,455;    1,955
959,623; 3591,111;    1,091;    1,500
960,176; 3371,293;    1,727;    2,045
960,728; 3347,657;   -2,727;    0,773
961,281; 3394,384;    0,545;    0,500
961,834; 3456,657;   -0,909;    0,864
962,386; 3377,293;    1,727;    1,045
962,939; 3284,657;    0,364;   -0,318
963,491; 3419,384;    0,455;    1,136
964,043; 3293,384;    1,182;    2,409
964,596; 3421,202;   -1,000;    2,227
965,148; 3260,929;   -1,000;    1,773
965,700; 3187,747;    1,091;   -0,227
966,253; 3327,566;   -0,636;    0,318
966,805; 3146,929;   -2,273;    0,773
967,357; 3212,747;    1,091;   -1,500
967,909; 3156,111;    0,455;   -1,227
968,461; 3277,384;    0,545;    3,136
969,013; 3215,020;   -0,182;   -0,864
969,565; 3307,475;   -0,455;   -1,136
970,117; 3351,293;   -0,364;    1,045
970,669; 3182,111;    0,182;   -0,136
971,220; 3069,566;   -0,455;   -1,500
971,772; 2986,475;   -0,636;   -0,318
972,324; 3107,475;    0,091;   -0,500
972,876; 3061,202;    0,818;   -0,045
973,427; 3203,293;    1,909;   -1,045
973,979; 3168,747;   -0,727;   -2,500
974,530; 3207,657;    1,818;    1,318
975,082; 3207,111;   -0,545;    1,682
975,633; 3105,384;    1,091;    1,682
976,184; 3233,929;    0,909;    0,773
976,736; 3021,293;    0,091;    0,227
977,287; 2817,475;   -0,909;   -0,500
977,838; 3008,202;    0,909;   -0,318
978,389; 3058,111;   -1,000;   -0,500
978,940; 2958,293;    0,545;   -0,409
979,491; 2980,657;    0,091;   -0,500
980,042; 2943,747;    0,182;    3,045
980,593; 3003,020;   -2,545;    0,227
981,144; 3038,838;    2,545;   -0,500
981,695; 2989,475;    1,455;    1,500
982,246; 2954,293;   -0,273;    1,045
982,797; 3123,293;   -1,727;    0,682
983,347; 3229,566;    0,364;    0,591
983,898; 3380,566;    3,091;    0,409
984,449; 3219,202;    2,182;    0,773
984,999; 3134,475;    1,455;   -1,136
985,550; 2904,111;    0,182;   -0,318
986,100; 2949,111;   -0,455;   -0,318
986,651; 2987,838;   -0,818;    0,045
987,201; 2959,747;   -1,000;   -0,591
987,751; 3048,475;    0,818;    2,864
988,302; 3025,020;    2,636;    1,500
988,852; 3047,384;    0,455;   -1,136
989,402; 3073,020;    0,091;    0,682
989,952; 2996,020;   -2,182;    0,864
990,502; 3111,838;   -0,091;    0,682
991,052; 3087,747;   -0,727;    0,045
991,602; 2945,657;   -2,909;    1,318
992,152; 2951,747;    0,455;    0,682
992,702; 2916,020;    1,364;   -0,045
993,252; 2844,202;   -3,000;   -0,500
993,802; 2927,020;   -0,273;    1,318
994,352; 3173,747;   -1,545;    1,136
994,901; 3277,020;   -0,182;    3,227
995,451; 3185,384;   -0,182;    0,318
996,000; 3274,657;    1,636;    0,318
996,550; 2990,747;    2,273;    0,227
997,100; 2990,929;    1,273;   -0,045
997,649; 3255,747;    2,182;    0,955
998,198; 2904,202;    1,727;   -1,500
998,748; 3087,838;    1,091;   -2,318
999,297; 3018,657;   -0,818;   -0,409
999,846; 3070,020;    1,000;   -0,773
1000,395; 3116,747;   -0,818;    0,500
1000,945; 3059,929;    1,818;   -0,773
1001,494; 3153,384;    2,364;    0,682
1002,043; 3129,475;    4,636;    0,864
1002,592; 2995,475;   -1,091;    1,955
1003,141; 3160,747;   -0,455;   -0,682
1003,690; 2999,566;    1,727;    0,500
1004,238; 3079,657;    1,455;   -0,045
1004,787; 2704,475;    1,364;    1,227
1005,336; 2931,384;    0,364;    0,682
1005,885; 3080,384;    1,364;   -2,773
1006,433; 3234,838;    0,545;    0,955
1006,982; 3279,293;    0,455;    1,682
1007,531; 3210,293;   -1,818;   -0,227
1008,079; 3153,293;   -2,273;    0,500
1008,627; 3297,384;   -1,455;    0,409
1009,176; 3036,929;    0,000;   -1,955
1009,724; 3095,293;    1,091;    0,864
1010,273; 3125,929;    1,273;    0,500
1010,821; 3245,020;    0,091;    1,409
1011,369; 2972,293;   -1,364;    1,318
1011,917; 2963,657;   -1,364;   -0,591
1012,465; 3246,838;    1,273;   -1,591
1013,013; 3362,747;    2,091;   -1,682
1013,561; 3227,202;    0,455;   -0,773
1014,109; 3267,111;   -1,909;    1,682
1014,657; 3150,020;    0,364;    0,591
1015,205; 3284,384;    1,636;   -0,955
1015,753; 3326,475;   -0,545;   -1,409
1016,301; 3371,566;   -2,636;    3,045
1016,848; 3366,475;   -1,273;    0,409
1017,396; 3407,202;    2,545;    0,045
1017,944; 3519,202;    1,182;    1,864
1018,491; 3286,566;    0,273;    1,409
1019,039; 3426,838;    0,455;    0,591
1019,586; 3362,020;   -1,364;    1,682
1020,134; 3460,566;    0,455;    1,500
1020,681; 3479,475;    0,182;   -1,136
1021,228; 3504,020;    2,909;   -2,227
1021,776; 3326,566;    1,182;   -1,136
1022,323; 3536,657;    0,455;    0,773
1022,870; 3470,475;   -1,000;   -0,045
1023,417; 3369,384;    2,636;    1,864
1023,964; 3527,566;    2,636;    1,227
1024,511; 3368,566;    1,000;    0,773
1025,058; 3162,929;    3,182;   -0,045
1025,605; 3224,293;   -2,273;    3,136
1026,152; 3428,293;    1,727;   -0,591
1026,699; 3150,293;    1,818;    1,318
1027,245; 3335,202;   -0,091;    0,318
1027,792; 3572,747;   -1,000;    1,409
1028,339; 3401,475;    2,364;   -0,045
1028,885; 3269,293;    1,000;   -0,227
1029,432; 3215,566;   -0,091;    0,227
1029,978; 3274,747;   -1,000;   -1,591
1030,525; 3183,475;    1,000;    0,409
1031,071; 3451,475;   -1,364;    1,136
1031,618; 3515,566;    0,364;    1,682
1032,164; 3302,475;   -0,091;    3,045
1032,710; 3368,838;    1,636;   -1,500
1033,256; 3273,293;   -0,636;   -0,136
1033,803; 3254,293;   -0,545;    1,500
1034,349; 2990,384;   -1,364;    0,136
1034,895; 3149,475;    0,000;   -0,318
1035,441; 3128,838;   -0,818;    0,318
1035,987; 3123,111;   -2,364;   -0,682
1036,533; 3117,111;   -1,455;   -0,955
1037,078; 3309,566;    1,455;    1,682
1037,624; 3131,475;    2,455;   -0,955
1038,170; 3174,838;    0,455;   -0,318
1038,716; 3068,566;    1,636;   -0,409
1039,261; 2995,566;   -2,273;   -0,773
1039,807; 2937,111;   -0,091;    3,409
1040,352; 2992,202;   -1,909;   -0,318
1040,898; 3045,566;   -1,545;   -0,682
1041,443; 2949,929;   -1,455;   -2,591
1041,989; 2944,929;    1,091;    1,591
1042,534; 2845,747;   -0,364;    2,591
1043,079; 2980,929;    2,909;    0,955
1043,625; 2744,566;    1,818;    0,500
1044,170; 2795,475;   -1,364;    1,045
1044,715; 3044,566;    2,455;    0,955
1045,260; 2863,020;    2,182;   -0,955
1045,805; 2930,657;    1,182;   -0,591
1046,350; 2859,475;    1,364;   -0,409
1046,895; 2797,293;    2,909;    1,591
1047,440; 2751,475;    5,364;    0,409
1047,985; 2680,929;    2,818;   -0,955
1048,530; 2576,747;    1,545;    1,227
1049,074; 2630,929;    0,000;    0,318
1049,619; 2628,747;   -1,364;    1,955
1050,164; 2421,838;    0,455;    0,227
1050,708; 2466,020;   -0,455;    0,045
1051,253; 2807,929;    1,273;   -2,227
1051,797; 2508,111;    0,818;   -1,318
1052,342; 2545,293;   -1,182;    1,045
1052,886; 2541,293;    0,364;   -1,409
1053,430; 2421,202;   -1,364;    0,136
1053,975; 2433,384;   -0,818;   -0,318
1054,519; 2415,929;   -0,727;    3,227
1055,063; 2411,747;    0,909;    1,318
1055,607; 2289,293;   -0,182;    0,227
1056,151; 2329,566;    2,909;    1,682
1056,695; 2236,020;    2,273;   -1,136
1057,239; 2327,475;   -1,727;   -0,682
1057,783; 2322,202;    0,818;   -1,500
1058,327; 2261,020;    0,000;    1,409
1058,871; 2476,475;   -0,545;    1,318
1059,415; 2183,747;   -0,818;   -0,045
1059,958; 2443,929;    1,455;    2,591
1060,502; 2172,020;   -1,000;   -0,773
1061,046; 2082,111;    0,364;   -0,955
1061,589; 2047,566;   -3,000;   -1,136
1062,133; 1951,657;   -1,273;    1,864
1062,676; 1878,838;    1,182;    0,864
1063,220; 1875,475;    1,091;    0,500
1063,763; 1894,566;    0,909;    1,136
1064,306; 1982,657;   -0,909;    1,864
1064,849; 1863,020;   -0,909;    0,591
1065,393; 1866,475;    2,000;   -1,500
1065,936; 1979,293;    0,182;   -0,409
1066,479; 1870,475;   -1,455;    1,318
1067,022; 1886,202;   -0,273;   -0,227
1067,565; 1794,747;   -0,091;   -1,318
1068,108; 1826,566;    0,727;   -0,591
1068,651; 1798,475;   -0,636;    1,409
1069,194; 1730,111;   -0,455;   -1,682
1069,736; 1720,111;   -1,273;    0,955
1070,279; 1703,020;   -1,364;   -0,500
1070,822; 1739,929;   -2,000;   -0,318
1071,364; 1807,475;   -0,364;    1,318
1071,907; 1663,111;   -0,727;    3,227
1072,450; 1563,111;    0,000;   -0,045
1072,992; 1537,657;   -0,273;    3,136
1073,535; 1682,293;    2,091;    2,136
1074,077; 1482,657;   -0,727;    2,045
1074,619; 1446,657;   -1,364;    0,591
1075,161; 1472,111;   -1,091;    1,500
1075,704; 1641,293;    1,545;    1,227
1076,246; 1462,747;   -0,182;    0,682
1076,788; 1392,747;   -0,364;    1,773
1077,330; 1466,929;    1,273;    2,136
1077,872; 1417,566;    0,909;    0,955
1078,414; 1635,475;    2,727;    0,773
1078,956; 1369,929;    1,273;   -0,227
1079,498; 1624,111;    1,636;    0,318
1080,040; 1336,293;    1,909;   -1,318
1080,581; 1286,475;    1,636;   -0,318
1081,123; 1219,202;    0,091;   -0,773
1081,665; 1262,566;   -1,182;   -0,955
1082,206; 1542,384;    1,364;   -0,500
1082,748; 1398,111;    0,727;    2,045
1083,289; 1282,293;   -2,000;    1,318
1083,831; 1187,747;   -0,545;    0,227
1084,372; 1229,202;    0,000;    0,591
1084,913; 1224,475;    1,091;    0,864
1085,455; 1195,747;   -1,909;   -2,045
1085,996; 1165,111;   -2,273;    0,136
1086,537; 1179,566;   -0,091;    0,864
1087,078; 1208,111;   -0,909;   -2,136
1087,619; 1251,293;   -1,273;    0,227
1088,160; 1173,111;    0,000;    1,318
1088,701; 1167,566;   -1,091;    0,682
1089,242; 1103,838;    1,364;   -2,227
1089,783; 1187,202;   -0,273;    1,409
1090,324; 1147,747;    0,455;    0,682
1090,865; 1045,202;    2,727;   -0,409
1091,405; 1017,384;    0,727;    2,227
1091,946; 1046,384;    0,182;   -0,955
1092,487;  964,111;    0,818;   -1,409
1093,027; 1132,384;   -1,364;   -1,500
1093,568;  982,202;   -0,364;    1,227
1094,108; 1074,293;    0,273;    1,773
1094,649; 1007,929;   -1,182;    0,136
1095,189;  958,838;   -0,636;   -0,682
1095,729;  893,566;   -0,091;    0,955
1096,269;  907,384;    0,727;   -0,955
1096,810; 1211,747;   -1,364;    0,500
1097,350; 1036,929;    1,364;   -0,773
1097,890;  947,747;    0,364;    1,227
1098,430; 1193,384;    2,364;    2,864
1098,970; 1067,747;    2,182;    1,682
1099,510;  935,657;    0,545;   -2,318
1100,050;  852,111;    1,000;   -1,591
1100,589;  824,384;   -0,727;   -0,318
1101,129;  939,747;    0,818;   -0,955
1101,669; 1091,020;    1,727;    2,136
1102,209;  920,838;   -0,091;    2,227
1102,748;  867,293;    0,000;    0,955
1103,288;  863,020;    1,273;   -1,227
1103,827;  892,838;    3,091;   -2,227
1104,367;  776,566;   -0,091;   -2,409
1104,906;  731,566;    1,364;   -1,136
1105,445;  799,020;    0,636;   -1,136
1105,985;  743,475;   -0,727;    1,500
1106,524;  796,657;   -1,727;   -0,682
1107,063;  764,020;   -2,727;    1,409
1107,602;  757,020;   -1,909;   -1,500
1108,141;  670,747;   -1,909;    1,500
1108,680;  757,929;   -3,455;   -0,591
1109,219;  704,657;   -0,909;   -0,500
1109,758;  703,929;    0,455;    0,682
1110,297;  664,747;    1,000;   -0,682
1110,836;  613,475;   -0,727;    0,955
1111,375;  780,929;   -2,545;    0,409
1111,913;  782,384;   -1,000;    0,773
1112,452;  727,657;   -0,273;    0,136
1112,991;  615,566;    1,091;    1,955
1113,529;  565,202;   -0,818;   -0,045
1114,068;  636,657;   -0,273;    2,955
1114,606;  545,747;   -0,364;   -0,955
1115,144;  704,475;   -1,273;    1,045
1115,683;  634,838;   -0,727;    0,318
1116,221;  681,747;   -0,455;   -0,864
1116,759;  595,747;    0,636;   -0,864
1117,297;  791,384;    0,000;    1,864
1117,836;  596,293;   -2,182;   -1,227
1118,374;  605,838;    0,182;   -0,682
1118,912;  548,020;    0,909;    2,682
1119,450;  536,929;    1,000;    0,864
1119,988;  586,111;    1,545;    2,136
1120,525; 1042,747;    5,091;    3,318
1121,063;  729,838;    1,182;    1,864
1121,601;  539,657;   -0,909;   -1,227
1122,139;  507,202;   -0,727;   -2,045
1122,676;  695,747;   -0,727;    2,773
1123,214;  629,384;   -1,182;    4,409
1123,751;  448,475;    1,727;    2,227
1124,289;  580,747;   -0,091;   -0,409
1124,826;  446,384;    1,727;    0,227
1125,364;  358,566;    1,727;   -0,955
1125,901;  546,747;    1,182;    1,227
1126,438;  657,384;    0,818;    0,955
1126,975;  388,475;   -0,727;   -0,773
1127,513;  451,202;    0,273;    2,136
1128,050;  363,566;    1,636;   -0,682
1128,587;  467,929;    2,000;   -0,227
1129,124;  506,747;    0,091;    1,318
1129,661;  375,566;    0,273;    0,227
1130,198;  533,384;    1,636;    0,773
1130,734;  488,384;    0,182;    1,409
1131,271;  348,293;   -0,909;    0,864
1131,808;  514,475;    2,909;    3,045
1132,345;  389,020;    1,545;    0,318
1132,881;  258,384;   -1,545;   -1,864
1133,418;  386,202;    0,727;   -1,136
1133,954;  331,657;    2,455;   -2,682
1134,491;  406,475;    1,364;   -0,773
1135,027;  314,475;    2,364;    0,864
1135,564;  397,657;    0,273;    2,955
1136,100;  379,020;    0,364;    2,136
1136,636;  269,566;   -1,273;   -1,045
1137,172;  363,202;    0,000;   -1,045
1137,708;  292,202;   -1,364;   -1,045
1138,245;  284,293;    1,273;   -1,227
1138,781;  234,020;    1,091;   -3,318
1139,317;  310,111;    1,273;   -1,409
1139,852;  295,747;    3,091;    0,136
1140,388;  414,838;   -1,182;   -0,409
1140,924;  288,929;   -1,091;   -2,227
1141,460;  241,202;   -1,636;    0,136
1141,996;  162,293;   -1,364;    2,682
1142,531;  210,020;    1,364;    3,318
1143,067;  429,202;    1,182;    1,045
1143,602;  485,111;   -0,091;   -0,318
1144,138;  331,929;   -2,636;    1,045
1144,673;  204,202;   -1,455;    1,409
1145,209;  267,020;   -1,909;   -0,318
1145,744;  193,929;   -0,727;    0,864
1146,279;  322,020;    1,818;   -0,136
1146,815;  237,929;    1,545;   -2,682
1147,350;  286,020;   -1,364;    0,045
1147,885;  195,293;   -0,818;   -1,318
1148,420;  190,111;   -2,273;    0,773
1148,955;  173,111;   -1,727;    1,864
1149,490;  201,929;   -0,909;   -1,591
1150,025;  176,657;    0,455;   -1,773
1150,560;  289,929;    1,091;   -0,955
1151,094;  255,293;    1,455;   -0,591
1151,629;  257,747;    1,636;    0,864
1152,164;  190,202;    1,364;    1,318
1152,698;  147,657;   -0,182;   -0,136
1153,233;  108,566;    0,091;   -0,682
1153,767;  160,111;   -3,000;   -2,318
1154,302;  204,929;   -1,455;    1,773
1154,836;  198,838;   -0,455;   -2,136
1155,371;  259,020;   -1,364;    3,682
1155,905;  204,293;   -0,636;    1,682
1156,439;  170,929;   -0,636;   -0,500
1156,973;  201,657;    0,364;    0,318
1157,507;  141,202;   -0,364;    0,682
1158,042;  166,293;   -0,727;    1,045
1158,576;  213,838;    0,182;    1,773
1159,110;  202,747;   -0,818;    2,409
1159,643;  179,838;    0,636;   -0,045
1160,177;  118,657;   -1,545;    1,500

